TT I
1.2716486653135266 8.17298
1.2939594142134223 7.6802600000000005
1.3162702121660406 7.11124
1.3385810600174564 7.36406
1.3608919586137629 7.60388
1.383202908801069 6.98557
1.405513911425503 6.3572
1.4278249673332093 7.24218
1.4501343378461518 7.07216
1.4724455028545926 6.604369999999999
1.4947567236847858 6.29476
1.517068001182951 6.47164
1.5393793361953272 6.21441
1.5616907295681737 5.977930000000001
1.5840021821477681 5.96197
1.60631369478041 5.9966099999999996
1.6286252683124185 6.25375
1.6509369035901333 5.28871
1.6732468618895553 5.50633
1.695558623192809 5.561030000000001
1.7178704487808514 5.7615099999999995
1.7401823395001077 5.60684
1.7625012545597203 5.33396
1.7848028405262486 5.50799
1.8071218901122095 5.313280000000001
1.8294236121921872 4.971369999999999
1.8517427996910911 5.15145
1.8740620574440425 5.31179
1.8963639900671978 4.8337
1.9186833908139995 5.600280000000001
1.9409854680117449 5.72694
1.9633050151394713 5.46132
1.9856246367570705 5.130269999999999
2.0079269371922672 5.31385
2.03024671027244 4.89294
2.0525491637446027 4.57598
2.074869091674931 4.92321
2.097171701569106 4.284269999999999
2.1194917877373847 4.91601
2.141811954326636 4.89794
2.164114805233074 4.7831
2.186435135143035 5.01025
2.208738150935709 4.84901
2.231058647554722 4.40077
2.2533792288321184 4.069319999999999
2.275682498336085 3.9782800000000003
2.298003251406138 3.84637
2.3203066942619714 3.94262
2.3426276225136022 3.89837
2.3649486396617507 4.0290099999999995
2.387252348930071 4.01727
2.4095735463442893 4.1163099999999995
2.4318774374315884 3.8325400000000003
2.4541988185014043 3.5494199999999996
2.476502894794693 4.54625
2.498824462909887 4.037059999999999
2.521146125856138 4.5204699999999995
2.5434504863470337 3.9976300000000005
2.5657723414244717 4.48531
2.588076895590662 4.54322
2.610398946189713 5.18872
2.6327210958598384 4.68998
2.6550259469304716 5.2088
2.6773482972090137 4.94059
2.6996533504259 4.69085
2.7219759047039602 5.261909999999999
2.744298562293959 5.20712
2.7666039251246595 5.62933
2.7889267918020164 6.29735
2.8112323652516555 5.58076
2.833555444408179 6.06085
2.8558786311183852 6.60549
2.8781845268938557 7.636660000000001
2.9005079311721484 8.02337
2.9228140460410397 8.0449
2.9451376712799635 8.52477
2.967444008632326 8.98333
2.9897678582247247 9.546330000000001
3.0120918213106695 9.767660000000001
3.0343984987899373 10.442
3.0567226913198637 10.3491
3.079029599759726 11.0324
3.101354025127254 12.1339
3.123678568232338 12.1498
3.145985829517914 12.3839
3.16831061055229 13.5224
3.1906181112775593 13.4622
3.212943133635653 14.3931
3.2352682779763207 15.0398
3.2575761442691227 15.0757
3.2799015350264273 15.4415
3.302209649240067 15.9589
3.3245352898092655 16.0939
3.3468436553365257 17.1666
3.369169549113219 17.0525
3.3914955708171384 18.0589
3.413804319727358 18.4072
3.4361305997334863 18.3794
3.4584396084414553 19.0626
3.4807661501462652 19.9112
3.503092824025881 20.2399
3.5254022288463154 20.248
3.5477291695206588 20.6508
3.5700388426251948 20.7994
3.5923660534916446 21.1431
3.6146934007816114 21.6952
3.637003482731501 22.3349
3.6593311053109985 22.9722
3.681641464033634 22.515
3.7039693653009733 22.9595
3.726297407241705 24.0444
3.7486081875460804 23.9199
3.7709365132734978 24.6607
3.793247578841633 24.8926
3.8155761917550093 24.8877
3.8378875459837216 25.4093
3.8602164494827234 26.2038
3.882545499606844 26.7111
3.9048572932539183 27.1019
3.9271866390645718 27.7256
3.9494987298666713 28.0225
3.971828374764527 28.6731
3.9941581705403255 28.9069
4.016470713506008 29.1146
4.038800813471445 30.230999999999998
4.061113662089144 30.658
4.0834440696459176 31.6095
4.105774632334751 31.659000000000002
4.128087945865126 32.2045
4.150418821249301 32.6247
4.172732448931298 33.3751
4.195063640413578 34.0853
4.2173775856475215 35.0332
4.239709096631102 35.3167
4.262040768704612 35.3671
4.284355196706267 36.1625
4.306687193387355 36.9536
4.329001947444346 38.5189
4.35133427213731 39.1631
4.373666762177566 40.1277
4.395982011761091 40.645
4.418314834921175 41.7888
4.44063041906622 42.5087
4.4629635787515625 43.1658
4.4852969080429785 44.2373
4.5076130004776225 45.6343
4.529946671403969 46.306999999999995
4.552263106909177 47.0527
4.574597122877047 48.2033
4.596931312711224 49.5235
4.619248269273446 50.6941
4.6415828092605835 52.0665
4.663900117405352 52.7788
4.686235010953232 54.4167
4.708552674085913 56.1261
4.730887924602802 57.5187
4.753223354952695 59.0587
4.775541557023902 60.0511
4.797877349456786 61.7803
4.820195915032126 63.8488
4.842532072957498 65.2618
4.864868414979744 67.5136
4.88718753227192 69.9356
4.909524244902505 72.3377
4.931843734218147 75.4611
4.954180820867835 78.8999
4.976518095879839 83.1537
4.998838149695359 86.9471
5.021175803844231 91.8425
5.043496238205739 97.1507
5.065834274903528 104.054
5.088172504230693 112.492
5.1104935158799565 122.46700000000001
5.132832132875765 139.385
5.155153533596801 167.02700000000002
5.1774925416746225 234.956
5.199814334878411 638.918
5.2221537374521505 2147.7
5.244493338631803 3784.27
5.266815727034316 4733.02
5.289155727832427 6933.6
5.311478517248165 9121.32
5.333818921080011 6812.65
5.356159527788849 2511.75
5.3784829252032536 627.049
5.400823940070432 257.698
5.423147747031976 181.922
5.445489173474152 151.089
5.467830807066149 134.80200000000002
5.490155234831516 125.34299999999999
5.512497285125229 118.12799999999999
5.534822130975162 114.119
5.557164601388673 110.385
5.579489868738879 106.30799999999999
5.601832762690846 103.39200000000001
5.6241758697774475 101.449
5.646501775867269 100.68799999999999
5.668845311622074 99.2835
5.691171647754637 98.6912
5.713515615597765 97.59
5.735859800852677 96.8679
5.758186788542988 96.1672
5.780531411018185 96.839
5.802858837297399 96.988
5.825203900414495 97.2671
5.8475491852224 98.8958
5.869877275883075 101.074
5.892223006467101 105.029
5.914551544266608 109.694
5.936897724049891 118.146
5.959244129804903 132.657
5.981573344815301 170.768
6.0039202049061 325.10400000000004
6.026249875609095 820.3480000000001
6.04859719346037 1426.77
6.070927323278297 1781.35
6.093275102315365 2287.18
6.115623113320588 3289.92
6.137953938319995 3863.25
6.160302415650845 2448.95
6.182633708324452 889.799
6.2049826554078376 277.717
6.227331838745022 140.422
6.249663839443684 107.92200000000001
6.27201349767565 93.8106
6.294345974611799 86.3035
6.316696111167083 80.5922
6.339046488263839 76.5987
6.361379686074702 73.2506
6.383730546639482 70.7019
6.406064229255215 68.8202
6.428415576718203 67.7537
6.450749747566656 66.3939
6.47310158535871 64.7095
6.495453669698332 63.9114
6.517788579421056 62.87
6.540141159237969 61.6344
6.562476565766648 60.9886
6.5848296444934045 60.6038
6.607182974060425 59.8489
6.6295191323281015 59.5686
6.651872965955752 58.6255
6.6742096296068985 57.7494
6.6965639707294615 57.4252
6.71891856698715 56.7717
6.741255995248479 56.2434
6.763611104154477 56.0835
6.785949046381137 55.6523
6.808304671371482 55.0719
6.8306605557940046 54.8745
6.852999275508618 54.2925
6.875355681171544 53.9074
6.897694923437771 53.801
6.92005185377892 53.6624
6.9423916220322655 53.641999999999996
6.964749080490181 52.7841
6.987106804399774 52.8292
7.009447368180821 52.5518
7.031805625367033 52.2044
7.054146723727803 52.2364
7.076505517631004 52.1613
7.098864581288365 51.7526
7.121206488070854 51.7408
7.143566093607822 51.3652
7.165908543567245 51.7403
7.188268694426048 51.4964
7.2106291193438095 50.8257
7.232972390625943 51.3367
7.255333366030969 51.0971
7.277677189091925 51.1744
7.300038718428332 51.2239
7.322400526130865 51.0682
7.344745183422596 51.5343
7.367107550224791 51.516999999999996
7.389452767901992 51.7498
7.411815697249891 51.6541
7.434161478756298 50.8304
7.456524974096713 51.3061
7.478888753837185 51.52
7.501235387657368 52.6903
7.523599738562711 57.4687
7.545946944825532 67.5585
7.568311870344528 71.88600000000001
7.5906770845765665 65.4399
7.613025156078678 57.3992
7.635390950099687 54.3458
7.657739602662809 53.3118
7.680105979923558 52.9173
7.702472650212829 53.1018
7.724822180948224 53.3332
7.747189439655568 53.4057
7.769539560075357 53.553999999999995
7.791907410653562 54.2101
7.81425812420825 54.0361
7.836626570110925 54.7689
7.858995315087906 55.1277
7.881346924933401 55.5138
7.903716270417482 55.919
7.926068482028405 56.3184
7.948438431475253 57.0062
7.9708086843180235 57.5645
7.993161805171116 57.8819
8.015532667162402 58.3339
8.037886398416653 59.263000000000005
8.060257873014221 59.744
8.082629655331942 60.1683
8.104984308787587 61.0541
8.127356708900503 61.6243
8.149711981398308 62.8103
8.172085002766314 63.6191
8.194458336181368 64.5079
8.216814543847752 65.5536
8.23918850371002 67.0208
8.26154533906492 68.6869
8.283919928836452 70.5003
8.306277395339652 71.3678
8.328652618483376 72.9767
8.351028159736202 75.0624
8.373386579575245 78.0487
8.395762759396959 80.2656
8.418121819038275 83.9039
8.440498640894003 88.8334
8.462875785192262 97.5697
8.485235811156207 114.633
8.507613602688501 184.435
8.529974277114228 394.582
8.552352719347912 638.7819999999999
8.574731488360351 772.5060000000001
8.59709314210385 783.095
8.619472567021075 896.084
8.64183487789147 1228.07
8.664214962183097 1722.42
8.686577933647762 1742.66
8.708958680784317 1161.47
8.731339760774953 538.68
8.753703729764451 213.98
8.77608547780821 125.95700000000001
8.798450116065078 108.012
8.820832535634787 99.2786
8.843215292401656 94.9239
8.865580941199045 91.8463
8.887964374703538 89.1922
8.910330701447199 87.7571
8.932714815164482 86.45
8.955099270424924 84.713
8.977466620733543 83.9471
8.999851761421976 83.3021
9.022219798361645 82.6464
9.04460562795561 82.4845
9.066991803441677 82.1453
9.089360876979615 81.6357
9.111747746589993 81.1403
9.13411751544971 80.9328
9.156505082664324 80.4863
9.178875550323522 81.1008
9.20126381862328 82.3711
9.223652438908596 90.2777
9.246023961427412 105.41
9.26841328802173 111.54
9.290785518039224 103.465
9.313175554425882 91.7631
9.335565947154315 84.1467
9.357939245086508 81.9709
9.380330352834827 81.0462
9.40270436697103 81.1321
9.425096193225055 81.1055
9.447488380180165 81.9418
9.469863475295412 82.2905
9.492256385987508 82.4733
9.514632206018318 83.2637
9.537025843935714 83.4434
9.559402392368193 84.0945
9.581796761000229 85.2396
9.604191496441521 85.1168
9.626569144158516 86.0057
9.648964615551032 86.8291
9.671343000390081 87.4058
9.693739211225699 88.4092
9.716135793237463 89.5303
9.738515290448102 90.4927
9.760912617143402 91.5916
9.783292860202891 92.8834
9.805690935076182 94.564
9.828089385495742 95.7383
9.850470754023561 98.1255
9.872869957865444 100.715
9.89525208097539 103.90700000000001
9.917652041736662 107.98200000000001
9.940052382417589 115.46600000000001
9.962435644102392 134.375
9.984836746950979 195.968
10.007220771957746 365.501
10.029622640473708 580.8290000000001
10.052007432299963 691.1
10.074410069984072 684.448
10.096813093716005 694.007
10.119199042482517 831.8960000000001
10.141602840636468 1146.6
10.163989564971628 1511.09
10.186394141051062 1599.14
10.208799107559706 1151.39
10.231187001965623 598.687
10.253592751657669 259.11400000000003
10.275981430388155 146.091
10.298387966769793 120.24799999999999
10.320794897965431 112.70100000000001
10.343184759907361 108.79799999999999
10.36559248305461 105.67399999999999
10.387983138083852 104.598
10.410391656691655 107.367
10.432800574501677 123.229
10.455192425893369 169.424
10.47760214443012 224.264
10.499994797678786 252.78900000000002
10.522405320453982 248.018
10.54479877906917 247.06400000000002
10.567210109595656 277.04
10.5896218454736 344.38300000000004
10.612016518879773 445.449
10.634429067781074 491.746
10.656824555333241 414.35
10.679237920773568 270.343
10.701651695961992 153.752
10.724048411481384 107.54299999999999
10.746463008485165 93.3317
10.768860546937125 87.2993
10.791275969274796 83.2509
10.81369180576079 81.4907
10.836090585366925 79.9083
10.858507252467449 78.4067
10.88090686379991 77.2965
10.903324365036394 76.0485
10.925724811614439 74.7368
10.948143150509463 74.4812
10.970561909719066 73.4065
10.992963615930844 72.6885
11.015383218085756 71.905
11.037785768347074 70.8638
11.06020621697282 70.4734
11.082627090322113 70.0979
11.105030913430326 69.1246
11.12745263854165 68.861
11.149857314510728 67.8351
11.172279894912576 67.9928
11.194702904450653 66.6782
11.217108866490921 66.1036
11.239532736615194 65.8503
11.26193956033512 65.49
11.284364294577085 65.0495
11.306789462371718 64.7566
11.329197585398376 64.4824
11.351623622610898 64.3581
11.37403261614354 63.3761
11.396459526308487 63.7332
11.418869393879497 63.1246
11.441297180532617 62.8774
11.463725406927658 62.6586
11.486136592353875 62.0887
11.508565700543707 61.6674
11.530977768845315 61.8719
11.553407762368774 61.4008
11.575838200059769 61.3372
11.598251599479612 61.1654
11.620682927815501 60.9401
11.64309721895548 61.1801
11.665529441478206 60.6886
11.687962112597958 60.6674
11.710377748130886 60.8532
11.732811318753434 60.5871
11.755227854859067 60.8065
11.777662328529495 60.3595
11.800079768750786 60.4275
11.822515149015453 60.2799
11.844950984084935 60.8543
11.867369787303163 60.817
11.889806534289491 60.8319
11.912226250487029 62.1817
11.934663912939751 65.1136
11.9571020346363 68.1892
11.979523127133968 68.3975
12.001962169624331 67.7563
12.024384183972964 66.6429
12.046824150809913 68.5586
12.069264581333726 78.4061
12.091687985297767 92.4644
12.11412934550045 102.84
12.136553680195208 106.615
12.158995973632788 106.04700000000001
12.181438735204349 106.62299999999999
12.20386447284199 114.057
12.226308172985636 131.78799999999998
12.24873485024193 158.257
12.271179492516982 182.59900000000002
12.293607112949127 182.94099999999997
12.316052700916226 155.275
12.338498763250042 109.641
12.360927805303868 79.6066
12.383374818673879 67.8711
12.405804812803074 64.0397
12.428252780773262 63.1933
12.45070122756722 62.7336
12.473132656675375 62.2274
12.49558206341869 62.3311
12.518014453510101 62.2033
12.540464823770117 62.3586
12.562915677315177 62.2893
12.58534951575545 62.8287
12.607801338171472 62.6331
12.630236146511358 62.8608
12.652688941369085 63.3086
12.675124723177234 63.3485
12.697578494048786 64.0581
12.720032754458185 64.3022
12.742470003354093 64.6979
12.764925245138771 65.4613
12.787363476431278 65.6562
12.809819703166806 65.8105
12.83227642391173 66.8872
12.854716135692716 67.2302
12.877173846755147 68.186
12.899614549869717 68.69800000000001
12.9220732548287 69.5521
12.94453245827299 70.3141
12.966974655289818 71.1773
12.989434858002571 72.3283
13.011878055298721 72.9706
13.034339260862497 73.9205
13.056800969391883 75.6922
13.079245674017244 78.5103
13.101708390774869 81.2137
13.12415410463411 87.1406
13.146617833206086 104.60600000000001
13.169064559883248 136.983
13.191529303857127 170.40900000000002
13.213994557076367 191.912
13.236442809902437 194.16299999999998
13.258909083908291 188.605
13.28135835851934 190.614
13.30382565690295 207.65
13.326293469022952 245.993
13.348744283242008 303.751
13.371213125129904 368.405
13.39366497011003 388.19
13.416134845360597 336.29
13.438605238843131 241.30200000000002
13.46105863690397 161.579
13.483530069144786 127.29700000000001
13.505984506951902 134.75
13.528456981549432 160.327
13.550929978879088 178.412
13.573385983253365 183.148
13.595860028340867 176.482
13.618317081455832 173.045
13.64079217790333 180.94400000000002
13.663250283359057 201.646
13.685726434770173 239.801
13.708203115221277 295.26099999999997
13.730662806148091 334.55199999999996
13.75314054697177 323.01099999999997
13.775601299246777 261.422
13.798080104050406 174.838
13.820559442405358 115.14
13.843021793671388 90.7734
13.865502201420897 82.5883
13.887965623051947 80.442
13.910447103807167 78.5563
13.932929122629764 76.7908
13.955394156785959 76.2588
13.977877254034569 74.9647
14.000343367582113 74.1683
14.022827546871707 73.6746
14.045294743423524 72.8592
14.06778000837062 72.2225
14.090265817715476 72.0395
14.112734645763819 72.3985
14.13522154619454 74.1814
14.157691466286913 75.5953
14.180179461423874 75.3431
14.202668005486178 73.8682
14.22513957064374 72.1694
14.247629214846473 70.3268
14.270101881097517 69.1096
14.29259262906496 68.6457
14.315083930490205 68.4911
14.337558255389705 68.0115
14.360050666019726 68.0328
14.382526101071944 67.7803
14.405019624534942 67.6322
14.427513705993134 66.9751
14.449990813291825 67.4177
14.47248601302899 67.2569
14.49496423954951 67.3265
14.517460561197822 67.527
14.539939910570322 67.1567
14.562437357763558 67.185
14.58493536931253 67.2823
14.607416409993311 67.6987
14.62991555254159 67.9366
14.652397725157423 68.2607
14.674898002342799 68.3142
14.697398848433282 68.7631
14.719882725991326 69.8416
14.74238471217934 70.695
14.764869730765593 73.5487
14.787372860692983 80.6187
14.809876564079925 94.5058
14.83236330125751 109.175
14.854868153850365 118.296
14.877356041159485 120.037
14.899862046604186 117.47200000000001
14.922351087688757 116.118
14.944858249632887 119.853
14.967365991421232 128.957
14.989856770231246 144.799
15.012365673994204 170.53400000000002
15.03485761569738 197.655
15.05736768508665 206.856
15.07987833888692 191.43599999999998
15.102372032001655 154.39600000000002
15.124883856909658 112.17299999999999
15.14737872204565 86.2457
15.169891721717274 74.9335
15.192405310371893 71.4639
15.214901940621196 69.8013
15.237416709527137 68.6046
15.259914520936249 67.6322
15.282430473753607 66.9506
15.304947020131227 66.1591
15.327446610371178 66.0471
15.349964346154254 65.8673
15.372465126703139 65.433
15.394984055556009 65.1798
15.417486030076159 65.0638
15.44000615566487 64.7889
15.462526881230803 64.953
15.485030653812652 64.8156
15.507552581617434 64.4438
15.530057557334603 64.5758
15.55258069104857 64.60600000000001
15.575104429329837 64.964
15.597611216864632 64.8957
15.620136166564563 65.0111
15.6426441664095 65.7142
15.665170331202765 67.9133
15.687697105158826 73.6182
15.710206930593545 84.7439
15.732734925158933 96.5371
15.755245972089478 104.823
15.77777519094324 107.488
15.800287463046663 105.677
15.822817909869592 103.25200000000001
15.84534897229804 103.721
15.867863089299354 109.931
15.890395385222186 118.889
15.912910736597423 135.029
15.935444269699861 157.907
15.957978423016485 177.707
15.980495633101265 181.155
16.003031029129367 164.581
16.02554948280019 130.96200000000002
16.048086125229432 97.5557
16.070623392487107 77.8898
16.09314371869582 67.9841
16.11568223789321 63.8661
16.13820381691126 62.0533
16.160743591742527 60.7952
16.183283996022084 59.9354
16.205807461423195 58.8351
16.228349126881973 58.2815
16.25087385432698 58.1197
16.27341678466365 57.4149
16.29594277784926 57.0113
16.31848697676433 56.5615
16.341031811604868 56.0556
16.36355971058487 56.001999999999995
16.3861058195587 55.6846
16.40863499352978 54.9821
16.431182380342005 54.9778
16.453730407713202 54.758
16.476261501364792 54.4138
16.498810812136167 54.0395
16.52134319004079 54.2995
16.54389378792203 54.0696
16.566445031001553 54.068999999999996
16.588979342490088 53.9773
16.61153187824822 53.6096
16.634067483263312 53.6919
16.656621315414416 53.4533
16.679175797408888 53.2419
16.701713349928728 53.3387
16.72426913389191 53.507
16.74680798922351 53.3765
16.76936507887444 53.3268
16.791905240734874 53.254
16.814463639794468 53.1974
16.837022695210294 53.408
16.859564824093756 53.412
16.882125194503903 53.5521
16.904668639217885 53.8914
16.927230328348003 54.316
16.949792678493612 54.5017
16.972338104193863 54.471000000000004
16.994901778652235 54.5043
17.017448529496576 54.3509
17.040013531998152 54.4887
17.06257920018044 54.8726
17.0851279459922 56.1786
17.107694947817667 58.2374
17.130245028099072 60.651
17.15281336730298 62.8291
17.17536478578733 64.0231
17.19793446610687 63.7883
17.220504818648422 63.3798
17.243058251703697 63.019
17.265629950971032 63.7182
17.288184731571736 65.3234
17.310757781306908 68.1366
17.33333150794385 70.8362
17.355888317140174 75.0379
17.37846339986244 79.2934
17.401021565958885 81.2642
17.42359800851343 79.0732
17.44617513265564 73.6309
17.468735341390783 67.3583
17.491261035594565 62.1272
17.51396340099364 59.1707
17.536490463869136 58.2834
17.559018209820174 58.1699
17.58154663977963 58.1378
17.604251766089718 58.2696
17.626781572227713 58.4187
17.64931206518155 58.3255
17.671843245885103 58.6916
17.69455114821572 58.9849
17.717083712612634 59.3186
17.739616967569667 59.7827
17.762150914021706 60.3851
17.78486160749854 60.8037
17.807396945166804 61.4283
17.829932977143503 62.0553
17.85246970436452 63.0496
17.875183204129467 65.8172
17.897721330097664 71.7086
17.920260154126645 78.9999
17.942799677153296 84.4212
17.9655159983646 87.4719
17.988056927677544 87.7136
18.010598558807683 86.5561
18.033140892692916 85.98
18.05586005052525 86.5806
18.07840379824407 89.4469
18.10094825154059 94.8771
18.12366954819864 103.40299999999999
18.146215420998306 116.359
18.16876200220057 131.88299999999998
18.191309292745153 143.769
18.214033452627167 146.679
18.236582170236648 136.778
18.259131600016456 118.50399999999999
18.281681742907335 99.7167
18.304408781233683 87.4013
18.32696035875955 82.3209
18.349512652227624 81.3863
18.372065662579683 84.0198
18.394795594587553 88.0357
18.41735004715306 94.161
18.43990521943684 99.9611
18.46246111238171 101.54799999999999
18.485193953325208 98.3417
18.507751296070428 90.0603
18.530309362314178 79.764
18.552868153000343 71.4153
18.57560391815056 65.8673
18.59816416623245 63.0102
18.620725141597372 61.6808
18.643286845190268 60.9139
18.666025549835414 60.1626
18.688588718427933 59.4603
18.711152618092243 59.3934
18.73389353884365 59.0874
18.75645890921984 58.5651
18.77902501351406 58.0254
18.801591852673102 57.9416
18.824335739722738 57.5643
18.846904057212626 57.4626
18.8694731124168 56.9997
18.89204290628315 57.0196
18.914789774966803 56.6481
18.937361054791623 56.5679
18.959933076131318 56.2179
18.982505839934877 56.2903
19.00525570560582 56.3286
19.027829963004184 55.9408
19.05040496572238 55.9431
19.072980714710468 55.9
19.095733592739563 56.1383
19.11831084296757 56.5222
19.140888842324735 57.7355
19.16346759176222 59.0924
19.18622349753803 60.4496
19.208803755869358 61.4798
19.231384767143577 61.5351
19.253966532312948 61.2906
19.276725481241822 60.9562
19.29930876296784 61.0866
19.3218928014549 61.6705
19.34465404436217 62.6188
19.36723960516257 63.8222
19.389825925592426 65.5734
19.412413006605938 68.1321
19.43517731967805 70.9386
19.457765930683355 72.9749
19.48035530514408 72.8237
19.50294544401556 70.1578
19.525712842708348 65.686
19.54830451925909 60.8808
19.570896963095727 56.7028
19.593490175174704 54.6292
19.616260674962184 53.771
19.638855432416964 53.2546
19.661450960992624 52.9725
19.68404726164677 53.0608
19.706820878021247 52.6994
19.729418731756834 52.7989
19.752017360452857 52.5574
19.77461676506804 52.7452
19.797393513540218 52.7929
19.819994478951667 53.0836
19.84259622316767 53.9721
19.8651987471481 55.3577
19.887978643247177 56.3822
19.91058273574792 57.0972
19.933187610901943 57.7957
19.955969879466828 57.6799
19.97857632894404 57.2761
20.00118356396599 57.0242
20.023791585494575 57.2043
20.046577028914875 58.1378
20.069186632506966 59.498000000000005
20.091797025500632 61.7826
20.114408208858933 64.3848
20.137196842715273 67.2343
20.159809615886765 70.3056
20.18242318232135 71.2639
20.20503754298326 70.8799
20.227829382875154 68.9678
20.250445341109344 65.4492
20.27306209647285 62.1239
20.29567964993108 59.6519
20.31847471147704 58.6016
20.34109387027612 59.0513
20.363713830075454 60.2745
20.386334591841646 62.0983
20.409132890679302 63.8922
20.431755265564437 64.268
20.454378445325528 62.7251
20.477002430930366 60.2648
20.499803982716553 56.8111
20.522429589228004 53.59
20.54505600449589 51.4162
20.567683229489194 50.4459
20.590488049900088 49.8843
20.61311690359731 49.5097
20.63574656993626 49.4496
20.658553853717297 49.1707
20.681185154618298 49.0784
20.703817271080066 48.942
20.72645020407368 48.5089
20.749260783967177 48.6287
20.771895359337133 48.6119
20.794530754161617 48.3976
20.817166969412938 48.4938
20.83998086114876 48.3912
20.86261872660049 48.1326
20.885257415405402 48.1216
20.90789692853701 48.0701
20.930714147864748 47.9797
20.953355319030678 47.8873
20.97599731745334 48.1147
20.99864014410749 48.1153
21.021460706796564 48.3495
21.044105199328826 48.5212
21.06675052302631 48.8296
21.089396678865015 48.6196
21.112220600704806 48.6712
21.134868430275347 48.6303
21.15751709492456 48.4001
21.180166595629693 48.4602
21.202993892429635 48.5534
21.22564507473034 48.6528
21.24829709602816 49.006
21.27112693608965 49.3653
21.293780644891275 50.0748
21.316435195634053 50.3557
21.339090589297417 50.641000000000005
21.361923832041875 50.7735
21.384580921090404 50.1827
21.407238856007325 49.6022
21.429897637773326 48.873000000000005
21.45273429906592 48.3686
21.475394784108598 47.897
21.498056118951983 47.7831
21.520718304578022 48.0965
21.543558400304388 48.0782
21.566222297108816 48.1991
21.58888704765135 48.2884
21.61155265291521 48.5698
21.63439619898156 49.8174
21.657063523335786 50.9724
21.67973170537063 52.0501
21.7024007460706 52.5916
21.72524775840385 53.3214
21.747918526116475 53.3695
21.770590155457388 53.1752
21.79326264741238 52.9982
21.816113141960237 53.2187
21.838787368860547 53.8173
21.861462461341976 54.7512
21.884315579735777 56.2527
21.90699241312273 57.6133
21.92967011506078 59.1573
21.95234868653799 61.4086
21.9752053151131 63.5023
21.997885635446785 64.9112
22.020566828293532 65.3061
22.04324889464272 63.8975
22.066109049404666 61.2777
22.088792872571794 58.4883
22.111477572219204 55.869
22.1341631493376 54.4981
22.157026846313123 54.2222
22.179714188221507 54.7698
22.202402410582668 55.3128
22.22509151438863 55.386
22.24795876962584 54.7674
22.270649646204486 53.9723
22.293341407213727 52.6904
22.316034053646906 51.0909
22.338904883215342 49.6898
22.36159931041458 49.0804
22.38429462602756 48.5913
22.40699083104897 48.1659
22.429865251039757 48.2917
22.452563244831367 48.2218
22.47526213102522 48.2748
22.49813925616515 48.1937
22.520839937143307 48.0324
22.543541513520587 47.9951
22.56624398629403 48.0703
22.589124730075895 47.9324
22.611829005656723 48.2086
22.63453418063466 48.2478
22.657240256008077 48.3585
22.680124634582935 48.7931
22.70283252079775 49.7688
22.725541310413075 50.5718
22.74825100442868 50.8584
22.771139033969575 51.3763
22.79385054687155 51.2312
22.81656296718292 51.1671
22.83927629590484 51.0916
22.862167992606945 51.0025
22.88488314827121 51.0185
22.907599215359284 51.2316
22.93031619487366 51.6206
22.953211574954405 52.0802
22.975930389478226 52.8331
22.998650119445763 54.0194
23.02137076586092 55.1031
23.044269845560063 56.2883
23.06699233506288 57.3945
23.089715744034912 57.2738
23.112617610931565 56.5338
23.135342869061212 54.894
23.158069049684816 52.721000000000004
23.1807961538087 50.9062
23.20370174880544 49.6684
23.226430710184808 48.9094
23.249160598093425 48.7317
23.271891413539002 48.6403
23.294800752937697 49.0039
23.31753343374794 50.0405
23.340267045128353 50.5363
23.36300158808808 51.2074
23.38591468821339 51.4907
23.408651104658304 51.4405
23.431388455719986 51.0312
23.454126742409 50.6941
23.4770436196085 50.5991
23.499783787914662 50.7936
23.522524894889884 50.6648
23.54526694154616 50.9673
23.56818761219047 51.4969
23.59093154860734 52.1635
23.613676427751283 53.4158
23.636422250635754 54.683
23.659346731118656 56.0638
23.68209445191868 57.1154
23.704843119509587 57.3448
23.72759273490623 56.2903
23.750521041644767 54.195
23.77327256312355 51.8225
23.796025035462787 49.4862
23.818956224555475 47.7264
23.841710609113413 46.5962
23.86446594758979 45.9755
23.887222241002014 45.6323
23.910157285144578 45.0937
23.932915498962537 44.931999999999995
23.955674670778713 44.9797
23.978434801611975 44.6502
24.001373717286125 44.501999999999995
24.024135776723917 44.4295
24.046898798245582 44.3432
24.06966278287146 44.1573
24.092605586582614 43.973
24.115371508023642 43.794
24.1381383956401 43.6921
24.16090625045381 43.5992
24.183852958731244 43.4351
24.206622758582608 43.3468
24.229393528706886 43.1662
24.252165270127392 43.3498
24.27511589952438 43.3004
24.297889594216997 43.078
24.32066426328598 42.8906
24.34343990775613 43.0035
24.36639447485003 42.9427
24.38917208083877 42.8703
24.41195066531332 42.6059
24.43490819850244 42.6154
24.457688750692377 42.4324
24.48047028445616 42.3592
24.503252800821233 42.5557
24.526214300784112 42.4879
24.548998793132213 42.3008
24.57178427117417 42.2082
24.59457073593893 42.2441
24.617536219319863 42.3334
24.64032466834748 42.6296
24.663114107195035 42.6354
24.685904536893013 42.4556
24.708874020360852 42.4162
24.731666442613744 42.3817
24.754459858818787 42.1092
24.777254270007962 42.1181
24.80022777025625 42.0094
24.82302418230472 41.8634
24.845821592443674 41.8569
24.86862000170663 42.0072
24.891597535453727 42.068999999999996
24.914397953892728 42.2853
24.93719937456671 42.2409
24.96000179851076 42.2209
24.98298338249997 42.1652
25.00578782394922 42.2127
25.028593271784167 42.3353
25.05157790644186 42.6939
25.07438537804115 42.7863
25.097193859145293 43.0561
25.120003350792075 43.1554
25.142992065061257 43.3707
25.165803588823465 43.4411
25.18861612625217 43.6049
25.211429678386736 43.6186
25.234422489079968 43.8316
25.257238081693636 43.9858
25.280054692141732 44.2183
25.3028723214652 44.1576
25.325869245420463 44.1353
25.348688923599397 44.0336
25.371509623787006 43.7992
25.394331347025812 43.7782
25.41733240110666 44.162
25.440156181590016 44.2998
25.46298098826268 44.3843
25.48580682216873 44.3254
25.50881202326435 43.7338
25.53163992281684 43.0922
25.55446885274561 42.4057
25.577298814096377 41.4477
25.600308179121807 40.8994
25.623140214533745 40.9008
25.64597328451537 40.5782
25.66898578564376 40.2849
25.691820936010206 40.3229
25.714657124097695 40.2198
25.737494350954734 40.2834
25.760511045684957 40.1749
25.783350361364224 40.4255
25.806190718969255 40.4543
25.82903211955018 40.6807
25.852053024868923 40.6155
25.874896522722523 40.6375
25.897741066713106 40.4692
25.920586657892454 40.505
25.943611790812668 40.4618
25.966459487728237 40.3968
25.989308234998564 40.2635
26.01215803367705 40.4
26.03518741123814 40.5086
26.05803932412957 40.5166
26.080892291600094 40.5046
26.10374631470478 40.5305
26.12677995397268 40.7276
26.14963609978026 41.0263
26.172493304397875 41.1553
26.19535156888223 41.4618
26.218389486949604 41.3684
26.241249882640123 41.3352
26.26411134137826 41.122
26.28715248187403 40.9322
26.31001607820869 40.5793
26.3328807407756 40.306999999999995
26.35574647063438 40.3541
26.37879191991473 40.3716
26.401659795896734 40.3142
26.424528742360263 40.3431
26.447398760366614 40.4089
26.470448535598294 40.2861
26.49332070826805 40.1935
26.516193955675355 40.3664
26.53906827888316 40.4302
26.562122397260108 40.4621
26.584998883685063 40.5292
26.607876449110325 40.6869
26.63075509460056 40.796
26.65381357334404 40.9832
26.67669439061878 41.1675
26.699576291163382 41.3433
26.722459276044212 41.7585
26.745522132402975 41.9992
26.768407297649354 42.1981
26.791293550442003 41.8765
26.814180891848974 41.7441
26.837248143099337 41.3499
26.860137673466657 40.9124
26.88302829566349 40.4259
26.90592001075963 40.2983
26.92899167420566 40.2458
26.951885586870763 40.0014
26.974780595655517 39.8022
26.99785558178161 39.7752
27.020752794605112 39.4576
27.043651106772522 39.0834
27.06655051935668 38.9897
27.089629948036183 38.7713
27.112531573292053 38.5852
27.135434302194138 38.5723
27.158338135817015 38.3205
27.181422024430987 38.421
27.204328079372566 38.3471
27.22723524226965 38.3217
27.250143514198573 38.4748
27.273231880156334 38.5637
27.296142382065014 38.3336
27.319053996245536 38.2409
27.341966723775965 38.1409
27.365059584515222 38.2649
27.38797455070062 38.2769
27.410890633481237 38.1277
27.433807833936918 38.0591
27.456905206923906 38.0772
27.47982465472398 38.0372
27.502745223449743 38.0433
27.525666914182825 38.0595
27.548768816912457 38.0544
27.571692763693633 38.0427
27.59461783573812 38.1746
27.617723149491244 38.176
27.640650484125285 38.1546
27.66357894728264 38.1781
27.686508540048052 38.2609
27.709618414237887 38.178000000000004
27.732550278321757 38.2137
27.755483275279115 38.0672
27.778417406196485 38.0159
27.801531858397514 37.9389
27.824468269376716 37.865
27.847405817586786 37.7314
27.870344504116094 37.8784
27.893463551932008 37.7703
27.916404527281053 37.9388
27.93934664422563 37.7918
27.962289903855886 37.8647
27.98541356491974 38.0732
28.00835912214229 37.9718
28.03130582533231 38.1144
28.054253675581805 38.2046
28.077381967556104 38.1681
28.100332124185126 38.3621
28.123283431160893 38.4832
28.146235889577238 38.6649
28.169368830154156 38.8023
28.192323603752033 38.8458
28.215279532083304 38.7094
28.238415973016764 38.3581
28.261374223145094 38.222
28.284333631303806 37.9641
28.307294198589954 37.7439
28.330435319167677 37.5607
28.353398217078915 37.5103
28.376362277420153 37.1963
28.39932750129032 37.0888
28.422473319286713 36.8499
28.44544088262495 36.7873
28.468409612800283 36.3763
28.491379510913497 36.0221
28.51453004413313 35.8158
28.53750229057244 35.773
28.56047570826344 35.7123
28.583450298308804 35.8032
28.606605564586562 35.6199
28.629582511831156 35.5868
28.65256063474956 35.5092
28.675539934446338 35.5973
28.698699951647605 35.4231
28.72168161743193 35.2572
28.74466446331978 35.1166
28.767648490417624 35.0461
28.790813276438353 35.0156
28.813799678527303 35.0498
28.836787265157085 35.027
28.859955641890075 35.092
28.882945610203045 34.9477
28.905936766392035 34.8966
28.928929111566863 34.9191
28.952102288520145 34.8873
28.975097024308607 34.8055
28.998092952423807 34.7736
29.021090073977508 34.9191
29.04426806913204 34.9031
29.067267590245258 34.7043
29.090268308143695 34.686
29.11327022394099 34.5219
29.13645305530891 34.4149
29.159457379627167 34.3256
29.18246290519685 34.2457
29.20546963313352 34.1599
29.22865731875826 34.0789
29.25166646419296 34.0053
29.27467681535305 33.9297
29.29768837335608 33.9399
29.320880931312562 33.8619
29.34389491580634 33.6691
29.366910110507334 33.7192
29.38992651653503 33.6457
29.41312396492981 33.7422
29.436142806456754 33.6402
29.45916286268059 33.7012
29.48236399319994 33.721
29.50538649169417 33.8471
29.528410208259935 33.7476
29.55143514402014 33.5565
29.574641196749695 33.5053
29.597668583816574 33.3279
29.6206971934585 33.2011
29.64372702680042 33.1539
29.666938019934474 32.9489
29.689970313635285 32.845
29.713003834422636 32.7384
29.73603858342347 32.6823
29.759254535188578 32.6134
29.78229175361658 32.583
29.80533020365064 32.5415
29.82836988641968 32.6086
29.85159081507472 32.5956
29.874632976355343 32.443000000000005
29.89767637376955 32.4654
29.920721008448314 32.3187
29.9439469322847 32.414
29.96699405457564 32.3746
29.9900424175358 32.4063
30.013092022298157 32.3608
30.03632295963995 32.175
30.059375061131373 32.1132
30.08242840783577 32.2014
30.105483000888153 32.1809
30.128718970092244 32.0764
30.151776069006917 32.0694
30.17483441768648 32.0714
30.198074175317235 32.084
30.221135036724256 32.0134
30.24419715131772 32.0387
30.267260520236203 31.9682
30.290505341942243 32.0459
30.313571232750228 32.1265
30.336638381310948 32.1258
30.35970678876503 32.1192
30.38295669299435 32.1596
30.40602763151657 32.204
30.429099832366074 32.1086
30.452173296685572 32.0422
30.47542830191959 31.9889
30.498504306502497 31.8235
30.521581577995562 31.8815
30.544660117543582 31.8848
30.56792024229725 31.8657
30.59100133132069 31.7414
30.614083691845494 31.8013
30.637167325018545 31.7838
30.660432587840603 31.814
30.683518779717886 31.6744
30.70660624769615 31.6825
30.729694992924372 31.7175
30.75296541239743 31.764
30.77605672557558 31.7622
30.799149319462742 31.9198
30.8224236211637 31.9576
30.845518789950724 31.9928
30.868615242910597 31.8652
30.891712981195973 31.7413
30.91499247215866 31.6307
30.938092794619365 31.6959
30.96119440587579 31.5074
30.984297307082752 31.3008
31.00758200598383 31.2744
31.030687500658694 31.1722
31.053794288760695 31.1084
31.076902371446767 31.0086
31.100192296997445 30.9876
31.12330298246119 31.0119
31.14641496599209 30.8445
31.169528248749216 30.859
31.19282341969534 30.8438
31.215939314557186 30.8588
31.239056512134788 30.7517
31.262175013589378 30.6352
31.28547544871168 30.6324
31.30859657161541 30.6099
31.331719001892175 30.6083
31.35484274070538 30.6404
31.378148458819545 30.6292
31.401274828443725 30.5107
31.424402510106933 30.4953
31.447712205419993 30.5321
31.470842524931633 30.4191
31.493974159989783 30.5076
31.51710711176168 30.4871
31.54042212308802 30.6043
31.563557722100917 30.7019
31.586694641341655 30.5017
31.609832881979628 30.5337
31.63315322823208 30.625999999999998
31.656294125521327 30.4979
31.679436347728515 30.4533
31.70257989602529 30.3332
31.725905596152327 30.1726
31.74905181052835 30.0772
31.772199354521323 30.026999999999997
31.79534822930507 29.9471
31.818679302290967 29.9769
31.84183085259981 29.926
31.864983737233473 29.913
31.88813795736804 29.8956
31.911474422233013 29.7403
31.934631327356435 29.8152
31.9577895715215 29.7311
31.980949155906522 29.8339
32.004291031706956 29.8693
32.027453310562606 29.7432
32.05061693318573 29.6564
32.07396288236386 29.7226
32.09712920658542 29.6737
32.12029687812702 29.6153
32.14346589817093 29.5273
32.166817291729984 29.4509
32.18998902288583 29.4069
32.21316210610336 29.3382
32.23633654256711 29.3264
32.259693399663725 29.1254
32.282870556771144 29.081999999999997
32.30604907069099 29.0351
32.329228942610065 29.0836
32.35259128243769 28.7986
32.375773884550505 28.7394
32.398957848235646 28.71
32.422143174682176 28.6006
32.445511016471215 28.5562
32.468699082679954 28.5247
32.49188851523011 28.6106
32.51507931531304 28.4656
32.538452678331 28.4445
32.56164622776311 28.3917
32.58484114831493 28.3381
32.60803744118015 28.336
32.631416344731896 28.3279
32.654615396551876 28.2782
32.67781582427913 28.2932
32.701198898634416 28.1621
32.72440209253756 28.0179
32.747606665947124 28.043000000000003
32.77081262006088 27.9505
32.79420126883317 27.9605
32.81740999876112 28.0063
32.840620112999424 28.0193
32.86383161274818 27.7938
32.88722585534586 27.7886
32.91044014056596 27.8954
32.933655814909734 27.7581
32.95687287957963 27.7663
32.98027273544904 27.7608
33.00349259526636 27.6867
33.026713849030116 27.6986
33.04993649794511 27.6101
33.073341986570746 27.6388
33.09656744032826 27.5466
33.11979429286444 27.6145
33.14302254538647 27.5374
33.166433686291185 27.4062
33.18966475336992 27.439
33.212897224069096 27.2743
33.23613109959831 27.2969
33.259547912343415 27.359
33.2827846121627 27.3687
33.306022720453775 27.2337
33.32926223842861 27.213
33.352684742614166 27.226
33.37592709463173 27.3077
33.399170859982064 27.2147
33.422597648419426 27.1953
33.44584425514446 27.0058
33.46909227885668 27.0777
33.4923417207723 26.9466
33.51577423505344 26.9639
33.539026528130385 26.818
33.56228024307245 26.741999999999997
33.585535381098246 26.6349
33.60897364093058 26.5697
33.63223163992385 26.5286
33.6554910656699 26.4479
33.678751919389796 26.5158
33.702195944520106 26.4543
33.72545966903325 26.448
33.74872482519663 26.3155
33.771991414233746 26.249000000000002
33.79544122444841 26.2748
33.81871069412428 26.1936
33.84198160035767 26.1667
33.86525394437455 26.2384
33.88870955949969 26.1161
33.911984794020626 26.1391
33.93526147001624 26.0757
33.958539588715006 26.0209
33.98200102861669 25.986
34.0052820477047 25.899
34.02856451319451 25.9305
34.05203033759056 25.8609
34.07531571090147 25.7691
34.09860253431845 25.8302
34.121890809074316 25.7352
34.145362493118924 25.7329
34.16865368561615 25.5983
34.191946333164054 25.5764
34.21524043699793 25.5531
34.23871800066799 25.4816
34.26201503218366 25.4129
34.28531352370466 25.3868
34.30861347646881 25.3369
34.33209693978188 25.3814
34.3553998301885 25.3332
34.378704185565205 25.1777
34.402010007152356 25.1727
34.42549939016683 25.1852
34.44880815937748 25.0886
34.472118398533134 25.0988
34.49543010887669 25.049
34.51892543169198 24.8914
34.54224009966052 24.9574
34.56555624255917 24.9162
34.58887386163339 24.8542
34.61237514439016 24.7331
34.6356957311114 24.7415
34.65901779775809 24.7091
34.68252356662995 24.8146
34.705848608458616 24.6742
34.72917513396849 24.671
34.75250314440949 24.5871
34.77601490857862 24.5123
34.799345904259795 24.4173
34.82267838863559 24.4382
34.846012362958525 24.3969
34.869530142679984 24.3542
34.89286711232212 24.383000000000003
34.91620557568269 24.3769
34.93954553401677 24.3323
34.9630693495876 24.2241
34.986412313340814 24.3008
35.00975677584668 24.2546
35.033102738362956 24.2344
35.05663261012228 24.179000000000002
35.0799815881786 24.1666
35.10333207003229 24.0471
35.12668405694369 24.108
35.150220005273056 24.0901
35.17357501786656 24.0772
35.19693153931268 23.9684
35.220289570874385 24.0072
35.24383161619786 23.9683
35.267192683604904 23.9484
35.290555264930376 23.9253
35.314101899412165 23.8036
35.33746752422433 23.8239
35.36083466676374 23.7937
35.38420332829803 23.7409
35.407756095629054 23.739
35.43112781085063 23.7363
35.45450104888391 23.7011
35.477875810999194 23.6969
35.50143473172161 23.7001
35.52481255774625 23.7876
35.54819191167777 23.6416
35.57157279478914 23.5923
35.595137889488406 23.625999999999998
35.61852184675279 23.4763
35.641907337029984 23.4946
35.665294361595684 23.5155
35.68886565090076 23.4581
35.7122557598848 23.3836
35.73564740699838 23.4257
35.759040593519934 23.3458
35.78261809810353 23.2497
35.80601437933051 23.2271
35.829412203814705 23.125
35.85281157283719 23.1261
35.876395313415884 23.1813
35.8997977874528 23.0174
35.92320180988546 22.9666
35.946790244133936 22.9303
35.97019737933222 22.9446
35.993606066789866 22.8722
36.01701630779276 22.886
36.04061101440684 22.8369
36.06402437852291 22.831
36.08743930005611 22.8412
36.1108557802951 22.7368
36.13445678011326 22.6478
36.15787639383515 22.6122
36.18129757014299 22.5548
36.20472031032821 22.4922
36.22832762423364 22.5469
36.25175350829375 22.5067
36.275180960119776 22.404
36.298609981005924 22.4454
36.32222362992669 22.467
36.34565580510207 22.4257
36.36908955323448 22.4658
36.39252487562093 22.3156
36.416144880530226 22.2393
36.43958336764275 22.3064
36.463023432914625 22.2441
36.486465077645676 22.2112
36.51009145956204 22.3252
36.53353627947859 22.1881
36.55698268276811 22.2046
36.58043067073321 22.1449
36.60406345072071 22.0052
36.62751462435344 22.0384
36.65096738658405 22.0487
36.67460498210655 21.9726
36.69806093788647 21.9961
36.72151848619297 21.8416
36.744977628333636 21.8841
36.76862165890998 21.8498
36.79208400512205 21.8623
36.81554794910557 21.8635
36.83901349217101 21.6937
36.862663978991606 21.7575
36.88613273667352 21.7398
36.90960309738324 21.6482
36.933075062434064 21.6095
36.95673202673572 21.5306
36.98020721697122 21.5227
37.003684015502365 21.4403
37.027162423645365 21.4836
37.050825886711465 21.4135
37.07430753063053 21.3256
37.09779078812467 21.2772
37.121275660513014 21.2995
37.144945643673694 21.234
37.16843376245278 21.154
37.19192350009803 21.1584
37.215414857931435 21.116999999999997
37.239091382563885 21.1074
37.262585997426164 21.0376
37.28608223645736 21.1251
37.309763684451696 21.0544
37.33326318851098 20.9903
37.356764320726555 20.9539
37.380267082425526 20.9885
37.40395510942588 20.9466
37.42746114683234 20.8901
37.45096881771841 20.8212
37.474478123414166 20.7658
37.49817275092816 20.8256
37.52168534303452 20.7507
37.54519957395567 20.6987
37.568715445024665 20.6843
37.592416694607714 20.6451
37.61593586281424 20.7138
37.63945667518264 20.6427
37.66297913304891 20.5991
37.68668702630454 20.5119
37.710212792059274 20.3898
37.733740207334854 20.4042
37.757269273470364 20.4387
37.780983832050374 20.371
37.80451621684926 20.3544
37.82805025654007 20.3296
37.851585952464795 20.3299
37.8753071980695 20.2002
37.89884622345676 20.2207
37.92238690911902 20.1991
37.94611318753442 20.0668
37.969657210779765 20.0707
37.99320289834801 20.1721
38.016750251586465 20.0482
38.04048325513017 20.0779
38.06403395679343 19.9793
38.087586328183946 19.8774
38.11114037065203 19.9447
38.13488012115898 19.9755
38.1584375229181 19.8838
38.181996599821 19.8305
38.205557353221124 19.808
38.229303872575656 19.7258
38.2528679961576 19.7771
38.27643380031219 19.6735
38.30000128639589 19.6432
38.32375459653193 19.7307
38.34732546371299 19.6906
38.37089801690786 19.5481
38.39447225747609 19.5009
38.418232380377425 19.4789
38.441810012983396 19.5411
38.46538933705673 19.4202
38.488970353960084 19.4499
38.51273731166058 19.4136
38.536321731567014 19.3323
38.55990784840681 19.3522
38.58367995004091 19.2711
38.60726947812959 19.2286
38.63086070726198 19.2342
38.654453638806274 19.1878
38.678232613930824 19.1439
38.70182896773327 19.0969
38.72542702806741 19.0823
38.7490267963045 19.0573
38.77281266709232 19.0664
38.79641586862214 19.0549
38.8200207821842 18.9886
38.843627409152944 18.9834
38.86742019782782 18.9278
38.891030269149255 18.8663
38.914642058016156 18.8474
38.938255565806124 18.8564
38.96205529464307 18.8
38.98567225787121 18.8651
39.00929094417078 18.8612
39.03291135492255 18.8018
39.05671804624804 18.7135
39.080341923549106 18.6878
39.103967529460334 18.6365
39.127594865365744 18.6163
39.15140854155791 18.5313
39.17503935514948 18.5002
39.19867190290282 18.5678
39.22249083587951 18.4969
39.24612686969409 18.4556
39.269764641845306 18.3871
39.293404153722804 18.4144
39.317230110864074 18.3471
39.34087311998506 18.2802
39.36451787301696 18.2527
39.388164371352595 18.2486
39.41199737518003 18.2311
39.43564738196752 18.2337
39.45929913825317 18.2272
39.48295264543308 18.1573
39.506792718520884 18.0897
39.530449745387216 18.0954
39.55410852735203 18.0751
39.57776906581474 18.0346
39.60161623079 18.0157
39.625280300200025 18.0995
39.64894613032202 17.9284
39.67261372255866 17.9541
39.6964680021016 17.9418
39.72013913657293 17.985
39.74381203738292 17.8566
39.76748670593756 17.8312
39.79134812278169 17.8136
39.81502634488497 17.7809
39.83870633896685 17.778
39.862388106436654 17.6703
39.88625668336918 17.6832
39.90994201572829 17.6424
39.933629125719285 17.6584
39.957503091207826 17.6165
39.9811937746168 17.6056
40.00488623990914 17.6207
40.02858048850006 17.5531
40.05246165409549 17.4985
40.076159487492085 17.4281
40.099859108448875 17.4773
40.123560518384345 17.4541
40.1474489070226 17.3556
40.171153913178564 17.3366
40.194860712584955 17.3081
40.2185693066637 17.3103
40.242464941335314 17.2358
40.26617714307655 17.2534
40.289891143772046 17.2055
40.3136069448471 17.2153
40.33750984859743 17.2465
40.3612292688043 17.1163
40.3849504936829 17.0926
40.40867352466194 17.0877
40.43258372059144 17.0503
40.45631038219906 17.0247
40.48003885420956 16.9851
40.503769138055105 17.027
40.52768664931955 17.004
40.55142057531802 16.9649
40.57515631746428 16.9405
40.599079334038514 16.9006
40.62281872700477 16.8448
40.64655994043941 16.8343
40.67030297578061 16.8011
40.69423334835778 16.8264
40.71798004609188 16.7841
40.74172857006355 16.7199
40.76547892171441 16.7244
40.7894166736039 16.676
40.813170699248566 16.6316
40.83692655691388 16.6051
40.86068424804498 16.5916
40.884629402612525 16.6049
40.908390779366385 16.5503
40.932153993938 16.4885
40.95591904777605 16.4657
40.979871628443995 16.4341
41.003640379561936 16.4351
41.02741097430883 16.3787
41.05118341413683 16.3792
41.075143444384416 16.3979
41.098919593177826 16.3828
41.1226975914255 16.32
41.14647744058318 16.2476
41.170444943946755 16.195
41.19422851378379 16.2286
41.218013938914645 16.1642
41.24198706625173 16.1686
41.26577622087193 16.0783
41.289567235177785 16.1214
41.31336011063129 16.124000000000002
41.337340752422875 16.0729
41.361137369129835 15.9955
41.38493585138705 15.9918
41.40873620066004 15.9774
41.43272438060107 15.9641
41.45652848292052 15.8906
41.48033445666918 15.8558
41.50414230331616 15.9002
41.528138045159764 15.895
41.551949656675205 15.7652
41.575763145513235 15.7894
41.59957851314666 15.7403
41.62358184070442 15.712
41.64740098505737 15.7147
41.6712220126409 15.6967
41.69504492493139 15.615
41.71905586207357 15.593
41.74288256296395 15.568
41.766711153007456 15.5467
41.79054163368412 15.5079
41.814560204340054 15.5134
41.838394485526365 15.5138
41.86223066180303 15.4301
41.88625497706819 15.4448
41.910094962812 15.4254
41.93393684811168 15.4111
41.95778063445365 15.3356
41.981812625263366 15.354000000000001
42.00566023303407 15.3358
42.029509746323676 15.2953
42.05336116662236 15.2483
42.077400857069705 15.2059
42.10125611078846 15.2157
42.12511327600405 15.1997
42.14897235421036 15.1702
42.173019768448455 15.1621
42.19688269209613 15.0516
42.22074753323349 15.0836
42.24461429335818 15.0849
42.268669455600495 15.0548
42.292540073217886 14.9885
42.31641261433284 15.0105
42.34028708044675 14.9275
42.36435001496739 14.9125
42.38822835065557 14.9416
42.41210861586426 14.8762
42.4359908120986 14.8636
42.46006154323262 14.8552
42.48394762115317 14.7725
42.507835634632315 14.8123
42.531912233047436 14.7674
42.55580413732265 14.7257
42.579697981698 14.6726
42.60359376768525 14.7095
42.62767820545945 14.6599
42.65157789440821 14.6181
42.67547952952185 14.6456
42.699383112316 14.6385
42.72347541395347 14.5463
42.74738291190531 14.4992
42.771292362102166 14.481
42.795203766063516 14.4544
42.819303956130405 14.4619
42.843219287476536 14.4196
42.86713657716324 14.385
42.89105582671383 14.332
42.91516392983864 14.3659
42.939087119032166 14.3071
42.963012272677304 14.2974
42.98693939230129 14.2389
43.01105543317513 14.2605
43.034986504731386 14.2506
43.05891954686589 14.21
43.08285456110972 14.1853
43.10697856448665 14.1354
43.130917542983475 14.1425
43.15485849820081 14.1306
43.17880143167367 14.0401
43.20293342237094 14.0574
43.226880332449 14.0177
43.25082922540554 14.0693
43.27496722682525 13.9976
43.29892010567796 13.9298
43.32287497204102 13.9453
43.34683182745632 13.9069
43.370977859791836 13.8782
43.39493871351105 13.8912
43.41890156092628 13.8828
43.44286640358341 13.8483
43.46702049182749 13.7818
43.49098934522816 13.7375
43.51496019852649 13.7192
43.5389330532723 13.7462
43.56309522248204 13.7114
43.58707210044314 13.665999999999999
43.61105098451946 13.6082
43.63503187626491 13.6154
43.659202151562134 13.6428
43.68318707902681 13.5867
43.70717401884041 13.5744
43.731162972560874 13.552999999999999
43.75534137913236 13.4911
43.779334381108384 13.4545
43.803329401683186 13.4436
43.82732644241872 13.4275
43.8515130055166 13.388
43.87551410707659 13.3855
43.89951723350145 13.3934
43.923709934595614 13.3323
43.94771713129917 13.308
43.97172635758096 13.3083
43.99573761501002 13.2441
44.0199385169922 13.2265
44.04395385732619 13.2282
44.067971233533086 13.2493
44.09199064718605 13.2363
44.11619977548961 13.1946
44.14022328470671 13.152999999999999
44.16424883610785 13.1319
44.18827643127035 13.1585
44.21249381139513 13.1573
44.236525514814076 13.0709
44.26055926674478 13.0318
44.28459506876863 13.02
44.3088207262813 12.9774
44.33286064928722 12.9485
44.35690262714919 12.9279
44.38094666145278 12.885
44.4051806219871 12.9288
44.42922879003185 12.8728
44.45327901929361 12.8253
44.477331311362136 12.8118
44.501573600619416 12.765999999999998
44.525630039221795 12.7532
44.54968854541895 12.7722
44.573937102200176 12.7684
44.5979997645541 12.7481
44.622064499300315 12.6754
44.64613130803592 12.65
44.67038823869318 12.6408
44.69445921643748 12.6079
44.718532272981385 12.6049
44.742607409926194 12.5902
44.76687274034801 12.5462
44.79095205918753 12.4884
44.81503346325094 12.4965
44.839116954143876 12.5079
44.86339071028742 12.4754
44.88747839599524 12.4298
44.91156817336837 12.4222
44.93566004401666 12.404000000000002
44.959942251908146 12.3712
44.984038330325966 12.3433
45.00813650686762 12.3017
45.03223678314731 12.3017
45.05652746888232 12.2459
45.08063196592069 12.2584
45.104738567558705 12.2427
45.128847275414856 12.2206
45.15314646515866 12.2228
45.17725940679741 12.1931
45.20137445952892 12.1601
45.22568004865265 12.138
45.24979934496396 12.1311
45.27392075725247 12.0897
45.29804428714431 12.0885
45.322358426247604 12.0713
45.346486212804315 12.022
45.370616121861914 12.0166
45.39474815505086 11.9903
45.41907087049246 11.923
45.4432071734666 11.92
45.46734560548283 11.9243
45.49148616817604 11.9087
45.51581748638564 11.9062
45.5399623320197 11.8694
45.56410931325473 11.8254
45.58825843173002 11.8181
45.61259837920865 11.7936
45.636751793816 11.780999999999999
45.66090735060093 11.7074
45.68506505120716 11.7007
45.7094136545275 11.6804
45.73357566449271 11.6677
45.75773982322992 11.6884
45.78190613238733 11.6772
45.806263418194064 11.5596
45.83043404997326 11.5771
45.85460683713677 11.5894
45.87897065658495 11.5791
45.90314777634752 11.5493
45.92732705646868 11.5631
45.9515084986045 11.5
45.97588104735473 11.4371
46.00006683541565 11.4674
46.02425479047904 11.4831
46.04844491420549 11.4622
46.0728262191024 11.432
46.09702070211635 11.3804
46.12121735879483 11.3449
46.14541619080294 11.3338
46.169806278764455 11.3538
46.194009483459034 11.3486
46.21821486849841 11.2881
46.24242243555223 11.2732
46.266821333570014 11.2488
46.29103328674601 11.2044
46.31524742696538 11.2007
46.33946375590237 11.2184
46.36387149104216 11.1737
46.38809221957392 11.0958
46.41231514186606 11.1252
46.436540259597464 11.1217
46.460956858999374 11.0756
46.48518638983522 11.0783
46.509418121166966 11.0715
46.533652054678114 10.9911
46.55807754555709 11.0042
46.58231590571962 10.9918
46.60655647313217 10.9782
46.630988654873654 10.9388
46.655233659129024 10.8963
46.67948087571551 10.8975
46.70373030632484 10.8728
46.72817142736393 10.8906
46.752425308428684 10.8465
46.77668140861147 10.8173
46.80093972960865 10.7719
46.82538981736788 10.7305
46.849652602470904 10.7357
46.87391761349769 10.7421
46.8981848521493 10.728
46.9226439341274 10.7242
46.946915650573224 10.6434
46.97118959976749 10.718
46.99546578341598 10.6583
47.019933887188216 10.6117
47.04421456235744 10.5897
47.06849747711879 10.5779
47.09278263318286 10.5601
47.11725978640143 10.5172
47.14154944775105 10.4969
47.165841355555656 10.4634
47.1901355115306 10.45
47.214621741924994 10.4409
47.23892041698887 10.4514
47.26322134538975 10.425
47.28771440635075 10.3756
47.31201986422527 10.4244
47.33632758061436 10.3786
47.360637557241866 10.3357
47.38513974410611 10.3259
47.40945426407847 10.3418
47.43377104948137 10.3085
47.45809010204344 10.2805
47.48260144275502 10.2416
47.506925052572285 10.199
47.53125093475548 10.1592
47.55557909103813 10.1501
47.58009961361992 10.155
47.60443234110732 10.1588
47.62876734791564 10.1618
47.65310463578333 10.1238
47.6776343683373 10.131
47.7019762413987 10.0671
47.72632040075572 10.0206
47.75066684815169 10.0535
47.77520581885936 10.0253
47.799556865477655 9.99934
47.823910205386 9.96847
47.84826584033272 9.96275
47.87281407745551 9.91164
47.89717432569297 9.92721
47.92153687423484 9.91732
47.94609208429692 9.875160000000001
47.97045925671401 9.888630000000001
47.99482873471275 9.85028
48.01920052005013 9.85934
48.04376504619224 9.82365
48.068141469543484 9.85858
48.09252020552573 9.80301
48.11690125590099 9.80472
48.1414751266064 9.775210000000001
48.16586082917454 9.72487
48.19024885144316 9.69352
48.2146391951793 9.73887
48.239222439012764 9.73138
48.26361744916137 9.700239999999999
48.28801478610016 9.64805
48.31241445160131 9.63338
48.337007097209366 9.613439999999999
48.36141144338331 9.60604
48.38581812345755 9.55223
48.41022713920929 9.55919
48.434829215320704 9.55162
48.45924292604658 9.53068
48.48365897780325 9.52604
48.50807737237308 9.500580000000001
48.532688907799276 9.482660000000001
48.55711201168574 9.47706
48.581537463754074 9.43328
48.60615611725119 9.463280000000001
48.63058628942721 9.47808
48.65501881516546 9.4215
48.6794536962573 9.38135
48.70408185970339 9.37589
48.72852147531801 9.320160000000001
48.75296345168211 9.30504
48.77740779059232 9.29905
48.80204549302823 9.300089999999999
48.82649458091802 9.27487
48.85094603676547 9.28046
48.87539986237231 9.24418
48.90004713292306 9.16232
48.92450572200832 9.21729
48.94896668628025 9.19854
48.97343002754588 9.19064
48.99808689542115 9.18043
49.02255501470614 9.15093
49.04702551642794 9.13033
49.0714984023988 9.1036
49.096164896893235 9.10251
49.120642575466796 9.09315
49.145122643748394 9.07095
49.16960510355558 9.05662
49.19428125404938 9.07522
49.2187685210852 8.9777
49.243258185121555 8.97476
49.26794160167084 8.93004
49.2924360839405 8.94392
49.31693296869764 8.92706
49.34143225776915 8.9185
49.36612538195438 8.88529
49.39062950396021 8.91658
49.41513603578346 8.83745
49.4396449792564 8.839739999999999
49.46434784069503 8.84828
49.488861631846454 8.8699
49.513377840166804 8.836089999999999
49.537896467493745 8.75146
49.56260909589029 8.74082
49.587132585683285 8.7788
49.611658500018365 8.73558
49.636186840738596 8.72531
49.66090926588511 8.71368
49.685442483902584 8.70712
49.70997813385706 8.61978
49.734516217597076 8.64499
49.75924846937352 8.64445
49.7837914452858 8.62916
49.80833686055187 8.58645
49.83288471702571 8.581489999999999
49.85762682540054 8.5775
49.882179588965734 8.57175
49.9067347993235 8.53377
49.93129245833333 8.5345
49.95604445336378 8.531889999999999
49.98060703442832 8.48035
50.005172069746266 8.50267
50.02993150438364 8.4551
50.05450147301533 8.44443
50.07907390151433 8.40466
50.10364879174981 8.43045
50.12841816587289 8.3901
50.1529980044635 8.35298
50.17758031042124 8.37571
50.20216508562089 8.358369999999999
50.22694442953363 8.35062
50.25153416817468 8.31253
50.27612638170508 8.298
50.300721072005196 8.27486
50.325510416102105 8.28635
50.350110084975064 8.242
50.37471223628208 8.26222
50.39931687190919 8.272860000000001
50.424116246675766 8.18844
50.44872587605249 8.1623
50.47333799543065 8.19788
50.49795260670191 8.172989999999999
50.52276204271512 8.109110000000001
50.54738166295838 8.1269
50.57200378079314 8.15821
50.596628398116835 8.07294
50.62144792604559 8.076189999999999
50.646077567609396 8.0466
50.670709714377715 8.06504
50.69553683636198 8.045160000000001
50.72017401885922 8.02522
50.7448137122895 7.997730000000001
50.76945591856022 7.99955
50.79429318636823 8.00715
50.818940443716784 7.98088
50.84359021965163 7.9107899999999995
50.868242516085964 7.92775
50.893089960641895 7.920160000000001
50.917747323549435 7.91563
50.94240721271973 7.8890199999999995
50.96706963007175 7.85227
50.99192728239342 7.884989999999999
51.01659478166073 7.857239999999999
51.04126481489051 7.82246
51.06593738400761 7.82975
51.090805275207074 7.78303
51.11548294172845 7.760619999999999
51.14016314993547 7.8179300000000005
51.164845901758845 7.76605
51.18972406304274 7.73337
51.21441192780656 7.69963
51.23910234200271 7.696789999999999
51.2637953075678 7.659160000000001
51.288683770237945 7.658980000000001
51.31338186432707 7.6104199999999995
51.33808251561888 7.59036
51.362978729967345 7.61188
51.387684521509755 7.5707699999999996
51.41239287610203 7.57636
51.437103795691165 7.5493
51.46201036644977 7.5597199999999996
51.486726441956634 7.5281899999999995
51.51144508832545 7.556780000000001
51.536166307509156 7.483630000000001
51.56108326624387 7.4501100000000005
51.58580965706056 7.4942
51.61053862657523 7.495089999999999
51.635270176746864 7.452719999999999
51.66019755512065 7.41947
51.68493429268881 7.4021
51.70967361681515 7.370260000000001
51.73441552946465 7.36992
51.759353359237934 7.34547
51.7841004750961 7.35685
51.80885018539685 7.316160000000001
51.833602492111254 7.333710000000001
51.8585508051424 7.31371
51.883308330926425 7.2866800000000005
51.90806845906181 7.25281
51.932831191525715 7.2518199999999995
51.95779001977161 7.222239999999999
51.98255798721516 7.20056
52.00732856494335 7.22253
52.03229530577543 7.19112
52.057071130455945 7.16546
52.081849571391054 7.20105
52.106630630568695 7.13686
52.13160794279417 7.119910000000001
52.15639426492067 7.10641
52.18118321127822 7.1478399999999995
52.205974783860896 7.10728
52.23096269971011 7.08874
52.255759551287994 7.08465
52.280559035098186 7.06998
52.30536115314103 7.03062
52.33035970494467 7.00223
52.35516711807904 7.016
52.37997717147198 6.97927
52.40478986713005 6.99357
52.42979908731974 6.9402800000000004
52.454617094216 6.969760000000001
52.47943774942214 6.906960000000001
52.50426105495102 6.92041
52.529280976059844 6.88468
52.554109609024096 6.913010000000001
52.57894089837482 6.88103
52.60377484613117 6.903689999999999
52.62880550079408 6.8246
52.65364479223379 6.821289999999999
52.67848674816189 6.82642
52.70352547971946 6.82486
52.72837279155837 6.83017
52.753222773982785 6.76502
52.778075429022984 6.76178
52.80312495150885 6.75122
52.827982978797436 6.7206600000000005
52.85284368481815 6.725210000000001
52.87770707160767 6.70955
52.90276741793998 6.6688
52.92763619336701 6.673780000000001
52.952507655698504 6.6646
52.977381806977576 6.69154
53.00245301017842 6.6477
53.02733256653592 6.64509
53.052214817996074 6.625719999999999
53.077099766608484 6.61152
53.102181859804446 6.5592
53.127072229988265 6.569210000000001
53.15196530349892 6.56791
53.17686108239249 6.5561300000000005
53.20195409881522 6.51196
53.22685531582556 6.5374300000000005
53.25175924441303 6.52564
53.27666588664027 6.53573
53.30176985962693 6.4844800000000005
53.3266819565689 6.4619
53.35159677336455 6.43053
53.376514312083096 6.44916
53.40162927507703 6.42733
53.42655228516116 6.382680000000001
53.45147802340193 6.374280000000001
53.47660125628886 6.3685599999999996
53.50153247842639 6.36307
53.52646643496923 6.3365599999999995
53.55140312799818 6.33677
53.576537409691696 6.34474
53.60147960336152 6.329280000000001
53.626424539786164 6.276269999999999
53.65137222105307 6.2567900000000005
53.67651758529126 6.2638300000000005
53.70147078399681 6.25156
53.72642673383343 6.25745
53.75138543689533 6.1941
53.776541917524526 6.1619
53.801506154876755 6.18996
53.826473151763246 6.17929
53.851442910284916 6.13379
53.87661054126026 6.14696
53.9015858509782 6.107530000000001
53.92656392866066 6.11656
53.95154477641532 6.12629
53.976723591801296 6.05695
54.00171000771266 6.0726
54.02669920004598 6.08355
54.051691170915745 6.0502400000000005
54.076881204886796 6.0668
54.101878760928514 6.02841
54.12687910187696 6.01886
54.152077577768296 5.956930000000001
54.1770835166946 5.92776
54.20209224691339 5.93893
54.22710377055121 5.94886
54.25231352511594 5.8609599999999995
54.27733066384342 5.8647599999999995
54.30235060239643 5.88732
54.32737334290836 5.86806
54.35259441062629 5.82187
54.377622783395324 5.83933
54.40265396455061 5.81834
54.42768795623251 5.7683
54.45292037169559 5.69979
54.477960012857906 5.750319999999999
54.50300247099511 5.74392
54.52804774825457 5.75477
54.55329154616743 5.6499
54.57834249018678 5.63875
54.6033962597977 5.62869
54.6284528571545 5.59065
54.653708072335164 5.61261
54.67877035378786 5.60725
54.70383546947698 5.56144
54.72890342156389 5.52594
54.7541700889442 5.48278
54.77924374251975 5.47665
54.8043202390049 5.47037
54.82959552413022 5.42413
54.8546777351945 5.41568
54.87976279569621 5.37386
54.90485070780914 5.39916
54.930137506558005 5.33142
54.95523115074295 5.33965
54.98032765308844 5.32125
55.005427015775496 5.29689
55.03072536339621 5.2991
55.05583047570572 5.269880000000001
55.080938454927676 5.23382
55.10604930325027 5.244730000000001
55.131359235107396 5.21707
55.15647585066083 5.15439
55.181595341907496 5.10447
55.20671771104285 5.04444
55.232039262617704 5.10239
55.25716741665048 5.0687
55.28229845518636 5.04898
55.30743238042802 4.98123
55.33276558731939 4.94689
55.357905315183636 4.98174
55.383047936390035 4.941319999999999
55.40819345314859 4.93229
55.433538351073295 4.90736
55.458689688238415 4.86459
55.483843927614096 4.81522
55.509197623043605 4.81074
55.53435769621134 4.80009
55.55952067826466 4.74072
55.5846865714265 4.7744800000000005
55.61005202069737 4.75853
55.63522376553902 4.78458
55.66039842818645 4.75322
55.68557601087004 4.6909
55.7109532500271 4.62641
55.73613670233794 4.69723
