TT I
1.2716486653135266 7.42272
1.2939594142134223 7.20613
1.3162702121660406 6.61799
1.3385810600174564 6.696619999999999
1.3608919586137629 6.71299
1.383202908801069 6.3644
1.405513911425503 5.70911
1.4278249673332093 6.31425
1.4501343378461518 5.99063
1.4724455028545926 6.06081
1.4947567236847858 6.44563
1.517068001182951 6.44836
1.5393793361953272 5.95404
1.5616907295681737 5.4096
1.5840021821477681 5.17411
1.60631369478041 5.17011
1.6286252683124185 5.40188
1.6509369035901333 4.11375
1.6732468618895553 5.24569
1.695558623192809 4.65802
1.7178704487808514 4.70596
1.7401823395001077 4.9492
1.7625012545597203 4.98489
1.7848028405262486 5.04516
1.8071218901122095 5.14795
1.8294236121921872 4.47452
1.8517427996910911 4.60582
1.8740620574440425 4.02419
1.8963639900671978 4.60915
1.9186833908139995 4.71293
1.9409854680117449 5.44654
1.9633050151394713 5.01483
1.9856246367570705 4.88769
2.0079269371922672 5.08
2.03024671027244 5.70493
2.0525491637446027 5.12296
2.074869091674931 4.45234
2.097171701569106 4.11266
2.1194917877373847 5.03108
2.141811954326636 4.56576
2.164114805233074 5.56609
2.186435135143035 7.0868899999999995
2.208738150935709 15.5213
2.231058647554722 32.6293
2.2533792288321184 25.3303
2.275682498336085 11.0084
2.298003251406138 6.77612
2.3203066942619714 6.0347
2.3426276225136022 6.11457
2.3649486396617507 6.3200199999999995
2.387252348930071 6.869510000000001
2.4095735463442893 6.4469
2.4318774374315884 7.06048
2.4541988185014043 6.791589999999999
2.476502894794693 7.96443
2.498824462909887 7.654669999999999
2.521146125856138 6.907760000000001
2.5434504863470337 7.7292
2.5657723414244717 8.34897
2.588076895590662 8.83303
2.610398946189713 8.39221
2.6327210958598384 8.78673
2.6550259469304716 8.381789999999999
2.6773482972090137 8.143310000000001
2.6996533504259 8.42252
2.7219759047039602 9.00555
2.744298562293959 8.92563
2.7666039251246595 7.833080000000001
2.7889267918020164 7.8684199999999995
2.8112323652516555 8.62625
2.833555444408179 8.9041
2.8558786311183852 8.44806
2.8781845268938557 8.96463
2.9005079311721484 9.35261
2.9228140460410397 8.962539999999999
2.9451376712799635 9.21883
2.967444008632326 10.6833
2.9897678582247247 10.0806
3.0120918213106695 10.8685
3.0343984987899373 10.8655
3.0567226913198637 11.5207
3.079029599759726 12.0061
3.101354025127254 12.2353
3.123678568232338 13.5648
3.145985829517914 13.6304
3.16831061055229 13.8511
3.1906181112775593 15.2024
3.212943133635653 15.4172
3.2352682779763207 15.7229
3.2575761442691227 16.0575
3.2799015350264273 16.3458
3.302209649240067 16.2424
3.3245352898092655 16.8402
3.3468436553365257 17.0464
3.369169549113219 17.4752
3.3914955708171384 18.6439
3.413804319727358 19.518
3.4361305997334863 19.0054
3.4584396084414553 19.7821
3.4807661501462652 20.4599
3.503092824025881 21.1136
3.5254022288463154 21.0834
3.5477291695206588 21.5284
3.5700388426251948 22.3217
3.5923660534916446 23.8941
3.6146934007816114 40.3589
3.637003482731501 98.4161
3.6593311053109985 110.889
3.681641464033634 62.7877
3.7039693653009733 32.0847
3.726297407241705 26.6014
3.7486081875460804 25.8245
3.7709365132734978 26.1215
3.793247578841633 26.5084
3.8155761917550093 26.781999999999996
3.8378875459837216 26.993000000000002
3.8602164494827234 27.2672
3.882545499606844 28.1019
3.9048572932539183 28.6604
3.9271866390645718 29.267
3.9494987298666713 29.7884
3.971828374764527 30.3027
3.9941581705403255 30.6176
4.016470713506008 31.496
4.038800813471445 32.3102
4.061113662089144 32.4654
4.0834440696459176 33.1557
4.105774632334751 33.4961
4.128087945865126 34.6454
4.150418821249301 35.2918
4.172732448931298 37.0777
4.195063640413578 38.692
4.2173775856475215 42.9399
4.239709096631102 77.5758
4.262040768704612 268.075
4.284355196706267 367.7
4.306687193387355 238.378
4.329001947444346 88.81700000000001
4.35133427213731 48.9977
4.373666762177566 44.2236
4.395982011761091 44.4357
4.418314834921175 45.635
4.44063041906622 54.0711
4.4629635787515625 67.3736
4.4852969080429785 67.1542
4.5076130004776225 54.5592
4.529946671403969 49.4771
4.552263106909177 49.0861
4.574597122877047 50.1863
4.596931312711224 52.1937
4.619248269273446 52.3005
4.6415828092605835 53.4386
4.663900117405352 53.9112
4.686235010953232 55.3319
4.708552674085913 57.1799
4.730887924602802 58.3191
4.753223354952695 59.6886
4.775541557023902 60.625
4.797877349456786 62.6502
4.820195915032126 63.9457
4.842532072957498 65.6028
4.864868414979744 67.6284
4.88718753227192 69.38600000000001
4.909524244902505 71.5617
4.931843734218147 72.9679
4.954180820867835 75.3382
4.976518095879839 78.2342
4.998838149695359 80.5716
5.021175803844231 84.1699
5.043496238205739 86.7026
5.065834274903528 91.03399999999999
5.088172504230693 95.3204
5.1104935158799565 100.788
5.132832132875765 121.86
5.155153533596801 166.622
5.1774925416746225 196.09900000000002
5.199814334878411 270.431
5.2221537374521505 720.045
5.244493338631803 2249.85
5.266815727034316 7244.59
5.289155727832427 13445.1
5.311478517248165 9150.31
5.333818921080011 2779.87
5.356159527788849 508.194
5.3784829252032536 172.743
5.400823940070432 137.58
5.423147747031976 123.28
5.445489173474152 114.96600000000001
5.467830807066149 110.244
5.490155234831516 106.455
5.512497285125229 103.10799999999999
5.534822130975162 101.632
5.557164601388673 99.3197
5.579489868738879 96.8981
5.601832762690846 95.9847
5.6241758697774475 95.2563
5.646501775867269 94.4944
5.668845311622074 92.9298
5.691171647754637 91.72399999999999
5.713515615597765 90.8347
5.735859800852677 89.4085
5.758186788542988 89.16799999999999
5.780531411018185 89.0525
5.802858837297399 88.3959
5.825203900414495 88.3778
5.8475491852224 88.2479
5.869877275883075 88.8806
5.892223006467101 89.339
5.914551544266608 90.5563
5.936897724049891 91.4836
5.959244129804903 95.3034
5.981573344815301 106.208
6.0039202049061 164.157
6.026249875609095 342.658
6.04859719346037 771.336
6.070927323278297 2003.3
6.093275102315365 4594.83
6.115623113320588 5448.89
6.137953938319995 3292.19
6.160302415650845 924.321
6.182633708324452 214.90900000000002
6.2049826554078376 108.663
6.227331838745022 89.6186
6.249663839443684 82.8219
6.27201349767565 80.6353
6.294345974611799 88.6468
6.316696111167083 103.08200000000001
6.339046488263839 97.2989
6.361379686074702 80.6982
6.383730546639482 70.9712
6.406064229255215 67.6306
6.428415576718203 67.0249
6.450749747566656 66.09899999999999
6.47310158535871 65.1404
6.495453669698332 64.1651
6.517788579421056 63.7753
6.540141159237969 62.7502
6.562476565766648 62.0761
6.5848296444934045 61.9875
6.607182974060425 61.6292
6.6295191323281015 62.2286
6.651872965955752 65.6654
6.6742096296068985 95.8311
6.6965639707294615 150.374
6.71891856698715 151.547
6.741255995248479 101.20200000000001
6.763611104154477 69.5508
6.785949046381137 60.2041
6.808304671371482 57.5567
6.8306605557940046 57.2601
6.852999275508618 56.4964
6.875355681171544 56.1192
6.897694923437771 55.7803
6.92005185377892 55.9393
6.9423916220322655 55.6501
6.964749080490181 55.0451
6.987106804399774 54.7418
7.009447368180821 54.8872
7.031805625367033 54.6771
7.054146723727803 54.6937
7.076505517631004 54.1444
7.098864581288365 54.7259
7.121206488070854 54.5071
7.143566093607822 54.5945
7.165908543567245 54.5633
7.188268694426048 54.6338
7.2106291193438095 54.8769
7.232972390625943 56.8355
7.255333366030969 71.1483
7.277677189091925 134.939
7.300038718428332 191.157
7.322400526130865 159.863
7.344745183422596 95.6975
7.367107550224791 62.9303
7.389452767901992 56.1299
7.411815697249891 54.7579
7.434161478756298 54.0205
7.456524974096713 53.7347
7.478888753837185 53.8289
7.501235387657368 54.0022
7.523599738562711 54.0658
7.545946944825532 54.0535
7.568311870344528 54.7904
7.5906770845765665 54.7779
7.613025156078678 56.2296
7.635390950099687 57.592
7.657739602662809 56.3542
7.680105979923558 54.9906
7.702472650212829 55.146
7.724822180948224 55.2301
7.747189439655568 55.3741
7.769539560075357 55.4158
7.791907410653562 55.7862
7.81425812420825 55.7207
7.836626570110925 55.6617
7.858995315087906 56.7476
7.881346924933401 56.6896
7.903716270417482 57.3853
7.926068482028405 57.4121
7.948438431475253 58.3988
7.9708086843180235 58.6577
7.993161805171116 59.378
8.015532667162402 59.6919
8.037886398416653 60.6179
8.060257873014221 61.1954
8.082629655331942 61.7324
8.104984308787587 62.4588
8.127356708900503 66.2088
8.149711981398308 72.8469
8.172085002766314 75.2934
8.194458336181368 71.5692
8.216814543847752 68.5237
8.23918850371002 68.2862
8.26154533906492 68.2474
8.283919928836452 70.1958
8.306277395339652 71.223
8.328652618483376 72.4112
8.351028159736202 74.0624
8.373386579575245 76.0046
8.395762759396959 77.9866
8.418121819038275 82.7746
8.440498640894003 96.94200000000001
8.462875785192262 111.586
8.485235811156207 118.177
8.507613602688501 139.983
8.529974277114228 204.713
8.552352719347912 318.186
8.574731488360351 553.706
8.59709314210385 1112.92
8.619472567021075 1911.84
8.64183487789147 2346.31
8.664214962183097 1886.48
8.686577933647762 935.757
8.708958680784317 350.918
8.731339760774953 160.106
8.753703729764451 108.334
8.77608547780821 96.6427
8.798450116065078 93.2757
8.820832535634787 90.7729
8.843215292401656 88.9054
8.865580941199045 87.4413
8.887964374703538 86.6923
8.910330701447199 88.1566
8.932714815164482 90.9549
8.955099270424924 90.3934
8.977466620733543 86.8866
8.999851761421976 84.1015
9.022219798361645 82.1917
9.04460562795561 81.8559
9.066991803441677 81.058
9.089360876979615 81.184
9.111747746589993 80.8953
9.13411751544971 80.7281
9.156505082664324 79.8528
9.178875550323522 80.4169
9.20126381862328 80.9478
9.223652438908596 81.4675
9.246023961427412 80.9052
9.26841328802173 80.0608
9.290785518039224 80.2977
9.313175554425882 80.6835
9.335565947154315 80.6847
9.357939245086508 80.7913
9.380330352834827 81.1215
9.40270436697103 81.5488
9.425096193225055 81.0854
9.447488380180165 81.9655
9.469863475295412 82.2677
9.492256385987508 82.8468
9.514632206018318 83.0744
9.537025843935714 83.3196
9.559402392368193 84.3383
9.581796761000229 85.5455
9.604191496441521 86.3988
9.626569144158516 89.9203
9.648964615551032 95.5871
9.671343000390081 97.385
9.693739211225699 94.9225
9.716135793237463 91.7085
9.738515290448102 90.677
9.760912617143402 91.304
9.783292860202891 92.7264
9.805690935076182 94.3485
9.828089385495742 94.8432
9.850470754023561 97.1795
9.872869957865444 105.656
9.89525208097539 122.568
9.917652041736662 136.437
9.940052382417589 133.881
9.962435644102392 131.70600000000002
9.984836746950979 151.868
10.007220771957746 201.328
10.029622640473708 289.105
10.052007432299963 457.772
10.074410069984072 736.493
10.096813093716005 1254.46
10.119199042482517 1771.24
10.141602840636468 2051.46
10.163989564971628 1571.84
10.186394141051062 873.421
10.208799107559706 371.31199999999995
10.231187001965623 178.35299999999998
10.253592751657669 123.13600000000001
10.275981430388155 110.43700000000001
10.298387966769793 110.95700000000001
10.320794897965431 113.829
10.343184759907361 112.994
10.36559248305461 107.197
10.387983138083852 102.323
10.410391656691655 102.369
10.432800574501677 109.625
10.455192425893369 121.552
10.47760214443012 143.70600000000002
10.499994797678786 184.707
10.522405320453982 264.22
10.54479877906917 400.749
10.567210109595656 535.1030000000001
10.5896218454736 600.316
10.612016518879773 510.29
10.634429067781074 344.14099999999996
10.656824555333241 198.77599999999998
10.679237920773568 122.845
10.701651695961992 94.4943
10.724048411481384 87.2692
10.746463008485165 84.7447
10.768860546937125 83.0755
10.791275969274796 81.3016
10.81369180576079 80.5577
10.836090585366925 79.47800000000001
10.858507252467449 78.4316
10.88090686379991 77.3874
10.903324365036394 76.8139
10.925724811614439 76.627
10.948143150509463 78.1286
10.970561909719066 77.4463
10.992963615930844 75.6982
11.015383218085756 73.222
11.037785768347074 71.633
11.06020621697282 71.2822
11.082627090322113 71.0243
11.105030913430326 70.4641
11.12745263854165 71.2454
11.149857314510728 75.4367
11.172279894912576 82.4511
11.194702904450653 83.4336
11.217108866490921 78.6571
11.239532736615194 73.789
11.26193956033512 71.0551
11.284364294577085 69.1542
11.306789462371718 67.5215
11.329197585398376 66.2516
11.351623622610898 65.7872
11.37403261614354 64.8666
11.396459526308487 64.6611
11.418869393879497 64.3446
11.441297180532617 64.0855
11.463725406927658 63.6883
11.486136592353875 63.3601
11.508565700543707 64.0803
11.530977768845315 66.327
11.553407762368774 67.2361
11.575838200059769 66.6374
11.598251599479612 64.4383
11.620682927815501 62.6759
11.64309721895548 62.3098
11.665529441478206 61.8074
11.687962112597958 61.7214
11.710377748130886 61.5913
11.732811318753434 61.6701
11.755227854859067 61.8241
11.777662328529495 61.7736
11.800079768750786 61.342
11.822515149015453 61.2616
11.844950984084935 61.4498
11.867369787303163 61.0079
11.889806534289491 61.1292
11.912226250487029 61.3032
11.934663912939751 61.6099
11.9571020346363 61.7617
11.979523127133968 61.2357
12.001962169624331 61.9628
12.024384183972964 62.6622
12.046824150809913 64.8948
12.069264581333726 68.8093
12.091687985297767 74.2581
12.11412934550045 82.4903
12.136553680195208 96.5002
12.158995973632788 118.353
12.181438735204349 149.537
12.20386447284199 183.50400000000002
12.226308172985636 204.986
12.24873485024193 197.865
12.271179492516982 162.488
12.293607112949127 123.45
12.316052700916226 95.0165
12.338498763250042 77.9797
12.360927805303868 69.7069
12.383374818673879 65.6043
12.405804812803074 63.3159
12.428252780773262 63.0764
12.45070122756722 62.9663
12.473132656675375 62.8857
12.49558206341869 63.1125
12.518014453510101 63.1587
12.540464823770117 63.0615
12.562915677315177 63.0315
12.58534951575545 63.9545
12.607801338171472 66.3276
12.630236146511358 72.7302
12.652688941369085 78.1476
12.675124723177234 78.3668
12.697578494048786 74.1153
12.720032754458185 69.0364
12.742470003354093 66.7742
12.764925245138771 66.4377
12.787363476431278 66.6822
12.809819703166806 66.8412
12.83227642391173 67.6972
12.854716135692716 67.9839
12.877173846755147 69.1842
12.899614549869717 69.1819
12.9220732548287 69.9054
12.94453245827299 70.2955
12.966974655289818 71.49
12.989434858002571 72.462
13.011878055298721 72.8824
13.034339260862497 73.9433
13.056800969391883 75.0233
13.079245674017244 76.7657
13.101708390774869 78.2466
13.12415410463411 82.9438
13.146617833206086 92.4338
13.169064559883248 102.854
13.191529303857127 115.171
13.213994557076367 135.491
13.236442809902437 169.975
13.258909083908291 226.515
13.28135835851934 298.039
13.30382565690295 377.365
13.326293469022952 435.815
13.348744283242008 430.395
13.371213125129904 352.066
13.39366497011003 252.67700000000002
13.416134845360597 169.44299999999998
13.438605238843131 120.605
13.46105863690397 101.057
13.483530069144786 99.0742
13.505984506951902 103.03399999999999
13.528456981549432 111.76700000000001
13.550929978879088 124.928
13.573385983253365 146.791
13.595860028340867 185.236
13.618317081455832 241.196
13.64079217790333 306.348
13.663250283359057 357.39099999999996
13.685726434770173 381.42699999999996
13.708203115221277 338.505
13.730662806148091 255.692
13.75314054697177 179.132
13.775601299246777 123.941
13.798080104050406 94.6243
13.820559442405358 83.2926
13.843021793671388 79.9604
13.865502201420897 78.3016
13.887965623051947 77.8246
13.910447103807167 76.6675
13.932929122629764 75.4487
13.955394156785959 75.1062
13.977877254034569 74.2325
14.000343367582113 73.3601
14.022827546871707 72.6077
14.045294743423524 71.6512
14.06778000837062 71.1513
14.090265817715476 71.0139
14.112734645763819 70.9421
14.13522154619454 70.6779
14.157691466286913 70.9349
14.180179461423874 70.6702
14.202668005486178 70.1424
14.22513957064374 69.4737
14.247629214846473 68.9187
14.270101881097517 68.865
14.29259262906496 69.2209
14.315083930490205 70.1386
14.337558255389705 70.3247
14.360050666019726 69.961
14.382526101071944 68.8487
14.405019624534942 68.0752
14.427513705993134 67.3663
14.449990813291825 67.2285
14.47248601302899 66.8769
14.49496423954951 67.391
14.517460561197822 67.3968
14.539939910570322 67.2104
14.562437357763558 67.6005
14.58493536931253 68.6284
14.607416409993311 69.7431
14.62991555254159 70.4485
14.652397725157423 70.3398
14.674898002342799 69.4494
14.697398848433282 68.5544
14.719882725991326 69.2311
14.74238471217934 69.72
14.764869730765593 71.7973
14.787372860692983 74.4302
14.809876564079925 78.1808
14.83236330125751 83.1421
14.854868153850365 90.777
14.877356041159485 103.789
14.899862046604186 121.911
14.922351087688757 149.214
14.944858249632887 181.713
14.967365991421232 213.115
14.989856770231246 230.045
15.012365673994204 218.99
15.03485761569738 187.94400000000002
15.05736768508665 148.484
15.07987833888692 112.63799999999999
15.102372032001655 88.5009
15.124883856909658 75.4079
15.14737872204565 70.8542
15.169891721717274 69.1353
15.192405310371893 69.0444
15.214901940621196 69.682
15.237416709527137 69.8904
15.259914520936249 70.2913
15.282430473753607 69.0188
15.304947020131227 67.9201
15.327446610371178 66.775
15.349964346154254 65.8524
15.372465126703139 65.3702
15.394984055556009 65.0099
15.417486030076159 64.89399999999999
15.44000615566487 64.4729
15.462526881230803 64.7517
15.485030653812652 64.9124
15.507552581617434 64.8849
15.530057557334603 64.8305
15.55258069104857 64.7431
15.575104429329837 64.759
15.597611216864632 64.2081
15.620136166564563 64.0997
15.6426441664095 64.7865
15.665170331202765 66.1169
15.687697105158826 68.4289
15.710206930593545 71.2812
15.732734925158933 75.0238
15.755245972089478 80.2692
15.77777519094324 88.8928
15.800287463046663 101.897
15.822817909869592 121.074
15.84534897229804 146.077
15.867863089299354 172.16099999999997
15.890395385222186 192.135
15.912910736597423 197.21599999999998
15.935444269699861 182.275
15.957978423016485 153.672
15.980495633101265 120.919
16.003031029129367 94.2935
16.02554948280019 76.1893
16.048086125229432 67.1206
16.070623392487107 64.4487
16.09314371869582 63.6133
16.11568223789321 62.8676
16.13820381691126 61.6623
16.160743591742527 60.3414
16.183283996022084 59.3598
16.205807461423195 58.3877
16.228349126881973 57.9528
16.25087385432698 57.8644
16.27341678466365 57.1996
16.29594277784926 57.3551
16.31848697676433 57.5359
16.341031811604868 58.1627
16.36355971058487 58.599
16.3861058195587 58.1579
16.40863499352978 56.7662
16.431182380342005 55.8556
16.453730407713202 55.0083
16.476261501364792 54.5855
16.498810812136167 54.3431
16.52134319004079 54.4768
16.54389378792203 54.1539
16.566445031001553 54.1088
16.588979342490088 54.0561
16.61153187824822 53.8205
16.634067483263312 53.7529
16.656621315414416 53.7919
16.679175797408888 53.381
16.701713349928728 53.5065
16.72426913389191 53.8697
16.74680798922351 53.7854
16.76936507887444 53.9169
16.791905240734874 53.7841
16.814463639794468 53.6691
16.837022695210294 53.7387
16.859564824093756 54.2136
16.882125194503903 55.0495
16.904668639217885 55.8977
16.927230328348003 55.9583
16.949792678493612 56.0404
16.972338104193863 55.1438
16.994901778652235 54.512
17.017448529496576 54.3466
17.040013531998152 54.3607
17.06257920018044 54.7117
17.0851279459922 55.495
17.107694947817667 56.1872
17.130245028099072 56.8546
17.15281336730298 58.1172
17.17536478578733 59.5389
17.19793446610687 61.7532
17.220504818648422 64.8136
17.243058251703697 68.1605
17.265629950971032 73.0533
17.288184731571736 77.9753
17.310757781306908 82.5695
17.33333150794385 82.5533
17.355888317140174 80.3343
17.37846339986244 75.1289
17.401021565958885 68.7787
17.42359800851343 63.7303
17.44617513265564 60.5778
17.468735341390783 58.6666
17.491261035594565 57.7738
17.51396340099364 57.6677
17.536490463869136 58.0003
17.559018209820174 57.75
17.58154663977963 57.8789
17.604251766089718 57.9269
17.626781572227713 58.0004
17.64931206518155 58.4949
17.671843245885103 59.192
17.69455114821572 59.5023
17.717083712612634 59.6429
17.739616967569667 59.6761
17.762150914021706 59.8815
17.78486160749854 59.949
17.807396945166804 60.2108
17.829932977143503 60.7843
17.85246970436452 61.8711
17.875183204129467 63.5466
17.897721330097664 65.3183
17.920260154126645 67.3051
17.942799677153296 70.2934
17.9655159983646 73.3032
17.988056927677544 78.7475
18.010598558807683 86.0874
18.033140892692916 96.6596
18.05586005052525 108.92
18.07840379824407 120.71
18.10094825154059 131.27100000000002
18.12366954819864 138.17600000000002
18.146215420998306 136.731
18.16876200220057 126.61200000000001
18.191309292745153 112.84100000000001
18.214033452627167 99.5749
18.236582170236648 88.4244
18.259131600016456 83.3182
18.281681742907335 83.7189
18.304408781233683 88.4347
18.32696035875955 94.2622
18.349512652227624 100.012
18.372065662579683 105.155
18.394795594587553 106.76
18.41735004715306 102.226
18.43990521943684 94.4983
18.46246111238171 84.8522
18.485193953325208 75.5806
18.507751296070428 68.6042
18.530309362314178 64.4377
18.552868153000343 62.2358
18.57560391815056 61.0416
18.59816416623245 60.3542
18.620725141597372 59.9006
18.643286845190268 59.4562
18.666025549835414 59.3013
18.688588718427933 58.6972
18.711152618092243 58.4898
18.73389353884365 58.1603
18.75645890921984 57.8334
18.77902501351406 57.4221
18.801591852673102 57.111999999999995
18.824335739722738 56.8793
18.846904057212626 56.8585
18.8694731124168 56.4799
18.89204290628315 56.4789
18.914789774966803 56.1639
18.937361054791623 56.075
18.959933076131318 55.8317
18.982505839934877 55.8096
19.00525570560582 55.7486
19.027829963004184 55.6753
19.05040496572238 55.8885
19.072980714710468 55.6086
19.095733592739563 55.5716
19.11831084296757 55.7972
19.140888842324735 56.4507
19.16346759176222 56.6842
19.18622349753803 57.1605
19.208803755869358 57.9229
19.231384767143577 58.7363
19.253966532312948 60.0542
19.276725481241822 62.4188
19.29930876296784 65.028
19.3218928014549 68.3763
19.34465404436217 71.5782
19.36723960516257 74.8522
19.389825925592426 75.4309
19.412413006605938 74.4829
19.43517731967805 70.5491
19.457765930683355 65.928
19.48035530514408 61.4926
19.50294544401556 57.7478
19.525712842708348 55.2876
19.54830451925909 54.0214
19.570896963095727 53.31100000000001
19.593490175174704 52.5947
19.616260674962184 52.7197
19.638855432416964 52.4677
19.661450960992624 52.7209
19.68404726164677 52.4242
19.706820878021247 52.1433
19.729418731756834 52.3885
19.752017360452857 52.2598
19.77461676506804 52.3368
19.797393513540218 52.303999999999995
19.819994478951667 52.4777
19.84259622316767 53.1036
19.8651987471481 53.4313
19.887978643247177 53.5076
19.91058273574792 53.9507
19.933187610901943 54.6475
19.955969879466828 55.7155
19.97857632894404 57.184
20.00118356396599 58.8994
20.023791585494575 61.0998
20.046577028914875 64.0516
20.069186632506966 66.3804
20.091797025500632 68.4153
20.114408208858933 69.0269
20.137196842715273 68.5199
20.159809615886765 66.6084
20.18242318232135 63.7624
20.20503754298326 61.5516
20.227829382875154 60.6416
20.250445341109344 60.816
20.27306209647285 61.881
20.29567964993108 63.2339
20.31847471147704 64.0731
20.34109387027612 64.9848
20.363713830075454 64.5275
20.386334591841646 62.6775
20.409132890679302 60.1709
20.431755265564437 56.9706
20.454378445325528 54.2432
20.477002430930366 52.3973
20.499803982716553 51.4242
20.522429589228004 50.7366
20.54505600449589 50.1843
20.567683229489194 49.8964
20.590488049900088 49.5306
20.61311690359731 49.221000000000004
20.63574656993626 49.0193
20.658553853717297 48.5232
20.681185154618298 48.6739
20.703817271080066 48.5708
20.72645020407368 48.1407
20.749260783967177 47.9473
20.771895359337133 47.8365
20.794530754161617 47.9006
20.817166969412938 47.888000000000005
20.83998086114876 47.6756
20.86261872660049 47.6527
20.885257415405402 47.766000000000005
20.90789692853701 47.5006
20.930714147864748 47.4658
20.953355319030678 47.6762
20.97599731745334 47.8439
20.99864014410749 47.4294
21.021460706796564 47.6106
21.044105199328826 47.8471
21.06675052302631 47.9339
21.089396678865015 47.9458
21.112220600704806 48.318999999999996
21.134868430275347 48.5345
21.15751709492456 48.9881
21.180166595629693 49.4631
21.202993892429635 49.9578
21.22564507473034 50.2397
21.24829709602816 50.6081
21.27112693608965 50.5402
21.293780644891275 50.2836
21.316435195634053 49.7632
21.339090589297417 48.9992
21.361923832041875 48.4967
21.384580921090404 47.8508
21.407238856007325 47.3194
21.429897637773326 47.3256
21.45273429906592 47.4084
21.475394784108598 47.2607
21.498056118951983 47.1609
21.520718304578022 47.4133
21.543558400304388 47.5821
21.566222297108816 47.6956
21.58888704765135 47.8222
21.61155265291521 47.9542
21.63439619898156 48.2961
21.657063523335786 48.5377
21.67973170537063 48.9019
21.7024007460706 49.3737
21.72524775840385 50.1194
21.747918526116475 51.0389
21.770590155457388 52.2708
21.79326264741238 53.7055
21.816113141960237 55.7954
21.838787368860547 57.9109
21.861462461341976 59.7804
21.884315579735777 61.9309
21.90699241312273 63.2067
21.92967011506078 63.5512
21.95234868653799 62.917
21.9752053151131 61.6462
21.997885635446785 59.8228
22.020566828293532 58.0368
22.04324889464272 56.5575
22.066109049404666 55.6254
22.088792872571794 55.2716
22.111477572219204 55.2193
22.1341631493376 55.1836
22.157026846313123 54.9635
22.179714188221507 54.2441
22.202402410582668 53.107
22.22509151438863 51.5578
22.24795876962584 50.3277
22.270649646204486 49.4111
22.293341407213727 48.7356
22.316034053646906 48.368
22.338904883215342 48.1909
22.36159931041458 48.0866
22.38429462602756 48.1009
22.40699083104897 47.9802
22.429865251039757 47.8463
22.452563244831367 47.941
22.47526213102522 47.9504
22.49813925616515 47.696000000000005
22.520839937143307 47.4227
22.543541513520587 47.6043
22.56624398629403 47.3999
22.589124730075895 47.4431
22.611829005656723 47.5723
22.63453418063466 47.4609
22.657240256008077 47.8904
22.680124634582935 47.8726
22.70283252079775 47.9656
22.725541310413075 48.29
22.74825100442868 48.4982
22.771139033969575 49.0076
22.79385054687155 49.0193
22.81656296718292 49.8468
22.83927629590484 50.7266
22.862167992606945 51.7159
22.88488314827121 53.0706
22.907599215359284 53.9855
22.93031619487366 55.3719
22.953211574954405 56.3269
22.975930389478226 57.1766
22.998650119445763 57.161
23.02137076586092 56.2919
23.044269845560063 54.8721
23.06699233506288 53.3698
23.089715744034912 51.6629
23.112617610931565 49.9577
23.135342869061212 48.8689
23.158069049684816 48.1183
23.1807961538087 47.8052
23.20370174880544 47.9559
23.226430710184808 47.7506
23.249160598093425 47.6674
23.271891413539002 47.6321
23.294800752937697 47.6375
23.31753343374794 47.9842
23.340267045128353 47.8588
23.36300158808808 48.1988
23.38591468821339 48.428000000000004
23.408651104658304 48.8609
23.431388455719986 49.4675
23.454126742409 50.2464
23.4770436196085 51.4469
23.499783787914662 52.8313
23.522524894889884 53.8576
23.54526694154616 55.2598
23.56818761219047 56.4522
23.59093154860734 56.9463
23.613676427751283 57.1074
23.636422250635754 56.1806
23.659346731118656 54.4852
23.68209445191868 52.5825
23.704843119509587 50.4121
23.72759273490623 48.5966
23.750521041644767 47.3184
23.77327256312355 46.3772
23.796025035462787 45.7487
23.818956224555475 45.1005
23.841710609113413 45.1516
23.86446594758979 44.8869
23.887222241002014 44.7279
23.910157285144578 44.4097
23.932915498962537 44.4247
23.955674670778713 44.0219
23.978434801611975 43.9733
24.001373717286125 43.8866
24.024135776723917 43.6893
24.046898798245582 43.7148
24.06966278287146 43.6103
24.092605586582614 43.3166
24.115371508023642 43.1014
24.1381383956401 43.0544
24.16090625045381 43.0265
24.183852958731244 43.0105
24.206622758582608 42.9198
24.229393528706886 42.8451
24.252165270127392 42.895
24.27511589952438 42.7836
24.297889594216997 42.4608
24.32066426328598 42.3088
24.34343990775613 42.3246
24.36639447485003 42.3352
24.38917208083877 42.2733
24.41195066531332 42.2474
24.43490819850244 42.2991
24.457688750692377 42.1962
24.48047028445616 42.053000000000004
24.503252800821233 42.2258
24.526214300784112 42.1703
24.548998793132213 42.1484
24.57178427117417 42.2516
24.59457073593893 42.1351
24.617536219319863 42.1303
24.64032466834748 42.0313
24.663114107195035 42.0312
24.685904536893013 41.707
24.708874020360852 41.6203
24.731666442613744 41.516999999999996
24.754459858818787 41.4586
24.777254270007962 41.4335
24.80022777025625 41.3638
24.82302418230472 41.4208
24.845821592443674 41.3236
24.86862000170663 41.3121
24.891597535453727 41.1701
24.914397953892728 41.4123
24.93719937456671 41.2363
24.96000179851076 41.305
24.98298338249997 41.4835
25.00578782394922 41.7877
25.028593271784167 41.8796
25.05157790644186 42.1404
25.07438537804115 42.4013
25.097193859145293 42.7131
25.120003350792075 42.9373
25.142992065061257 43.3245
25.165803588823465 43.61
25.18861612625217 43.6403
25.211429678386736 43.7341
25.234422489079968 43.8278
25.257238081693636 43.8706
25.280054692141732 44.0982
25.3028723214652 44.0793
25.325869245420463 44.2133
25.348688923599397 44.2255
25.371509623787006 44.1245
25.394331347025812 43.8548
25.41733240110666 43.2648
25.440156181590016 42.6817
25.46298098826268 42.2226
25.48580682216873 41.718999999999994
25.50881202326435 41.0464
25.53163992281684 40.7638
25.55446885274561 40.4189
25.577298814096377 40.0662
25.600308179121807 40.0224
25.623140214533745 40.0934
25.64597328451537 39.8808
25.66898578564376 39.7655
25.691820936010206 39.8432
25.714657124097695 39.6798
25.737494350954734 39.565
25.760511045684957 39.6491
25.783350361364224 39.6641
25.806190718969255 39.705999999999996
25.82903211955018 39.8258
25.852053024868923 39.8124
25.874896522722523 39.7309
25.897741066713106 39.7044
25.920586657892454 39.929
25.943611790812668 39.9527
25.966459487728237 40.0854
25.989308234998564 40.2343
26.01215803367705 40.4863
26.03518741123814 40.7227
26.05803932412957 40.8376
26.080892291600094 40.8653
26.10374631470478 40.8149
26.12677995397268 40.9274
26.14963609978026 40.8915
26.172493304397875 40.4497
26.19535156888223 40.295
26.218389486949604 39.7825
26.241249882640123 39.4901
26.26411134137826 39.4016
26.28715248187403 39.3328
26.31001607820869 39.1843
26.3328807407756 39.0407
26.35574647063438 39.2905
26.37879191991473 39.3488
26.401659795896734 39.19
26.424528742360263 39.4082
26.447398760366614 39.6582
26.470448535598294 39.6974
26.49332070826805 39.8395
26.516193955675355 40.236
26.53906827888316 40.4175
26.562122397260108 40.5633
26.584998883685063 40.9814
26.607876449110325 41.2748
26.63075509460056 41.3878
26.65381357334404 41.4356
26.67669439061878 41.2795
26.699576291163382 41.1798
26.722459276044212 41.2165
26.745522132402975 40.9928
26.768407297649354 40.6758
26.791293550442003 40.2213
26.814180891848974 40.0405
26.837248143099337 39.8659
26.860137673466657 39.7322
26.88302829566349 39.4755
26.90592001075963 39.1943
26.92899167420566 38.994
26.951885586870763 38.7669
26.974780595655517 38.4837
26.99785558178161 38.372
27.020752794605112 38.2326
27.043651106772522 38.0258
27.06655051935668 38.1183
27.089629948036183 38.0176
27.112531573292053 37.9524
27.135434302194138 37.9316
27.158338135817015 37.6188
27.181422024430987 37.7054
27.204328079372566 37.5878
27.22723524226965 37.7723
27.250143514198573 37.8086
27.273231880156334 37.7673
27.296142382065014 37.5214
27.319053996245536 37.4769
27.341966723775965 37.5798
27.365059584515222 37.6696
27.38797455070062 37.74
27.410890633481237 37.6794
27.433807833936918 37.6661
27.456905206923906 37.7935
27.47982465472398 37.8096
27.502745223449743 37.8029
27.525666914182825 37.8049
27.548768816912457 37.8537
27.571692763693633 37.7796
27.59461783573812 37.7248
27.617723149491244 37.429
27.640650484125285 37.4051
27.66357894728264 37.2609
27.686508540048052 37.3809
27.709618414237887 37.1933
27.732550278321757 37.0978
27.755483275279115 36.9539
27.778417406196485 37.0216
27.801531858397514 37.0763
27.824468269376716 37.0264
27.847405817586786 36.9161
27.870344504116094 37.198
27.893463551932008 37.2653
27.916404527281053 37.4468
27.93934664422563 37.571
27.962289903855886 37.6435
27.98541356491974 37.9484
28.00835912214229 38.0331
28.03130582533231 38.3518
28.054253675581805 38.5506
28.077381967556104 38.294000000000004
28.100332124185126 38.2165
28.123283431160893 38.2573
28.146235889577238 38.1443
28.169368830154156 37.8632
28.192323603752033 37.7154
28.215279532083304 37.4313
28.238415973016764 37.2693
28.261374223145094 37.1502
28.284333631303806 36.8108
28.307294198589954 36.8222
28.330435319167677 36.4173
28.353398217078915 36.2216
28.376362277420153 36.0244
28.39932750129032 35.8772
28.422473319286713 35.622
28.44544088262495 35.7268
28.468409612800283 35.5317
28.491379510913497 35.2654
28.51453004413313 35.2292
28.53750229057244 35.2705
28.56047570826344 35.1124
28.583450298308804 35.124
28.606605564586562 34.9964
28.629582511831156 35.1158
28.65256063474956 35.0509
28.675539934446338 34.9225
28.698699951647605 34.9215
28.72168161743193 34.6396
28.74466446331978 34.7357
28.767648490417624 34.8207
28.790813276438353 34.8488
28.813799678527303 34.7727
28.836787265157085 34.9478
28.859955641890075 34.7828
28.882945610203045 34.7445
28.905936766392035 34.5772
28.928929111566863 34.7274
28.952102288520145 34.6455
28.975097024308607 34.5733
28.998092952423807 34.3898
29.021090073977508 34.2453
29.04426806913204 34.1306
29.067267590245258 34.0011
29.090268308143695 33.9669
29.11327022394099 33.8671
29.13645305530891 33.8123
29.159457379627167 33.7002
29.18246290519685 33.6352
29.20546963313352 33.5954
29.22865731875826 33.5945
29.25166646419296 33.5954
29.27467681535305 33.4464
29.29768837335608 33.5897
29.320880931312562 33.5929
29.34389491580634 33.6426
29.366910110507334 33.6083
29.38992651653503 33.6528
29.41312396492981 33.6386
29.436142806456754 33.3824
29.45916286268059 33.3493
29.48236399319994 33.2508
29.50538649169417 33.144
29.528410208259935 33.0271
29.55143514402014 32.8727
29.574641196749695 32.705
29.597668583816574 32.6333
29.6206971934585 32.4413
29.64372702680042 32.5785
29.666938019934474 32.4342
29.689970313635285 32.3817
29.713003834422636 32.4407
29.73603858342347 32.2796
29.759254535188578 32.2282
29.78229175361658 32.1687
29.80533020365064 32.2554
29.82836988641968 32.2111
29.85159081507472 32.0826
29.874632976355343 32.1699
29.89767637376955 32.1245
29.920721008448314 31.9384
29.9439469322847 31.9125
29.96699405457564 31.9834
29.9900424175358 31.886
30.013092022298157 31.8981
30.03632295963995 31.8958
30.059375061131373 31.9234
30.08242840783577 31.8445
30.105483000888153 31.8043
30.128718970092244 31.7875
30.151776069006917 31.7016
30.17483441768648 31.776
30.198074175317235 31.8357
30.221135036724256 31.8127
30.24419715131772 31.6497
30.267260520236203 31.6497
30.290505341942243 31.7556
30.313571232750228 31.7248
30.336638381310948 31.666999999999998
30.35970678876503 31.476999999999997
30.38295669299435 31.5936
30.40602763151657 31.5485
30.429099832366074 31.5385
30.452173296685572 31.3715
30.47542830191959 31.3939
30.498504306502497 31.4006
30.521581577995562 31.5011
30.544660117543582 31.5676
30.56792024229725 31.5404
30.59100133132069 31.5213
30.614083691845494 31.4774
30.637167325018545 31.5493
30.660432587840603 31.5993
30.683518779717886 31.5768
30.70660624769615 31.5718
30.729694992924372 31.5599
30.75296541239743 31.5372
30.77605672557558 31.5004
30.799149319462742 31.5157
30.8224236211637 31.5018
30.845518789950724 31.302
30.868615242910597 31.2092
30.891712981195973 31.0937
30.91499247215866 30.9363
30.938092794619365 30.861
30.96119440587579 30.8309
30.984297307082752 30.8194
31.00758200598383 30.6406
31.030687500658694 30.559
31.053794288760695 30.6008
31.076902371446767 30.451999999999998
31.100192296997445 30.5533
31.12330298246119 30.3971
31.14641496599209 30.3096
31.169528248749216 30.4108
31.19282341969534 30.3181
31.215939314557186 30.2963
31.239056512134788 30.3135
31.262175013589378 30.2463
31.28547544871168 30.2269
31.30859657161541 30.1642
31.331719001892175 30.2816
31.35484274070538 30.3775
31.378148458819545 30.2363
31.401274828443725 30.248
31.424402510106933 30.3327
31.447712205419993 30.3169
31.470842524931633 30.2439
31.493974159989783 30.238000000000003
31.51710711176168 30.2261
31.54042212308802 30.2103
31.563557722100917 30.1798
31.586694641341655 30.005
31.609832881979628 29.9243
31.63315322823208 29.8934
31.656294125521327 29.8015
31.679436347728515 29.7235
31.70257989602529 29.5734
31.725905596152327 29.5647
31.74905181052835 29.4867
31.772199354521323 29.6146
31.79534822930507 29.5529
31.818679302290967 29.5498
31.84183085259981 29.6178
31.864983737233473 29.5568
31.88813795736804 29.5645
31.911474422233013 29.4554
31.934631327356435 29.4565
31.9577895715215 29.495
31.980949155906522 29.4562
32.004291031706956 29.4711
32.027453310562606 29.2663
32.05061693318573 29.2316
32.07396288236386 29.2402
32.09712920658542 29.156999999999996
32.12029687812702 29.0229
32.14346589817093 28.9762
32.166817291729984 28.8744
32.18998902288583 28.8658
32.21316210610336 28.7312
32.23633654256711 28.6025
32.259693399663725 28.6392
32.282870556771144 28.6126
32.30604907069099 28.7018
32.329228942610065 28.5197
32.35259128243769 28.3781
32.375773884550505 28.396
32.398957848235646 28.3405
32.422143174682176 28.3144
32.445511016471215 28.2841
32.468699082679954 28.229
32.49188851523011 28.1822
32.51507931531304 28.0665
32.538452678331 28.1148
32.56164622776311 27.9717
32.58484114831493 27.9167
32.60803744118015 27.9601
32.631416344731896 27.9238
32.654615396551876 27.9141
32.67781582427913 27.8326
32.701198898634416 27.7974
32.72440209253756 27.7672
32.747606665947124 27.7253
32.77081262006088 27.669
32.79420126883317 27.6133
32.81740999876112 27.6647
32.840620112999424 27.5101
32.86383161274818 27.4438
32.88722585534586 27.5253
32.91044014056596 27.5463
32.933655814909734 27.448
32.95687287957963 27.4438
32.98027273544904 27.3275
33.00349259526636 27.2979
33.026713849030116 27.4514
33.04993649794511 27.3812
33.073341986570746 27.2253
33.09656744032826 27.2238
33.11979429286444 27.2443
33.14302254538647 27.2514
33.166433686291185 27.1997
33.18966475336992 27.2003
33.212897224069096 27.0105
33.23613109959831 27.0527
33.259547912343415 27.0699
33.2827846121627 27.1305
33.306022720453775 26.9774
33.32926223842861 26.8277
33.352684742614166 26.8901
33.37592709463173 26.8209
33.399170859982064 26.8236
33.422597648419426 26.7502
33.44584425514446 26.6035
33.46909227885668 26.5518
33.4923417207723 26.4913
33.51577423505344 26.6005
33.539026528130385 26.4907
33.56228024307245 26.4757
33.585535381098246 26.2882
33.60897364093058 26.2533
33.63223163992385 26.2846
33.6554910656699 26.2357
33.678751919389796 26.13
33.702195944520106 26.0679
33.72545966903325 26.1102
33.74872482519663 25.9795
33.771991414233746 26.0103
33.79544122444841 25.9891
33.81871069412428 25.8377
33.84198160035767 25.8407
33.86525394437455 25.9479
33.88870955949969 25.8351
33.911984794020626 25.8526
33.93526147001624 25.7923
33.958539588715006 25.6735
33.98200102861669 25.6628
34.0052820477047 25.6282
34.02856451319451 25.5141
34.05203033759056 25.465
34.07531571090147 25.4846
34.09860253431845 25.4729
34.121890809074316 25.384
34.145362493118924 25.3358
34.16865368561615 25.2209
34.191946333164054 25.2607
34.21524043699793 25.2772
34.23871800066799 25.2997
34.26201503218366 25.1824
34.28531352370466 25.1704
34.30861347646881 25.0105
34.33209693978188 25.0223
34.3553998301885 24.9621
34.378704185565205 24.974
34.402010007152356 24.8909
34.42549939016683 24.938000000000002
34.44880815937748 24.7806
34.472118398533134 24.6639
34.49543010887669 24.7518
34.51892543169198 24.7151
34.54224009966052 24.7041
34.56555624255917 24.6274
34.58887386163339 24.5737
34.61237514439016 24.4934
34.6356957311114 24.4801
34.65901779775809 24.5067
34.68252356662995 24.3952
34.705848608458616 24.4098
34.72917513396849 24.3031
34.75250314440949 24.2848
34.77601490857862 24.2458
34.799345904259795 24.1868
34.82267838863559 24.2726
34.846012362958525 24.2038
34.869530142679984 24.1921
34.89286711232212 24.1584
34.91620557568269 24.035999999999998
34.93954553401677 24.0488
34.9630693495876 24.0683
34.986412313340814 23.98
35.00975677584668 23.9842
35.033102738362956 23.9535
35.05663261012228 23.9019
35.0799815881786 23.9641
35.10333207003229 23.7577
35.12668405694369 23.7883
35.150220005273056 23.8241
35.17357501786656 23.8518
35.19693153931268 23.7165
35.220289570874385 23.6793
35.24383161619786 23.6417
35.267192683604904 23.6624
35.290555264930376 23.5791
35.314101899412165 23.6717
35.33746752422433 23.5978
35.36083466676374 23.6304
35.38420332829803 23.5658
35.407756095629054 23.5654
35.43112781085063 23.5315
35.45450104888391 23.4679
35.477875810999194 23.4643
35.50143473172161 23.3715
35.52481255774625 23.4508
35.54819191167777 23.346999999999998
35.57157279478914 23.3729
35.595137889488406 23.2712
35.61852184675279 23.25
35.641907337029984 23.2268
35.665294361595684 23.0757
35.68886565090076 23.0732
35.7122557598848 23.0687
35.73564740699838 23.093000000000004
35.759040593519934 23.0397
35.78261809810353 22.9775
35.80601437933051 22.9432
35.829412203814705 22.8507
35.85281157283719 22.8529
35.876395313415884 22.8009
35.8997977874528 22.7443
35.92320180988546 22.6996
35.946790244133936 22.6485
35.97019737933222 22.7021
35.993606066789866 22.678
36.01701630779276 22.6861
36.04061101440684 22.6184
36.06402437852291 22.5649
36.08743930005611 22.5686
36.1108557802951 22.4854
36.13445678011326 22.439
36.15787639383515 22.3718
36.18129757014299 22.3748
36.20472031032821 22.3488
36.22832762423364 22.3289
36.25175350829375 22.2931
36.275180960119776 22.2279
36.298609981005924 22.2105
36.32222362992669 22.2291
36.34565580510207 22.1603
36.36908955323448 22.0783
36.39252487562093 21.9849
36.416144880530226 22.0108
36.43958336764275 22.0016
36.463023432914625 21.9557
36.486465077645676 21.9335
36.51009145956204 22.0302
36.53353627947859 21.968000000000004
36.55698268276811 21.9623
36.58043067073321 21.8157
36.60406345072071 21.7567
36.62751462435344 21.729
36.65096738658405 21.7413
36.67460498210655 21.7807
36.69806093788647 21.7224
36.72151848619297 21.6393
36.744977628333636 21.634
36.76862165890998 21.5031
36.79208400512205 21.5557
36.81554794910557 21.5256
36.83901349217101 21.4729
36.862663978991606 21.3708
36.88613273667352 21.3872
36.90960309738324 21.4014
36.933075062434064 21.351
36.95673202673572 21.3255
36.98020721697122 21.2499
37.003684015502365 21.1341
37.027162423645365 21.1735
37.050825886711465 21.1119
37.07430753063053 21.0688
37.09779078812467 21.1247
37.121275660513014 21.0819
37.144945643673694 20.9858
37.16843376245278 20.9683
37.19192350009803 21.0288
37.215414857931435 20.987
37.239091382563885 20.9335
37.262585997426164 20.8302
37.28608223645736 20.9161
37.309763684451696 20.7763
37.33326318851098 20.8104
37.356764320726555 20.7371
37.380267082425526 20.7391
37.40395510942588 20.7002
37.42746114683234 20.6484
37.45096881771841 20.6159
37.474478123414166 20.581999999999997
37.49817275092816 20.4928
37.52168534303452 20.5287
37.54519957395567 20.4548
37.568715445024665 20.4278
37.592416694607714 20.368
37.61593586281424 20.4469
37.63945667518264 20.506999999999998
37.66297913304891 20.3367
37.68668702630454 20.3186
37.710212792059274 20.1917
37.733740207334854 20.2231
37.757269273470364 20.1895
37.780983832050374 20.1404
37.80451621684926 20.1608
37.82805025654007 20.1436
37.851585952464795 20.1053
37.8753071980695 20.0372
37.89884622345676 20.0611
37.92238690911902 19.9709
37.94611318753442 19.9417
37.969657210779765 19.9433
37.99320289834801 19.9225
38.016750251586465 19.7937
38.04048325513017 19.7898
38.06403395679343 19.7782
38.087586328183946 19.7434
38.11114037065203 19.7475
38.13488012115898 19.7247
38.1584375229181 19.6206
38.181996599821 19.6019
38.205557353221124 19.6085
38.229303872575656 19.5653
38.2528679961576 19.5793
38.27643380031219 19.5149
38.30000128639589 19.4381
38.32375459653193 19.4392
38.34732546371299 19.47
38.37089801690786 19.3657
38.39447225747609 19.391
38.418232380377425 19.3905
38.441810012983396 19.2882
38.46538933705673 19.2377
38.488970353960084 19.1902
38.51273731166058 19.1609
38.536321731567014 19.1416
38.55990784840681 19.1141
38.58367995004091 19.0289
38.60726947812959 19.0426
38.63086070726198 19.0476
38.654453638806274 19.0574
38.678232613930824 18.9868
38.70182896773327 18.9957
38.72542702806741 18.8562
38.7490267963045 18.8941
38.77281266709232 18.8121
38.79641586862214 18.7375
38.8200207821842 18.8002
38.843627409152944 18.8302
38.86742019782782 18.7621
38.891030269149255 18.7106
38.914642058016156 18.6946
38.938255565806124 18.6477
38.96205529464307 18.6186
38.98567225787121 18.5819
39.00929094417078 18.5611
39.03291135492255 18.5865
39.05671804624804 18.4734
39.080341923549106 18.5182
39.103967529460334 18.4616
39.127594865365744 18.4114
39.15140854155791 18.3759
39.17503935514948 18.3717
39.19867190290282 18.3183
39.22249083587951 18.2815
39.24612686969409 18.2521
39.269764641845306 18.261
39.293404153722804 18.2647
39.317230110864074 18.1268
39.34087311998506 18.152
39.36451787301696 18.1284
39.388164371352595 18.0715
39.41199737518003 18.0944
39.43564738196752 18.0484
39.45929913825317 17.9783
39.48295264543308 17.9736
39.506792718520884 17.9505
39.530449745387216 17.8867
39.55410852735203 17.9096
39.57776906581474 17.8856
39.60161623079 17.8425
39.625280300200025 17.8215
39.64894613032202 17.7989
39.67261372255866 17.7356
39.6964680021016 17.7544
39.72013913657293 17.7694
39.74381203738292 17.669
39.76748670593756 17.6518
39.79134812278169 17.6589
39.81502634488497 17.5917
39.83870633896685 17.5435
39.862388106436654 17.528
39.88625668336918 17.5461
39.90994201572829 17.5143
39.933629125719285 17.4141
39.957503091207826 17.3176
39.9811937746168 17.396
40.00488623990914 17.3684
40.02858048850006 17.3309
40.05246165409549 17.2493
40.076159487492085 17.2079
40.099859108448875 17.2885
40.123560518384345 17.2329
40.1474489070226 17.2287
40.171153913178564 17.1731
40.194860712584955 17.215
40.2185693066637 17.1211
40.242464941335314 17.0841
40.26617714307655 17.0182
40.289891143772046 16.993
40.3136069448471 16.9698
40.33750984859743 16.9743
40.3612292688043 16.9342
40.3849504936829 16.9605
40.40867352466194 16.9117
40.43258372059144 16.875999999999998
40.45631038219906 16.8593
40.48003885420956 16.7808
40.503769138055105 16.7896
40.52768664931955 16.7883
40.55142057531802 16.7662
40.57515631746428 16.7103
40.599079334038514 16.7345
40.62281872700477 16.6204
40.64655994043941 16.6296
40.67030297578061 16.5966
40.69423334835778 16.565
40.71798004609188 16.5319
40.74172857006355 16.551
40.76547892171441 16.4982
40.7894166736039 16.4516
40.813170699248566 16.4191
40.83692655691388 16.4108
40.86068424804498 16.3617
40.884629402612525 16.3614
40.908390779366385 16.3556
40.932153993938 16.3032
40.95591904777605 16.2927
40.979871628443995 16.3241
41.003640379561936 16.281
41.02741097430883 16.2377
41.05118341413683 16.2572
41.075143444384416 16.215999999999998
41.098919593177826 16.195
41.1226975914255 16.1607
41.14647744058318 16.0987
41.170444943946755 16.0576
41.19422851378379 16.0606
41.218013938914645 15.9777
41.24198706625173 15.9719
41.26577622087193 15.9493
41.289567235177785 15.9543
41.31336011063129 15.8954
41.337340752422875 15.9005
41.361137369129835 15.8416
41.38493585138705 15.8112
41.40873620066004 15.8379
41.43272438060107 15.7887
41.45652848292052 15.7399
41.48033445666918 15.6766
41.50414230331616 15.6992
41.528138045159764 15.6532
41.551949656675205 15.6518
41.575763145513235 15.6151
41.59957851314666 15.5624
41.62358184070442 15.5185
41.64740098505737 15.5453
41.6712220126409 15.4709
41.69504492493139 15.4594
41.71905586207357 15.4486
41.74288256296395 15.427999999999999
41.766711153007456 15.4178
41.79054163368412 15.3861
41.814560204340054 15.4525
41.838394485526365 15.4166
41.86223066180303 15.2597
41.88625497706819 15.2757
41.910094962812 15.2706
41.93393684811168 15.24
41.95778063445365 15.177999999999999
41.981812625263366 15.2051
42.00566023303407 15.1534
42.029509746323676 15.069
42.05336116662236 15.1507
42.077400857069705 15.1231
42.10125611078846 15.0844
42.12511327600405 15.0041
42.14897235421036 14.9443
42.173019768448455 14.9388
42.19688269209613 14.9859
42.22074753323349 14.9019
42.24461429335818 14.8485
42.268669455600495 14.8541
42.292540073217886 14.8318
42.31641261433284 14.8447
42.34028708044675 14.8182
42.36435001496739 14.7956
42.38822835065557 14.7562
42.41210861586426 14.744000000000002
42.4359908120986 14.7556
42.46006154323262 14.6903
42.48394762115317 14.6435
42.507835634632315 14.6686
42.531912233047436 14.6021
42.55580413732265 14.5865
42.579697981698 14.5745
42.60359376768525 14.4791
42.62767820545945 14.5179
42.65157789440821 14.5241
42.67547952952185 14.4763
42.699383112316 14.4352
42.72347541395347 14.4072
42.74738291190531 14.3029
42.771292362102166 14.3321
42.795203766063516 14.3235
42.819303956130405 14.317
42.843219287476536 14.2933
42.86713657716324 14.2732
42.89105582671383 14.2338
42.91516392983864 14.1755
42.939087119032166 14.1732
42.963012272677304 14.1859
42.98693939230129 14.1394
43.01105543317513 14.0749
43.034986504731386 14.0556
43.05891954686589 14.0842
43.08285456110972 14.0847
43.10697856448665 13.9643
43.130917542983475 13.9265
43.15485849820081 13.972000000000001
43.17880143167367 13.913
43.20293342237094 13.9123
43.226880332449 13.8889
43.25082922540554 13.9081
43.27496722682525 13.8472
43.29892010567796 13.8304
43.32287497204102 13.8104
43.34683182745632 13.7873
43.370977859791836 13.757
43.39493871351105 13.7791
43.41890156092628 13.7437
43.44286640358341 13.7274
43.46702049182749 13.6938
43.49098934522816 13.6148
43.51496019852649 13.62
43.5389330532723 13.6083
43.56309522248204 13.5503
43.58707210044314 13.475
43.61105098451946 13.4935
43.63503187626491 13.5036
43.659202151562134 13.474
43.68318707902681 13.4201
43.70717401884041 13.4079
43.731162972560874 13.4271
43.75534137913236 13.3905
43.779334381108384 13.3797
43.803329401683186 13.2822
43.82732644241872 13.3374
43.8515130055166 13.3134
43.87551410707659 13.2745
43.89951723350145 13.3091
43.923709934595614 13.2151
43.94771713129917 13.184000000000001
43.97172635758096 13.2148
43.99573761501002 13.2014
44.0199385169922 13.1555
44.04395385732619 13.1056
44.067971233533086 13.1188
44.09199064718605 13.1231
44.11619977548961 13.0352
44.14022328470671 12.9604
44.16424883610785 13.0113
44.18827643127035 12.9823
44.21249381139513 12.8881
44.236525514814076 12.9329
44.26055926674478 12.9145
44.28459506876863 12.9215
44.3088207262813 12.8909
44.33286064928722 12.8557
44.35690262714919 12.8218
44.38094666145278 12.811
44.4051806219871 12.8075
44.42922879003185 12.7738
44.45327901929361 12.7264
44.477331311362136 12.7641
44.501573600619416 12.6987
44.525630039221795 12.6588
44.54968854541895 12.6839
44.573937102200176 12.6613
44.5979997645541 12.5982
44.622064499300315 12.5529
44.64613130803592 12.5239
44.67038823869318 12.5082
44.69445921643748 12.5268
44.718532272981385 12.4107
44.742607409926194 12.4617
44.76687274034801 12.4399
44.79095205918753 12.4037
44.81503346325094 12.3536
44.839116954143876 12.3674
44.86339071028742 12.347000000000001
44.88747839599524 12.3488
44.91156817336837 12.3029
44.93566004401666 12.3091
44.959942251908146 12.2931
44.984038330325966 12.2265
45.00813650686762 12.2229
45.03223678314731 12.1773
45.05652746888232 12.1668
45.08063196592069 12.1338
45.104738567558705 12.1352
45.128847275414856 12.1099
45.15314646515866 12.0143
45.17725940679741 12.0483
45.20137445952892 12.0476
45.22568004865265 11.9956
45.24979934496396 11.9953
45.27392075725247 11.9625
45.29804428714431 11.91
45.322358426247604 11.9132
45.346486212804315 11.9153
45.370616121861914 11.9314
45.39474815505086 11.9273
45.41907087049246 11.8436
45.4432071734666 11.8076
45.46734560548283 11.8344
45.49148616817604 11.7757
45.51581748638564 11.7784
45.5399623320197 11.7777
45.56410931325473 11.7384
45.58825843173002 11.7163
45.61259837920865 11.6703
45.636751793816 11.6912
45.66090735060093 11.6301
45.68506505120716 11.6126
45.7094136545275 11.5695
45.73357566449271 11.5897
45.75773982322992 11.5605
45.78190613238733 11.5112
45.806263418194064 11.4988
45.83043404997326 11.530999999999999
45.85460683713677 11.4585
45.87897065658495 11.5309
45.90314777634752 11.4395
45.92732705646868 11.4267
45.9515084986045 11.4286
45.97588104735473 11.390999999999998
46.00006683541565 11.3433
46.02425479047904 11.3414
46.04844491420549 11.3471
46.0728262191024 11.3169
46.09702070211635 11.2695
46.12121735879483 11.2456
46.14541619080294 11.2304
46.169806278764455 11.2834
46.194009483459034 11.225999999999999
46.21821486849841 11.1908
46.24242243555223 11.1592
46.266821333570014 11.1317
46.29103328674601 11.1201
46.31524742696538 11.1223
46.33946375590237 11.0923
46.36387149104216 11.0095
46.38809221957392 10.9982
46.41231514186606 11.0258
46.436540259597464 10.9935
46.460956858999374 10.9641
46.48518638983522 11.0113
46.509418121166966 10.9636
46.533652054678114 10.9403
46.55807754555709 10.9179
46.58231590571962 10.8956
46.60655647313217 10.8326
46.630988654873654 10.839
46.655233659129024 10.8031
46.67948087571551 10.7908
46.70373030632484 10.7971
46.72817142736393 10.7925
46.752425308428684 10.7572
46.77668140861147 10.7407
46.80093972960865 10.6967
46.82538981736788 10.6805
46.849652602470904 10.6684
46.87391761349769 10.6831
46.8981848521493 10.5792
46.9226439341274 10.5733
46.946915650573224 10.5428
46.97118959976749 10.602
46.99546578341598 10.5922
47.019933887188216 10.5286
47.04421456235744 10.5289
47.06849747711879 10.46
47.09278263318286 10.4773
47.11725978640143 10.4432
47.14154944775105 10.4161
47.165841355555656 10.3996
47.1901355115306 10.3802
47.214621741924994 10.3812
47.23892041698887 10.3263
47.26322134538975 10.3034
47.28771440635075 10.2706
47.31201986422527 10.3049
47.33632758061436 10.2622
47.360637557241866 10.2105
47.38513974410611 10.2417
47.40945426407847 10.207
47.43377104948137 10.1742
47.45809010204344 10.1442
47.48260144275502 10.1638
47.506925052572285 10.1514
47.53125093475548 10.1202
47.55557909103813 10.1252
47.58009961361992 10.0867
47.60443234110732 10.0272
47.62876734791564 10.0155
47.65310463578333 10.0247
47.6776343683373 9.99062
47.7019762413987 9.95055
47.72632040075572 9.932319999999999
47.75066684815169 9.95772
47.77520581885936 9.906089999999999
47.799556865477655 9.90996
47.823910205386 9.89098
47.84826584033272 9.89277
47.87281407745551 9.83469
47.89717432569297 9.85538
47.92153687423484 9.84998
47.94609208429692 9.820160000000001
47.97045925671401 9.791269999999999
47.99482873471275 9.772039999999999
48.01920052005013 9.77401
48.04376504619224 9.73223
48.068141469543484 9.75464
48.09252020552573 9.655389999999999
48.11690125590099 9.675880000000001
48.1414751266064 9.68706
48.16586082917454 9.67083
48.19024885144316 9.618030000000001
48.2146391951793 9.600389999999999
48.239222439012764 9.62548
48.26361744916137 9.57795
48.28801478610016 9.555539999999999
48.31241445160131 9.519960000000001
48.337007097209366 9.53909
48.36141144338331 9.54065
48.38581812345755 9.51543
48.41022713920929 9.48527
48.434829215320704 9.487789999999999
48.45924292604658 9.43768
48.48365897780325 9.45486
48.50807737237308 9.44662
48.532688907799276 9.422939999999999
48.55711201168574 9.38568
48.581537463754074 9.37547
48.60615611725119 9.37251
48.63058628942721 9.36294
48.65501881516546 9.31362
48.6794536962573 9.26268
48.70408185970339 9.26503
48.72852147531801 9.27017
48.75296345168211 9.23243
48.77740779059232 9.21617
48.80204549302823 9.21033
48.82649458091802 9.19489
48.85094603676547 9.187389999999999
48.87539986237231 9.15934
48.90004713292306 9.14428
48.92450572200832 9.13233
48.94896668628025 9.073319999999999
48.97343002754588 9.09021
48.99808689542115 9.07975
49.02255501470614 9.08194
49.04702551642794 9.02178
49.0714984023988 9.01794
49.096164896893235 8.966619999999999
49.120642575466796 8.974860000000001
49.145122643748394 8.94789
49.16960510355558 8.936630000000001
49.19428125404938 8.923
49.2187685210852 8.91245
49.243258185121555 8.90479
49.26794160167084 8.90129
49.2924360839405 8.85107
49.31693296869764 8.816130000000001
49.34143225776915 8.83891
49.36612538195438 8.78463
49.39062950396021 8.79825
49.41513603578346 8.76093
49.4396449792564 8.74792
49.46434784069503 8.741439999999999
49.488861631846454 8.711789999999999
49.513377840166804 8.73265
49.537896467493745 8.70845
49.56260909589029 8.63605
49.587132585683285 8.67431
49.611658500018365 8.637189999999999
49.636186840738596 8.59038
49.66090926588511 8.57795
49.685442483902584 8.58177
49.70997813385706 8.54349
49.734516217597076 8.539530000000001
49.75924846937352 8.53965
49.7837914452858 8.55021
49.80833686055187 8.48888
49.83288471702571 8.46434
49.85762682540054 8.51062
49.882179588965734 8.4867
49.9067347993235 8.4677
49.93129245833333 8.435189999999999
49.95604445336378 8.41341
49.98060703442832 8.38103
50.005172069746266 8.390080000000001
50.02993150438364 8.36007
50.05450147301533 8.35317
50.07907390151433 8.34314
50.10364879174981 8.30552
50.12841816587289 8.29233
50.1529980044635 8.25004
50.17758031042124 8.26704
50.20216508562089 8.26407
50.22694442953363 8.22152
50.25153416817468 8.21495
50.27612638170508 8.22193
50.300721072005196 8.1494
50.325510416102105 8.16383
50.350110084975064 8.16633
50.37471223628208 8.13817
50.39931687190919 8.134830000000001
50.424116246675766 8.115960000000001
50.44872587605249 8.11471
50.47333799543065 8.08076
50.49795260670191 8.07762
50.52276204271512 8.03782
50.54738166295838 8.01732
50.57200378079314 8.00419
50.596628398116835 8.02246
50.62144792604559 7.98872
50.646077567609396 7.980230000000001
50.670709714377715 7.996630000000001
50.69553683636198 7.9352800000000006
50.72017401885922 7.921119999999999
50.7448137122895 7.90245
50.76945591856022 7.91252
50.79429318636823 7.8522300000000005
50.818940443716784 7.844010000000001
50.84359021965163 7.823689999999999
50.868242516085964 7.815289999999999
50.893089960641895 7.7678199999999995
50.917747323549435 7.7937899999999996
50.94240721271973 7.78246
50.96706963007175 7.774710000000001
50.99192728239342 7.76358
51.01659478166073 7.776789999999999
51.04126481489051 7.736000000000001
51.06593738400761 7.7119
51.090805275207074 7.65355
51.11548294172845 7.68142
51.14016314993547 7.6787600000000005
51.164845901758845 7.6409899999999995
51.18972406304274 7.62107
51.21441192780656 7.6261
51.23910234200271 7.62803
51.2637953075678 7.59375
51.288683770237945 7.550089999999999
51.31338186432707 7.570410000000001
51.33808251561888 7.539039999999999
51.362978729967345 7.5421
51.387684521509755 7.521669999999999
51.41239287610203 7.46656
51.437103795691165 7.424119999999999
51.46201036644977 7.44747
51.486726441956634 7.41679
51.51144508832545 7.41758
51.536166307509156 7.408989999999999
51.56108326624387 7.40976
51.58580965706056 7.403010000000001
51.61053862657523 7.371980000000001
51.635270176746864 7.32953
51.66019755512065 7.33696
51.68493429268881 7.31237
51.70967361681515 7.302230000000001
51.73441552946465 7.3044199999999995
51.759353359237934 7.32384
51.7841004750961 7.316319999999999
51.80885018539685 7.295730000000001
51.833602492111254 7.26478
51.8585508051424 7.25475
51.883308330926425 7.212619999999999
51.90806845906181 7.20315
51.932831191525715 7.16493
51.95779001977161 7.147460000000001
51.98255798721516 7.10415
52.00732856494335 7.11935
52.03229530577543 7.10751
52.057071130455945 7.1166100000000005
52.081849571391054 7.114330000000001
52.106630630568695 7.058610000000001
52.13160794279417 7.028110000000001
52.15639426492067 7.05997
52.18118321127822 7.03592
52.205974783860896 7.00358
52.23096269971011 7.01158
52.255759551287994 7.01965
52.280559035098186 6.991160000000001
52.30536115314103 6.96577
52.33035970494467 6.91115
52.35516711807904 6.936839999999999
52.37997717147198 6.9089100000000006
52.40478986713005 6.91255
52.42979908731974 6.881989999999999
52.454617094216 6.9034699999999996
52.47943774942214 6.87789
52.50426105495102 6.862610000000001
52.529280976059844 6.81338
52.554109609024096 6.80808
52.57894089837482 6.8093699999999995
52.60377484613117 6.809
52.62880550079408 6.84325
52.65364479223379 6.782539999999999
52.67848674816189 6.760660000000001
52.70352547971946 6.7689699999999995
52.72837279155837 6.73338
52.753222773982785 6.66858
52.778075429022984 6.70868
52.80312495150885 6.663639999999999
52.827982978797436 6.62215
52.85284368481815 6.65083
52.87770707160767 6.642760000000001
52.90276741793998 6.62914
52.92763619336701 6.600639999999999
52.952507655698504 6.58515
52.977381806977576 6.6050699999999996
53.00245301017842 6.592789999999999
53.02733256653592 6.593039999999999
53.052214817996074 6.60595
53.077099766608484 6.530480000000001
53.102181859804446 6.51408
53.127072229988265 6.51731
53.15196530349892 6.5219
53.17686108239249 6.47426
53.20195409881522 6.47609
53.22685531582556 6.4562800000000005
53.25175924441303 6.40065
53.27666588664027 6.43162
53.30176985962693 6.38809
53.3266819565689 6.40056
53.35159677336455 6.36348
53.376514312083096 6.39015
53.40162927507703 6.37712
53.42655228516116 6.339090000000001
53.45147802340193 6.30051
53.47660125628886 6.33434
53.50153247842639 6.3135699999999995
53.52646643496923 6.28442
53.55140312799818 6.2605900000000005
53.576537409691696 6.2477
53.60147960336152 6.24829
53.626424539786164 6.21927
53.65137222105307 6.20348
53.67651758529126 6.21066
53.70147078399681 6.17397
53.72642673383343 6.19621
53.75138543689533 6.167330000000001
53.776541917524526 6.196680000000001
53.801506154876755 6.16597
53.826473151763246 6.12314
53.851442910284916 6.09249
53.87661054126026 6.1184400000000005
53.9015858509782 6.0942
53.92656392866066 6.05396
53.95154477641532 6.085719999999999
53.976723591801296 6.0385800000000005
54.00171000771266 6.024830000000001
54.02669920004598 6.01215
54.051691170915745 6.00801
54.076881204886796 5.9439
54.101878760928514 5.95686
54.12687910187696 5.96765
54.152077577768296 5.94119
54.1770835166946 5.90195
54.20209224691339 5.91314
54.22710377055121 5.90008
54.25231352511594 5.903490000000001
54.27733066384342 5.86271
54.30235060239643 5.84695
54.32737334290836 5.84492
54.35259441062629 5.80635
54.377622783395324 5.781680000000001
54.40265396455061 5.82912
54.42768795623251 5.7729
54.45292037169559 5.78366
54.477960012857906 5.75859
54.50300247099511 5.71082
54.52804774825457 5.718780000000001
54.55329154616743 5.71684
54.57834249018678 5.69586
54.6033962597977 5.62007
54.6284528571545 5.58108
54.653708072335164 5.55699
54.67877035378786 5.61525
54.70383546947698 5.56157
54.72890342156389 5.54296
54.7541700889442 5.60642
54.77924374251975 5.45558
54.8043202390049 5.50157
54.82959552413022 5.48304
54.8546777351945 5.47254
54.87976279569621 5.42141
54.90485070780914 5.43271
54.930137506558005 5.3998
54.95523115074295 5.43227
54.98032765308844 5.3910599999999995
55.005427015775496 5.367290000000001
55.03072536339621 5.33354
55.05583047570572 5.25841
55.080938454927676 5.3045
55.10604930325027 5.2468
55.131359235107396 5.23765
55.15647585066083 5.24103
55.181595341907496 5.2339400000000005
55.20671771104285 5.138319999999999
55.232039262617704 5.153980000000001
55.25716741665048 5.17932
55.28229845518636 5.16991
55.30743238042802 5.10153
55.33276558731939 5.07993
55.357905315183636 5.052309999999999
55.383047936390035 5.008780000000001
55.40819345314859 4.9565
55.433538351073295 4.9699
55.458689688238415 4.98923
55.483843927614096 4.93941
55.509197623043605 4.89912
55.53435769621134 4.87889
55.55952067826466 4.86939
55.5846865714265 4.8756900000000005
55.61005202069737 4.793880000000001
55.63522376553902 4.79633
55.66039842818645 4.75584
55.68557601087004 4.80251
55.7109532500271 4.71465
55.73613670233794 4.81278
