TT I
1.2716486653135266 6.53115
1.2939594142134223 6.2615099999999995
1.3162702121660406 6.18091
1.3385810600174564 6.84655
1.3608919586137629 6.50255
1.383202908801069 6.07252
1.405513911425503 5.28716
1.4278249673332093 5.88886
1.4501343378461518 5.9595199999999995
1.4724455028545926 5.98477
1.4947567236847858 5.14545
1.517068001182951 5.71903
1.5393793361953272 5.11679
1.5616907295681737 5.15644
1.5840021821477681 4.70338
1.60631369478041 4.47082
1.6286252683124185 4.8621300000000005
1.6509369035901333 4.2142800000000005
1.6732468618895553 4.605090000000001
1.695558623192809 3.93795
1.7178704487808514 4.67563
1.7401823395001077 4.25393
1.7625012545597203 4.3303199999999995
1.7848028405262486 3.90271
1.8071218901122095 4.0727
1.8294236121921872 3.7063
1.8517427996910911 3.8575199999999996
1.8740620574440425 4.46022
1.8963639900671978 3.73202
1.9186833908139995 4.19015
1.9409854680117449 4.3818
1.9633050151394713 4.43049
1.9856246367570705 3.9438800000000005
2.0079269371922672 4.01722
2.03024671027244 3.99349
2.0525491637446027 3.86226
2.074869091674931 3.96085
2.097171701569106 4.0111099999999995
2.1194917877373847 4.20305
2.141811954326636 4.32463
2.164114805233074 3.9701
2.186435135143035 4.31109
2.208738150935709 4.55267
2.231058647554722 6.34019
2.2533792288321184 6.26698
2.275682498336085 4.9836599999999995
2.298003251406138 4.74219
2.3203066942619714 4.7857199999999995
2.3426276225136022 5.78411
2.3649486396617507 4.96504
2.387252348930071 5.653
2.4095735463442893 5.54433
2.4318774374315884 6.2192
2.4541988185014043 5.9711
2.476502894794693 7.212039999999999
2.498824462909887 6.58098
2.521146125856138 6.8868100000000005
2.5434504863470337 6.97198
2.5657723414244717 8.11865
2.588076895590662 8.41462
2.610398946189713 8.23166
2.6327210958598384 7.80853
2.6550259469304716 7.4042
2.6773482972090137 7.95569
2.6996533504259 8.322510000000001
2.7219759047039602 8.84355
2.744298562293959 8.510010000000001
2.7666039251246595 7.70768
2.7889267918020164 8.34726
2.8112323652516555 7.386489999999999
2.833555444408179 8.06426
2.8558786311183852 8.27528
2.8781845268938557 8.76287
2.9005079311721484 8.584710000000001
2.9228140460410397 8.87485
2.9451376712799635 8.98606
2.967444008632326 9.03187
2.9897678582247247 9.83388
3.0120918213106695 10.4613
3.0343984987899373 10.2411
3.0567226913198637 10.7438
3.079029599759726 10.9052
3.101354025127254 11.4645
3.123678568232338 11.9822
3.145985829517914 12.3886
3.16831061055229 12.8569
3.1906181112775593 13.6838
3.212943133635653 14.3221
3.2352682779763207 14.3883
3.2575761442691227 15.097999999999999
3.2799015350264273 15.6053
3.302209649240067 15.5467
3.3245352898092655 15.8122
3.3468436553365257 16.4918
3.369169549113219 16.8882
3.3914955708171384 17.7416
3.413804319727358 17.7004
3.4361305997334863 17.9998
3.4584396084414553 18.5827
3.4807661501462652 19.0949
3.503092824025881 19.3803
3.5254022288463154 19.7999
3.5477291695206588 20.3749
3.5700388426251948 21.0373
3.5923660534916446 21.2099
3.6146934007816114 22.6462
3.637003482731501 27.5326
3.6593311053109985 29.8133
3.681641464033634 26.6081
3.7039693653009733 23.6413
3.726297407241705 23.6704
3.7486081875460804 24.0898
3.7709365132734978 24.607
3.793247578841633 24.7406
3.8155761917550093 25.061999999999998
3.8378875459837216 25.5391
3.8602164494827234 25.9686
3.882545499606844 26.6063
3.9048572932539183 27.1247
3.9271866390645718 27.561999999999998
3.9494987298666713 28.2129
3.971828374764527 28.500999999999998
3.9941581705403255 29.1496
4.016470713506008 29.7328
4.038800813471445 29.9031
4.061113662089144 30.6031
4.0834440696459176 31.6933
4.105774632334751 31.5688
4.128087945865126 32.6819
4.150418821249301 32.897
4.172732448931298 33.4162
4.195063640413578 34.2254
4.2173775856475215 35.0886
4.239709096631102 37.635999999999996
4.262040768704612 51.5926
4.284355196706267 63.3266
4.306687193387355 55.9917
4.329001947444346 44.2467
4.35133427213731 40.7238
4.373666762177566 40.2244
4.395982011761091 40.281
4.418314834921175 41.7115
4.44063041906622 43.2942
4.4629635787515625 44.9947
4.4852969080429785 46.303999999999995
4.5076130004776225 46.5325
4.529946671403969 46.6251
4.552263106909177 47.2049
4.574597122877047 48.743
4.596931312711224 50.1871
4.619248269273446 50.474
4.6415828092605835 51.8822
4.663900117405352 53.0137
4.686235010953232 54.012
4.708552674085913 55.3029
4.730887924602802 56.4731
4.753223354952695 58.3729
4.775541557023902 59.7046
4.797877349456786 61.0624
4.820195915032126 63.0702
4.842532072957498 64.4308
4.864868414979744 66.3041
4.88718753227192 68.5178
4.909524244902505 69.8117
4.931843734218147 71.051
4.954180820867835 74.0572
4.976518095879839 76.8028
4.998838149695359 79.0527
5.021175803844231 82.8655
5.043496238205739 85.7345
5.065834274903528 89.5608
5.088172504230693 93.4984
5.1104935158799565 97.2449
5.132832132875765 105.244
5.155153533596801 118.59200000000001
5.1774925416746225 137.787
5.199814334878411 230.347
5.2221537374521505 813.931
5.244493338631803 2545.9
5.266815727034316 7299.39
5.289155727832427 13904.0
5.311478517248165 9903.31
5.333818921080011 3309.23
5.356159527788849 650.048
5.3784829252032536 199.236
5.400823940070432 141.937
5.423147747031976 123.193
5.445489173474152 113.834
5.467830807066149 107.99799999999999
5.490155234831516 104.6
5.512497285125229 101.546
5.534822130975162 99.819
5.557164601388673 97.3771
5.579489868738879 94.7401
5.601832762690846 93.6025
5.6241758697774475 92.1124
5.646501775867269 91.225
5.668845311622074 90.2997
5.691171647754637 89.6935
5.713515615597765 88.7936
5.735859800852677 88.3783
5.758186788542988 87.3453
5.780531411018185 87.0764
5.802858837297399 86.6285
5.825203900414495 86.493
5.8475491852224 86.7714
5.869877275883075 86.7821
5.892223006467101 88.24600000000001
5.914551544266608 89.0472
5.936897724049891 91.0927
5.959244129804903 95.0251
5.981573344815301 106.071
6.0039202049061 162.923
6.026249875609095 392.305
6.04859719346037 889.819
6.070927323278297 2046.55
6.093275102315365 4500.22
6.115623113320588 5501.13
6.137953938319995 3560.57
6.160302415650845 1082.09
6.182633708324452 241.69
6.2049826554078376 109.021
6.227331838745022 87.1603
6.249663839443684 80.26
6.27201349767565 76.1532
6.294345974611799 74.3343
6.316696111167083 73.0258
6.339046488263839 71.8203
6.361379686074702 68.757
6.383730546639482 66.7839
6.406064229255215 65.0338
6.428415576718203 64.3954
6.450749747566656 63.4722
6.47310158535871 62.559
6.495453669698332 61.8587
6.517788579421056 61.3108
6.540141159237969 59.8747
6.562476565766648 59.5845
6.5848296444934045 59.265
6.607182974060425 58.4512
6.6295191323281015 58.3003
6.651872965955752 57.589
6.6742096296068985 58.7948
6.6965639707294615 63.3719
6.71891856698715 63.9243
6.741255995248479 59.8671
6.763611104154477 56.6578
6.785949046381137 55.5774
6.808304671371482 54.4716
6.8306605557940046 54.4603
6.852999275508618 53.8051
6.875355681171544 53.763999999999996
6.897694923437771 53.4101
6.92005185377892 53.3496
6.9423916220322655 53.3412
6.964749080490181 52.5823
6.987106804399774 52.661
7.009447368180821 52.5888
7.031805625367033 52.0189
7.054146723727803 52.3415
7.076505517631004 52.0636
7.098864581288365 52.4631
7.121206488070854 51.6137
7.143566093607822 51.5402
7.165908543567245 51.7906
7.188268694426048 51.4175
7.2106291193438095 50.9157
7.232972390625943 51.2104
7.255333366030969 51.4525
7.277677189091925 55.3925
7.300038718428332 61.4904
7.322400526130865 60.9493
7.344745183422596 55.9271
7.367107550224791 52.498999999999995
7.389452767901992 51.6911
7.411815697249891 51.918
7.434161478756298 51.0556
7.456524974096713 51.4073
7.478888753837185 51.283
7.501235387657368 52.5783
7.523599738562711 57.2382
7.545946944825532 65.6947
7.568311870344528 69.4804
7.5906770845765665 62.7886
7.613025156078678 55.643
7.635390950099687 53.6601
7.657739602662809 53.0044
7.680105979923558 52.5765
7.702472650212829 53.2956
7.724822180948224 53.0756
7.747189439655568 53.5529
7.769539560075357 53.5398
7.791907410653562 53.685
7.81425812420825 53.7108
7.836626570110925 53.553000000000004
7.858995315087906 54.86
7.881346924933401 55.0167
7.903716270417482 55.535
7.926068482028405 55.6769
7.948438431475253 56.37
7.9708086843180235 56.4467
7.993161805171116 57.4478
8.015532667162402 57.5719
8.037886398416653 58.6646
8.060257873014221 58.5995
8.082629655331942 59.7254
8.104984308787587 60.4483
8.127356708900503 61.3781
8.149711981398308 62.5264
8.172085002766314 63.453
8.194458336181368 64.1103
8.216814543847752 64.6903
8.23918850371002 65.6815
8.26154533906492 66.96
8.283919928836452 68.3316
8.306277395339652 69.4149
8.328652618483376 70.694
8.351028159736202 72.1991
8.373386579575245 74.48899999999999
8.395762759396959 75.6781
8.418121819038275 78.2489
8.440498640894003 81.5626
8.462875785192262 86.7016
8.485235811156207 94.7939
8.507613602688501 129.059
8.529974277114228 233.065
8.552352719347912 383.418
8.574731488360351 625.408
8.59709314210385 1109.67
8.619472567021075 1862.53
8.64183487789147 2336.46
8.664214962183097 2021.68
8.686577933647762 1122.05
8.708958680784317 418.468
8.731339760774953 170.415
8.753703729764451 108.666
8.77608547780821 94.779
8.798450116065078 91.0649
8.820832535634787 88.2422
8.843215292401656 87.3142
8.865580941199045 85.7935
8.887964374703538 84.8697
8.910330701447199 84.0144
8.932714815164482 83.3025
8.955099270424924 82.6104
8.977466620733543 81.7857
8.999851761421976 81.0596
9.022219798361645 80.2434
9.04460562795561 80.4549
9.066991803441677 79.6362
9.089360876979615 79.6712
9.111747746589993 79.4057
9.13411751544971 79.1414
9.156505082664324 79.1125
9.178875550323522 79.2394
9.20126381862328 81.506
9.223652438908596 88.7446
9.246023961427412 102.07600000000001
9.26841328802173 106.984
9.290785518039224 98.4658
9.313175554425882 87.0803
9.335565947154315 81.0363
9.357939245086508 80.0439
9.380330352834827 79.8411
9.40270436697103 79.9139
9.425096193225055 79.9847
9.447488380180165 80.9868
9.469863475295412 80.9497
9.492256385987508 81.122
9.514632206018318 81.61399999999999
9.537025843935714 81.8222
9.559402392368193 82.67399999999999
9.581796761000229 83.6558
9.604191496441521 84.0269
9.626569144158516 84.3622
9.648964615551032 85.7634
9.671343000390081 86.7784
9.693739211225699 87.6855
9.716135793237463 88.0048
9.738515290448102 88.7688
9.760912617143402 89.91799999999999
9.783292860202891 90.8148
9.805690935076182 91.7102
9.828089385495742 92.4345
9.850470754023561 94.361
9.872869957865444 96.1807
9.89525208097539 99.0484
9.917652041736662 102.95700000000001
9.940052382417589 106.272
9.962435644102392 115.259
9.984836746950979 146.629
10.007220771957746 228.171
10.029622640473708 351.606
10.052007432299963 524.434
10.074410069984072 778.573
10.096813093716005 1204.51
10.119199042482517 1767.02
10.141602840636468 2112.35
10.163989564971628 1730.63
10.186394141051062 1010.63
10.208799107559706 444.289
10.231187001965623 198.28
10.253592751657669 124.575
10.275981430388155 107.962
10.298387966769793 103.676
10.320794897965431 102.06
10.343184759907361 100.975
10.36559248305461 99.3545
10.387983138083852 98.2698
10.410391656691655 99.1928
10.432800574501677 108.416
10.455192425893369 130.48
10.47760214443012 162.875
10.499994797678786 205.796
10.522405320453982 275.85900000000004
10.54479877906917 390.134
10.567210109595656 513.376
10.5896218454736 596.6469999999999
10.612016518879773 574.415
10.634429067781074 403.61800000000005
10.656824555333241 237.937
10.679237920773568 143.154
10.701651695961992 103.594
10.724048411481384 91.5003
10.746463008485165 85.7039
10.768860546937125 82.2891
10.791275969274796 80.2446
10.81369180576079 79.212
10.836090585366925 78.0826
10.858507252467449 76.5519
10.88090686379991 75.5883
10.903324365036394 74.6644
10.925724811614439 73.5445
10.948143150509463 73.4462
10.970561909719066 72.7662
10.992963615930844 72.3568
11.015383218085756 70.6871
11.037785768347074 70.0588
11.06020621697282 69.5391
11.082627090322113 69.1316
11.105030913430326 68.2404
11.12745263854165 68.031
11.149857314510728 67.1252
11.172279894912576 67.7875
11.194702904450653 67.309
11.217108866490921 66.63
11.239532736615194 66.0349
11.26193956033512 65.5776
11.284364294577085 65.0513
11.306789462371718 64.3781
11.329197585398376 63.8391
11.351623622610898 63.8565
11.37403261614354 63.0656
11.396459526308487 63.2335
11.418869393879497 62.7413
11.441297180532617 62.4636
11.463725406927658 61.8951
11.486136592353875 61.9236
11.508565700543707 61.5001
11.530977768845315 61.6043
11.553407762368774 61.5244
11.575838200059769 61.5661
11.598251599479612 61.1028
11.620682927815501 60.8484
11.64309721895548 60.8899
11.665529441478206 60.5431
11.687962112597958 60.217
11.710377748130886 60.3766
11.732811318753434 60.1957
11.755227854859067 60.1972
11.777662328529495 60.2354
11.800079768750786 59.8601
11.822515149015453 59.6725
11.844950984084935 59.847
11.867369787303163 59.9521
11.889806534289491 60.2957
11.912226250487029 61.7982
11.934663912939751 64.2365
11.9571020346363 66.74600000000001
11.979523127133968 66.8944
12.001962169624331 65.4274
12.024384183972964 63.2066
12.046824150809913 64.4133
12.069264581333726 69.7817
12.091687985297767 77.5015
12.11412934550045 87.0938
12.136553680195208 100.355
12.158995973632788 121.681
12.181438735204349 148.028
12.20386447284199 180.833
12.226308172985636 201.493
12.24873485024193 209.68200000000002
12.271179492516982 178.576
12.293607112949127 133.888
12.316052700916226 96.1635
12.338498763250042 73.9549
12.360927805303868 64.6543
12.383374818673879 62.3618
12.405804812803074 61.3282
12.428252780773262 61.3589
12.45070122756722 61.486999999999995
12.473132656675375 61.3632
12.49558206341869 61.3674
12.518014453510101 61.5669
12.540464823770117 61.5058
12.562915677315177 61.8161
12.58534951575545 62.2439
12.607801338171472 61.8903
12.630236146511358 62.8452
12.652688941369085 63.8069
12.675124723177234 64.0477
12.697578494048786 64.2153
12.720032754458185 64.1664
12.742470003354093 64.5848
12.764925245138771 64.7836
12.787363476431278 65.2438
12.809819703166806 65.5519
12.83227642391173 66.3636
12.854716135692716 66.9534
12.877173846755147 68.0233
12.899614549869717 68.283
12.9220732548287 68.9799
12.94453245827299 69.4893
12.966974655289818 70.5105
12.989434858002571 71.1837
13.011878055298721 71.8998
13.034339260862497 72.91
13.056800969391883 74.4933
13.079245674017244 76.8751
13.101708390774869 78.2339
13.12415410463411 82.3262
13.146617833206086 92.6247
13.169064559883248 108.501
13.191529303857127 127.72399999999999
13.213994557076367 150.509
13.236442809902437 183.80200000000002
13.258909083908291 232.40099999999998
13.28135835851934 295.371
13.30382565690295 372.116
13.326293469022952 441.259
13.348744283242008 449.082
13.371213125129904 379.55
13.39366497011003 278.812
13.416134845360597 182.53900000000002
13.438605238843131 126.66799999999999
13.46105863690397 102.62299999999999
13.483530069144786 99.3953
13.505984506951902 107.50399999999999
13.528456981549432 121.624
13.550929978879088 137.495
13.573385983253365 158.737
13.595860028340867 191.38
13.618317081455832 239.04
13.64079217790333 300.61
13.663250283359057 359.902
13.685726434770173 389.974
13.708203115221277 364.06199999999995
13.730662806148091 287.756
13.75314054697177 204.13400000000001
13.775601299246777 137.625
13.798080104050406 99.6763
13.820559442405358 84.4651
13.843021793671388 79.6312
13.865502201420897 77.6328
13.887965623051947 77.2485
13.910447103807167 76.2174
13.932929122629764 74.9248
13.955394156785959 74.5206
13.977877254034569 73.6914
14.000343367582113 72.8064
14.022827546871707 72.0333
14.045294743423524 71.3781
14.06778000837062 70.7347
14.090265817715476 70.8586
14.112734645763819 71.4862
14.13522154619454 73.2311
14.157691466286913 74.2244
14.180179461423874 74.3423
14.202668005486178 72.7948
14.22513957064374 70.2724
14.247629214846473 68.824
14.270101881097517 68.0167
14.29259262906496 67.6714
14.315083930490205 67.3857
14.337558255389705 67.4962
14.360050666019726 67.3721
14.382526101071944 66.8949
14.405019624534942 66.6656
14.427513705993134 66.436
14.449990813291825 66.6012
14.47248601302899 66.4125
14.49496423954951 66.6226
14.517460561197822 66.604
14.539939910570322 66.2228
14.562437357763558 66.5849
14.58493536931253 67.0224
14.607416409993311 67.0695
14.62991555254159 67.19
14.652397725157423 67.4562
14.674898002342799 67.5222
14.697398848433282 67.6151
14.719882725991326 68.4301
14.74238471217934 68.7828
14.764869730765593 70.8205
14.787372860692983 74.8321
14.809876564079925 81.6126
14.83236330125751 89.64299999999999
14.854868153850365 98.8059
14.877356041159485 111.6
14.899862046604186 127.41799999999999
14.922351087688757 150.481
14.944858249632887 180.08599999999998
14.967365991421232 210.81900000000002
14.989856770231246 229.77
15.012365673994204 228.61
15.03485761569738 200.209
15.05736768508665 158.425
15.07987833888692 120.811
15.102372032001655 93.9141
15.124883856909658 77.3833
15.14737872204565 71.1078
15.169891721717274 68.757
15.192405310371893 68.0439
15.214901940621196 67.4742
15.237416709527137 66.7957
15.259914520936249 66.899
15.282430473753607 66.1165
15.304947020131227 65.3789
15.327446610371178 64.8872
15.349964346154254 64.4229
15.372465126703139 64.5294
15.394984055556009 64.52
15.417486030076159 64.3698
15.44000615566487 63.8741
15.462526881230803 63.9204
15.485030653812652 64.0014
15.507552581617434 63.5272
15.530057557334603 63.5135
15.55258069104857 63.6059
15.575104429329837 63.7846
15.597611216864632 63.5118
15.620136166564563 63.6877
15.6426441664095 63.9835
15.665170331202765 65.3586
15.687697105158826 68.6196
15.710206930593545 74.2029
15.732734925158933 80.347
15.755245972089478 87.351
15.77777519094324 96.2366
15.800287463046663 107.155
15.822817909869592 124.559
15.84534897229804 144.869
15.867863089299354 169.77900000000002
15.890395385222186 191.886
15.912910736597423 202.38
15.935444269699861 195.62
15.957978423016485 168.558
15.980495633101265 134.563
16.003031029129367 103.932
16.02554948280019 81.1714
16.048086125229432 68.785
16.070623392487107 64.3435
16.09314371869582 62.7155
16.11568223789321 61.1489
16.13820381691126 59.8776
16.160743591742527 59.261
16.183283996022084 58.5283
16.205807461423195 57.5088
16.228349126881973 57.1792
16.25087385432698 57.1672
16.27341678466365 56.3701
16.29594277784926 56.0162
16.31848697676433 55.776
16.341031811604868 55.3329
16.36355971058487 55.3011
16.3861058195587 55.1747
16.40863499352978 54.6897
16.431182380342005 54.4035
16.453730407713202 54.0599
16.476261501364792 53.8697
16.498810812136167 53.73
16.52134319004079 53.755
16.54389378792203 53.5986
16.566445031001553 53.3722
16.588979342490088 53.3715
16.61153187824822 53.1822
16.634067483263312 52.9386
16.656621315414416 53.028
16.679175797408888 52.9008
16.701713349928728 52.7293
16.72426913389191 53.0252
16.74680798922351 52.8863
16.76936507887444 52.9883
16.791905240734874 52.9115
16.814463639794468 52.6602
16.837022695210294 52.8873
16.859564824093756 53.0076
16.882125194503903 53.161
16.904668639217885 53.6163
16.927230328348003 53.9545
16.949792678493612 54.3149
16.972338104193863 54.1527
16.994901778652235 53.8714
17.017448529496576 53.8162
17.040013531998152 53.8877
17.06257920018044 54.2373
17.0851279459922 54.9889
17.107694947817667 56.0949
17.130245028099072 57.4074
17.15281336730298 58.7613
17.17536478578733 60.7341
17.19793446610687 62.5932
17.220504818648422 65.3343
17.243058251703697 68.2484
17.265629950971032 73.0005
17.288184731571736 77.9945
17.310757781306908 82.6574
17.33333150794385 83.7376
17.355888317140174 83.353
17.37846339986244 79.4084
17.401021565958885 72.4294
17.42359800851343 66.0146
17.44617513265564 61.5253
17.468735341390783 59.1313
17.491261035594565 57.7428
17.51396340099364 57.3285
17.536490463869136 57.3845
17.559018209820174 57.3779
17.58154663977963 57.46
17.604251766089718 57.8181
17.626781572227713 58.0503
17.64931206518155 58.1832
17.671843245885103 58.5828
17.69455114821572 58.6503
17.717083712612634 58.9908
17.739616967569667 59.5286
17.762150914021706 60.3009
17.78486160749854 60.4545
17.807396945166804 60.9006
17.829932977143503 61.3534
17.85246970436452 61.9514
17.875183204129467 63.871
17.897721330097664 66.7704
17.920260154126645 70.164
17.942799677153296 73.8921
17.9655159983646 78.2138
17.988056927677544 83.1915
18.010598558807683 89.7154
18.033140892692916 98.4722
18.05586005052525 109.455
18.07840379824407 121.814
18.10094825154059 133.404
18.12366954819864 142.749
18.146215420998306 144.454
18.16876200220057 138.328
18.191309292745153 124.48200000000001
18.214033452627167 108.816
18.236582170236648 95.9331
18.259131600016456 88.62200000000001
18.281681742907335 86.4566
18.304408781233683 89.4017
18.32696035875955 94.6939
18.349512652227624 99.8078
18.372065662579683 105.514
18.394795594587553 107.575
18.41735004715306 104.381
18.43990521943684 98.1825
18.46246111238171 88.5391
18.485193953325208 78.5039
18.507751296070428 70.62100000000001
18.530309362314178 65.7458
18.552868153000343 62.9942
18.57560391815056 61.3486
18.59816416623245 60.6958
18.620725141597372 60.1732
18.643286845190268 59.5661
18.666025549835414 59.0222
18.688588718427933 58.4897
18.711152618092243 58.3603
18.73389353884365 58.0543
18.75645890921984 57.5442
18.77902501351406 57.2501
18.801591852673102 57.2339
18.824335739722738 56.8745
18.846904057212626 56.5656
18.8694731124168 56.3695
18.89204290628315 56.2636
18.914789774966803 55.9316
18.937361054791623 55.7359
18.959933076131318 55.6032
18.982505839934877 55.4737
19.00525570560582 55.4846
19.027829963004184 55.1543
19.05040496572238 55.2749
19.072980714710468 55.175
19.095733592739563 55.324
19.11831084296757 55.5139
19.140888842324735 56.0416
19.16346759176222 56.6511
19.18622349753803 57.196000000000005
19.208803755869358 58.3392
19.231384767143577 59.5529
19.253966532312948 60.8991
19.276725481241822 62.9075
19.29930876296784 65.7714
19.3218928014549 68.9976
19.34465404436217 72.1108
19.36723960516257 74.9148
19.389825925592426 76.1697
19.412413006605938 75.2448
19.43517731967805 72.3138
19.457765930683355 67.889
19.48035530514408 63.3356
19.50294544401556 59.358000000000004
19.525712842708348 56.3551
19.54830451925909 54.3889
19.570896963095727 53.1712
19.593490175174704 52.7457
19.616260674962184 52.7023
19.638855432416964 52.2599
19.661450960992624 52.5316
19.68404726164677 52.3719
19.706820878021247 52.048
19.729418731756834 52.1677
19.752017360452857 51.7415
19.77461676506804 52.0821
19.797393513540218 52.217
19.819994478951667 52.2922
19.84259622316767 53.028
19.8651987471481 53.5574
19.887978643247177 53.9665
19.91058273574792 54.4461
19.933187610901943 55.2485
19.955969879466828 56.5395
19.97857632894404 57.93899999999999
20.00118356396599 59.4061
20.023791585494575 61.159
20.046577028914875 63.9357
20.069186632506966 66.7569
20.091797025500632 69.2157
20.114408208858933 70.7689
20.137196842715273 70.922
20.159809615886765 69.2988
20.18242318232135 67.0586
20.20503754298326 64.3332
20.227829382875154 62.7472
20.250445341109344 62.0566
20.27306209647285 62.3743
20.29567964993108 63.687
20.31847471147704 64.6654
20.34109387027612 65.6284
20.363713830075454 65.5646
20.386334591841646 64.4752
20.409132890679302 61.4927
20.431755265564437 58.3665
20.454378445325528 55.282
20.477002430930366 52.9737
20.499803982716553 51.2708
20.522429589228004 50.0204
20.54505600449589 49.5558
20.567683229489194 49.4922
20.590488049900088 49.2282
20.61311690359731 49.0495
20.63574656993626 48.9438
20.658553853717297 48.5602
20.681185154618298 48.4641
20.703817271080066 48.3688
20.72645020407368 48.1189
20.749260783967177 48.1993
20.771895359337133 48.2171
20.794530754161617 48.1318
20.817166969412938 48.0516
20.83998086114876 48.0847
20.86261872660049 47.8275
20.885257415405402 47.7403
20.90789692853701 47.6146
20.930714147864748 47.5038
20.953355319030678 47.4452
20.97599731745334 47.6395
20.99864014410749 47.3727
21.021460706796564 47.4407
21.044105199328826 47.8997
21.06675052302631 47.8681
21.089396678865015 47.9868
21.112220600704806 48.3727
21.134868430275347 48.7609
21.15751709492456 48.9105
21.180166595629693 49.3871
21.202993892429635 49.9093
21.22564507473034 50.3762
21.24829709602816 50.5795
21.27112693608965 50.7831
21.293780644891275 50.7278
21.316435195634053 50.0152
21.339090589297417 49.3087
21.361923832041875 48.8701
21.384580921090404 48.1319
21.407238856007325 47.6869
21.429897637773326 47.4617
21.45273429906592 47.5026
21.475394784108598 47.442
21.498056118951983 47.5477
21.520718304578022 47.7822
21.543558400304388 47.7125
21.566222297108816 47.878
21.58888704765135 47.8399
21.61155265291521 47.9904
21.63439619898156 48.6824
21.657063523335786 49.1563
21.67973170537063 49.8077
21.7024007460706 50.1887
21.72524775840385 51.0778
21.747918526116475 52.0254
21.770590155457388 53.0018
21.79326264741238 54.5935
21.816113141960237 56.2606
21.838787368860547 58.3265
21.861462461341976 60.721000000000004
21.884315579735777 63.2602
21.90699241312273 64.8631
21.92967011506078 65.6728
21.95234868653799 65.5036
21.9752053151131 64.3704
21.997885635446785 62.3596
22.020566828293532 60.1337
22.04324889464272 57.9764
22.066109049404666 56.6519
22.088792872571794 55.7789
22.111477572219204 56.0055
22.1341631493376 56.2531
22.157026846313123 56.2537
22.179714188221507 55.5785
22.202402410582668 54.3794
22.22509151438863 52.7574
22.24795876962584 51.3081
22.270649646204486 49.9814
22.293341407213727 49.1186
22.316034053646906 48.5741
22.338904883215342 48.3118
22.36159931041458 48.0823
22.38429462602756 48.0601
22.40699083104897 47.6964
22.429865251039757 47.626999999999995
22.452563244831367 47.6877
22.47526213102522 47.698
22.49813925616515 47.847
22.520839937143307 47.56100000000001
22.543541513520587 47.7282
22.56624398629403 47.707
22.589124730075895 47.4863
22.611829005656723 47.7612
22.63453418063466 47.6215
22.657240256008077 47.8843
22.680124634582935 48.2008
22.70283252079775 48.5373
22.725541310413075 48.8406
22.74825100442868 49.3209
22.771139033969575 49.816
22.79385054687155 50.1712
22.81656296718292 50.6683
22.83927629590484 51.4853
22.862167992606945 52.3596
22.88488314827121 53.3602
22.907599215359284 54.4553
22.93031619487366 55.8026
22.953211574954405 56.8091
22.975930389478226 57.9987
22.998650119445763 58.1678
23.02137076586092 57.5692
23.044269845560063 56.2543
23.06699233506288 54.8655
23.089715744034912 52.8623
23.112617610931565 51.1718
23.135342869061212 49.6679
23.158069049684816 48.6229
23.1807961538087 48.1512
23.20370174880544 48.11600000000001
23.226430710184808 47.9838
23.249160598093425 47.7593
23.271891413539002 47.8748
23.294800752937697 48.1191
23.31753343374794 48.5412
23.340267045128353 48.6922
23.36300158808808 49.06100000000001
23.38591468821339 49.4787
23.408651104658304 50.0788
23.431388455719986 50.632
23.454126742409 51.3353
23.4770436196085 52.2328
23.499783787914662 53.7214
23.522524894889884 54.8997
23.54526694154616 56.239
23.56818761219047 57.5031
23.59093154860734 58.0242
23.613676427751283 58.7376
23.636422250635754 58.1437
23.659346731118656 56.5667
23.68209445191868 54.7731
23.704843119509587 52.2256
23.72759273490623 50.1584
23.750521041644767 48.3575
23.77327256312355 47.0504
23.796025035462787 46.107
23.818956224555475 45.4308
23.841710609113413 45.3128
23.86446594758979 45.1298
23.887222241002014 44.8597
23.910157285144578 44.4852
23.932915498962537 44.6267
23.955674670778713 44.3457
23.978434801611975 44.1076
24.001373717286125 43.9091
24.024135776723917 43.88399999999999
24.046898798245582 43.7991
24.06966278287146 43.7818
24.092605586582614 43.6552
24.115371508023642 43.3762
24.1381383956401 43.1282
24.16090625045381 43.2179
24.183852958731244 43.0914
24.206622758582608 42.9604
24.229393528706886 42.7423
24.252165270127392 42.7757
24.27511589952438 42.8562
24.297889594216997 42.5572
24.32066426328598 42.5419
24.34343990775613 42.4139
24.36639447485003 42.3089
24.38917208083877 42.1826
24.41195066531332 42.1461
24.43490819850244 42.1533
24.457688750692377 42.1507
24.48047028445616 42.2535
24.503252800821233 42.4043
24.526214300784112 42.4123
24.548998793132213 42.2597
24.57178427117417 42.0555
24.59457073593893 42.1735
24.617536219319863 42.1456
24.64032466834748 42.2531
24.663114107195035 42.2004
24.685904536893013 41.9536
24.708874020360852 41.711000000000006
24.731666442613744 41.6278
24.754459858818787 41.667
24.777254270007962 41.3756
24.80022777025625 41.4542
24.82302418230472 41.3562
24.845821592443674 41.3265
24.86862000170663 41.4909
24.891597535453727 41.3893
24.914397953892728 41.6372
24.93719937456671 41.4872
24.96000179851076 41.6258
24.98298338249997 41.8885
25.00578782394922 42.0622
25.028593271784167 42.1817
25.05157790644186 42.5428
25.07438537804115 42.9109
25.097193859145293 43.2571
25.120003350792075 43.3521
25.142992065061257 43.8697
25.165803588823465 44.1076
25.18861612625217 44.2952
25.211429678386736 44.54
25.234422489079968 44.5203
25.257238081693636 44.5122
25.280054692141732 44.7024
25.3028723214652 44.7363
25.325869245420463 44.7959
25.348688923599397 44.895
25.371509623787006 44.7657
25.394331347025812 44.5044
25.41733240110666 44.1566
25.440156181590016 43.4348
25.46298098826268 42.8555
25.48580682216873 42.2183
25.50881202326435 41.6392
25.53163992281684 41.0506
25.55446885274561 40.6311
25.577298814096377 40.1554
25.600308179121807 40.1459
25.623140214533745 40.3337
25.64597328451537 40.0074
25.66898578564376 39.8789
25.691820936010206 39.911
25.714657124097695 39.7625
25.737494350954734 39.8175
25.760511045684957 39.6809
25.783350361364224 39.8551
25.806190718969255 39.9827
25.82903211955018 39.9626
25.852053024868923 39.971
25.874896522722523 40.1263
25.897741066713106 39.9959
25.920586657892454 40.0226
25.943611790812668 40.2248
25.966459487728237 40.4181
25.989308234998564 40.4479
26.01215803367705 40.8066
26.03518741123814 40.8804
26.05803932412957 41.114
26.080892291600094 41.1122
26.10374631470478 41.1877
26.12677995397268 41.5181
26.14963609978026 41.5092
26.172493304397875 40.9956
26.19535156888223 41.0023
26.218389486949604 40.4739
26.241249882640123 40.1707
26.26411134137826 39.8408
26.28715248187403 39.6836
26.31001607820869 39.5085
26.3328807407756 39.4307
26.35574647063438 39.56
26.37879191991473 39.591
26.401659795896734 39.5517
26.424528742360263 39.7949
26.447398760366614 40.0359
26.470448535598294 40.001999999999995
26.49332070826805 40.2948
26.516193955675355 40.5118
26.53906827888316 40.8231
26.562122397260108 41.0471
26.584998883685063 41.3123
26.607876449110325 41.7248
26.63075509460056 41.9731
26.65381357334404 42.1423
26.67669439061878 42.1364
26.699576291163382 42.0682
26.722459276044212 41.9958
26.745522132402975 41.6817
26.768407297649354 41.3866
26.791293550442003 40.9765
26.814180891848974 40.5813
26.837248143099337 40.3086
26.860137673466657 40.1842
26.88302829566349 39.8954
26.90592001075963 39.8126
26.92899167420566 39.5092
26.951885586870763 39.2675
26.974780595655517 38.9893
26.99785558178161 38.7782
27.020752794605112 38.677
27.043651106772522 38.3639
27.06655051935668 38.3239
27.089629948036183 38.2275
27.112531573292053 38.214
27.135434302194138 38.2212
27.158338135817015 38.1118
27.181422024430987 37.9343
27.204328079372566 37.8548
27.22723524226965 37.9239
27.250143514198573 38.0863
27.273231880156334 37.9841
27.296142382065014 37.9146
27.319053996245536 37.882
27.341966723775965 37.918
27.365059584515222 37.9597
27.38797455070062 37.9567
27.410890633481237 37.8027
27.433807833936918 37.9184
27.456905206923906 38.0541
27.47982465472398 37.978
27.502745223449743 38.117
27.525666914182825 38.19
27.548768816912457 38.2339
27.571692763693633 38.1365
27.59461783573812 38.0618
27.617723149491244 37.989000000000004
27.640650484125285 37.7979
27.66357894728264 37.7301
27.686508540048052 37.5734
27.709618414237887 37.687
27.732550278321757 37.4531
27.755483275279115 37.3852
27.778417406196485 37.5726
27.801531858397514 37.52
27.824468269376716 37.4155
27.847405817586786 37.4548
27.870344504116094 37.631
27.893463551932008 37.6304
27.916404527281053 38.0049
27.93934664422563 38.103
27.962289903855886 38.0942
27.98541356491974 38.4872
28.00835912214229 38.5572
28.03130582533231 38.8057
28.054253675581805 39.0627
28.077381967556104 39.0595
28.100332124185126 39.0714
28.123283431160893 38.9327
28.146235889577238 38.7103
28.169368830154156 38.6408
28.192323603752033 38.465
28.215279532083304 38.1175
28.238415973016764 37.8138
28.261374223145094 37.7739
28.284333631303806 37.457
28.307294198589954 37.2392
28.330435319167677 36.8877
28.353398217078915 36.5917
28.376362277420153 36.4165
28.39932750129032 36.2661
28.422473319286713 35.9887
28.44544088262495 36.0354
28.468409612800283 35.7084
28.491379510913497 35.5578
28.51453004413313 35.5223
28.53750229057244 35.4791
28.56047570826344 35.4331
28.583450298308804 35.4864
28.606605564586562 35.2054
28.629582511831156 35.3065
28.65256063474956 35.2493
28.675539934446338 35.295
28.698699951647605 35.1436
28.72168161743193 35.0477
28.74466446331978 34.9872
28.767648490417624 34.9178
28.790813276438353 35.053000000000004
28.813799678527303 35.0361
28.836787265157085 34.9426
28.859955641890075 34.9903
28.882945610203045 34.9059
28.905936766392035 34.942
28.928929111566863 34.9691
28.952102288520145 34.8577
28.975097024308607 34.8295
28.998092952423807 34.5982
29.021090073977508 34.445
29.04426806913204 34.3976
29.067267590245258 34.2643
29.090268308143695 34.3063
29.11327022394099 34.0797
29.13645305530891 33.9909
29.159457379627167 33.9879
29.18246290519685 33.9185
29.20546963313352 33.8892
29.22865731875826 33.8685
29.25166646419296 33.7991
29.27467681535305 33.7315
29.29768837335608 33.7421
29.320880931312562 33.803000000000004
29.34389491580634 33.8995
29.366910110507334 33.8383
29.38992651653503 33.9008
29.41312396492981 33.8649
29.436142806456754 33.8185
29.45916286268059 33.604
29.48236399319994 33.5374
29.50538649169417 33.3553
29.528410208259935 33.1832
29.55143514402014 33.0923
29.574641196749695 32.9397
29.597668583816574 32.8178
29.6206971934585 32.6352
29.64372702680042 32.7123
29.666938019934474 32.5336
29.689970313635285 32.4152
29.713003834422636 32.3943
29.73603858342347 32.4537
29.759254535188578 32.4893
29.78229175361658 32.3764
29.80533020365064 32.5212
29.82836988641968 32.4941
29.85159081507472 32.3054
29.874632976355343 32.2625
29.89767637376955 32.3207
29.920721008448314 32.0382
29.9439469322847 32.1162
29.96699405457564 31.9714
29.9900424175358 32.0344
30.013092022298157 32.0642
30.03632295963995 31.9774
30.059375061131373 31.9643
30.08242840783577 32.1095
30.105483000888153 32.0369
30.128718970092244 31.9505
30.151776069006917 31.9379
30.17483441768648 32.0415
30.198074175317235 31.9928
30.221135036724256 31.9568
30.24419715131772 32.0522
30.267260520236203 31.8663
30.290505341942243 31.8723
30.313571232750228 32.0136
30.336638381310948 31.9264
30.35970678876503 31.8893
30.38295669299435 31.949
30.40602763151657 31.7699
30.429099832366074 31.7429
30.452173296685572 31.6251
30.47542830191959 31.75
30.498504306502497 31.6316
30.521581577995562 31.8048
30.544660117543582 31.7661
30.56792024229725 31.8363
30.59100133132069 31.7855
30.614083691845494 31.7631
30.637167325018545 31.8542
30.660432587840603 31.9477
30.683518779717886 31.9715
30.70660624769615 32.0359
30.729694992924372 31.9259
30.75296541239743 31.9802
30.77605672557558 31.8893
30.799149319462742 31.8877
30.8224236211637 31.7568
30.845518789950724 31.6103
30.868615242910597 31.4861
30.891712981195973 31.3867
30.91499247215866 31.3636
30.938092794619365 31.3204
30.96119440587579 31.18
30.984297307082752 31.1335
31.00758200598383 31.0092
31.030687500658694 30.9028
31.053794288760695 30.845
31.076902371446767 30.6315
31.100192296997445 30.8586
31.12330298246119 30.6665
31.14641496599209 30.5721
31.169528248749216 30.6611
31.19282341969534 30.6238
31.215939314557186 30.5681
31.239056512134788 30.6348
31.262175013589378 30.6387
31.28547544871168 30.6009
31.30859657161541 30.6105
31.331719001892175 30.6104
31.35484274070538 30.6551
31.378148458819545 30.6325
31.401274828443725 30.5692
31.424402510106933 30.616
31.447712205419993 30.7008
31.470842524931633 30.5767
31.493974159989783 30.5335
31.51710711176168 30.544
31.54042212308802 30.6331
31.563557722100917 30.5563
31.586694641341655 30.3887
31.609832881979628 30.2818
31.63315322823208 30.2585
31.656294125521327 30.0368
31.679436347728515 29.9344
31.70257989602529 29.8913
31.725905596152327 29.9184
31.74905181052835 29.8601
31.772199354521323 29.81
31.79534822930507 29.9359
31.818679302290967 29.9207
31.84183085259981 29.8865
31.864983737233473 29.908
31.88813795736804 29.8421
31.911474422233013 29.7586
31.934631327356435 29.7743
31.9577895715215 29.8184
31.980949155906522 29.8457
32.004291031706956 29.8339
32.027453310562606 29.653000000000002
32.05061693318573 29.5539
32.07396288236386 29.6203
32.09712920658542 29.6029
32.12029687812702 29.3804
32.14346589817093 29.305999999999997
32.166817291729984 29.2944
32.18998902288583 29.1356
32.21316210610336 29.0605
32.23633654256711 29.0099
32.259693399663725 28.963
32.282870556771144 28.7941
32.30604907069099 28.7948
32.329228942610065 28.7357
32.35259128243769 28.7031
32.375773884550505 28.5588
32.398957848235646 28.5819
32.422143174682176 28.5171
32.445511016471215 28.4816
32.468699082679954 28.3453
32.49188851523011 28.3153
32.51507931531304 28.3291
32.538452678331 28.2587
32.56164622776311 28.3238
32.58484114831493 28.1695
32.60803744118015 28.0934
32.631416344731896 28.1842
32.654615396551876 28.0406
32.67781582427913 28.0925
32.701198898634416 28.0301
32.72440209253756 27.9085
32.747606665947124 27.9815
32.77081262006088 27.9275
32.79420126883317 27.8425
32.81740999876112 27.8594
32.840620112999424 27.711
32.86383161274818 27.7023
32.88722585534586 27.7711
32.91044014056596 27.8239
32.933655814909734 27.7255
32.95687287957963 27.6278
32.98027273544904 27.599
33.00349259526636 27.5295
33.026713849030116 27.5731
33.04993649794511 27.6157
33.073341986570746 27.5135
33.09656744032826 27.5427
33.11979429286444 27.5167
33.14302254538647 27.4997
33.166433686291185 27.3901
33.18966475336992 27.406
33.212897224069096 27.3454
33.23613109959831 27.348000000000003
33.259547912343415 27.2805
33.2827846121627 27.3325
33.306022720453775 27.3056
33.32926223842861 27.233
33.352684742614166 27.2566
33.37592709463173 27.1458
33.399170859982064 27.0163
33.422597648419426 26.9599
33.44584425514446 26.8425
33.46909227885668 26.8606
33.4923417207723 26.7154
33.51577423505344 26.8169
33.539026528130385 26.674
33.56228024307245 26.7075
33.585535381098246 26.5359
33.60897364093058 26.421
33.63223163992385 26.5149
33.6554910656699 26.3474
33.678751919389796 26.3208
33.702195944520106 26.3542
33.72545966903325 26.3036
33.74872482519663 26.1956
33.771991414233746 26.2461
33.79544122444841 26.2069
33.81871069412428 26.1268
33.84198160035767 26.070999999999998
33.86525394437455 26.0437
33.88870955949969 26.0385
33.911984794020626 26.0584
33.93526147001624 25.9848
33.958539588715006 25.9663
33.98200102861669 26.0
34.0052820477047 25.8724
34.02856451319451 25.7456
34.05203033759056 25.6858
34.07531571090147 25.7197
34.09860253431845 25.6442
34.121890809074316 25.6807
34.145362493118924 25.6721
34.16865368561615 25.4817
34.191946333164054 25.4859
34.21524043699793 25.4663
34.23871800066799 25.4593
34.26201503218366 25.3173
34.28531352370466 25.3741
34.30861347646881 25.2439
34.33209693978188 25.1856
34.3553998301885 25.3045
34.378704185565205 25.1646
34.402010007152356 25.1035
34.42549939016683 25.0768
34.44880815937748 24.9567
34.472118398533134 24.9269
34.49543010887669 24.9026
34.51892543169198 24.9041
34.54224009966052 24.9016
34.56555624255917 24.7826
34.58887386163339 24.6606
34.61237514439016 24.7017
34.6356957311114 24.6936
34.65901779775809 24.6405
34.68252356662995 24.5989
34.705848608458616 24.6276
34.72917513396849 24.6211
34.75250314440949 24.500999999999998
34.77601490857862 24.3728
34.799345904259795 24.3753
34.82267838863559 24.3995
34.846012362958525 24.3058
34.869530142679984 24.3344
34.89286711232212 24.2764
34.91620557568269 24.3212
34.93954553401677 24.2737
34.9630693495876 24.1238
34.986412313340814 24.1795
35.00975677584668 24.294
35.033102738362956 24.1826
35.05663261012228 24.1279
35.0799815881786 24.1374
35.10333207003229 23.9853
35.12668405694369 23.9948
35.150220005273056 24.0462
35.17357501786656 23.9511
35.19693153931268 23.9364
35.220289570874385 23.8681
35.24383161619786 23.8558
35.267192683604904 23.842
35.290555264930376 23.9391
35.314101899412165 23.9079
35.33746752422433 23.831
35.36083466676374 23.7762
35.38420332829803 23.7157
35.407756095629054 23.7581
35.43112781085063 23.8136
35.45450104888391 23.7035
35.477875810999194 23.7282
35.50143473172161 23.587
35.52481255774625 23.6814
35.54819191167777 23.546999999999997
35.57157279478914 23.6098
35.595137889488406 23.554000000000002
35.61852184675279 23.5361
35.641907337029984 23.4173
35.665294361595684 23.421
35.68886565090076 23.3239
35.7122557598848 23.3076
35.73564740699838 23.396
35.759040593519934 23.2695
35.78261809810353 23.2274
35.80601437933051 23.1014
35.829412203814705 23.0992
35.85281157283719 23.0804
35.876395313415884 23.0852
35.8997977874528 22.9734
35.92320180988546 22.9595
35.946790244133936 22.89
35.97019737933222 22.9033
35.993606066789866 22.8482
36.01701630779276 22.7999
36.04061101440684 22.7809
36.06402437852291 22.7862
36.08743930005611 22.6359
36.1108557802951 22.6218
36.13445678011326 22.6787
36.15787639383515 22.6074
36.18129757014299 22.6263
36.20472031032821 22.6087
36.22832762423364 22.5318
36.25175350829375 22.4501
36.275180960119776 22.4143
36.298609981005924 22.4259
36.32222362992669 22.4676
36.34565580510207 22.4186
36.36908955323448 22.3425
36.39252487562093 22.1944
36.416144880530226 22.2528
36.43958336764275 22.2166
36.463023432914625 22.1434
36.486465077645676 22.1212
36.51009145956204 22.1493
36.53353627947859 22.124000000000002
36.55698268276811 22.1392
36.58043067073321 22.0956
36.60406345072071 21.9689
36.62751462435344 21.9589
36.65096738658405 21.98
36.67460498210655 21.9697
36.69806093788647 21.9065
36.72151848619297 21.7868
36.744977628333636 21.8208
36.76862165890998 21.7257
36.79208400512205 21.8131
36.81554794910557 21.7617
36.83901349217101 21.6243
36.862663978991606 21.5849
36.88613273667352 21.5595
36.90960309738324 21.6265
36.933075062434064 21.5363
36.95673202673572 21.5212
36.98020721697122 21.465999999999998
37.003684015502365 21.3655
37.027162423645365 21.3592
37.050825886711465 21.3617
37.07430753063053 21.2713
37.09779078812467 21.3166
37.121275660513014 21.2408
37.144945643673694 21.2104
37.16843376245278 21.103
37.19192350009803 21.1764
37.215414857931435 21.1334
37.239091382563885 21.0518
37.262585997426164 21.0998
37.28608223645736 21.127
37.309763684451696 21.0327
37.33326318851098 20.9477
37.356764320726555 20.9199
37.380267082425526 20.976999999999997
37.40395510942588 20.8704
37.42746114683234 20.8368
37.45096881771841 20.811999999999998
37.474478123414166 20.7707
37.49817275092816 20.7118
37.52168534303452 20.7177
37.54519957395567 20.6317
37.568715445024665 20.6311
37.592416694607714 20.5766
37.61593586281424 20.6074
37.63945667518264 20.5529
37.66297913304891 20.5005
37.68668702630454 20.445999999999998
37.710212792059274 20.4466
37.733740207334854 20.4456
37.757269273470364 20.3914
37.780983832050374 20.2702
37.80451621684926 20.2866
37.82805025654007 20.2603
37.851585952464795 20.2564
37.8753071980695 20.1744
37.89884622345676 20.0643
37.92238690911902 20.0973
37.94611318753442 20.088
37.969657210779765 20.014
37.99320289834801 20.0332
38.016750251586465 20.0155
38.04048325513017 19.9673
38.06403395679343 19.934
38.087586328183946 19.9116
38.11114037065203 19.8544
38.13488012115898 19.8686
38.1584375229181 19.804000000000002
38.181996599821 19.7088
38.205557353221124 19.7333
38.229303872575656 19.6998
38.2528679961576 19.6649
38.27643380031219 19.6103
38.30000128639589 19.659000000000002
38.32375459653193 19.6378
38.34732546371299 19.6326
38.37089801690786 19.5649
38.39447225747609 19.4703
38.418232380377425 19.4988
38.441810012983396 19.4806
38.46538933705673 19.465
38.488970353960084 19.3894
38.51273731166058 19.3415
38.536321731567014 19.2974
38.55990784840681 19.3248
38.58367995004091 19.3287
38.60726947812959 19.2118
38.63086070726198 19.1698
38.654453638806274 19.1421
38.678232613930824 19.1494
38.70182896773327 19.0901
38.72542702806741 19.0827
38.7490267963045 19.0412
38.77281266709232 19.0735
38.79641586862214 19.0024
38.8200207821842 18.9166
38.843627409152944 18.8956
38.86742019782782 18.9314
38.891030269149255 18.9303
38.914642058016156 18.8281
38.938255565806124 18.8374
38.96205529464307 18.744
38.98567225787121 18.7637
39.00929094417078 18.7008
39.03291135492255 18.7174
39.05671804624804 18.6797
39.080341923549106 18.5974
39.103967529460334 18.5284
39.127594865365744 18.572
39.15140854155791 18.5379
39.17503935514948 18.514
39.19867190290282 18.4432
39.22249083587951 18.4266
39.24612686969409 18.4443
39.269764641845306 18.3774
39.293404153722804 18.3214
39.317230110864074 18.3274
39.34087311998506 18.232
39.36451787301696 18.2848
39.388164371352595 18.182000000000002
39.41199737518003 18.1872
39.43564738196752 18.1677
39.45929913825317 18.1493
39.48295264543308 18.0796
39.506792718520884 18.0755
39.530449745387216 18.0322
39.55410852735203 18.0003
39.57776906581474 18.0271
39.60161623079 17.9923
39.625280300200025 17.9733
39.64894613032202 17.8655
39.67261372255866 17.9283
39.6964680021016 17.8777
39.72013913657293 17.8663
39.74381203738292 17.8149
39.76748670593756 17.7478
39.79134812278169 17.7482
39.81502634488497 17.7119
39.83870633896685 17.6988
39.862388106436654 17.6271
39.88625668336918 17.6027
39.90994201572829 17.660999999999998
39.933629125719285 17.5579
39.957503091207826 17.5332
39.9811937746168 17.6006
40.00488623990914 17.5307
40.02858048850006 17.499000000000002
40.05246165409549 17.4322
40.076159487492085 17.3728
40.099859108448875 17.4257
40.123560518384345 17.3743
40.1474489070226 17.3405
40.171153913178564 17.305999999999997
40.194860712584955 17.2734
40.2185693066637 17.2246
40.242464941335314 17.1926
40.26617714307655 17.2026
40.289891143772046 17.1394
40.3136069448471 17.1086
40.33750984859743 17.1133
40.3612292688043 17.11
40.3849504936829 17.0316
40.40867352466194 17.0398
40.43258372059144 17.0073
40.45631038219906 17.0203
40.48003885420956 16.917
40.503769138055105 16.9282
40.52768664931955 16.8498
40.55142057531802 16.8749
40.57515631746428 16.863
40.599079334038514 16.8446
40.62281872700477 16.7505
40.64655994043941 16.7588
40.67030297578061 16.7183
40.69423334835778 16.6654
40.71798004609188 16.6604
40.74172857006355 16.6318
40.76547892171441 16.614
40.7894166736039 16.5797
40.813170699248566 16.5966
40.83692655691388 16.5722
40.86068424804498 16.5651
40.884629402612525 16.4953
40.908390779366385 16.5311
40.932153993938 16.4546
40.95591904777605 16.4015
40.979871628443995 16.4228
41.003640379561936 16.3988
41.02741097430883 16.36
41.05118341413683 16.3335
41.075143444384416 16.3353
41.098919593177826 16.3286
41.1226975914255 16.235
41.14647744058318 16.1755
41.170444943946755 16.117
41.19422851378379 16.1622
41.218013938914645 16.1401
41.24198706625173 16.1139
41.26577622087193 16.0443
41.289567235177785 16.070999999999998
41.31336011063129 16.0152
41.337340752422875 15.9849
41.361137369129835 15.9538
41.38493585138705 15.9558
41.40873620066004 15.8961
41.43272438060107 15.8721
41.45652848292052 15.7891
41.48033445666918 15.7712
41.50414230331616 15.8339
41.528138045159764 15.7856
41.551949656675205 15.7366
41.575763145513235 15.6879
41.59957851314666 15.6611
41.62358184070442 15.6959
41.64740098505737 15.6854
41.6712220126409 15.5996
41.69504492493139 15.5306
41.71905586207357 15.5856
41.74288256296395 15.5695
41.766711153007456 15.533
41.79054163368412 15.4929
41.814560204340054 15.4948
41.838394485526365 15.4494
41.86223066180303 15.4246
41.88625497706819 15.3926
41.910094962812 15.4142
41.93393684811168 15.3562
41.95778063445365 15.2689
41.981812625263366 15.2682
42.00566023303407 15.257
42.029509746323676 15.2051
42.05336116662236 15.2089
42.077400857069705 15.1941
42.10125611078846 15.2174
42.12511327600405 15.1048
42.14897235421036 15.0828
42.173019768448455 15.0607
42.19688269209613 15.0864
42.22074753323349 14.9974
42.24461429335818 14.9858
42.268669455600495 14.9644
42.292540073217886 14.9922
42.31641261433284 14.9254
42.34028708044675 14.9119
42.36435001496739 14.9322
42.38822835065557 14.8894
42.41210861586426 14.8207
42.4359908120986 14.8031
42.46006154323262 14.7873
42.48394762115317 14.7658
42.507835634632315 14.7496
42.531912233047436 14.7047
42.55580413732265 14.657
42.579697981698 14.652000000000001
42.60359376768525 14.6088
42.62767820545945 14.6228
42.65157789440821 14.5968
42.67547952952185 14.5709
42.699383112316 14.5532
42.72347541395347 14.5369
42.74738291190531 14.4642
42.771292362102166 14.4218
42.795203766063516 14.4329
42.819303956130405 14.4464
42.843219287476536 14.4116
42.86713657716324 14.312000000000001
42.89105582671383 14.3589
42.91516392983864 14.3514
42.939087119032166 14.3198
42.963012272677304 14.2702
42.98693939230129 14.2259
43.01105543317513 14.2052
43.034986504731386 14.1557
43.05891954686589 14.1586
43.08285456110972 14.1708
43.10697856448665 14.1399
43.130917542983475 14.0974
43.15485849820081 14.0725
43.17880143167367 14.0437
43.20293342237094 14.0366
43.226880332449 13.9944
43.25082922540554 13.9801
43.27496722682525 13.8968
43.29892010567796 13.9061
43.32287497204102 13.9162
43.34683182745632 13.8921
43.370977859791836 13.8508
43.39493871351105 13.806
43.41890156092628 13.8313
43.44286640358341 13.7407
43.46702049182749 13.7629
43.49098934522816 13.7464
43.51496019852649 13.6983
43.5389330532723 13.6741
43.56309522248204 13.6541
43.58707210044314 13.6178
43.61105098451946 13.597000000000001
43.63503187626491 13.5867
43.659202151562134 13.6222
43.68318707902681 13.5649
43.70717401884041 13.5178
43.731162972560874 13.4777
43.75534137913236 13.4599
43.779334381108384 13.4704
43.803329401683186 13.4616
43.82732644241872 13.4017
43.8515130055166 13.3749
43.87551410707659 13.3444
43.89951723350145 13.2916
43.923709934595614 13.2942
43.94771713129917 13.2745
43.97172635758096 13.2992
43.99573761501002 13.2264
44.0199385169922 13.2017
44.04395385732619 13.1782
44.067971233533086 13.1622
44.09199064718605 13.0986
44.11619977548961 13.1365
44.14022328470671 13.0669
44.16424883610785 13.0933
44.18827643127035 13.0711
44.21249381139513 13.026
44.236525514814076 12.9964
44.26055926674478 12.9778
44.28459506876863 13.0172
44.3088207262813 12.9438
44.33286064928722 12.9497
44.35690262714919 12.8891
44.38094666145278 12.8354
44.4051806219871 12.8604
44.42922879003185 12.7923
44.45327901929361 12.7597
44.477331311362136 12.7966
44.501573600619416 12.7426
44.525630039221795 12.7156
44.54968854541895 12.7467
44.573937102200176 12.7119
44.5979997645541 12.6599
44.622064499300315 12.6685
44.64613130803592 12.6044
44.67038823869318 12.6114
44.69445921643748 12.6202
44.718532272981385 12.5527
44.742607409926194 12.5071
44.76687274034801 12.5114
44.79095205918753 12.5129
44.81503346325094 12.4821
44.839116954143876 12.4716
44.86339071028742 12.3912
44.88747839599524 12.4146
44.91156817336837 12.4023
44.93566004401666 12.3721
44.959942251908146 12.3533
44.984038330325966 12.3385
45.00813650686762 12.2565
45.03223678314731 12.2317
45.05652746888232 12.1793
45.08063196592069 12.2143
45.104738567558705 12.1696
45.128847275414856 12.1577
45.15314646515866 12.1158
45.17725940679741 12.1507
45.20137445952892 12.1111
45.22568004865265 12.0809
45.24979934496396 12.0708
45.27392075725247 12.1089
45.29804428714431 12.0693
45.322358426247604 12.0315
45.346486212804315 11.9823
45.370616121861914 11.9988
45.39474815505086 11.953
45.41907087049246 11.9317
45.4432071734666 11.9144
45.46734560548283 11.9045
45.49148616817604 11.8959
45.51581748638564 11.8483
45.5399623320197 11.8398
45.56410931325473 11.8129
45.58825843173002 11.7888
45.61259837920865 11.7465
45.636751793816 11.8144
45.66090735060093 11.7403
45.68506505120716 11.6889
45.7094136545275 11.6349
45.73357566449271 11.6126
45.75773982322992 11.6253
45.78190613238733 11.578
45.806263418194064 11.5409
45.83043404997326 11.5618
45.85460683713677 11.5604
45.87897065658495 11.5137
45.90314777634752 11.4767
45.92732705646868 11.4704
45.9515084986045 11.475999999999999
45.97588104735473 11.4252
46.00006683541565 11.4095
46.02425479047904 11.3988
46.04844491420549 11.388
46.0728262191024 11.332
46.09702070211635 11.3845
46.12121735879483 11.3719
46.14541619080294 11.3083
46.169806278764455 11.3024
46.194009483459034 11.2557
46.21821486849841 11.2326
46.24242243555223 11.220999999999998
46.266821333570014 11.1906
46.29103328674601 11.1815
46.31524742696538 11.1927
46.33946375590237 11.1478
46.36387149104216 11.1674
46.38809221957392 11.107000000000001
46.41231514186606 11.0975
46.436540259597464 11.0751
46.460956858999374 11.0511
46.48518638983522 11.0141
46.509418121166966 11.0081
46.533652054678114 10.964
46.55807754555709 10.909
46.58231590571962 10.964
46.60655647313217 10.9353
46.630988654873654 10.9239
46.655233659129024 10.8629
46.67948087571551 10.8307
46.70373030632484 10.8576
46.72817142736393 10.8687
46.752425308428684 10.844000000000001
46.77668140861147 10.8073
46.80093972960865 10.7476
46.82538981736788 10.7281
46.849652602470904 10.719000000000001
46.87391761349769 10.6965
46.8981848521493 10.6972
46.9226439341274 10.693
46.946915650573224 10.6336
46.97118959976749 10.630999999999998
46.99546578341598 10.5722
47.019933887188216 10.614
47.04421456235744 10.582
47.06849747711879 10.5205
47.09278263318286 10.5093
47.11725978640143 10.5143
47.14154944775105 10.4629
47.165841355555656 10.4333
47.1901355115306 10.429
47.214621741924994 10.4396
47.23892041698887 10.4228
47.26322134538975 10.3846
47.28771440635075 10.3349
47.31201986422527 10.3574
47.33632758061436 10.3279
47.360637557241866 10.3153
47.38513974410611 10.3121
47.40945426407847 10.2387
47.43377104948137 10.2428
47.45809010204344 10.214
47.48260144275502 10.2165
47.506925052572285 10.1872
47.53125093475548 10.1755
47.55557909103813 10.1688
47.58009961361992 10.1288
47.60443234110732 10.0889
47.62876734791564 10.0764
47.65310463578333 10.1064
47.6776343683373 10.0768
47.7019762413987 10.0442
47.72632040075572 10.0066
47.75066684815169 10.0325
47.77520581885936 9.9859
47.799556865477655 9.979239999999999
47.823910205386 9.95376
47.84826584033272 9.946660000000001
47.87281407745551 9.9176
47.89717432569297 9.90361
47.92153687423484 9.89338
47.94609208429692 9.85472
47.97045925671401 9.84269
47.99482873471275 9.83295
48.01920052005013 9.83425
48.04376504619224 9.80993
48.068141469543484 9.81785
48.09252020552573 9.78238
48.11690125590099 9.77619
48.1414751266064 9.7355
48.16586082917454 9.74527
48.19024885144316 9.70105
48.2146391951793 9.68544
48.239222439012764 9.67164
48.26361744916137 9.6504
48.28801478610016 9.64832
48.31241445160131 9.6102
48.337007097209366 9.593169999999999
48.36141144338331 9.58778
48.38581812345755 9.49127
48.41022713920929 9.53856
48.434829215320704 9.53275
48.45924292604658 9.48825
48.48365897780325 9.46143
48.50807737237308 9.44116
48.532688907799276 9.46311
48.55711201168574 9.40135
48.581537463754074 9.40269
48.60615611725119 9.41827
48.63058628942721 9.391119999999999
48.65501881516546 9.36617
48.6794536962573 9.36323
48.70408185970339 9.307089999999999
48.72852147531801 9.302810000000001
48.75296345168211 9.305019999999999
48.77740779059232 9.30144
48.80204549302823 9.29674
48.82649458091802 9.2503
48.85094603676547 9.23428
48.87539986237231 9.18652
48.90004713292306 9.16873
48.92450572200832 9.17784
48.94896668628025 9.179210000000001
48.97343002754588 9.19568
48.99808689542115 9.146519999999999
49.02255501470614 9.0965
49.04702551642794 9.07361
49.0714984023988 9.0849
49.096164896893235 9.05749
49.120642575466796 9.03641
49.145122643748394 9.03386
49.16960510355558 8.98322
49.19428125404938 8.9876
49.2187685210852 8.957989999999999
49.243258185121555 8.94094
49.26794160167084 8.94767
49.2924360839405 8.9013
49.31693296869764 8.89836
49.34143225776915 8.88625
49.36612538195438 8.87376
49.39062950396021 8.850710000000001
49.41513603578346 8.85067
49.4396449792564 8.7871
49.46434784069503 8.79115
49.488861631846454 8.80008
49.513377840166804 8.75145
49.537896467493745 8.72953
49.56260909589029 8.6959
49.587132585683285 8.74062
49.611658500018365 8.68735
49.636186840738596 8.696589999999999
49.66090926588511 8.6924
49.685442483902584 8.66165
49.70997813385706 8.618319999999999
49.734516217597076 8.6138
49.75924846937352 8.612789999999999
49.7837914452858 8.57659
49.80833686055187 8.558539999999999
49.83288471702571 8.553939999999999
49.85762682540054 8.56328
49.882179588965734 8.48473
49.9067347993235 8.45118
49.93129245833333 8.48197
49.95604445336378 8.46671
49.98060703442832 8.45706
50.005172069746266 8.43719
50.02993150438364 8.383239999999999
50.05450147301533 8.40218
50.07907390151433 8.406839999999999
50.10364879174981 8.35736
50.12841816587289 8.30834
50.1529980044635 8.32736
50.17758031042124 8.29899
50.20216508562089 8.3175
50.22694442953363 8.29642
50.25153416817468 8.28053
50.27612638170508 8.2444
50.300721072005196 8.19922
50.325510416102105 8.2265
50.350110084975064 8.21908
50.37471223628208 8.19224
50.39931687190919 8.13766
50.424116246675766 8.13268
50.44872587605249 8.1546
50.47333799543065 8.130230000000001
50.49795260670191 8.10587
50.52276204271512 8.087
50.54738166295838 8.07817
50.57200378079314 8.09332
50.596628398116835 8.06347
50.62144792604559 8.02212
50.646077567609396 7.98968
50.670709714377715 7.98388
50.69553683636198 7.99752
50.72017401885922 7.993010000000001
50.7448137122895 7.979189999999999
50.76945591856022 7.9428
50.79429318636823 7.88094
50.818940443716784 7.924639999999999
50.84359021965163 7.8825
50.868242516085964 7.8585899999999995
50.893089960641895 7.851780000000001
50.917747323549435 7.818989999999999
50.94240721271973 7.825019999999999
50.96706963007175 7.811839999999999
50.99192728239342 7.810010000000001
51.01659478166073 7.84046
51.04126481489051 7.790089999999999
51.06593738400761 7.787780000000001
51.090805275207074 7.708480000000001
51.11548294172845 7.70218
51.14016314993547 7.71028
51.164845901758845 7.68878
51.18972406304274 7.68825
51.21441192780656 7.688619999999999
51.23910234200271 7.63582
51.2637953075678 7.661739999999999
51.288683770237945 7.620419999999999
51.31338186432707 7.605289999999999
51.33808251561888 7.617789999999999
51.362978729967345 7.5913
51.387684521509755 7.55705
51.41239287610203 7.56129
51.437103795691165 7.51399
51.46201036644977 7.526610000000001
51.486726441956634 7.490360000000001
51.51144508832545 7.5121899999999995
51.536166307509156 7.45212
51.56108326624387 7.445239999999999
51.58580965706056 7.45392
51.61053862657523 7.39969
51.635270176746864 7.396489999999999
51.66019755512065 7.380780000000001
51.68493429268881 7.3577699999999995
51.70967361681515 7.35342
51.73441552946465 7.34095
51.759353359237934 7.37217
51.7841004750961 7.32257
51.80885018539685 7.2862
51.833602492111254 7.27054
51.8585508051424 7.2487699999999995
51.883308330926425 7.23148
51.90806845906181 7.2297199999999995
51.932831191525715 7.20142
51.95779001977161 7.18947
51.98255798721516 7.207210000000001
52.00732856494335 7.17438
52.03229530577543 7.14041
52.057071130455945 7.171
52.081849571391054 7.119039999999999
52.106630630568695 7.09841
52.13160794279417 7.06575
52.15639426492067 7.093030000000001
52.18118321127822 7.07371
52.205974783860896 7.08356
52.23096269971011 7.023860000000001
52.255759551287994 7.04126
52.280559035098186 6.97779
52.30536115314103 6.970460000000001
52.33035970494467 7.013610000000001
52.35516711807904 6.988910000000001
52.37997717147198 6.95511
52.40478986713005 6.956189999999999
52.42979908731974 6.92555
52.454617094216 6.90808
52.47943774942214 6.89463
52.50426105495102 6.87617
52.529280976059844 6.8716
52.554109609024096 6.85486
52.57894089837482 6.842639999999999
52.60377484613117 6.82977
52.62880550079408 6.8104
52.65364479223379 6.78477
52.67848674816189 6.76843
52.70352547971946 6.75741
52.72837279155837 6.73929
52.753222773982785 6.745019999999999
52.778075429022984 6.722860000000001
52.80312495150885 6.755439999999999
52.827982978797436 6.716589999999999
52.85284368481815 6.68082
52.87770707160767 6.62717
52.90276741793998 6.677389999999999
52.92763619336701 6.62938
52.952507655698504 6.5957300000000005
52.977381806977576 6.626580000000001
53.00245301017842 6.619219999999999
53.02733256653592 6.587560000000001
53.052214817996074 6.57865
53.077099766608484 6.54708
53.102181859804446 6.55238
53.127072229988265 6.54108
53.15196530349892 6.51647
53.17686108239249 6.49932
53.20195409881522 6.49452
53.22685531582556 6.44445
53.25175924441303 6.4669
53.27666588664027 6.41265
53.30176985962693 6.42174
53.3266819565689 6.38414
53.35159677336455 6.41913
53.376514312083096 6.40043
53.40162927507703 6.37369
53.42655228516116 6.36934
53.45147802340193 6.31254
53.47660125628886 6.3139400000000006
53.50153247842639 6.31182
53.52646643496923 6.30154
53.55140312799818 6.34115
53.576537409691696 6.2581
53.60147960336152 6.25746
53.626424539786164 6.28737
53.65137222105307 6.2622800000000005
53.67651758529126 6.26064
53.70147078399681 6.186730000000001
53.72642673383343 6.196359999999999
53.75138543689533 6.20481
53.776541917524526 6.1647300000000005
53.801506154876755 6.15014
53.826473151763246 6.14829
53.851442910284916 6.09905
53.87661054126026 6.09501
53.9015858509782 6.07742
53.92656392866066 6.07304
53.95154477641532 6.07078
53.976723591801296 6.07381
54.00171000771266 6.05046
54.02669920004598 6.03942
54.051691170915745 6.035159999999999
54.076881204886796 6.02163
54.101878760928514 5.9758
54.12687910187696 5.96205
54.152077577768296 5.9452300000000005
54.1770835166946 5.94451
54.20209224691339 5.940259999999999
54.22710377055121 5.94536
54.25231352511594 5.919980000000001
54.27733066384342 5.89164
54.30235060239643 5.91585
54.32737334290836 5.8578
54.35259441062629 5.81075
54.377622783395324 5.83177
54.40265396455061 5.86946
54.42768795623251 5.79395
54.45292037169559 5.76166
54.477960012857906 5.7964400000000005
54.50300247099511 5.77567
54.52804774825457 5.7846400000000004
54.55329154616743 5.717890000000001
54.57834249018678 5.6996400000000005
54.6033962597977 5.68363
54.6284528571545 5.66456
54.653708072335164 5.701230000000001
54.67877035378786 5.64391
54.70383546947698 5.59293
54.72890342156389 5.60726
54.7541700889442 5.553669999999999
54.77924374251975 5.55205
54.8043202390049 5.55776
54.82959552413022 5.47867
54.8546777351945 5.46159
54.87976279569621 5.45553
54.90485070780914 5.46097
54.930137506558005 5.46874
54.95523115074295 5.43584
54.98032765308844 5.388319999999999
55.005427015775496 5.39457
55.03072536339621 5.40822
55.05583047570572 5.3567800000000005
55.080938454927676 5.34477
55.10604930325027 5.27109
55.131359235107396 5.27567
55.15647585066083 5.21737
55.181595341907496 5.22893
55.20671771104285 5.25887
55.232039262617704 5.23428
55.25716741665048 5.1676
55.28229845518636 5.1828199999999995
55.30743238042802 5.12749
55.33276558731939 5.08976
55.357905315183636 5.0422400000000005
55.383047936390035 5.04217
55.40819345314859 5.00557
55.433538351073295 4.97785
55.458689688238415 4.99065
55.483843927614096 4.95378
55.509197623043605 4.93595
55.53435769621134 4.92863
55.55952067826466 4.8538
55.5846865714265 4.85877
55.61005202069737 4.859319999999999
55.63522376553902 4.81364
55.66039842818645 4.82641
55.68557601087004 4.82524
55.7109532500271 4.71155
55.73613670233794 4.79248
