TT I
1.2716486653135266 7.1171
1.2939594142134223 6.54054
1.3162702121660406 6.19894
1.3385810600174564 6.05168
1.3608919586137629 6.3339
1.383202908801069 6.07065
1.405513911425503 5.53325
1.4278249673332093 5.923080000000001
1.4501343378461518 6.10628
1.4724455028545926 6.22772
1.4947567236847858 6.58178
1.517068001182951 6.45919
1.5393793361953272 5.85888
1.5616907295681737 6.56283
1.5840021821477681 5.43594
1.60631369478041 5.722119999999999
1.6286252683124185 5.41686
1.6509369035901333 5.125369999999999
1.6732468618895553 5.0003400000000005
1.695558623192809 4.65372
1.7178704487808514 5.27909
1.7401823395001077 4.6410599999999995
1.7625012545597203 5.09246
1.7848028405262486 5.21255
1.8071218901122095 4.9307300000000005
1.8294236121921872 4.40742
1.8517427996910911 4.75894
1.8740620574440425 4.47412
1.8963639900671978 4.75897
1.9186833908139995 4.72922
1.9409854680117449 5.0394
1.9633050151394713 4.9305900000000005
1.9856246367570705 4.2051
2.0079269371922672 4.18992
2.03024671027244 4.03331
2.0525491637446027 4.61672
2.074869091674931 4.4244
2.097171701569106 4.09615
2.1194917877373847 4.81271
2.141811954326636 4.89816
2.164114805233074 4.65915
2.186435135143035 4.58985
2.208738150935709 7.79206
2.231058647554722 12.7204
2.2533792288321184 10.8187
2.275682498336085 6.99028
2.298003251406138 5.4006300000000005
2.3203066942619714 5.50017
2.3426276225136022 4.42874
2.3649486396617507 5.79554
2.387252348930071 5.25851
2.4095735463442893 5.63438
2.4318774374315884 6.15306
2.4541988185014043 6.02131
2.476502894794693 6.04146
2.498824462909887 6.3501900000000004
2.521146125856138 6.65756
2.5434504863470337 7.51169
2.5657723414244717 7.753480000000001
2.588076895590662 8.17719
2.610398946189713 8.02132
2.6327210958598384 7.410069999999999
2.6550259469304716 8.15766
2.6773482972090137 7.762289999999999
2.6996533504259 8.07077
2.7219759047039602 8.07049
2.744298562293959 7.97169
2.7666039251246595 8.17366
2.7889267918020164 7.83453
2.8112323652516555 7.638310000000001
2.833555444408179 7.942639999999999
2.8558786311183852 8.75458
2.8781845268938557 8.511280000000001
2.9005079311721484 8.88987
2.9228140460410397 9.23564
2.9451376712799635 9.4346
2.967444008632326 9.33982
2.9897678582247247 9.177810000000001
3.0120918213106695 10.4102
3.0343984987899373 10.6182
3.0567226913198637 10.7876
3.079029599759726 11.7347
3.101354025127254 12.2422
3.123678568232338 12.9689
3.145985829517914 12.9221
3.16831061055229 13.3968
3.1906181112775593 13.9161
3.212943133635653 14.7376
3.2352682779763207 14.8738
3.2575761442691227 15.1268
3.2799015350264273 15.9496
3.302209649240067 16.0958
3.3245352898092655 16.3203
3.3468436553365257 17.1937
3.369169549113219 17.7521
3.3914955708171384 18.4436
3.413804319727358 18.7612
3.4361305997334863 18.6035
3.4584396084414553 19.5379
3.4807661501462652 20.2834
3.503092824025881 20.6204
3.5254022288463154 20.5187
3.5477291695206588 21.4917
3.5700388426251948 22.0379
3.5923660534916446 23.0747
3.6146934007816114 28.9544
3.637003482731501 47.6155
3.6593311053109985 51.2012
3.681641464033634 35.469
3.7039693653009733 26.6791
3.726297407241705 25.2737
3.7486081875460804 25.2792
3.7709365132734978 25.5609
3.793247578841633 26.504
3.8155761917550093 26.0316
3.8378875459837216 26.4484
3.8602164494827234 27.0577
3.882545499606844 28.0169
3.9048572932539183 28.5648
3.9271866390645718 28.5998
3.9494987298666713 29.18
3.971828374764527 30.0698
3.9941581705403255 30.566
4.016470713506008 30.7612
4.038800813471445 31.378
4.061113662089144 32.2177
4.0834440696459176 33.3508
4.105774632334751 33.7384
4.128087945865126 34.2574
4.150418821249301 34.5513
4.172732448931298 35.3911
4.195063640413578 36.7961
4.2173775856475215 38.9979
4.239709096631102 52.6511
4.262040768704612 113.786
4.284355196706267 138.257
4.306687193387355 98.5362
4.329001947444346 55.5509
4.35133427213731 44.3007
4.373666762177566 43.0221
4.395982011761091 43.36600000000001
4.418314834921175 44.3643
4.44063041906622 48.3062
4.4629635787515625 52.7326
4.4852969080429785 53.0849
4.5076130004776225 52.4039
4.529946671403969 57.3321
4.552263106909177 60.8014
4.574597122877047 57.1747
4.596931312711224 54.0759
4.619248269273446 53.9158
4.6415828092605835 54.4345
4.663900117405352 55.3099
4.686235010953232 57.0486
4.708552674085913 58.0777
4.730887924602802 59.7444
4.753223354952695 62.1236
4.775541557023902 65.4109
4.797877349456786 68.5275
4.820195915032126 68.9719
4.842532072957498 68.3579
4.864868414979744 70.8997
4.88718753227192 75.3403
4.909524244902505 76.6399
4.931843734218147 76.7026
4.954180820867835 78.4494
4.976518095879839 81.1756
4.998838149695359 84.1736
5.021175803844231 87.4813
5.043496238205739 90.8804
5.065834274903528 95.6646
5.088172504230693 100.30799999999999
5.1104935158799565 107.865
5.132832132875765 128.40200000000002
5.155153533596801 157.874
5.1774925416746225 204.79
5.199814334878411 432.916
5.2221537374521505 1130.47
5.244493338631803 3077.6
5.266815727034316 7952.41
5.289155727832427 12641.9
5.311478517248165 8502.82
5.333818921080011 2615.83
5.356159527788849 515.682
5.3784829252032536 198.269
5.400823940070432 155.216
5.423147747031976 132.041
5.445489173474152 120.999
5.467830807066149 120.476
5.490155234831516 119.85799999999999
5.512497285125229 112.89
5.534822130975162 106.649
5.557164601388673 102.65899999999999
5.579489868738879 99.1837
5.601832762690846 97.8997
5.6241758697774475 96.79299999999999
5.646501775867269 96.1417
5.668845311622074 94.9875
5.691171647754637 94.5034
5.713515615597765 93.6438
5.735859800852677 93.1644
5.758186788542988 95.2034
5.780531411018185 98.8079
5.802858837297399 98.48700000000001
5.825203900414495 98.4558
5.8475491852224 101.77
5.869877275883075 101.566
5.892223006467101 97.675
5.914551544266608 95.9155
5.936897724049891 98.667
5.959244129804903 106.38799999999999
5.981573344815301 138.708
6.0039202049061 258.755
6.026249875609095 512.247
6.04859719346037 1038.78
6.070927323278297 2276.89
6.093275102315365 4603.35
6.115623113320588 5083.98
6.137953938319995 3060.3
6.160302415650845 915.2769999999999
6.182633708324452 216.013
6.2049826554078376 109.335
6.227331838745022 90.846
6.249663839443684 83.7051
6.27201349767565 80.7162
6.294345974611799 81.1331
6.316696111167083 83.6434
6.339046488263839 80.467
6.361379686074702 74.2292
6.383730546639482 70.8784
6.406064229255215 69.9003
6.428415576718203 70.8348
6.450749747566656 69.7635
6.47310158535871 66.9001
6.495453669698332 65.3584
6.517788579421056 64.3532
6.540141159237969 63.4902
6.562476565766648 62.8467
6.5848296444934045 62.7217
6.607182974060425 62.7132
6.6295191323281015 62.9459
6.651872965955752 63.2071
6.6742096296068985 72.4954
6.6965639707294615 88.4248
6.71891856698715 87.6867
6.741255995248479 71.4616
6.763611104154477 61.731
6.785949046381137 59.0057
6.808304671371482 59.2941
6.8306605557940046 60.6303
6.852999275508618 59.68600000000001
6.875355681171544 57.905
6.897694923437771 56.4556
6.92005185377892 55.9753
6.9423916220322655 56.0817
6.964749080490181 55.4154
6.987106804399774 55.2234
7.009447368180821 55.7637
7.031805625367033 55.7802
7.054146723727803 55.167
7.076505517631004 55.0497
7.098864581288365 54.9022
7.121206488070854 54.688
7.143566093607822 54.9982
7.165908543567245 55.5845
7.188268694426048 55.8215
7.2106291193438095 55.1396
7.232972390625943 54.9042
7.255333366030969 59.6255
7.277677189091925 79.4062
7.300038718428332 95.9319
7.322400526130865 86.6191
7.344745183422596 66.4282
7.367107550224791 56.7047
7.389452767901992 54.8732
7.411815697249891 54.2494
7.434161478756298 53.5707
7.456524974096713 53.6447
7.478888753837185 53.4802
7.501235387657368 54.0437
7.523599738562711 54.18
7.545946944825532 54.3373
7.568311870344528 54.8711
7.5906770845765665 54.9877
7.613025156078678 55.5122
7.635390950099687 56.3047
7.657739602662809 56.1956
7.680105979923558 56.0246
7.702472650212829 56.7694
7.724822180948224 56.6595
7.747189439655568 56.5897
7.769539560075357 56.3285
7.791907410653562 56.4495
7.81425812420825 56.2952
7.836626570110925 56.6346
7.858995315087906 57.39
7.881346924933401 57.9348
7.903716270417482 58.3383
7.926068482028405 58.3976
7.948438431475253 59.0363
7.9708086843180235 59.57899999999999
7.993161805171116 60.5818
8.015532667162402 61.0592
8.037886398416653 61.8788
8.060257873014221 62.8677
8.082629655331942 63.3523
8.104984308787587 64.0016
8.127356708900503 66.7105
8.149711981398308 70.6116
8.172085002766314 72.6297
8.194458336181368 70.8144
8.216814543847752 68.9945
8.23918850371002 69.5628
8.26154533906492 70.2244
8.283919928836452 71.8813
8.306277395339652 72.4991
8.328652618483376 74.3086
8.351028159736202 76.6399
8.373386579575245 78.5836
8.395762759396959 80.4899
8.418121819038275 83.8045
8.440498640894003 91.3633
8.462875785192262 103.95200000000001
8.485235811156207 131.82399999999998
8.507613602688501 188.894
8.529974277114228 272.884
8.552352719347912 412.76
8.574731488360351 696.2280000000001
8.59709314210385 1259.91
8.619472567021075 1889.8
8.64183487789147 2173.88
8.664214962183097 1717.07
8.686577933647762 845.0980000000001
8.708958680784317 321.106
8.731339760774953 147.611
8.753703729764451 107.383
8.77608547780821 98.0455
8.798450116065078 95.1064
8.820832535634787 92.2657
8.843215292401656 92.227
8.865580941199045 92.7748
8.887964374703538 92.2984
8.910330701447199 92.1965
8.932714815164482 92.0338
8.955099270424924 89.0993
8.977466620733543 86.656
8.999851761421976 85.3957
9.022219798361645 84.2527
9.04460562795561 83.7806
9.066991803441677 83.604
9.089360876979615 84.3418
9.111747746589993 83.8798
9.13411751544971 82.852
9.156505082664324 82.45200000000001
9.178875550323522 81.8102
9.20126381862328 82.3735
9.223652438908596 82.3824
9.246023961427412 82.2929
9.26841328802173 82.1134
9.290785518039224 82.7046
9.313175554425882 85.1483
9.335565947154315 86.6842
9.357939245086508 86.9935
9.380330352834827 86.2539
9.40270436697103 86.1335
9.425096193225055 85.458
9.447488380180165 85.1402
9.469863475295412 85.1673
9.492256385987508 85.2855
9.514632206018318 85.5316
9.537025843935714 86.2109
9.559402392368193 86.9051
9.581796761000229 89.6066
9.604191496441521 91.8294
9.626569144158516 94.6138
9.648964615551032 95.9367
9.671343000390081 95.4822
9.693739211225699 93.7754
9.716135793237463 92.6076
9.738515290448102 93.4606
9.760912617143402 95.094
9.783292860202891 97.3917
9.805690935076182 99.6233
9.828089385495742 100.50200000000001
9.850470754023561 101.87899999999999
9.872869957865444 105.185
9.89525208097539 112.193
9.917652041736662 119.381
9.940052382417589 128.649
9.962435644102392 156.659
9.984836746950979 201.03599999999997
10.007220771957746 260.291
10.029622640473708 366.051
10.052007432299963 554.964
10.074410069984072 856.523
10.096813093716005 1306.7
10.119199042482517 1794.81
10.141602840636468 1956.22
10.163989564971628 1540.07
10.186394141051062 827.928
10.208799107559706 357.041
10.231187001965623 171.24400000000003
10.253592751657669 121.675
10.275981430388155 111.25399999999999
10.298387966769793 109.288
10.320794897965431 108.949
10.343184759907361 107.603
10.36559248305461 105.26700000000001
10.387983138083852 106.12700000000001
10.410391656691655 113.33200000000001
10.432800574501677 124.766
10.455192425893369 140.861
10.47760214443012 166.51
10.499994797678786 214.03599999999997
10.522405320453982 295.72900000000004
10.54479877906917 413.466
10.567210109595656 518.8009999999999
10.5896218454736 574.2
10.612016518879773 489.384
10.634429067781074 325.445
10.656824555333241 189.399
10.679237920773568 117.3
10.701651695961992 94.0353
10.724048411481384 88.5557
10.746463008485165 86.2128
10.768860546937125 84.8575
10.791275969274796 83.2944
10.81369180576079 82.0726
10.836090585366925 80.832
10.858507252467449 79.7697
10.88090686379991 78.7301
10.903324365036394 78.4458
10.925724811614439 77.9478
10.948143150509463 78.5822
10.970561909719066 78.1134
10.992963615930844 77.3209
11.015383218085756 75.4566
11.037785768347074 73.5731
11.06020621697282 72.6888
11.082627090322113 71.9465
11.105030913430326 71.0985
11.12745263854165 71.3152
11.149857314510728 71.973
11.172279894912576 74.2693
11.194702904450653 73.6533
11.217108866490921 71.7172
11.239532736615194 69.9951
11.26193956033512 69.1081
11.284364294577085 68.0515
11.306789462371718 67.5797
11.329197585398376 66.6449
11.351623622610898 66.7162
11.37403261614354 65.9917
11.396459526308487 66.0027
11.418869393879497 65.1867
11.441297180532617 64.8995
11.463725406927658 64.5447
11.486136592353875 64.5544
11.508565700543707 64.5417
11.530977768845315 65.3738
11.553407762368774 65.1747
11.575838200059769 64.8419
11.598251599479612 64.1936
11.620682927815501 63.558
11.64309721895548 63.425
11.665529441478206 62.975
11.687962112597958 62.5731
11.710377748130886 62.7591
11.732811318753434 62.6711
11.755227854859067 62.4844
11.777662328529495 62.4473
11.800079768750786 62.5315
11.822515149015453 62.7003
11.844950984084935 62.9972
11.867369787303163 62.586999999999996
11.889806534289491 62.2903
11.912226250487029 62.7739
11.934663912939751 62.6841
11.9571020346363 62.9799
11.979523127133968 63.2756
12.001962169624331 64.6826
12.024384183972964 66.3611
12.046824150809913 69.6249
12.069264581333726 73.96300000000001
12.091687985297767 79.3745
12.11412934550045 89.4624
12.136553680195208 105.63
12.158995973632788 129.588
12.181438735204349 157.156
12.20386447284199 182.419
12.226308172985636 205.59
12.24873485024193 194.725
12.271179492516982 157.191
12.293607112949127 116.404
12.316052700916226 87.867
12.338498763250042 72.26899999999999
12.360927805303868 66.72
12.383374818673879 64.714
12.405804812803074 64.048
12.428252780773262 63.8752
12.45070122756722 63.8613
12.473132656675375 64.2067
12.49558206341869 64.7037
12.518014453510101 64.7521
12.540464823770117 64.9322
12.562915677315177 64.9493
12.58534951575545 64.8777
12.607801338171472 65.6999
12.630236146511358 68.029
12.652688941369085 69.9459
12.675124723177234 70.3837
12.697578494048786 69.5669
12.720032754458185 67.7473
12.742470003354093 67.3076
12.764925245138771 67.6099
12.787363476431278 67.8441
12.809819703166806 68.4459
12.83227642391173 69.4234
12.854716135692716 70.0545
12.877173846755147 71.1235
12.899614549869717 71.314
12.9220732548287 72.6986
12.94453245827299 73.1569
12.966974655289818 73.8449
12.989434858002571 74.7578
13.011878055298721 75.2966
13.034339260862497 76.3104
13.056800969391883 77.9356
13.079245674017244 81.0017
13.101708390774869 85.2485
13.12415410463411 94.3151
13.146617833206086 103.999
13.169064559883248 114.387
13.191529303857127 129.781
13.213994557076367 153.961
13.236442809902437 194.12
13.258909083908291 250.38099999999997
13.28135835851934 315.707
13.30382565690295 381.311
13.326293469022952 426.32
13.348744283242008 414.67699999999996
13.371213125129904 337.856
13.39366497011003 244.94
13.416134845360597 163.609
13.438605238843131 120.521
13.46105863690397 107.85
13.483530069144786 108.566
13.505984506951902 113.245
13.528456981549432 123.791
13.550929978879088 139.672
13.573385983253365 165.665
13.595860028340867 206.333
13.618317081455832 260.913
13.64079217790333 316.309
13.663250283359057 360.36300000000006
13.685726434770173 372.98199999999997
13.708203115221277 328.466
13.730662806148091 249.028
13.75314054697177 172.123
13.775601299246777 119.84200000000001
13.798080104050406 93.8631
13.820559442405358 84.3965
13.843021793671388 81.5427
13.865502201420897 79.8694
13.887965623051947 79.4176
13.910447103807167 78.3068
13.932929122629764 77.1813
13.955394156785959 76.6176
13.977877254034569 75.8189
14.000343367582113 74.83800000000001
14.022827546871707 74.1402
14.045294743423524 73.755
14.06778000837062 72.8428
14.090265817715476 72.9643
14.112734645763819 72.2735
14.13522154619454 71.8129
14.157691466286913 71.9561
14.180179461423874 71.6958
14.202668005486178 71.1766
14.22513957064374 70.5989
14.247629214846473 70.3747
14.270101881097517 69.919
14.29259262906496 69.8348
14.315083930490205 70.2044
14.337558255389705 70.181
14.360050666019726 69.89399999999999
14.382526101071944 69.5071
14.405019624534942 69.2448
14.427513705993134 68.7451
14.449990813291825 68.9658
14.47248601302899 68.7012
14.49496423954951 68.6446
14.517460561197822 68.6917
14.539939910570322 68.64699999999999
14.562437357763558 68.7713
14.58493536931253 69.4409
14.607416409993311 69.7569
14.62991555254159 70.3706
14.652397725157423 70.4979
14.674898002342799 70.6275
14.697398848433282 70.529
14.719882725991326 72.4507
14.74238471217934 74.6186
14.764869730765593 77.8972
14.787372860692983 80.72
14.809876564079925 84.7884
14.83236330125751 90.9273
14.854868153850365 100.165
14.877356041159485 114.765
14.899862046604186 134.356
14.922351087688757 160.15
14.944858249632887 188.945
14.967365991421232 213.158
14.989856770231246 226.138
15.012365673994204 214.604
15.03485761569738 180.0
15.05736768508665 138.85399999999998
15.07987833888692 107.90899999999999
15.102372032001655 86.1252
15.124883856909658 75.0807
15.14737872204565 71.6911
15.169891721717274 70.6095
15.192405310371893 70.0079
15.214901940621196 69.9147
15.237416709527137 69.3733
15.259914520936249 68.9397
15.282430473753607 68.4062
15.304947020131227 67.9357
15.327446610371178 67.4524
15.349964346154254 66.9699
15.372465126703139 66.6801
15.394984055556009 66.6388
15.417486030076159 66.2518
15.44000615566487 66.081
15.462526881230803 66.0237
15.485030653812652 66.0401
15.507552581617434 65.7632
15.530057557334603 65.7893
15.55258069104857 65.7487
15.575104429329837 66.1136
15.597611216864632 66.1074
15.620136166564563 66.9654
15.6426441664095 68.65899999999999
15.665170331202765 71.2632
15.687697105158826 73.7121
15.710206930593545 77.0425
15.732734925158933 81.0989
15.755245972089478 87.5302
15.77777519094324 97.5772
15.800287463046663 111.432
15.822817909869592 131.05
15.84534897229804 152.317
15.867863089299354 174.863
15.890395385222186 191.562
15.912910736597423 194.18400000000003
15.935444269699861 177.301
15.957978423016485 148.52200000000002
15.980495633101265 115.96700000000001
16.003031029129367 91.3541
16.02554948280019 73.947
16.048086125229432 66.2043
16.070623392487107 63.5235
16.09314371869582 62.5761
16.11568223789321 61.979
16.13820381691126 61.3535
16.160743591742527 60.7205
16.183283996022084 59.9608
16.205807461423195 58.9478
16.228349126881973 58.4185
16.25087385432698 58.5722
16.27341678466365 57.896
16.29594277784926 57.9493
16.31848697676433 57.7889
16.341031811604868 57.4987
16.36355971058487 57.5523
16.3861058195587 57.3913
16.40863499352978 56.5315
16.431182380342005 56.0653
16.453730407713202 55.9229
16.476261501364792 55.5942
16.498810812136167 55.3381
16.52134319004079 55.3589
16.54389378792203 55.2123
16.566445031001553 55.1466
16.588979342490088 55.0335
16.61153187824822 54.8034
16.634067483263312 54.7471
16.656621315414416 54.5636
16.679175797408888 54.3419
16.701713349928728 54.3437
16.72426913389191 54.6448
16.74680798922351 54.61600000000001
16.76936507887444 54.3953
16.791905240734874 54.4834
16.814463639794468 54.4011
16.837022695210294 54.6612
16.859564824093756 54.8309
16.882125194503903 55.1225
16.904668639217885 55.4942
16.927230328348003 55.2873
16.949792678493612 55.6075
16.972338104193863 55.3655
16.994901778652235 55.2267
17.017448529496576 55.6578
17.040013531998152 56.2544
17.06257920018044 56.7358
17.0851279459922 57.2502
17.107694947817667 58.155
17.130245028099072 58.7556
17.15281336730298 60.1909
17.17536478578733 62.0775
17.19793446610687 64.195
17.220504818648422 67.4385
17.243058251703697 70.9288
17.265629950971032 75.2131
17.288184731571736 80.1413
17.310757781306908 83.6455
17.33333150794385 84.8515
17.355888317140174 81.2596
17.37846339986244 75.722
17.401021565958885 69.6102
17.42359800851343 64.8345
17.44617513265564 61.4994
17.468735341390783 59.9811
17.491261035594565 59.2843
17.51396340099364 59.0143
17.536490463869136 59.0794
17.559018209820174 59.0983
17.58154663977963 59.1338
17.604251766089718 59.2559
17.626781572227713 59.5322
17.64931206518155 59.7667
17.671843245885103 60.2894
17.69455114821572 60.3137
17.717083712612634 60.5068
17.739616967569667 60.9573
17.762150914021706 61.3415
17.78486160749854 61.5833
17.807396945166804 62.7539
17.829932977143503 64.1459
17.85246970436452 65.7353
17.875183204129467 67.02
17.897721330097664 68.8941
17.920260154126645 71.3821
17.942799677153296 74.7208
17.9655159983646 78.7084
17.988056927677544 84.3531
18.010598558807683 92.4838
18.033140892692916 102.93799999999999
18.05586005052525 113.79700000000001
18.07840379824407 125.95299999999999
18.10094825154059 135.878
18.12366954819864 141.819
18.146215420998306 139.681
18.16876200220057 130.184
18.191309292745153 114.2
18.214033452627167 100.32700000000001
18.236582170236648 89.9934
18.259131600016456 86.3609
18.281681742907335 87.0182
18.304408781233683 91.6884
18.32696035875955 96.3352
18.349512652227624 101.061
18.372065662579683 105.236
18.394795594587553 105.846
18.41735004715306 100.93799999999999
18.43990521943684 93.0491
18.46246111238171 83.7213
18.485193953325208 74.678
18.507751296070428 68.4007
18.530309362314178 64.9195
18.552868153000343 63.2754
18.57560391815056 62.0515
18.59816416623245 61.61
18.620725141597372 60.9525
18.643286845190268 60.6573
18.666025549835414 60.143
18.688588718427933 59.481
18.711152618092243 59.4196
18.73389353884365 59.2076
18.75645890921984 58.861000000000004
18.77902501351406 58.6001
18.801591852673102 58.5241
18.824335739722738 58.0616
18.846904057212626 58.1622
18.8694731124168 57.668
18.89204290628315 57.5883
18.914789774966803 57.2566
18.937361054791623 57.1288
18.959933076131318 56.9341
18.982505839934877 56.937
19.00525570560582 57.0783
19.027829963004184 56.802
19.05040496572238 56.9315
19.072980714710468 57.0459
19.095733592739563 57.2295
19.11831084296757 57.0815
19.140888842324735 57.6125
19.16346759176222 57.7251
19.18622349753803 58.1972
19.208803755869358 59.3577
19.231384767143577 60.7932
19.253966532312948 62.5607
19.276725481241822 64.7024
19.29930876296784 67.0464
19.3218928014549 70.3812
19.34465404436217 73.0446
19.36723960516257 75.1528
19.389825925592426 75.9232
19.412413006605938 74.4982
19.43517731967805 70.8428
19.457765930683355 66.1869
19.48035530514408 61.8448
19.50294544401556 58.4054
19.525712842708348 55.9396
19.54830451925909 54.7228
19.570896963095727 53.7662
19.593490175174704 53.6543
19.616260674962184 53.6923
19.638855432416964 53.2788
19.661450960992624 53.617
19.68404726164677 53.458999999999996
19.706820878021247 53.1468
19.729418731756834 53.6864
19.752017360452857 53.3921
19.77461676506804 53.7028
19.797393513540218 53.6872
19.819994478951667 53.8779
19.84259622316767 54.4878
19.8651987471481 54.5507
19.887978643247177 54.8702
19.91058273574792 55.3587
19.933187610901943 56.5085
19.955969879466828 57.8164
19.97857632894404 59.2328
20.00118356396599 61.0262
20.023791585494575 63.0571
20.046577028914875 65.6535
20.069186632506966 67.7603
20.091797025500632 69.2229
20.114408208858933 69.5027
20.137196842715273 69.0853
20.159809615886765 67.6075
20.18242318232135 65.2009
20.20503754298326 63.0112
20.227829382875154 61.8965
20.250445341109344 61.9814
20.27306209647285 62.8653
20.29567964993108 64.1635
20.31847471147704 65.0406
20.34109387027612 65.5278
20.363713830075454 64.457
20.386334591841646 63.1834
20.409132890679302 60.3108
20.431755265564437 57.1398
20.454378445325528 54.6729
20.477002430930366 52.7691
20.499803982716553 51.6378
20.522429589228004 50.896
20.54505600449589 50.4809
20.567683229489194 50.3261
20.590488049900088 50.3511
20.61311690359731 49.9092
20.63574656993626 49.9478
20.658553853717297 49.55
20.681185154618298 49.5529
20.703817271080066 49.4108
20.72645020407368 49.1154
20.749260783967177 48.8434
20.771895359337133 48.8562
20.794530754161617 48.7935
20.817166969412938 48.7451
20.83998086114876 48.7247
20.86261872660049 48.706
20.885257415405402 48.5521
20.90789692853701 48.6005
20.930714147864748 48.673
20.953355319030678 48.6884
20.97599731745334 48.5916
20.99864014410749 48.4709
21.021460706796564 48.4073
21.044105199328826 48.6586
21.06675052302631 48.8318
21.089396678865015 49.0616
21.112220600704806 49.3037
21.134868430275347 49.8418
21.15751709492456 50.0571
21.180166595629693 50.371
21.202993892429635 50.6534
21.22564507473034 51.2206
21.24829709602816 51.5861
21.27112693608965 51.4296
21.293780644891275 51.3014
21.316435195634053 50.43600000000001
21.339090589297417 49.7992
21.361923832041875 49.3429
21.384580921090404 48.6768
21.407238856007325 48.4236
21.429897637773326 48.3282
21.45273429906592 48.2888
21.475394784108598 48.4435
21.498056118951983 48.3105
21.520718304578022 48.5785
21.543558400304388 48.6422
21.566222297108816 48.9764
21.58888704765135 49.2467
21.61155265291521 49.4557
21.63439619898156 49.9148
21.657063523335786 49.9766
21.67973170537063 50.5013
21.7024007460706 51.0549
21.72524775840385 51.7064
21.747918526116475 52.9245
21.770590155457388 54.2829
21.79326264741238 55.8519
21.816113141960237 57.668
21.838787368860547 59.6078
21.861462461341976 61.5255
21.884315579735777 63.2132
21.90699241312273 64.2118
21.92967011506078 64.7776
21.95234868653799 63.9231
21.9752053151131 62.6341
21.997885635446785 60.5129
22.020566828293532 58.7483
22.04324889464272 57.1094
22.066109049404666 56.2661
22.088792872571794 55.9703
22.111477572219204 55.8336
22.1341631493376 55.8636
22.157026846313123 55.4754
22.179714188221507 54.7801
22.202402410582668 53.7163
22.22509151438863 52.2839
22.24795876962584 50.9649
22.270649646204486 50.2564
22.293341407213727 49.6471
22.316034053646906 49.2017
22.338904883215342 48.8592
22.36159931041458 48.8805
22.38429462602756 48.722
22.40699083104897 48.6303
22.429865251039757 48.4744
22.452563244831367 48.4613
22.47526213102522 48.5687
22.49813925616515 48.4408
22.520839937143307 48.4484
22.543541513520587 48.6018
22.56624398629403 48.5058
22.589124730075895 48.5549
22.611829005656723 48.718999999999994
22.63453418063466 48.8377
22.657240256008077 48.983999999999995
22.680124634582935 49.0921
22.70283252079775 49.1583
22.725541310413075 49.3658
22.74825100442868 49.7025
22.771139033969575 50.3453
22.79385054687155 50.6037
22.81656296718292 51.299
22.83927629590484 52.1701
22.862167992606945 53.2413
22.88488314827121 54.3608
22.907599215359284 55.3095
22.93031619487366 56.3882
22.953211574954405 57.2044
22.975930389478226 57.7621
22.998650119445763 57.828
23.02137076586092 57.0066
23.044269845560063 55.4392
23.06699233506288 53.828
23.089715744034912 52.0019
23.112617610931565 50.5454
23.135342869061212 49.5046
23.158069049684816 48.7871
23.1807961538087 48.7255
23.20370174880544 48.6463
23.226430710184808 48.7901
23.249160598093425 48.8785
23.271891413539002 48.9325
23.294800752937697 48.8929
23.31753343374794 48.9903
23.340267045128353 49.1537
23.36300158808808 49.5913
23.38591468821339 49.8063
23.408651104658304 50.218
23.431388455719986 51.013000000000005
23.454126742409 51.9655
23.4770436196085 52.9265
23.499783787914662 54.2617
23.522524894889884 55.2049
23.54526694154616 56.31100000000001
23.56818761219047 57.15
23.59093154860734 57.7565
23.613676427751283 57.6802
23.636422250635754 56.7149
23.659346731118656 54.8666
23.68209445191868 52.9233
23.704843119509587 50.7322
23.72759273490623 49.0441
23.750521041644767 47.8562
23.77327256312355 46.9517
23.796025035462787 46.4549
23.818956224555475 45.9908
23.841710609113413 45.86600000000001
23.86446594758979 45.5214
23.887222241002014 45.278999999999996
23.910157285144578 45.0768
23.932915498962537 45.1165
23.955674670778713 44.9865
23.978434801611975 44.7494
24.001373717286125 44.6149
24.024135776723917 44.6152
24.046898798245582 44.3358
24.06966278287146 44.2896
24.092605586582614 43.9948
24.115371508023642 43.989
24.1381383956401 43.8611
24.16090625045381 43.6971
24.183852958731244 43.893
24.206622758582608 43.7047
24.229393528706886 43.5346
24.252165270127392 43.5567
24.27511589952438 43.4603
24.297889594216997 43.3723
24.32066426328598 43.0992
24.34343990775613 43.2718
24.36639447485003 43.068999999999996
24.38917208083877 42.9792
24.41195066531332 42.9917
24.43490819850244 43.0696
24.457688750692377 43.0685
24.48047028445616 42.8994
24.503252800821233 43.1544
24.526214300784112 43.0099
24.548998793132213 43.0044
24.57178427117417 42.8417
24.59457073593893 42.9801
24.617536219319863 42.925
24.64032466834748 42.6722
24.663114107195035 42.6264
24.685904536893013 42.3366
24.708874020360852 42.4225
24.731666442613744 42.4939
24.754459858818787 42.2243
24.777254270007962 42.2281
24.80022777025625 42.0682
24.82302418230472 42.1419
24.845821592443674 42.1683
24.86862000170663 42.049
24.891597535453727 41.9309
24.914397953892728 42.3547
24.93719937456671 42.2815
24.96000179851076 42.3269
24.98298338249997 42.5772
25.00578782394922 42.742
25.028593271784167 42.8415
25.05157790644186 43.138999999999996
25.07438537804115 43.336999999999996
25.097193859145293 43.5733
25.120003350792075 43.7299
25.142992065061257 44.1863
25.165803588823465 44.3848
25.18861612625217 44.6458
25.211429678386736 44.8259
25.234422489079968 44.8743
25.257238081693636 44.739
25.280054692141732 44.7428
25.3028723214652 44.7728
25.325869245420463 44.81100000000001
25.348688923599397 44.806000000000004
25.371509623787006 44.7376
25.394331347025812 44.3121
25.41733240110666 43.7637
25.440156181590016 43.0305
25.46298098826268 42.684
25.48580682216873 42.1967
25.50881202326435 41.6221
25.53163992281684 41.2953
25.55446885274561 41.0409
25.577298814096377 40.8098
25.600308179121807 40.7247
25.623140214533745 40.7921
25.64597328451537 40.5369
25.66898578564376 40.3635
25.691820936010206 40.5809
25.714657124097695 40.4998
25.737494350954734 40.3557
25.760511045684957 40.3442
25.783350361364224 40.4669
25.806190718969255 40.2922
25.82903211955018 40.4929
25.852053024868923 40.5443
25.874896522722523 40.5603
25.897741066713106 40.408
25.920586657892454 40.6365
25.943611790812668 40.787
25.966459487728237 41.0005
25.989308234998564 40.986999999999995
26.01215803367705 41.3436
26.03518741123814 41.4042
26.05803932412957 41.5932
26.080892291600094 41.4786
26.10374631470478 41.4367
26.12677995397268 41.5146
26.14963609978026 41.5606
26.172493304397875 41.2146
26.19535156888223 41.0296
26.218389486949604 40.6199
26.241249882640123 40.3923
26.26411134137826 40.2312
26.28715248187403 40.1733
26.31001607820869 40.0925
26.3328807407756 39.8103
26.35574647063438 40.1288
26.37879191991473 40.0051
26.401659795896734 40.1133
26.424528742360263 40.3586
26.447398760366614 40.4234
26.470448535598294 40.4539
26.49332070826805 40.7205
26.516193955675355 40.951
26.53906827888316 41.1208
26.562122397260108 41.4576
26.584998883685063 41.6151
26.607876449110325 41.8473
26.63075509460056 42.1635
26.65381357334404 42.2761
26.67669439061878 42.1566
26.699576291163382 42.0458
26.722459276044212 41.8236
26.745522132402975 41.4285
26.768407297649354 41.1691
26.791293550442003 40.9058
26.814180891848974 40.6587
26.837248143099337 40.421
26.860137673466657 40.2537
26.88302829566349 40.0365
26.90592001075963 39.9493
26.92899167420566 39.691
26.951885586870763 39.402
26.974780595655517 39.2885
26.99785558178161 39.0408
27.020752794605112 38.9196
27.043651106772522 38.8885
27.06655051935668 38.8862
27.089629948036183 38.5994
27.112531573292053 38.6307
27.135434302194138 38.7135
27.158338135817015 38.494
27.181422024430987 38.5388
27.204328079372566 38.3551
27.22723524226965 38.5182
27.250143514198573 38.6339
27.273231880156334 38.4399
27.296142382065014 38.3518
27.319053996245536 38.2896
27.341966723775965 38.3685
27.365059584515222 38.3542
27.38797455070062 38.523
27.410890633481237 38.399
27.433807833936918 38.368
27.456905206923906 38.538000000000004
27.47982465472398 38.43
27.502745223449743 38.5384
27.525666914182825 38.6313
27.548768816912457 38.4967
27.571692763693633 38.3446
27.59461783573812 38.2856
27.617723149491244 38.1496
27.640650484125285 38.1406
27.66357894728264 38.116
27.686508540048052 38.0395
27.709618414237887 37.8608
27.732550278321757 37.8139
27.755483275279115 37.8273
27.778417406196485 37.9383
27.801531858397514 37.9576
27.824468269376716 37.8201
27.847405817586786 37.8075
27.870344504116094 38.0411
27.893463551932008 38.1213
27.916404527281053 38.2795
27.93934664422563 38.3212
27.962289903855886 38.4397
27.98541356491974 38.6265
28.00835912214229 38.6675
28.03130582533231 38.9685
28.054253675581805 38.9608
28.077381967556104 38.9541
28.100332124185126 38.8979
28.123283431160893 38.8268
28.146235889577238 38.6345
28.169368830154156 38.3877
28.192323603752033 38.3044
28.215279532083304 37.9884
28.238415973016764 37.7779
28.261374223145094 37.7159
28.284333631303806 37.4939
28.307294198589954 37.3512
28.330435319167677 36.9277
28.353398217078915 36.7578
28.376362277420153 36.4863
28.39932750129032 36.3089
28.422473319286713 36.2809
28.44544088262495 36.2525
28.468409612800283 36.1116
28.491379510913497 35.9564
28.51453004413313 35.8413
28.53750229057244 35.8042
28.56047570826344 35.7203
28.583450298308804 35.9416
28.606605564586562 35.7649
28.629582511831156 35.5845
28.65256063474956 35.4939
28.675539934446338 35.5334
28.698699951647605 35.5573
28.72168161743193 35.3057
28.74466446331978 35.4682
28.767648490417624 35.3507
28.790813276438353 35.2885
28.813799678527303 35.326
28.836787265157085 35.2863
28.859955641890075 35.2828
28.882945610203045 35.3887
28.905936766392035 35.3782
28.928929111566863 35.353
28.952102288520145 35.2264
28.975097024308607 35.0964
28.998092952423807 34.8555
29.021090073977508 34.8266
29.04426806913204 34.7795
29.067267590245258 34.5194
29.090268308143695 34.5371
29.11327022394099 34.3903
29.13645305530891 34.3435
29.159457379627167 34.3399
29.18246290519685 34.232
29.20546963313352 34.2745
29.22865731875826 34.2735
29.25166646419296 34.2746
29.27467681535305 34.1061
29.29768837335608 34.2132
29.320880931312562 34.2661
29.34389491580634 34.2269
29.366910110507334 34.1789
29.38992651653503 34.1817
29.41312396492981 34.2095
29.436142806456754 34.0349
29.45916286268059 33.9519
29.48236399319994 33.843
29.50538649169417 33.7629
29.528410208259935 33.5875
29.55143514402014 33.3367
29.574641196749695 33.2488
29.597668583816574 33.1621
29.6206971934585 32.9992
29.64372702680042 32.9527
29.666938019934474 32.9322
29.689970313635285 32.929
29.713003834422636 32.8259
29.73603858342347 32.8311
29.759254535188578 32.7491
29.78229175361658 32.7179
29.80533020365064 32.8246
29.82836988641968 32.722
29.85159081507472 32.739000000000004
29.874632976355343 32.7888
29.89767637376955 32.5937
29.920721008448314 32.4329
29.9439469322847 32.6721
29.96699405457564 32.4741
29.9900424175358 32.5183
30.013092022298157 32.4144
30.03632295963995 32.3654
30.059375061131373 32.4978
30.08242840783577 32.4668
30.105483000888153 32.5209
30.128718970092244 32.3478
30.151776069006917 32.3383
30.17483441768648 32.2486
30.198074175317235 32.3487
30.221135036724256 32.2758
30.24419715131772 32.2042
30.267260520236203 32.1886
30.290505341942243 32.2239
30.313571232750228 32.1714
30.336638381310948 32.1077
30.35970678876503 32.1605
30.38295669299435 32.1746
30.40602763151657 32.1245
30.429099832366074 32.0723
30.452173296685572 31.8286
30.47542830191959 31.9719
30.498504306502497 31.9619
30.521581577995562 32.0868
30.544660117543582 32.1952
30.56792024229725 32.1942
30.59100133132069 32.1283
30.614083691845494 32.1617
30.637167325018545 32.1367
30.660432587840603 32.2197
30.683518779717886 32.2199
30.70660624769615 32.219
30.729694992924372 32.2925
30.75296541239743 32.1408
30.77605672557558 32.1069
30.799149319462742 31.9128
30.8224236211637 31.919
30.845518789950724 31.7595
30.868615242910597 31.7162
30.891712981195973 31.5703
30.91499247215866 31.4861
30.938092794619365 31.3926
30.96119440587579 31.4271
30.984297307082752 31.3524
31.00758200598383 31.3497
31.030687500658694 31.1798
31.053794288760695 31.0405
31.076902371446767 30.9161
31.100192296997445 31.0817
31.12330298246119 31.1247
31.14641496599209 30.8985
31.169528248749216 30.8825
31.19282341969534 30.8437
31.215939314557186 30.9332
31.239056512134788 30.9278
31.262175013589378 30.8863
31.28547544871168 30.869
31.30859657161541 30.8026
31.331719001892175 30.8624
31.35484274070538 30.889
31.378148458819545 30.8796
31.401274828443725 30.9027
31.424402510106933 30.8512
31.447712205419993 30.9431
31.470842524931633 30.8005
31.493974159989783 30.7286
31.51710711176168 30.7796
31.54042212308802 30.7526
31.563557722100917 30.6594
31.586694641341655 30.4858
31.609832881979628 30.4493
31.63315322823208 30.3326
31.656294125521327 30.2282
31.679436347728515 30.249000000000002
31.70257989602529 30.1597
31.725905596152327 30.0481
31.74905181052835 30.0414
31.772199354521323 30.090999999999998
31.79534822930507 30.1307
31.818679302290967 30.0347
31.84183085259981 30.0827
31.864983737233473 30.1102
31.88813795736804 30.0838
31.911474422233013 30.017
31.934631327356435 30.0378
31.9577895715215 29.9867
31.980949155906522 29.9328
32.004291031706956 29.8719
32.027453310562606 29.8649
32.05061693318573 29.8351
32.07396288236386 29.7215
32.09712920658542 29.7219
32.12029687812702 29.6234
32.14346589817093 29.5456
32.166817291729984 29.4695
32.18998902288583 29.3205
32.21316210610336 29.3622
32.23633654256711 29.1064
32.259693399663725 29.0953
32.282870556771144 29.0664
32.30604907069099 29.1517
32.329228942610065 29.0091
32.35259128243769 28.8918
32.375773884550505 28.7897
32.398957848235646 28.8893
32.422143174682176 28.7668
32.445511016471215 28.6373
32.468699082679954 28.6385
32.49188851523011 28.648000000000003
32.51507931531304 28.627
32.538452678331 28.5772
32.56164622776311 28.5391
32.58484114831493 28.5025
32.60803744118015 28.4812
32.631416344731896 28.416
32.654615396551876 28.4045
32.67781582427913 28.3437
32.701198898634416 28.2727
32.72440209253756 28.1844
32.747606665947124 28.2256
32.77081262006088 28.0754
32.79420126883317 28.1234
32.81740999876112 28.0765
32.840620112999424 27.9717
32.86383161274818 27.9506
32.88722585534586 27.9213
32.91044014056596 28.0343
32.933655814909734 27.994
32.95687287957963 27.9234
32.98027273544904 27.8272
33.00349259526636 27.8136
33.026713849030116 27.8071
33.04993649794511 27.7543
33.073341986570746 27.7084
33.09656744032826 27.725
33.11979429286444 27.7137
33.14302254538647 27.6862
33.166433686291185 27.6691
33.18966475336992 27.5731
33.212897224069096 27.5252
33.23613109959831 27.5318
33.259547912343415 27.4451
33.2827846121627 27.5179
33.306022720453775 27.4665
33.32926223842861 27.3759
33.352684742614166 27.3705
33.37592709463173 27.2753
33.399170859982064 27.230999999999998
33.422597648419426 27.1308
33.44584425514446 27.0084
33.46909227885668 27.0707
33.4923417207723 26.9489
33.51577423505344 27.0075
33.539026528130385 26.905
33.56228024307245 26.8582
33.585535381098246 26.6009
33.60897364093058 26.6136
33.63223163992385 26.7292
33.6554910656699 26.7102
33.678751919389796 26.6519
33.702195944520106 26.5149
33.72545966903325 26.5688
33.74872482519663 26.4347
33.771991414233746 26.3678
33.79544122444841 26.4633
33.81871069412428 26.34
33.84198160035767 26.3932
33.86525394437455 26.2735
33.88870955949969 26.1858
33.911984794020626 26.268
33.93526147001624 26.1978
33.958539588715006 26.1038
33.98200102861669 26.008000000000003
34.0052820477047 25.9668
34.02856451319451 25.97
34.05203033759056 25.9182
34.07531571090147 25.9477
34.09860253431845 25.8992
34.121890809074316 25.8847
34.145362493118924 25.7998
34.16865368561615 25.7586
34.191946333164054 25.7546
34.21524043699793 25.6695
34.23871800066799 25.7031
34.26201503218366 25.6023
34.28531352370466 25.5866
34.30861347646881 25.4081
34.33209693978188 25.4455
34.3553998301885 25.3799
34.378704185565205 25.2931
34.402010007152356 25.2955
34.42549939016683 25.2894
34.44880815937748 25.2843
34.472118398533134 25.1664
34.49543010887669 25.1332
34.51892543169198 24.9899
34.54224009966052 25.0461
34.56555624255917 25.0764
34.58887386163339 24.9699
34.61237514439016 24.9374
34.6356957311114 24.8942
34.65901779775809 24.8629
34.68252356662995 24.8885
34.705848608458616 24.8784
34.72917513396849 24.7581
34.75250314440949 24.7056
34.77601490857862 24.6486
34.799345904259795 24.5873
34.82267838863559 24.6174
34.846012362958525 24.5572
34.869530142679984 24.5488
34.89286711232212 24.493000000000002
34.91620557568269 24.5106
34.93954553401677 24.5399
34.9630693495876 24.4309
34.986412313340814 24.4008
35.00975677584668 24.4337
35.033102738362956 24.3516
35.05663261012228 24.2827
35.0799815881786 24.2199
35.10333207003229 24.1643
35.12668405694369 24.1957
35.150220005273056 24.1783
35.17357501786656 24.1867
35.19693153931268 24.2332
35.220289570874385 24.1463
35.24383161619786 24.1195
35.267192683604904 24.0926
35.290555264930376 24.0097
35.314101899412165 24.0336
35.33746752422433 24.0081
35.36083466676374 23.9323
35.38420332829803 23.9383
35.407756095629054 23.9367
35.43112781085063 23.9164
35.45450104888391 23.8259
35.477875810999194 23.9175
35.50143473172161 23.7859
35.52481255774625 23.805999999999997
35.54819191167777 23.7184
35.57157279478914 23.7545
35.595137889488406 23.7055
35.61852184675279 23.6561
35.641907337029984 23.6287
35.665294361595684 23.6135
35.68886565090076 23.4195
35.7122557598848 23.4428
35.73564740699838 23.445999999999998
35.759040593519934 23.4296
35.78261809810353 23.4111
35.80601437933051 23.2805
35.829412203814705 23.289
35.85281157283719 23.2026
35.876395313415884 23.2353
35.8997977874528 23.0963
35.92320180988546 23.1406
35.946790244133936 23.0569
35.97019737933222 23.0577
35.993606066789866 23.0026
36.01701630779276 22.9581
36.04061101440684 22.8929
36.06402437852291 22.9539
36.08743930005611 22.9432
36.1108557802951 22.802
36.13445678011326 22.8077
36.15787639383515 22.7652
36.18129757014299 22.7454
36.20472031032821 22.7071
36.22832762423364 22.6527
36.25175350829375 22.6307
36.275180960119776 22.5215
36.298609981005924 22.5674
36.32222362992669 22.7039
36.34565580510207 22.5974
36.36908955323448 22.4174
36.39252487562093 22.3747
36.416144880530226 22.3224
36.43958336764275 22.3107
36.463023432914625 22.3156
36.486465077645676 22.2836
36.51009145956204 22.3204
36.53353627947859 22.3053
36.55698268276811 22.2437
36.58043067073321 22.244
36.60406345072071 22.1426
36.62751462435344 22.0522
36.65096738658405 22.1539
36.67460498210655 22.0762
36.69806093788647 22.0453
36.72151848619297 21.9956
36.744977628333636 21.959
36.76862165890998 21.9199
36.79208400512205 21.9116
36.81554794910557 21.8843
36.83901349217101 21.7952
36.862663978991606 21.7898
36.88613273667352 21.7334
36.90960309738324 21.7987
36.933075062434064 21.7457
36.95673202673572 21.6256
36.98020721697122 21.6354
37.003684015502365 21.5437
37.027162423645365 21.5619
37.050825886711465 21.5282
37.07430753063053 21.4815
37.09779078812467 21.4266
37.121275660513014 21.4118
37.144945643673694 21.3559
37.16843376245278 21.4253
37.19192350009803 21.3324
37.215414857931435 21.2402
37.239091382563885 21.230999999999998
37.262585997426164 21.1889
37.28608223645736 21.1553
37.309763684451696 21.1156
37.33326318851098 21.1492
37.356764320726555 21.0056
37.380267082425526 21.1232
37.40395510942588 20.9977
37.42746114683234 20.9571
37.45096881771841 20.9242
37.474478123414166 20.9073
37.49817275092816 20.8764
37.52168534303452 20.8656
37.54519957395567 20.7857
37.568715445024665 20.7845
37.592416694607714 20.6918
37.61593586281424 20.7374
37.63945667518264 20.7518
37.66297913304891 20.6806
37.68668702630454 20.6668
37.710212792059274 20.61
37.733740207334854 20.5483
37.757269273470364 20.5458
37.780983832050374 20.4176
37.80451621684926 20.4561
37.82805025654007 20.4821
37.851585952464795 20.3299
37.8753071980695 20.3127
37.89884622345676 20.2233
37.92238690911902 20.2629
37.94611318753442 20.234
37.969657210779765 20.2041
37.99320289834801 20.2123
38.016750251586465 20.1117
38.04048325513017 20.1195
38.06403395679343 20.0467
38.087586328183946 19.9958
38.11114037065203 20.0005
38.13488012115898 20.0261
38.1584375229181 19.92
38.181996599821 19.8562
38.205557353221124 19.8835
38.229303872575656 19.8494
38.2528679961576 19.8616
38.27643380031219 19.8515
38.30000128639589 19.8297
38.32375459653193 19.7353
38.34732546371299 19.7557
38.37089801690786 19.6862
38.39447225747609 19.6305
38.418232380377425 19.6121
38.441810012983396 19.6645
38.46538933705673 19.5649
38.488970353960084 19.5469
38.51273731166058 19.4401
38.536321731567014 19.4707
38.55990784840681 19.4237
38.58367995004091 19.4256
38.60726947812959 19.3097
38.63086070726198 19.3252
38.654453638806274 19.3125
38.678232613930824 19.2544
38.70182896773327 19.2007
38.72542702806741 19.1747
38.7490267963045 19.2116
38.77281266709232 19.1698
38.79641586862214 19.0641
38.8200207821842 18.9887
38.843627409152944 19.0575
38.86742019782782 19.0524
38.891030269149255 18.9999
38.914642058016156 18.9958
38.938255565806124 18.9715
38.96205529464307 18.9263
38.98567225787121 18.8785
39.00929094417078 18.9333
39.03291135492255 18.8834
39.05671804624804 18.7601
39.080341923549106 18.7819
39.103967529460334 18.7783
39.127594865365744 18.6975
39.15140854155791 18.6505
39.17503935514948 18.6207
39.19867190290282 18.7103
39.22249083587951 18.5729
39.24612686969409 18.5497
39.269764641845306 18.5606
39.293404153722804 18.5399
39.317230110864074 18.4681
39.34087311998506 18.4009
39.36451787301696 18.364
39.388164371352595 18.3279
39.41199737518003 18.2948
39.43564738196752 18.2972
39.45929913825317 18.2137
39.48295264543308 18.2365
39.506792718520884 18.2289
39.530449745387216 18.227999999999998
39.55410852735203 18.2266
39.57776906581474 18.1443
39.60161623079 18.0847
39.625280300200025 18.0936
39.64894613032202 18.0099
39.67261372255866 17.9853
39.6964680021016 18.0231
39.72013913657293 18.0202
39.74381203738292 17.9763
39.76748670593756 17.8932
39.79134812278169 17.8786
39.81502634488497 17.8547
39.83870633896685 17.7962
39.862388106436654 17.749000000000002
39.88625668336918 17.8301
39.90994201572829 17.7931
39.933629125719285 17.711
39.957503091207826 17.734
39.9811937746168 17.7335
40.00488623990914 17.675
40.02858048850006 17.6212
40.05246165409549 17.5502
40.076159487492085 17.4941
40.099859108448875 17.4777
40.123560518384345 17.5052
40.1474489070226 17.5104
40.171153913178564 17.4242
40.194860712584955 17.401
40.2185693066637 17.3715
40.242464941335314 17.3446
40.26617714307655 17.3162
40.289891143772046 17.2935
40.3136069448471 17.2615
40.33750984859743 17.2273
40.3612292688043 17.2387
40.3849504936829 17.1886
40.40867352466194 17.171
40.43258372059144 17.1708
40.45631038219906 17.1561
40.48003885420956 17.1008
40.503769138055105 17.092
40.52768664931955 17.0735
40.55142057531802 17.0658
40.57515631746428 16.9319
40.599079334038514 16.9625
40.62281872700477 16.8966
40.64655994043941 16.9023
40.67030297578061 16.8982
40.69423334835778 16.8322
40.71798004609188 16.8194
40.74172857006355 16.7516
40.76547892171441 16.8218
40.7894166736039 16.6734
40.813170699248566 16.6765
40.83692655691388 16.6786
40.86068424804498 16.6729
40.884629402612525 16.5589
40.908390779366385 16.6292
40.932153993938 16.5934
40.95591904777605 16.5687
40.979871628443995 16.5721
41.003640379561936 16.4757
41.02741097430883 16.4529
41.05118341413683 16.4376
41.075143444384416 16.4729
41.098919593177826 16.4029
41.1226975914255 16.3772
41.14647744058318 16.3453
41.170444943946755 16.2761
41.19422851378379 16.2904
41.218013938914645 16.2979
41.24198706625173 16.1908
41.26577622087193 16.2093
41.289567235177785 16.167
41.31336011063129 16.0971
41.337340752422875 16.1115
41.361137369129835 16.1371
41.38493585138705 16.1365
41.40873620066004 16.0376
41.43272438060107 16.0149
41.45652848292052 15.9542
41.48033445666918 15.8895
41.50414230331616 15.8935
41.528138045159764 15.9217
41.551949656675205 15.8716
41.575763145513235 15.8063
41.59957851314666 15.8332
41.62358184070442 15.7688
41.64740098505737 15.7569
41.6712220126409 15.7375
41.69504492493139 15.7601
41.71905586207357 15.7074
41.74288256296395 15.6421
41.766711153007456 15.6317
41.79054163368412 15.5939
41.814560204340054 15.6205
41.838394485526365 15.6085
41.86223066180303 15.5375
41.88625497706819 15.4523
41.910094962812 15.4991
41.93393684811168 15.44
41.95778063445365 15.3937
41.981812625263366 15.4053
42.00566023303407 15.3645
42.029509746323676 15.3316
42.05336116662236 15.3385
42.077400857069705 15.3296
42.10125611078846 15.279000000000002
42.12511327600405 15.2016
42.14897235421036 15.2386
42.173019768448455 15.2065
42.19688269209613 15.1666
42.22074753323349 15.1266
42.24461429335818 15.1533
42.268669455600495 15.0401
42.292540073217886 15.1129
42.31641261433284 15.0354
42.34028708044675 15.0253
42.36435001496739 14.9937
42.38822835065557 14.9767
42.41210861586426 14.9514
42.4359908120986 14.9209
42.46006154323262 14.8597
42.48394762115317 14.8135
42.507835634632315 14.8539
42.531912233047436 14.8204
42.55580413732265 14.8243
42.579697981698 14.7738
42.60359376768525 14.6886
42.62767820545945 14.6904
42.65157789440821 14.7181
42.67547952952185 14.6562
42.699383112316 14.6728
42.72347541395347 14.62
42.74738291190531 14.5913
42.771292362102166 14.5727
42.795203766063516 14.5538
42.819303956130405 14.5081
42.843219287476536 14.5363
42.86713657716324 14.4732
42.89105582671383 14.4514
42.91516392983864 14.4348
42.939087119032166 14.3853
42.963012272677304 14.3522
42.98693939230129 14.3514
43.01105543317513 14.3235
43.034986504731386 14.3197
43.05891954686589 14.2864
43.08285456110972 14.2429
43.10697856448665 14.2167
43.130917542983475 14.1939
43.15485849820081 14.2094
43.17880143167367 14.1199
43.20293342237094 14.0867
43.226880332449 14.0963
43.25082922540554 14.0329
43.27496722682525 14.0441
43.29892010567796 14.0366
43.32287497204102 13.9957
43.34683182745632 13.9567
43.370977859791836 13.9382
43.39493871351105 13.9325
43.41890156092628 13.9278
43.44286640358341 13.8763
43.46702049182749 13.8648
43.49098934522816 13.8229
43.51496019852649 13.7838
43.5389330532723 13.7873
43.56309522248204 13.7356
43.58707210044314 13.6949
43.61105098451946 13.6691
43.63503187626491 13.7049
43.659202151562134 13.6757
43.68318707902681 13.6474
43.70717401884041 13.614
43.731162972560874 13.6073
43.75534137913236 13.5703
43.779334381108384 13.5304
43.803329401683186 13.5052
43.82732644241872 13.513
43.8515130055166 13.5312
43.87551410707659 13.4727
43.89951723350145 13.4681
43.923709934595614 13.4074
43.94771713129917 13.3772
43.97172635758096 13.3848
43.99573761501002 13.37
44.0199385169922 13.3296
44.04395385732619 13.3142
44.067971233533086 13.2867
44.09199064718605 13.2537
44.11619977548961 13.2568
44.14022328470671 13.207
44.16424883610785 13.1865
44.18827643127035 13.1802
44.21249381139513 13.1782
44.236525514814076 13.1583
44.26055926674478 13.1269
44.28459506876863 13.1117
44.3088207262813 13.0591
44.33286064928722 13.0261
44.35690262714919 13.0049
44.38094666145278 12.9991
44.4051806219871 12.9726
44.42922879003185 12.9173
44.45327901929361 12.9111
44.477331311362136 12.8682
44.501573600619416 12.8255
44.525630039221795 12.842
44.54968854541895 12.8169
44.573937102200176 12.7936
44.5979997645541 12.7319
44.622064499300315 12.7263
44.64613130803592 12.7148
44.67038823869318 12.74
44.69445921643748 12.663
44.718532272981385 12.6274
44.742607409926194 12.6313
44.76687274034801 12.6199
44.79095205918753 12.5654
44.81503346325094 12.5972
44.839116954143876 12.5677
44.86339071028742 12.5259
44.88747839599524 12.5
44.91156817336837 12.4179
44.93566004401666 12.4656
44.959942251908146 12.4331
44.984038330325966 12.4244
45.00813650686762 12.3296
45.03223678314731 12.3594
45.05652746888232 12.3616
45.08063196592069 12.3263
45.104738567558705 12.3091
45.128847275414856 12.2869
45.15314646515866 12.2306
45.17725940679741 12.25
45.20137445952892 12.2393
45.22568004865265 12.2348
45.24979934496396 12.1296
45.27392075725247 12.1262
45.29804428714431 12.1308
45.322358426247604 12.1052
45.346486212804315 12.0775
45.370616121861914 12.078
45.39474815505086 12.0298
45.41907087049246 12.0033
45.4432071734666 12.0043
45.46734560548283 12.0219
45.49148616817604 12.0063
45.51581748638564 11.9174
45.5399623320197 11.8753
45.56410931325473 11.909
45.58825843173002 11.905
45.61259837920865 11.8318
45.636751793816 11.867
45.66090735060093 11.8175
45.68506505120716 11.8096
45.7094136545275 11.7837
45.73357566449271 11.7212
45.75773982322992 11.7057
45.78190613238733 11.702
45.806263418194064 11.6443
45.83043404997326 11.6161
45.85460683713677 11.6569
45.87897065658495 11.600999999999999
45.90314777634752 11.6232
45.92732705646868 11.5522
45.9515084986045 11.5532
45.97588104735473 11.5317
46.00006683541565 11.522
46.02425479047904 11.529000000000002
46.04844491420549 11.4751
46.0728262191024 11.4982
46.09702070211635 11.4776
46.12121735879483 11.4113
46.14541619080294 11.4151
46.169806278764455 11.3897
46.194009483459034 11.3411
46.21821486849841 11.3948
46.24242243555223 11.3263
46.266821333570014 11.2793
46.29103328674601 11.2731
46.31524742696538 11.3092
46.33946375590237 11.1956
46.36387149104216 11.1783
46.38809221957392 11.1751
46.41231514186606 11.1783
46.436540259597464 11.1592
46.460956858999374 11.1437
46.48518638983522 11.1624
46.509418121166966 11.0928
46.533652054678114 11.0639
46.55807754555709 11.0671
46.58231590571962 11.0039
46.60655647313217 10.9787
46.630988654873654 10.956
46.655233659129024 11.0121
46.67948087571551 10.9906
46.70373030632484 10.9156
46.72817142736393 10.9755
46.752425308428684 10.8964
46.77668140861147 10.9022
46.80093972960865 10.8193
46.82538981736788 10.8114
46.849652602470904 10.8125
46.87391761349769 10.7807
46.8981848521493 10.7825
46.9226439341274 10.7571
46.946915650573224 10.7105
46.97118959976749 10.7071
46.99546578341598 10.6523
47.019933887188216 10.6841
47.04421456235744 10.6478
47.06849747711879 10.5778
47.09278263318286 10.5659
47.11725978640143 10.5878
47.14154944775105 10.5783
47.165841355555656 10.5574
47.1901355115306 10.5177
47.214621741924994 10.5152
47.23892041698887 10.4964
47.26322134538975 10.4803
47.28771440635075 10.4713
47.31201986422527 10.4317
47.33632758061436 10.4168
47.360637557241866 10.4221
47.38513974410611 10.385
47.40945426407847 10.3412
47.43377104948137 10.3613
47.45809010204344 10.3465
47.48260144275502 10.2969
47.506925052572285 10.2665
47.53125093475548 10.2455
47.55557909103813 10.2202
47.58009961361992 10.1981
47.60443234110732 10.21
47.62876734791564 10.187999999999999
47.65310463578333 10.1378
47.6776343683373 10.1688
47.7019762413987 10.117
47.72632040075572 10.0779
47.75066684815169 10.1028
47.77520581885936 10.1176
47.799556865477655 10.0863
47.823910205386 10.0655
47.84826584033272 10.0234
47.87281407745551 9.977
47.89717432569297 9.97937
47.92153687423484 9.94045
47.94609208429692 9.9533
47.97045925671401 9.89685
47.99482873471275 9.90386
48.01920052005013 9.91451
48.04376504619224 9.87828
48.068141469543484 9.88622
48.09252020552573 9.845139999999999
48.11690125590099 9.81746
48.1414751266064 9.8037
48.16586082917454 9.79021
48.19024885144316 9.74136
48.2146391951793 9.74761
48.239222439012764 9.71035
48.26361744916137 9.71766
48.28801478610016 9.69013
48.31241445160131 9.69738
48.337007097209366 9.69433
48.36141144338331 9.6468
48.38581812345755 9.64981
48.41022713920929 9.65889
48.434829215320704 9.60895
48.45924292604658 9.59796
48.48365897780325 9.58564
48.50807737237308 9.56467
48.532688907799276 9.56224
48.55711201168574 9.49518
48.581537463754074 9.47719
48.60615611725119 9.48214
48.63058628942721 9.47128
48.65501881516546 9.46008
48.6794536962573 9.45398
48.70408185970339 9.40093
48.72852147531801 9.37658
48.75296345168211 9.35555
48.77740779059232 9.34985
48.80204549302823 9.3108
48.82649458091802 9.33206
48.85094603676547 9.31749
48.87539986237231 9.313410000000001
48.90004713292306 9.2581
48.92450572200832 9.27161
48.94896668628025 9.2478
48.97343002754588 9.233319999999999
48.99808689542115 9.18665
49.02255501470614 9.18874
49.04702551642794 9.141110000000001
49.0714984023988 9.15452
49.096164896893235 9.10629
49.120642575466796 9.1098
49.145122643748394 9.08478
49.16960510355558 9.04508
49.19428125404938 9.08853
49.2187685210852 9.06242
49.243258185121555 9.02978
49.26794160167084 9.01653
49.2924360839405 8.98352
49.31693296869764 8.95888
49.34143225776915 8.94308
49.36612538195438 8.92125
49.39062950396021 8.93549
49.41513603578346 8.95355
49.4396449792564 8.909510000000001
49.46434784069503 8.864289999999999
49.488861631846454 8.85315
49.513377840166804 8.851389999999999
49.537896467493745 8.82589
49.56260909589029 8.80279
49.587132585683285 8.810369999999999
49.611658500018365 8.76895
49.636186840738596 8.74508
49.66090926588511 8.713230000000001
49.685442483902584 8.73293
49.70997813385706 8.675239999999999
49.734516217597076 8.67808
49.75924846937352 8.649189999999999
49.7837914452858 8.65734
49.80833686055187 8.62856
49.83288471702571 8.587660000000001
49.85762682540054 8.57947
49.882179588965734 8.59179
49.9067347993235 8.52775
49.93129245833333 8.51638
49.95604445336378 8.5217
49.98060703442832 8.54192
50.005172069746266 8.50574
50.02993150438364 8.511510000000001
50.05450147301533 8.49708
50.07907390151433 8.45266
50.10364879174981 8.443810000000001
50.12841816587289 8.41426
50.1529980044635 8.400310000000001
50.17758031042124 8.36019
50.20216508562089 8.364189999999999
50.22694442953363 8.3659
50.25153416817468 8.32532
50.27612638170508 8.31108
50.300721072005196 8.28261
50.325510416102105 8.28004
50.350110084975064 8.29398
50.37471223628208 8.2672
50.39931687190919 8.211310000000001
50.424116246675766 8.190539999999999
50.44872587605249 8.18065
50.47333799543065 8.189739999999999
50.49795260670191 8.17051
50.52276204271512 8.14745
50.54738166295838 8.157160000000001
50.57200378079314 8.13011
50.596628398116835 8.09773
50.62144792604559 8.084010000000001
50.646077567609396 8.09689
50.670709714377715 8.099910000000001
50.69553683636198 8.07536
50.72017401885922 8.063310000000001
50.7448137122895 8.01927
50.76945591856022 8.0167
50.79429318636823 7.9867
50.818940443716784 8.00051
50.84359021965163 7.96351
50.868242516085964 7.93773
50.893089960641895 7.90563
50.917747323549435 7.869510000000001
50.94240721271973 7.927239999999999
50.96706963007175 7.896539999999999
50.99192728239342 7.862410000000001
51.01659478166073 7.90097
51.04126481489051 7.8311399999999995
51.06593738400761 7.832339999999999
51.090805275207074 7.83785
51.11548294172845 7.79535
51.14016314993547 7.810810000000001
51.164845901758845 7.74755
51.18972406304274 7.709960000000001
51.21441192780656 7.72001
51.23910234200271 7.704269999999999
51.2637953075678 7.697430000000001
51.288683770237945 7.67742
51.31338186432707 7.65004
51.33808251561888 7.63475
51.362978729967345 7.637639999999999
51.387684521509755 7.61032
51.41239287610203 7.581180000000001
51.437103795691165 7.59685
51.46201036644977 7.566489999999999
51.486726441956634 7.5525199999999995
51.51144508832545 7.5148
51.536166307509156 7.539439999999999
51.56108326624387 7.517060000000001
51.58580965706056 7.520410000000001
51.61053862657523 7.488389999999999
51.635270176746864 7.43744
51.66019755512065 7.39815
51.68493429268881 7.3958699999999995
51.70967361681515 7.4023699999999995
51.73441552946465 7.40901
51.759353359237934 7.37598
51.7841004750961 7.35243
51.80885018539685 7.36074
51.833602492111254 7.36892
51.8585508051424 7.34285
51.883308330926425 7.34404
51.90806845906181 7.28361
51.932831191525715 7.25355
51.95779001977161 7.2491699999999994
51.98255798721516 7.25811
52.00732856494335 7.22383
52.03229530577543 7.19897
52.057071130455945 7.18535
52.081849571391054 7.18887
52.106630630568695 7.11867
52.13160794279417 7.140060000000001
52.15639426492067 7.13886
52.18118321127822 7.12217
52.205974783860896 7.10248
52.23096269971011 7.09123
52.255759551287994 7.099489999999999
52.280559035098186 7.03252
52.30536115314103 7.06117
52.33035970494467 7.04798
52.35516711807904 7.036919999999999
52.37997717147198 7.03057
52.40478986713005 7.02312
52.42979908731974 6.975
52.454617094216 6.96806
52.47943774942214 6.93708
52.50426105495102 6.944260000000001
52.529280976059844 6.89624
52.554109609024096 6.88368
52.57894089837482 6.882560000000001
52.60377484613117 6.87703
52.62880550079408 6.859789999999999
52.65364479223379 6.82982
52.67848674816189 6.82229
52.70352547971946 6.811610000000001
52.72837279155837 6.796139999999999
52.753222773982785 6.78275
52.778075429022984 6.7853699999999995
52.80312495150885 6.7674199999999995
52.827982978797436 6.749160000000001
52.85284368481815 6.7205699999999995
52.87770707160767 6.73768
52.90276741793998 6.734539999999999
52.92763619336701 6.72587
52.952507655698504 6.728110000000001
52.977381806977576 6.6992
53.00245301017842 6.65595
53.02733256653592 6.6735
53.052214817996074 6.64928
53.077099766608484 6.63662
53.102181859804446 6.60182
53.127072229988265 6.610010000000001
53.15196530349892 6.5696699999999995
53.17686108239249 6.52121
53.20195409881522 6.51119
53.22685531582556 6.54095
53.25175924441303 6.48875
53.27666588664027 6.48231
53.30176985962693 6.50645
53.3266819565689 6.45894
53.35159677336455 6.43916
53.376514312083096 6.47679
53.40162927507703 6.434740000000001
53.42655228516116 6.4118
53.45147802340193 6.43391
53.47660125628886 6.41105
53.50153247842639 6.35999
53.52646643496923 6.3461
53.55140312799818 6.36605
53.576537409691696 6.36249
53.60147960336152 6.34825
53.626424539786164 6.3362300000000005
53.65137222105307 6.3080099999999995
53.67651758529126 6.3099300000000005
53.70147078399681 6.2709
53.72642673383343 6.25596
53.75138543689533 6.2342699999999995
53.776541917524526 6.24533
53.801506154876755 6.22939
53.826473151763246 6.21244
53.851442910284916 6.20096
53.87661054126026 6.16787
53.9015858509782 6.17175
53.92656392866066 6.16469
53.95154477641532 6.13315
53.976723591801296 6.139469999999999
54.00171000771266 6.14454
54.02669920004598 6.1018300000000005
54.051691170915745 6.04875
54.076881204886796 6.04473
54.101878760928514 6.0884599999999995
54.12687910187696 6.0397099999999995
54.152077577768296 6.05938
54.1770835166946 5.98782
54.20209224691339 5.96937
54.22710377055121 5.94234
54.25231352511594 5.95584
54.27733066384342 5.94409
54.30235060239643 5.91527
54.32737334290836 5.91363
54.35259441062629 5.90545
54.377622783395324 5.868609999999999
54.40265396455061 5.8661
54.42768795623251 5.84103
54.45292037169559 5.79519
54.477960012857906 5.862480000000001
54.50300247099511 5.8490400000000005
54.52804774825457 5.75453
54.55329154616743 5.75
54.57834249018678 5.7563
54.6033962597977 5.70723
54.6284528571545 5.73402
54.653708072335164 5.6814800000000005
54.67877035378786 5.684069999999999
54.70383546947698 5.66855
54.72890342156389 5.6313
54.7541700889442 5.58366
54.77924374251975 5.6191
54.8043202390049 5.61394
54.82959552413022 5.567830000000001
54.8546777351945 5.53753
54.87976279569621 5.51396
54.90485070780914 5.51115
54.930137506558005 5.42737
54.95523115074295 5.46438
54.98032765308844 5.44143
55.005427015775496 5.41044
55.03072536339621 5.40566
55.05583047570572 5.35725
55.080938454927676 5.3758
55.10604930325027 5.34938
55.131359235107396 5.37649
55.15647585066083 5.29064
55.181595341907496 5.2796
55.20671771104285 5.22199
55.232039262617704 5.21759
55.25716741665048 5.16424
55.28229845518636 5.193919999999999
55.30743238042802 5.07608
55.33276558731939 5.073259999999999
55.357905315183636 5.10002
55.383047936390035 5.07324
55.40819345314859 5.0348
55.433538351073295 5.02337
55.458689688238415 5.04427
55.483843927614096 4.9936300000000005
55.509197623043605 4.94864
55.53435769621134 4.90779
55.55952067826466 4.90672
55.5846865714265 4.89384
55.61005202069737 4.89891
55.63522376553902 4.85971
55.66039842818645 4.85466
55.68557601087004 4.80399
55.7109532500271 4.78242
55.73613670233794 4.8402400000000005
