TT I
1.2716486653135266 7.239669999999999
1.2939594142134223 7.40227
1.3162702121660406 6.76548
1.3385810600174564 6.43838
1.3608919586137629 6.4233
1.383202908801069 5.89861
1.405513911425503 6.29473
1.4278249673332093 6.22291
1.4501343378461518 6.47804
1.4724455028545926 5.996519999999999
1.4947567236847858 6.5926800000000005
1.517068001182951 5.78169
1.5393793361953272 5.818280000000001
1.5616907295681737 5.44159
1.5840021821477681 5.4042699999999995
1.60631369478041 5.88654
1.6286252683124185 5.41965
1.6509369035901333 5.98114
1.6732468618895553 5.32891
1.695558623192809 4.71692
1.7178704487808514 4.86364
1.7401823395001077 4.71174
1.7625012545597203 4.45709
1.7848028405262486 5.11944
1.8071218901122095 4.869190000000001
1.8294236121921872 4.83617
1.8517427996910911 4.92457
1.8740620574440425 4.97323
1.8963639900671978 4.51082
1.9186833908139995 4.4788
1.9409854680117449 5.12453
1.9633050151394713 4.71915
1.9856246367570705 5.017919999999999
2.0079269371922672 4.43495
2.03024671027244 4.9703800000000005
2.0525491637446027 3.9071300000000004
2.074869091674931 4.17545
2.097171701569106 4.72379
2.1194917877373847 4.50928
2.141811954326636 4.97193
2.164114805233074 4.93041
2.186435135143035 6.29362
2.208738150935709 14.6982
2.231058647554722 31.1306
2.2533792288321184 23.6747
2.275682498336085 10.4419
2.298003251406138 5.47992
2.3203066942619714 5.76452
2.3426276225136022 5.49557
2.3649486396617507 5.32345
2.387252348930071 5.91852
2.4095735463442893 5.87636
2.4318774374315884 6.44729
2.4541988185014043 5.96356
2.476502894794693 6.10827
2.498824462909887 6.70144
2.521146125856138 6.54495
2.5434504863470337 6.576569999999999
2.5657723414244717 6.9397199999999994
2.588076895590662 8.08165
2.610398946189713 8.01018
2.6327210958598384 7.68773
2.6550259469304716 6.90198
2.6773482972090137 7.38552
2.6996533504259 7.870889999999999
2.7219759047039602 8.234760000000001
2.744298562293959 8.00614
2.7666039251246595 8.10155
2.7889267918020164 7.676310000000001
2.8112323652516555 8.07423
2.833555444408179 8.30604
2.8558786311183852 8.18333
2.8781845268938557 8.4178
2.9005079311721484 9.11969
2.9228140460410397 8.86933
2.9451376712799635 9.62532
2.967444008632326 9.424539999999999
2.9897678582247247 10.1687
3.0120918213106695 10.3576
3.0343984987899373 10.9727
3.0567226913198637 11.1789
3.079029599759726 11.4547
3.101354025127254 12.4197
3.123678568232338 12.735999999999999
3.145985829517914 12.967
3.16831061055229 13.3465
3.1906181112775593 14.0986
3.212943133635653 14.6017
3.2352682779763207 15.2137
3.2575761442691227 15.3019
3.2799015350264273 15.6304
3.302209649240067 15.9119
3.3245352898092655 16.5666
3.3468436553365257 17.3868
3.369169549113219 17.7129
3.3914955708171384 18.3432
3.413804319727358 18.9536
3.4361305997334863 19.06
3.4584396084414553 19.832
3.4807661501462652 20.5101
3.503092824025881 20.9381
3.5254022288463154 20.956999999999997
3.5477291695206588 21.7103
3.5700388426251948 22.2965
3.5923660534916446 24.2202
3.6146934007816114 40.4337
3.637003482731501 97.5142
3.6593311053109985 109.635
3.681641464033634 61.1224
3.7039693653009733 31.6051
3.726297407241705 26.3249
3.7486081875460804 26.0765
3.7709365132734978 26.1666
3.793247578841633 26.5161
3.8155761917550093 26.9482
3.8378875459837216 27.4734
3.8602164494827234 27.6481
3.882545499606844 28.5171
3.9048572932539183 29.1236
3.9271866390645718 29.1125
3.9494987298666713 29.9243
3.971828374764527 30.808000000000003
3.9941581705403255 30.828000000000003
4.016470713506008 31.6007
4.038800813471445 32.4175
4.061113662089144 33.4122
4.0834440696459176 33.9302
4.105774632334751 34.2814
4.128087945865126 35.138000000000005
4.150418821249301 35.8888
4.172732448931298 37.0161
4.195063640413578 38.8378
4.2173775856475215 43.8351
4.239709096631102 78.1963
4.262040768704612 260.498
4.284355196706267 351.842
4.306687193387355 225.57299999999998
4.329001947444346 86.2111
4.35133427213731 49.4249
4.373666762177566 45.4657
4.395982011761091 44.9023
4.418314834921175 45.8996
4.44063041906622 54.7277
4.4629635787515625 66.778
4.4852969080429785 66.9029
4.5076130004776225 55.5438
4.529946671403969 50.5058
4.552263106909177 49.8659
4.574597122877047 51.0737
4.596931312711224 52.4969
4.619248269273446 53.1619
4.6415828092605835 54.3662
4.663900117405352 55.5873
4.686235010953232 56.6786
4.708552674085913 58.3123
4.730887924602802 59.6715
4.753223354952695 61.038000000000004
4.775541557023902 62.2164
4.797877349456786 63.5872
4.820195915032126 66.2446
4.842532072957498 67.0294
4.864868414979744 69.2622
4.88718753227192 71.3907
4.909524244902505 73.0806
4.931843734218147 74.8256
4.954180820867835 77.5674
4.976518095879839 80.4841
4.998838149695359 83.2471
5.021175803844231 87.083
5.043496238205739 89.9973
5.065834274903528 94.7871
5.088172504230693 99.5768
5.1104935158799565 105.99600000000001
5.132832132875765 128.47
5.155153533596801 175.30900000000003
5.1774925416746225 211.077
5.199814334878411 344.67400000000004
5.2221537374521505 974.431
5.244493338631803 2774.09
5.266815727034316 7399.53
5.289155727832427 12614.1
5.311478517248165 8845.25
5.333818921080011 3019.38
5.356159527788849 614.2330000000001
5.3784829252032536 194.47299999999998
5.400823940070432 147.52100000000002
5.423147747031976 130.287
5.445489173474152 120.598
5.467830807066149 114.508
5.490155234831516 109.95299999999999
5.512497285125229 106.34899999999999
5.534822130975162 104.98299999999999
5.557164601388673 102.666
5.579489868738879 99.9793
5.601832762690846 99.0996
5.6241758697774475 98.2297
5.646501775867269 97.0402
5.668845311622074 95.3101
5.691171647754637 94.0569
5.713515615597765 93.2605
5.735859800852677 92.0972
5.758186788542988 91.5266
5.780531411018185 91.1928
5.802858837297399 91.3233
5.825203900414495 91.1857
5.8475491852224 91.1961
5.869877275883075 91.5619
5.892223006467101 92.9062
5.914551544266608 94.3115
5.936897724049891 96.8159
5.959244129804903 101.55799999999999
5.981573344815301 117.536
6.0039202049061 200.845
6.026249875609095 439.98400000000004
6.04859719346037 959.955
6.070927323278297 2144.27
6.093275102315365 4375.63
6.115623113320588 5321.62
6.137953938319995 3520.72
6.160302415650845 1089.4
6.182633708324452 254.456
6.2049826554078376 118.93700000000001
6.227331838745022 94.7207
6.249663839443684 86.7848
6.27201349767565 84.3321
6.294345974611799 90.9083
6.316696111167083 104.235
6.339046488263839 98.3885
6.361379686074702 81.4775
6.383730546639482 72.9867
6.406064229255215 69.6779
6.428415576718203 68.9484
6.450749747566656 67.7928
6.47310158535871 66.7531
6.495453669698332 66.0806
6.517788579421056 65.4558
6.540141159237969 64.1388
6.562476565766648 63.7678
6.5848296444934045 63.2945
6.607182974060425 63.0632
6.6295191323281015 63.076
6.651872965955752 67.0652
6.6742096296068985 95.9155
6.6965639707294615 148.761
6.71891856698715 149.642
6.741255995248479 99.2049
6.763611104154477 69.4515
6.785949046381137 61.1444
6.808304671371482 59.0553
6.8306605557940046 58.0464
6.852999275508618 57.9008
6.875355681171544 57.5703
6.897694923437771 57.2748
6.92005185377892 57.0651
6.9423916220322655 57.0613
6.964749080490181 56.3581
6.987106804399774 56.2715
7.009447368180821 56.1133
7.031805625367033 55.7815
7.054146723727803 56.1646
7.076505517631004 55.8279
7.098864581288365 55.7246
7.121206488070854 55.5213
7.143566093607822 55.687
7.165908543567245 55.511
7.188268694426048 55.7664
7.2106291193438095 55.7706
7.232972390625943 57.8913
7.255333366030969 71.5982
7.277677189091925 133.747
7.300038718428332 189.205
7.322400526130865 158.328
7.344745183422596 94.679
7.367107550224791 63.2982
7.389452767901992 57.2481
7.411815697249891 55.9291
7.434161478756298 54.9583
7.456524974096713 54.6732
7.478888753837185 54.4848
7.501235387657368 55.0297
7.523599738562711 54.9937
7.545946944825532 55.3979
7.568311870344528 55.7612
7.5906770845765665 55.9982
7.613025156078678 57.4677
7.635390950099687 58.8417
7.657739602662809 57.8597
7.680105979923558 56.5135
7.702472650212829 56.4079
7.724822180948224 56.2422
7.747189439655568 56.1877
7.769539560075357 56.7183
7.791907410653562 57.2346
7.81425812420825 56.8303
7.836626570110925 57.1635
7.858995315087906 58.1892
7.881346924933401 58.2109
7.903716270417482 58.7949
7.926068482028405 59.1458
7.948438431475253 59.3106
7.9708086843180235 59.8851
7.993161805171116 60.633
8.015532667162402 60.9629
8.037886398416653 61.8863
8.060257873014221 62.4088
8.082629655331942 63.1293
8.104984308787587 64.1973
8.127356708900503 67.7683
8.149711981398308 74.2108
8.172085002766314 76.6349
8.194458336181368 72.7468
8.216814543847752 69.68
8.23918850371002 69.9532
8.26154533906492 70.3327
8.283919928836452 72.0217
8.306277395339652 73.0533
8.328652618483376 74.1285
8.351028159736202 76.1605
8.373386579575245 78.428
8.395762759396959 80.0966
8.418121819038275 85.5264
8.440498640894003 100.12799999999999
8.462875785192262 115.40299999999999
8.485235811156207 125.40700000000001
8.507613602688501 159.78
8.529974277114228 242.394
8.552352719347912 375.668
8.574731488360351 638.063
8.59709314210385 1154.35
8.619472567021075 1805.74
8.64183487789147 2182.93
8.664214962183097 1873.3
8.686577933647762 1013.04
8.708958680784317 391.645
8.731339760774953 170.917
8.753703729764451 113.681
8.77608547780821 100.70200000000001
8.798450116065078 96.1593
8.820832535634787 92.9126
8.843215292401656 91.3985
8.865580941199045 89.8356
8.887964374703538 88.8165
8.910330701447199 90.3822
8.932714815164482 93.0253
8.955099270424924 92.2662
8.977466620733543 88.613
8.999851761421976 85.6638
9.022219798361645 83.9252
9.04460562795561 83.6167
9.066991803441677 83.0517
9.089360876979615 83.1843
9.111747746589993 83.1024
9.13411751544971 81.9757
9.156505082664324 81.6209
9.178875550323522 82.2216
9.20126381862328 82.601
9.223652438908596 83.3754
9.246023961427412 83.0626
9.26841328802173 82.0236
9.290785518039224 82.1224
9.313175554425882 82.5332
9.335565947154315 82.65799999999999
9.357939245086508 82.8698
9.380330352834827 83.3989
9.40270436697103 83.2136
9.425096193225055 83.2029
9.447488380180165 84.073
9.469863475295412 84.3676
9.492256385987508 84.853
9.514632206018318 85.5343
9.537025843935714 85.7565
9.559402392368193 86.57600000000001
9.581796761000229 87.5436
9.604191496441521 88.0176
9.626569144158516 91.8839
9.648964615551032 97.3719
9.671343000390081 99.1469
9.693739211225699 96.94200000000001
9.716135793237463 93.8951
9.738515290448102 93.3786
9.760912617143402 94.2963
9.783292860202891 95.1414
9.805690935076182 96.4414
9.828089385495742 97.7242
9.850470754023561 99.9078
9.872869957865444 108.345
9.89525208097539 125.147
9.917652041736662 139.218
9.940052382417589 137.76
9.962435644102392 140.042
9.984836746950979 171.207
10.007220771957746 232.907
10.029622640473708 334.466
10.052007432299963 507.791
10.074410069984072 800.5980000000001
10.096813093716005 1242.89
10.119199042482517 1712.55
10.141602840636468 1911.98
10.163989564971628 1614.75
10.186394141051062 955.565
10.208799107559706 425.666
10.231187001965623 199.07299999999998
10.253592751657669 129.763
10.275981430388155 114.37799999999999
10.298387966769793 114.35600000000001
10.320794897965431 117.49799999999999
10.343184759907361 116.241
10.36559248305461 109.93700000000001
10.387983138083852 104.81200000000001
10.410391656691655 106.78299999999999
10.432800574501677 116.97399999999999
10.455192425893369 132.624
10.47760214443012 158.162
10.499994797678786 200.273
10.522405320453982 276.0
10.54479877906917 392.184
10.567210109595656 504.7
10.5896218454736 576.966
10.612016518879773 504.11699999999996
10.634429067781074 355.227
10.656824555333241 211.449
10.679237920773568 129.07299999999998
10.701651695961992 98.1185
10.724048411481384 90.3285
10.746463008485165 87.0368
10.768860546937125 85.51299999999999
10.791275969274796 83.3561
10.81369180576079 82.5283
10.836090585366925 81.2363
10.858507252467449 80.0477
10.88090686379991 79.2313
10.903324365036394 78.7473
10.925724811614439 78.6957
10.948143150509463 80.4846
10.970561909719066 79.6368
10.992963615930844 77.6843
11.015383218085756 75.2073
11.037785768347074 73.7559
11.06020621697282 73.0537
11.082627090322113 72.6753
11.105030913430326 72.1158
11.12745263854165 72.9125
11.149857314510728 76.8151
11.172279894912576 83.6311
11.194702904450653 84.5235
11.217108866490921 80.2037
11.239532736615194 75.1264
11.26193956033512 72.8925
11.284364294577085 70.8002
11.306789462371718 69.0708
11.329197585398376 67.5319
11.351623622610898 67.3919
11.37403261614354 66.7246
11.396459526308487 66.2581
11.418869393879497 65.7013
11.441297180532617 65.5886
11.463725406927658 65.3371
11.486136592353875 65.1207
11.508565700543707 65.6245
11.530977768845315 67.7577
11.553407762368774 68.7872
11.575838200059769 68.0144
11.598251599479612 65.7145
11.620682927815501 64.2672
11.64309721895548 64.0274
11.665529441478206 63.3708
11.687962112597958 63.3032
11.710377748130886 63.2711
11.732811318753434 63.0878
11.755227854859067 63.0442
11.777662328529495 63.0649
11.800079768750786 62.7628
11.822515149015453 62.7172
11.844950984084935 62.865
11.867369787303163 62.5129
11.889806534289491 62.6848
11.912226250487029 62.9164
11.934663912939751 62.9167
11.9571020346363 63.135
11.979523127133968 63.1601
12.001962169624331 63.7784
12.024384183972964 64.3349
12.046824150809913 67.1884
12.069264581333726 72.5946
12.091687985297767 78.7188
12.11412934550045 87.6589
12.136553680195208 101.721
12.158995973632788 123.305
12.181438735204349 151.40200000000002
12.20386447284199 179.921
12.226308172985636 201.66
12.24873485024193 199.44799999999998
12.271179492516982 170.52900000000002
12.293607112949127 132.39600000000002
12.316052700916226 99.0723
12.338498763250042 81.1714
12.360927805303868 71.6045
12.383374818673879 67.1165
12.405804812803074 65.1951
12.428252780773262 64.6309
12.45070122756722 64.3574
12.473132656675375 64.4148
12.49558206341869 64.5323
12.518014453510101 64.5146
12.540464823770117 64.6546
12.562915677315177 64.8587
12.58534951575545 65.5558
12.607801338171472 67.8989
12.630236146511358 73.9034
12.652688941369085 79.6308
12.675124723177234 79.973
12.697578494048786 75.5267
12.720032754458185 70.6573
12.742470003354093 68.2374
12.764925245138771 68.1854
12.787363476431278 68.1775
12.809819703166806 68.6427
12.83227642391173 69.3217
12.854716135692716 69.7404
12.877173846755147 71.1318
12.899614549869717 71.2413
12.9220732548287 72.0609
12.94453245827299 72.5584
12.966974655289818 73.1338
12.989434858002571 74.0523
13.011878055298721 74.7535
13.034339260862497 75.8517
13.056800969391883 76.8618
13.079245674017244 78.8885
13.101708390774869 80.8035
13.12415410463411 87.2836
13.146617833206086 98.3759
13.169064559883248 110.679
13.191529303857127 125.12
13.213994557076367 146.656
13.236442809902437 181.896
13.258909083908291 233.398
13.28135835851934 296.191
13.30382565690295 364.601
13.326293469022952 413.832
13.348744283242008 423.384
13.371213125129904 367.50300000000004
13.39366497011003 273.202
13.416134845360597 181.93599999999998
13.438605238843131 128.253
13.46105863690397 107.09700000000001
13.483530069144786 105.12299999999999
13.505984506951902 109.89200000000001
13.528456981549432 119.193
13.550929978879088 134.041
13.573385983253365 157.106
13.595860028340867 193.458
13.618317081455832 244.351
13.64079217790333 296.876
13.663250283359057 345.69300000000004
13.685726434770173 370.787
13.708203115221277 344.20599999999996
13.730662806148091 270.885
13.75314054697177 195.625
13.775601299246777 134.046
13.798080104050406 100.40799999999999
13.820559442405358 86.6031
13.843021793671388 82.1582
13.865502201420897 80.5605
13.887965623051947 79.8722
13.910447103807167 78.5596
13.932929122629764 77.3735
13.955394156785959 77.0969
13.977877254034569 76.042
14.000343367582113 75.471
14.022827546871707 74.5784
14.045294743423524 74.0567
14.06778000837062 73.3245
14.090265817715476 73.0837
14.112734645763819 72.8752
14.13522154619454 72.858
14.157691466286913 73.0505
14.180179461423874 72.4479
14.202668005486178 71.6753
14.22513957064374 70.8697
14.247629214846473 70.7056
14.270101881097517 70.5786
14.29259262906496 70.9278
14.315083930490205 71.82
14.337558255389705 71.8936
14.360050666019726 71.4446
14.382526101071944 70.4731
14.405019624534942 69.7006
14.427513705993134 69.0133
14.449990813291825 68.7166
14.47248601302899 68.9167
14.49496423954951 69.0655
14.517460561197822 69.3497
14.539939910570322 68.9421
14.562437357763558 69.2713
14.58493536931253 70.5553
14.607416409993311 71.6477
14.62991555254159 72.4883
14.652397725157423 72.0213
14.674898002342799 71.4065
14.697398848433282 70.7457
14.719882725991326 71.2462
14.74238471217934 71.8369
14.764869730765593 74.8393
14.787372860692983 78.2222
14.809876564079925 82.7531
14.83236330125751 88.39
14.854868153850365 96.8284
14.877356041159485 109.84700000000001
14.899862046604186 127.95700000000001
14.922351087688757 152.715
14.944858249632887 180.29
14.967365991421232 204.15400000000002
14.989856770231246 217.898
15.012365673994204 215.72799999999998
15.03485761569738 188.736
15.05736768508665 151.366
15.07987833888692 117.655
15.102372032001655 93.025
15.124883856909658 78.4099
15.14737872204565 72.8528
15.169891721717274 70.9775
15.192405310371893 70.8621
15.214901940621196 71.1817
15.237416709527137 71.5931
15.259914520936249 71.6938
15.282430473753607 70.8304
15.304947020131227 69.3572
15.327446610371178 68.6397
15.349964346154254 67.4619
15.372465126703139 67.0879
15.394984055556009 66.745
15.417486030076159 66.6054
15.44000615566487 66.0465
15.462526881230803 66.2218
15.485030653812652 66.6301
15.507552581617434 66.6727
15.530057557334603 66.6563
15.55258069104857 66.492
15.575104429329837 66.2659
15.597611216864632 65.9028
15.620136166564563 66.0506
15.6426441664095 66.75
15.665170331202765 68.7389
15.687697105158826 71.7948
15.710206930593545 75.4266
15.732734925158933 79.3593
15.755245972089478 85.2738
15.77777519094324 94.4134
15.800287463046663 107.01899999999999
15.822817909869592 125.59899999999999
15.84534897229804 146.183
15.867863089299354 168.403
15.890395385222186 185.479
15.912910736597423 192.74200000000002
15.935444269699861 182.688
15.957978423016485 157.325
15.980495633101265 127.493
16.003031029129367 99.2329
16.02554948280019 79.0379
16.048086125229432 69.1412
16.070623392487107 65.9683
16.09314371869582 65.2997
16.11568223789321 64.3967
16.13820381691126 63.3571
16.160743591742527 62.0768
16.183283996022084 60.8987
16.205807461423195 59.8827
16.228349126881973 59.4535
16.25087385432698 59.3449
16.27341678466365 58.6533
16.29594277784926 58.6628
16.31848697676433 59.1553
16.341031811604868 59.515
16.36355971058487 59.8872
16.3861058195587 59.4569
16.40863499352978 58.2581
16.431182380342005 57.2338
16.453730407713202 56.4992
16.476261501364792 56.1116
16.498810812136167 56.0728
16.52134319004079 55.7995
16.54389378792203 55.7244
16.566445031001553 55.5209
16.588979342490088 55.3201
16.61153187824822 55.1999
16.634067483263312 55.1666
16.656621315414416 55.1492
16.679175797408888 54.8128
16.701713349928728 54.9361
16.72426913389191 55.2043
16.74680798922351 55.3173
16.76936507887444 55.2258
16.791905240734874 55.4314
16.814463639794468 55.306999999999995
16.837022695210294 55.126999999999995
16.859564824093756 55.4627
16.882125194503903 56.4023
16.904668639217885 57.2434
16.927230328348003 57.2345
16.949792678493612 57.4766
16.972338104193863 56.5729
16.994901778652235 55.9891
17.017448529496576 55.7482
17.040013531998152 56.1273
17.06257920018044 56.4853
17.0851279459922 56.995
17.107694947817667 57.8131
17.130245028099072 58.8288
17.15281336730298 60.2692
17.17536478578733 62.0164
17.19793446610687 63.9983
17.220504818648422 66.7688
17.243058251703697 70.0109
17.265629950971032 74.3826
17.288184731571736 78.7158
17.310757781306908 82.4379
17.33333150794385 83.3604
17.355888317140174 82.7307
17.37846339986244 78.5071
17.401021565958885 72.6848
17.42359800851343 67.0575
17.44617513265564 62.8374
17.468735341390783 60.7338
17.491261035594565 59.5995
17.51396340099364 59.1315
17.536490463869136 59.1703
17.559018209820174 59.2661
17.58154663977963 59.3733
17.604251766089718 59.5547
17.626781572227713 59.7766
17.64931206518155 60.0592
17.671843245885103 60.3878
17.69455114821572 60.8086
17.717083712612634 61.0279
17.739616967569667 61.2762
17.762150914021706 61.4378
17.78486160749854 61.3921
17.807396945166804 61.9099
17.829932977143503 62.6702
17.85246970436452 63.943999999999996
17.875183204129467 66.0473
17.897721330097664 68.178
17.920260154126645 70.4318
17.942799677153296 73.4703
17.9655159983646 77.0199
17.988056927677544 82.0548
18.010598558807683 89.4144
18.033140892692916 99.1773
18.05586005052525 109.49600000000001
18.07840379824407 120.50399999999999
18.10094825154059 131.259
18.12366954819864 138.584
18.146215420998306 139.75799999999998
18.16876200220057 131.528
18.191309292745153 118.796
18.214033452627167 105.17399999999999
18.236582170236648 93.6182
18.259131600016456 87.5147
18.281681742907335 87.00399999999999
18.304408781233683 90.62799999999999
18.32696035875955 95.4625
18.349512652227624 99.98
18.372065662579683 104.084
18.394795594587553 105.837
18.41735004715306 103.95700000000001
18.43990521943684 97.4872
18.46246111238171 88.8209
18.485193953325208 79.0672
18.507751296070428 71.2275
18.530309362314178 66.7211
18.552868153000343 64.0545
18.57560391815056 62.4706
18.59816416623245 61.9548
18.620725141597372 61.6675
18.643286845190268 61.1525
18.666025549835414 60.5974
18.688588718427933 59.9455
18.711152618092243 59.9048
18.73389353884365 59.3814
18.75645890921984 59.2383
18.77902501351406 59.0244
18.801591852673102 58.9731
18.824335739722738 58.4734
18.846904057212626 58.1723
18.8694731124168 58.0685
18.89204290628315 57.9224
18.914789774966803 57.7304
18.937361054791623 57.4807
18.959933076131318 57.0955
18.982505839934877 57.256
19.00525570560582 57.3949
19.027829963004184 57.4219
19.05040496572238 57.417
19.072980714710468 57.2425
19.095733592739563 57.2294
19.11831084296757 57.7325
19.140888842324735 58.1424
19.16346759176222 58.437
19.18622349753803 58.8149
19.208803755869358 59.6675
19.231384767143577 60.7241
19.253966532312948 62.1992
19.276725481241822 64.1683
19.29930876296784 66.4727
19.3218928014549 69.5379
19.34465404436217 72.8545
19.36723960516257 75.1873
19.389825925592426 76.5758
19.412413006605938 75.7885
19.43517731967805 72.7334
19.457765930683355 68.3245
19.48035530514408 64.117
19.50294544401556 60.1638
19.525712842708348 57.405
19.54830451925909 55.6987
19.570896963095727 54.6307
19.593490175174704 54.2341
19.616260674962184 53.9336
19.638855432416964 53.6635
19.661450960992624 53.9668
19.68404726164677 53.7524
19.706820878021247 53.3401
19.729418731756834 53.8551
19.752017360452857 53.3722
19.77461676506804 53.5952
19.797393513540218 53.898999999999994
19.819994478951667 54.1551
19.84259622316767 54.5481
19.8651987471481 54.9926
19.887978643247177 55.2561
19.91058273574792 55.4335
19.933187610901943 56.3745
19.955969879466828 57.4076
19.97857632894404 58.6389
20.00118356396599 60.2828
20.023791585494575 62.2221
20.046577028914875 64.7377
20.069186632506966 67.166
20.091797025500632 68.9039
20.114408208858933 69.6185
20.137196842715273 69.5869
20.159809615886765 68.1583
20.18242318232135 65.7796
20.20503754298326 63.7337
20.227829382875154 62.6717
20.250445341109344 62.4102
20.27306209647285 62.9946
20.29567964993108 63.8423
20.31847471147704 65.0021
20.34109387027612 65.634
20.363713830075454 65.4573
20.386334591841646 64.4226
20.409132890679302 62.2421
20.431755265564437 59.1666
20.454378445325528 56.2156
20.477002430930366 54.1468
20.499803982716553 52.9768
20.522429589228004 52.0328
20.54505600449589 51.4879
20.567683229489194 51.2743
20.590488049900088 50.8925
20.61311690359731 50.5756
20.63574656993626 50.2697
20.658553853717297 49.8271
20.681185154618298 49.8212
20.703817271080066 49.7593
20.72645020407368 49.4065
20.749260783967177 49.3329
20.771895359337133 49.3801
20.794530754161617 49.2686
20.817166969412938 49.2821
20.83998086114876 49.0933
20.86261872660049 48.8146
20.885257415405402 48.8554
20.90789692853701 48.8007
20.930714147864748 48.7722
20.953355319030678 48.8005
20.97599731745334 48.8678
20.99864014410749 48.757
21.021460706796564 48.5862
21.044105199328826 49.0157
21.06675052302631 49.2435
21.089396678865015 49.4146
21.112220600704806 49.6766
21.134868430275347 50.036
21.15751709492456 50.3741
21.180166595629693 50.4047
21.202993892429635 50.7589
21.22564507473034 51.2251
21.24829709602816 51.4343
21.27112693608965 51.3906
21.293780644891275 51.4538
21.316435195634053 50.9736
21.339090589297417 50.3234
21.361923832041875 49.8034
21.384580921090404 49.2039
21.407238856007325 48.7987
21.429897637773326 48.6947
21.45273429906592 48.6557
21.475394784108598 48.5248
21.498056118951983 48.4475
21.520718304578022 48.7605
21.543558400304388 48.9264
21.566222297108816 48.9213
21.58888704765135 48.9367
21.61155265291521 49.4033
21.63439619898156 49.8124
21.657063523335786 50.0215
21.67973170537063 50.4813
21.7024007460706 50.893
21.72524775840385 51.6691
21.747918526116475 52.5203
21.770590155457388 53.6985
21.79326264741238 55.2398
21.816113141960237 56.9286
21.838787368860547 59.128
21.861462461341976 60.7744
21.884315579735777 62.813
21.90699241312273 64.0279
21.92967011506078 64.6328
21.95234868653799 64.5147
21.9752053151131 63.3997
21.997885635446785 61.7718
22.020566828293532 59.9902
22.04324889464272 58.3699
22.066109049404666 57.0464
22.088792872571794 56.3603
22.111477572219204 56.3037
22.1341631493376 56.2544
22.157026846313123 56.098
22.179714188221507 55.4703
22.202402410582668 54.6351
22.22509151438863 53.2297
22.24795876962584 51.8781
22.270649646204486 50.8617
22.293341407213727 50.1341
22.316034053646906 49.57899999999999
22.338904883215342 49.4749
22.36159931041458 49.2987
22.38429462602756 49.2709
22.40699083104897 49.1926
22.429865251039757 49.1913
22.452563244831367 49.2691
22.47526213102522 49.2458
22.49813925616515 49.0352
22.520839937143307 48.7361
22.543541513520587 48.7995
22.56624398629403 48.6562
22.589124730075895 48.6274
22.611829005656723 48.7983
22.63453418063466 48.7041
22.657240256008077 49.047
22.680124634582935 49.0609
22.70283252079775 49.4029
22.725541310413075 49.6259
22.74825100442868 49.8201
22.771139033969575 50.3808
22.79385054687155 50.5946
22.81656296718292 51.2226
22.83927629590484 52.0844
22.862167992606945 53.1317
22.88488314827121 54.1943
22.907599215359284 55.1298
22.93031619487366 56.2917
22.953211574954405 57.0198
22.975930389478226 57.7776
22.998650119445763 58.2503
23.02137076586092 57.6366
23.044269845560063 56.5296
23.06699233506288 55.0312
23.089715744034912 53.2178
23.112617610931565 51.718
23.135342869061212 50.3903
23.158069049684816 49.6541
23.1807961538087 49.1361
23.20370174880544 49.0595
23.226430710184808 49.001000000000005
23.249160598093425 49.0037
23.271891413539002 48.933
23.294800752937697 48.9438
23.31753343374794 49.1584
23.340267045128353 49.32
23.36300158808808 49.6089
23.38591468821339 49.9376
23.408651104658304 50.2342
23.431388455719986 50.8851
23.454126742409 51.6151
23.4770436196085 52.7681
23.499783787914662 53.9506
23.522524894889884 54.7774
23.54526694154616 55.854
23.56818761219047 57.138000000000005
23.59093154860734 57.5009
23.613676427751283 57.9354
23.636422250635754 57.3068
23.659346731118656 56.0466
23.68209445191868 54.2196
23.704843119509587 52.0911
23.72759273490623 50.0728
23.750521041644767 48.6154
23.77327256312355 47.6672
23.796025035462787 46.9423
23.818956224555475 46.365
23.841710609113413 46.2491
23.86446594758979 46.1562
23.887222241002014 45.8429
23.910157285144578 45.354
23.932915498962537 45.3918
23.955674670778713 45.3268
23.978434801611975 45.0654
24.001373717286125 44.9381
24.024135776723917 44.8944
24.046898798245582 44.7803
24.06966278287146 44.5288
24.092605586582614 44.3612
24.115371508023642 44.4169
24.1381383956401 44.1838
24.16090625045381 44.1586
24.183852958731244 44.1857
24.206622758582608 44.0585
24.229393528706886 43.9851
24.252165270127392 43.9022
24.27511589952438 43.8704
24.297889594216997 43.5309
24.32066426328598 43.3906
24.34343990775613 43.5299
24.36639447485003 43.3956
24.38917208083877 43.2321
24.41195066531332 43.4078
24.43490819850244 43.2762
24.457688750692377 43.2038
24.48047028445616 42.9998
24.503252800821233 43.26
24.526214300784112 43.248999999999995
24.548998793132213 43.2715
24.57178427117417 43.1661
24.59457073593893 43.1342
24.617536219319863 43.128
24.64032466834748 42.9955
24.663114107195035 43.028999999999996
24.685904536893013 42.7287
24.708874020360852 42.5808
24.731666442613744 42.5389
24.754459858818787 42.6382
24.777254270007962 42.4908
24.80022777025625 42.5132
24.82302418230472 42.4086
24.845821592443674 42.4815
24.86862000170663 42.3698
24.891597535453727 42.251999999999995
24.914397953892728 42.3742
24.93719937456671 42.3301
24.96000179851076 42.4853
24.98298338249997 42.5526
25.00578782394922 42.967
25.028593271784167 42.9108
25.05157790644186 43.3365
25.07438537804115 43.5913
25.097193859145293 43.6097
25.120003350792075 43.8221
25.142992065061257 44.1508
25.165803588823465 44.5299
25.18861612625217 44.6671
25.211429678386736 44.6746
25.234422489079968 44.9976
25.257238081693636 44.8619
25.280054692141732 45.1485
25.3028723214652 44.963
25.325869245420463 45.1222
25.348688923599397 45.0371
25.371509623787006 45.0736
25.394331347025812 44.763999999999996
25.41733240110666 44.408
25.440156181590016 43.9083
25.46298098826268 43.2779
25.48580682216873 42.7528
25.50881202326435 42.1738
25.53163992281684 41.765
25.55446885274561 41.4125
25.577298814096377 41.1482
25.600308179121807 41.0113
25.623140214533745 41.0298
25.64597328451537 40.8713
25.66898578564376 40.5676
25.691820936010206 40.7114
25.714657124097695 40.7441
25.737494350954734 40.8927
25.760511045684957 40.7032
25.783350361364224 40.7755
25.806190718969255 40.7386
25.82903211955018 40.861
25.852053024868923 40.7979
25.874896522722523 40.8512
25.897741066713106 40.7936
25.920586657892454 40.8331
25.943611790812668 40.8736
25.966459487728237 41.0833
25.989308234998564 41.2001
26.01215803367705 41.4826
26.03518741123814 41.6977
26.05803932412957 41.7377
26.080892291600094 41.7015
26.10374631470478 41.6166
26.12677995397268 41.7189
26.14963609978026 41.7463
26.172493304397875 41.5333
26.19535156888223 41.3606
26.218389486949604 40.9522
26.241249882640123 40.7768
26.26411134137826 40.5865
26.28715248187403 40.5197
26.31001607820869 40.4212
26.3328807407756 40.1667
26.35574647063438 40.3582
26.37879191991473 40.1919
26.401659795896734 40.1546
26.424528742360263 40.3226
26.447398760366614 40.6589
26.470448535598294 40.7396
26.49332070826805 40.9854
26.516193955675355 41.2461
26.53906827888316 41.4198
26.562122397260108 41.498000000000005
26.584998883685063 41.9293
26.607876449110325 42.0056
26.63075509460056 42.2554
26.65381357334404 42.3291
26.67669439061878 42.3908
26.699576291163382 42.2682
26.722459276044212 42.1072
26.745522132402975 41.9368
26.768407297649354 41.6662
26.791293550442003 41.2965
26.814180891848974 41.0092
26.837248143099337 40.8428
26.860137673466657 40.6039
26.88302829566349 40.3877
26.90592001075963 40.3752
26.92899167420566 40.1472
26.951885586870763 39.7732
26.974780595655517 39.5064
26.99785558178161 39.3737
27.020752794605112 39.1041
27.043651106772522 38.9499
27.06655051935668 39.0353
27.089629948036183 38.8703
27.112531573292053 38.7435
27.135434302194138 38.9105
27.158338135817015 38.6868
27.181422024430987 38.6929
27.204328079372566 38.675
27.22723524226965 38.7067
27.250143514198573 38.7122
27.273231880156334 38.6855
27.296142382065014 38.6397
27.319053996245536 38.5383
27.341966723775965 38.6309
27.365059584515222 38.6292
27.38797455070062 38.6777
27.410890633481237 38.6519
27.433807833936918 38.5273
27.456905206923906 38.6151
27.47982465472398 38.7377
27.502745223449743 38.7321
27.525666914182825 38.909
27.548768816912457 38.8671
27.571692763693633 38.6572
27.59461783573812 38.5099
27.617723149491244 38.4403
27.640650484125285 38.341
27.66357894728264 38.2999
27.686508540048052 38.1899
27.709618414237887 38.1575
27.732550278321757 38.0362
27.755483275279115 37.8569
27.778417406196485 37.982
27.801531858397514 38.0908
27.824468269376716 38.0728
27.847405817586786 38.0105
27.870344504116094 38.1287
27.893463551932008 38.2508
27.916404527281053 38.4675
27.93934664422563 38.6232
27.962289903855886 38.6472
27.98541356491974 38.8169
28.00835912214229 38.8042
28.03130582533231 39.2157
28.054253675581805 39.1364
28.077381967556104 39.2189
28.100332124185126 39.311
28.123283431160893 39.1715
28.146235889577238 38.9278
28.169368830154156 38.7828
28.192323603752033 38.7616
28.215279532083304 38.404
28.238415973016764 38.1949
28.261374223145094 38.0537
28.284333631303806 37.8369
28.307294198589954 37.6639
28.330435319167677 37.3938
28.353398217078915 37.1762
28.376362277420153 36.9306
28.39932750129032 36.795
28.422473319286713 36.5922
28.44544088262495 36.601
28.468409612800283 36.3627
28.491379510913497 36.183
28.51453004413313 36.0584
28.53750229057244 36.0572
28.56047570826344 35.9085
28.583450298308804 36.0615
28.606605564586562 35.9052
28.629582511831156 35.8995
28.65256063474956 35.8629
28.675539934446338 35.8483
28.698699951647605 35.8259
28.72168161743193 35.578
28.74466446331978 35.6836
28.767648490417624 35.6335
28.790813276438353 35.6055
28.813799678527303 35.5953
28.836787265157085 35.6173
28.859955641890075 35.6036
28.882945610203045 35.6308
28.905936766392035 35.5185
28.928929111566863 35.5518
28.952102288520145 35.4748
28.975097024308607 35.2659
28.998092952423807 35.2262
29.021090073977508 35.1766
29.04426806913204 35.0044
29.067267590245258 34.7999
29.090268308143695 34.7606
29.11327022394099 34.6707
29.13645305530891 34.5279
29.159457379627167 34.6694
29.18246290519685 34.5685
29.20546963313352 34.579
29.22865731875826 34.5331
29.25166646419296 34.4047
29.27467681535305 34.366
29.29768837335608 34.4322
29.320880931312562 34.4531
29.34389491580634 34.3806
29.366910110507334 34.38
29.38992651653503 34.4006
29.41312396492981 34.4253
29.436142806456754 34.3443
29.45916286268059 34.2178
29.48236399319994 33.9566
29.50538649169417 33.9385
29.528410208259935 33.8398
29.55143514402014 33.6777
29.574641196749695 33.6222
29.597668583816574 33.4359
29.6206971934585 33.2469
29.64372702680042 33.4652
29.666938019934474 33.3405
29.689970313635285 33.2662
29.713003834422636 33.1522
29.73603858342347 33.0312
29.759254535188578 33.0047
29.78229175361658 32.909
29.80533020365064 32.9141
29.82836988641968 32.9999
29.85159081507472 32.9876
29.874632976355343 32.9073
29.89767637376955 32.9261
29.920721008448314 32.7605
29.9439469322847 32.7876
29.96699405457564 32.7001
29.9900424175358 32.6723
30.013092022298157 32.5088
30.03632295963995 32.6154
30.059375061131373 32.717
30.08242840783577 32.6846
30.105483000888153 32.7365
30.128718970092244 32.6102
30.151776069006917 32.562
30.17483441768648 32.5389
30.198074175317235 32.5284
30.221135036724256 32.5392
30.24419715131772 32.4847
30.267260520236203 32.4796
30.290505341942243 32.4733
30.313571232750228 32.5432
30.336638381310948 32.4449
30.35970678876503 32.4002
30.38295669299435 32.2986
30.40602763151657 32.3336
30.429099832366074 32.2692
30.452173296685572 32.1975
30.47542830191959 32.2235
30.498504306502497 32.1394
30.521581577995562 32.2505
30.544660117543582 32.2743
30.56792024229725 32.2513
30.59100133132069 32.2997
30.614083691845494 32.2393
30.637167325018545 32.4188
30.660432587840603 32.4868
30.683518779717886 32.3478
30.70660624769615 32.3757
30.729694992924372 32.4102
30.75296541239743 32.369
30.77605672557558 32.2916
30.799149319462742 32.3066
30.8224236211637 32.2371
30.845518789950724 32.0247
30.868615242910597 31.9382
30.891712981195973 31.7743
30.91499247215866 31.7179
30.938092794619365 31.7796
30.96119440587579 31.5657
30.984297307082752 31.5105
31.00758200598383 31.4708
31.030687500658694 31.3845
31.053794288760695 31.3527
31.076902371446767 31.2697
31.100192296997445 31.2807
31.12330298246119 31.2013
31.14641496599209 31.0191
31.169528248749216 31.1099
31.19282341969534 31.0592
31.215939314557186 31.0375
31.239056512134788 31.0977
31.262175013589378 31.1131
31.28547544871168 31.1354
31.30859657161541 31.0417
31.331719001892175 30.8978
31.35484274070538 31.1311
31.378148458819545 31.0551
31.401274828443725 31.0111
31.424402510106933 31.0363
31.447712205419993 31.104
31.470842524931633 30.891
31.493974159989783 30.9186
31.51710711176168 30.8695
31.54042212308802 31.0472
31.563557722100917 30.8355
31.586694641341655 30.8083
31.609832881979628 30.7435
31.63315322823208 30.6906
31.656294125521327 30.5014
31.679436347728515 30.5239
31.70257989602529 30.4158
31.725905596152327 30.3197
31.74905181052835 30.2824
31.772199354521323 30.3571
31.79534822930507 30.2638
31.818679302290967 30.2676
31.84183085259981 30.3
31.864983737233473 30.2644
31.88813795736804 30.3248
31.911474422233013 30.2093
31.934631327356435 30.2052
31.9577895715215 30.1659
31.980949155906522 30.1284
32.004291031706956 30.1869
32.027453310562606 30.0677
32.05061693318573 29.9899
32.07396288236386 29.9848
32.09712920658542 29.9218
32.12029687812702 29.885
32.14346589817093 29.7168
32.166817291729984 29.6806
32.18998902288583 29.6331
32.21316210610336 29.5505
32.23633654256711 29.3913
32.259693399663725 29.3338
32.282870556771144 29.3692
32.30604907069099 29.2729
32.329228942610065 29.2608
32.35259128243769 29.0253
32.375773884550505 29.1929
32.398957848235646 29.0138
32.422143174682176 28.9397
32.445511016471215 28.9031
32.468699082679954 28.9133
32.49188851523011 28.8047
32.51507931531304 28.8323
32.538452678331 28.808000000000003
32.56164622776311 28.6351
32.58484114831493 28.6038
32.60803744118015 28.5428
32.631416344731896 28.5822
32.654615396551876 28.5872
32.67781582427913 28.5971
32.701198898634416 28.4635
32.72440209253756 28.3692
32.747606665947124 28.4231
32.77081262006088 28.245
32.79420126883317 28.2067
32.81740999876112 28.3114
32.840620112999424 28.2451
32.86383161274818 28.1583
32.88722585534586 28.1979
32.91044014056596 28.1386
32.933655814909734 28.0535
32.95687287957963 28.0362
32.98027273544904 28.0326
33.00349259526636 27.9666
33.026713849030116 28.0615
33.04993649794511 28.0463
33.073341986570746 27.9145
33.09656744032826 27.9702
33.11979429286444 27.8722
33.14302254538647 27.840999999999998
33.166433686291185 27.8016
33.18966475336992 27.8094
33.212897224069096 27.7485
33.23613109959831 27.8954
33.259547912343415 27.7043
33.2827846121627 27.8132
33.306022720453775 27.6338
33.32926223842861 27.5098
33.352684742614166 27.4569
33.37592709463173 27.3983
33.399170859982064 27.3514
33.422597648419426 27.3442
33.44584425514446 27.3393
33.46909227885668 27.301
33.4923417207723 27.1276
33.51577423505344 27.1257
33.539026528130385 27.0225
33.56228024307245 27.0089
33.585535381098246 26.8522
33.60897364093058 26.9419
33.63223163992385 26.8873
33.6554910656699 26.8162
33.678751919389796 26.7666
33.702195944520106 26.7904
33.72545966903325 26.8034
33.74872482519663 26.6582
33.771991414233746 26.6498
33.79544122444841 26.6922
33.81871069412428 26.5211
33.84198160035767 26.5198
33.86525394437455 26.5354
33.88870955949969 26.4019
33.911984794020626 26.4303
33.93526147001624 26.4337
33.958539588715006 26.4266
33.98200102861669 26.2705
34.0052820477047 26.0979
34.02856451319451 26.1918
34.05203033759056 26.1291
34.07531571090147 26.1451
34.09860253431845 26.0991
34.121890809074316 25.9922
34.145362493118924 26.0662
34.16865368561615 25.9811
34.191946333164054 25.8951
34.21524043699793 25.9141
34.23871800066799 25.9079
34.26201503218366 25.7958
34.28531352370466 25.6929
34.30861347646881 25.7145
34.33209693978188 25.647
34.3553998301885 25.624000000000002
34.378704185565205 25.5786
34.402010007152356 25.5452
34.42549939016683 25.5346
34.44880815937748 25.4368
34.472118398533134 25.4478
34.49543010887669 25.4011
34.51892543169198 25.2282
34.54224009966052 25.2218
34.56555624255917 25.2681
34.58887386163339 25.1399
34.61237514439016 25.0782
34.6356957311114 25.031
34.65901779775809 25.0783
34.68252356662995 25.0567
34.705848608458616 25.0754
34.72917513396849 25.0231
34.75250314440949 24.9628
34.77601490857862 24.8753
34.799345904259795 24.7838
34.82267838863559 24.7881
34.846012362958525 24.8739
34.869530142679984 24.7998
34.89286711232212 24.7225
34.91620557568269 24.6736
34.93954553401677 24.6591
34.9630693495876 24.6026
34.986412313340814 24.7122
35.00975677584668 24.6763
35.033102738362956 24.5609
35.05663261012228 24.4993
35.0799815881786 24.425
35.10333207003229 24.4149
35.12668405694369 24.351
35.150220005273056 24.3554
35.17357501786656 24.336
35.19693153931268 24.2486
35.220289570874385 24.2281
35.24383161619786 24.2781
35.267192683604904 24.2308
35.290555264930376 24.1975
35.314101899412165 24.201
35.33746752422433 24.1201
35.36083466676374 24.1676
35.38420332829803 24.0741
35.407756095629054 24.0555
35.43112781085063 24.1175
35.45450104888391 24.0276
35.477875810999194 24.0043
35.50143473172161 23.9942
35.52481255774625 24.0349
35.54819191167777 23.915
35.57157279478914 23.8963
35.595137889488406 23.801
35.61852184675279 23.7782
35.641907337029984 23.7583
35.665294361595684 23.7218
35.68886565090076 23.64
35.7122557598848 23.6473
35.73564740699838 23.6329
35.759040593519934 23.5784
35.78261809810353 23.6258
35.80601437933051 23.4349
35.829412203814705 23.3739
35.85281157283719 23.2961
35.876395313415884 23.3701
35.8997977874528 23.3076
35.92320180988546 23.2764
35.946790244133936 23.186
35.97019737933222 23.2308
35.993606066789866 23.2375
36.01701630779276 23.2533
36.04061101440684 23.0697
36.06402437852291 23.1674
36.08743930005611 23.1686
36.1108557802951 22.9646
36.13445678011326 22.9212
36.15787639383515 22.9512
36.18129757014299 22.9761
36.20472031032821 22.8946
36.22832762423364 22.8372
36.25175350829375 22.8281
36.275180960119776 22.7591
36.298609981005924 22.7049
36.32222362992669 22.7588
36.34565580510207 22.6426
36.36908955323448 22.6896
36.39252487562093 22.554000000000002
36.416144880530226 22.5805
36.43958336764275 22.5642
36.463023432914625 22.5846
36.486465077645676 22.5216
36.51009145956204 22.5812
36.53353627947859 22.4989
36.55698268276811 22.4425
36.58043067073321 22.4221
36.60406345072071 22.3282
36.62751462435344 22.3179
36.65096738658405 22.3614
36.67460498210655 22.2605
36.69806093788647 22.1831
36.72151848619297 22.1406
36.744977628333636 22.1517
36.76862165890998 22.0603
36.79208400512205 22.0681
36.81554794910557 22.058000000000003
36.83901349217101 21.9387
36.862663978991606 22.0101
36.88613273667352 21.948
36.90960309738324 21.8841
36.933075062434064 21.8537
36.95673202673572 21.8248
36.98020721697122 21.7728
37.003684015502365 21.7075
37.027162423645365 21.7284
37.050825886711465 21.7325
37.07430753063053 21.642
37.09779078812467 21.6031
37.121275660513014 21.5417
37.144945643673694 21.5965
37.16843376245278 21.5964
37.19192350009803 21.5082
37.215414857931435 21.4487
37.239091382563885 21.4137
37.262585997426164 21.3702
37.28608223645736 21.3422
37.309763684451696 21.4046
37.33326318851098 21.3353
37.356764320726555 21.2436
37.380267082425526 21.2634
37.40395510942588 21.2276
37.42746114683234 21.1154
37.45096881771841 21.0533
37.474478123414166 21.123
37.49817275092816 21.105
37.52168534303452 21.0173
37.54519957395567 20.9527
37.568715445024665 20.9442
37.592416694607714 20.9256
37.61593586281424 20.8805
37.63945667518264 20.9185
37.66297913304891 20.8298
37.68668702630454 20.8188
37.710212792059274 20.7101
37.733740207334854 20.7348
37.757269273470364 20.6762
37.780983832050374 20.6213
37.80451621684926 20.6323
37.82805025654007 20.6457
37.851585952464795 20.6153
37.8753071980695 20.5106
37.89884622345676 20.3954
37.92238690911902 20.3802
37.94611318753442 20.3676
37.969657210779765 20.3832
37.99320289834801 20.3392
38.016750251586465 20.2948
38.04048325513017 20.2037
38.06403395679343 20.2299
38.087586328183946 20.2282
38.11114037065203 20.1515
38.13488012115898 20.1809
38.1584375229181 20.1386
38.181996599821 20.0338
38.205557353221124 20.002
38.229303872575656 20.0638
38.2528679961576 20.0832
38.27643380031219 19.9657
38.30000128639589 19.9164
38.32375459653193 19.9312
38.34732546371299 19.8985
38.37089801690786 19.8214
38.39447225747609 19.7725
38.418232380377425 19.7383
38.441810012983396 19.7386
38.46538933705673 19.7442
38.488970353960084 19.7118
38.51273731166058 19.6424
38.536321731567014 19.6275
38.55990784840681 19.527
38.58367995004091 19.5407
38.60726947812959 19.5183
38.63086070726198 19.511
38.654453638806274 19.4532
38.678232613930824 19.4202
38.70182896773327 19.4083
38.72542702806741 19.395
38.7490267963045 19.3333
38.77281266709232 19.2979
38.79641586862214 19.3114
38.8200207821842 19.2433
38.843627409152944 19.2344
38.86742019782782 19.2739
38.891030269149255 19.2027
38.914642058016156 19.0927
38.938255565806124 19.0876
38.96205529464307 19.1364
38.98567225787121 19.0133
39.00929094417078 18.9561
39.03291135492255 18.9908
39.05671804624804 18.9936
39.080341923549106 18.8916
39.103967529460334 18.8766
39.127594865365744 18.7944
39.15140854155791 18.7752
39.17503935514948 18.8328
39.19867190290282 18.8068
39.22249083587951 18.7376
39.24612686969409 18.7268
39.269764641845306 18.7285
39.293404153722804 18.6933
39.317230110864074 18.5671
39.34087311998506 18.5837
39.36451787301696 18.5692
39.388164371352595 18.53
39.41199737518003 18.4836
39.43564738196752 18.4513
39.45929913825317 18.4165
39.48295264543308 18.4057
39.506792718520884 18.2821
39.530449745387216 18.3291
39.55410852735203 18.3427
39.57776906581474 18.3305
39.60161623079 18.2655
39.625280300200025 18.2449
39.64894613032202 18.18
39.67261372255866 18.1593
39.6964680021016 18.1579
39.72013913657293 18.1531
39.74381203738292 18.1781
39.76748670593756 18.063
39.79134812278169 18.0882
39.81502634488497 18.047
39.83870633896685 17.9793
39.862388106436654 17.9507
39.88625668336918 17.9028
39.90994201572829 17.929000000000002
39.933629125719285 17.8717
39.957503091207826 17.8199
39.9811937746168 17.8396
40.00488623990914 17.7238
40.02858048850006 17.7651
40.05246165409549 17.7726
40.076159487492085 17.6828
40.099859108448875 17.7057
40.123560518384345 17.6252
40.1474489070226 17.6399
40.171153913178564 17.5157
40.194860712584955 17.4827
40.2185693066637 17.5382
40.242464941335314 17.4405
40.26617714307655 17.4214
40.289891143772046 17.4093
40.3136069448471 17.3402
40.33750984859743 17.3607
40.3612292688043 17.3647
40.3849504936829 17.3128
40.40867352466194 17.3234
40.43258372059144 17.2732
40.45631038219906 17.2685
40.48003885420956 17.1933
40.503769138055105 17.2064
40.52768664931955 17.2183
40.55142057531802 17.2081
40.57515631746428 17.1528
40.599079334038514 17.0905
40.62281872700477 17.0487
40.64655994043941 17.0212
40.67030297578061 17.0538
40.69423334835778 17.0501
40.71798004609188 16.9642
40.74172857006355 16.8976
40.76547892171441 16.9145
40.7894166736039 16.8966
40.813170699248566 16.8664
40.83692655691388 16.7748
40.86068424804498 16.8251
40.884629402612525 16.7766
40.908390779366385 16.7212
40.932153993938 16.7046
40.95591904777605 16.6025
40.979871628443995 16.6858
41.003640379561936 16.7415
41.02741097430883 16.667
41.05118341413683 16.5672
41.075143444384416 16.5477
41.098919593177826 16.5626
41.1226975914255 16.5113
41.14647744058318 16.4218
41.170444943946755 16.3908
41.19422851378379 16.4085
41.218013938914645 16.3895
41.24198706625173 16.3463
41.26577622087193 16.347
41.289567235177785 16.3374
41.31336011063129 16.278
41.337340752422875 16.2425
41.361137369129835 16.2085
41.38493585138705 16.1797
41.40873620066004 16.1469
41.43272438060107 16.1345
41.45652848292052 16.0858
41.48033445666918 16.055999999999997
41.50414230331616 16.029
41.528138045159764 16.0245
41.551949656675205 15.9749
41.575763145513235 15.943
41.59957851314666 15.9421
41.62358184070442 15.9253
41.64740098505737 15.8699
41.6712220126409 15.8789
41.69504492493139 15.8098
41.71905586207357 15.8383
41.74288256296395 15.7662
41.766711153007456 15.7329
41.79054163368412 15.7194
41.814560204340054 15.6871
41.838394485526365 15.7277
41.86223066180303 15.630999999999998
41.88625497706819 15.6278
41.910094962812 15.595999999999998
41.93393684811168 15.599
41.95778063445365 15.4914
41.981812625263366 15.5098
42.00566023303407 15.4807
42.029509746323676 15.5036
42.05336116662236 15.475
42.077400857069705 15.4632
42.10125611078846 15.4369
42.12511327600405 15.3756
42.14897235421036 15.3176
42.173019768448455 15.317
42.19688269209613 15.2607
42.22074753323349 15.2516
42.24461429335818 15.2563
42.268669455600495 15.2391
42.292540073217886 15.1949
42.31641261433284 15.175999999999998
42.34028708044675 15.1552
42.36435001496739 15.1074
42.38822835065557 15.1631
42.41210861586426 15.1061
42.4359908120986 15.0405
42.46006154323262 15.0476
42.48394762115317 14.9925
42.507835634632315 15.0156
42.531912233047436 14.9779
42.55580413732265 14.8784
42.579697981698 14.8407
42.60359376768525 14.8834
42.62767820545945 14.8838
42.65157789440821 14.8069
42.67547952952185 14.7692
42.699383112316 14.7974
42.72347541395347 14.7305
42.74738291190531 14.6831
42.771292362102166 14.7256
42.795203766063516 14.6625
42.819303956130405 14.633
42.843219287476536 14.5849
42.86713657716324 14.529000000000002
42.89105582671383 14.5477
42.91516392983864 14.5428
42.939087119032166 14.4928
42.963012272677304 14.4976
42.98693939230129 14.4864
43.01105543317513 14.4478
43.034986504731386 14.4464
43.05891954686589 14.3408
43.08285456110972 14.3507
43.10697856448665 14.2898
43.130917542983475 14.300999999999998
43.15485849820081 14.3138
43.17880143167367 14.2202
43.20293342237094 14.2323
43.226880332449 14.2474
43.25082922540554 14.2047
43.27496722682525 14.2044
43.29892010567796 14.1288
43.32287497204102 14.107000000000001
43.34683182745632 14.0541
43.370977859791836 14.0258
43.39493871351105 14.0233
43.41890156092628 14.0233
43.44286640358341 13.9951
43.46702049182749 13.9952
43.49098934522816 13.9443
43.51496019852649 13.9061
43.5389330532723 13.883
43.56309522248204 13.889000000000001
43.58707210044314 13.8818
43.61105098451946 13.8153
43.63503187626491 13.7887
43.659202151562134 13.7878
43.68318707902681 13.8216
43.70717401884041 13.7075
43.731162972560874 13.6526
43.75534137913236 13.6643
43.779334381108384 13.6798
43.803329401683186 13.6587
43.82732644241872 13.6033
43.8515130055166 13.6048
43.87551410707659 13.5379
43.89951723350145 13.5611
43.923709934595614 13.5467
43.94771713129917 13.5036
43.97172635758096 13.5088
43.99573761501002 13.5315
44.0199385169922 13.4138
44.04395385732619 13.4501
44.067971233533086 13.4329
44.09199064718605 13.3392
44.11619977548961 13.3123
44.14022328470671 13.3016
44.16424883610785 13.3154
44.18827643127035 13.3015
44.21249381139513 13.2239
44.236525514814076 13.2098
44.26055926674478 13.1957
44.28459506876863 13.1974
44.3088207262813 13.1296
44.33286064928722 13.1323
44.35690262714919 13.119000000000002
44.38094666145278 13.0861
44.4051806219871 13.0919
44.42922879003185 13.0537
44.45327901929361 12.9712
44.477331311362136 12.9903
44.501573600619416 12.9451
44.525630039221795 12.9411
44.54968854541895 12.9643
44.573937102200176 12.898
44.5979997645541 12.8437
44.622064499300315 12.8533
44.64613130803592 12.8673
44.67038823869318 12.857000000000001
44.69445921643748 12.823
44.718532272981385 12.7903
44.742607409926194 12.7623
44.76687274034801 12.7422
44.79095205918753 12.6903
44.81503346325094 12.6727
44.839116954143876 12.6671
44.86339071028742 12.6642
44.88747839599524 12.6299
44.91156817336837 12.5862
44.93566004401666 12.582
44.959942251908146 12.571
44.984038330325966 12.5221
45.00813650686762 12.4851
45.03223678314731 12.453
45.05652746888232 12.4118
45.08063196592069 12.427999999999999
45.104738567558705 12.4263
45.128847275414856 12.3982
45.15314646515866 12.3451
45.17725940679741 12.3511
45.20137445952892 12.3242
45.22568004865265 12.3356
45.24979934496396 12.2622
45.27392075725247 12.26
45.29804428714431 12.22
45.322358426247604 12.1914
45.346486212804315 12.1907
45.370616121861914 12.1561
45.39474815505086 12.1428
45.41907087049246 12.1183
45.4432071734666 12.0736
45.46734560548283 12.1112
45.49148616817604 12.0729
45.51581748638564 12.0292
45.5399623320197 12.0261
45.56410931325473 12.001
45.58825843173002 12.0057
45.61259837920865 11.9721
45.636751793816 11.9689
45.66090735060093 11.9482
45.68506505120716 11.9029
45.7094136545275 11.87
45.73357566449271 11.8475
45.75773982322992 11.8522
45.78190613238733 11.8611
45.806263418194064 11.7643
45.83043404997326 11.8176
45.85460683713677 11.7528
45.87897065658495 11.7131
45.90314777634752 11.6811
45.92732705646868 11.6899
45.9515084986045 11.7067
45.97588104735473 11.6494
46.00006683541565 11.6265
46.02425479047904 11.5957
46.04844491420549 11.591
46.0728262191024 11.5221
46.09702070211635 11.5494
46.12121735879483 11.5886
46.14541619080294 11.5036
46.169806278764455 11.4698
46.194009483459034 11.4923
46.21821486849841 11.4315
46.24242243555223 11.3865
46.266821333570014 11.4258
46.29103328674601 11.405999999999999
46.31524742696538 11.3551
46.33946375590237 11.332
46.36387149104216 11.3597
46.38809221957392 11.2851
46.41231514186606 11.2913
46.436540259597464 11.2698
46.460956858999374 11.2273
46.48518638983522 11.1961
46.509418121166966 11.1849
46.533652054678114 11.1893
46.55807754555709 11.1624
46.58231590571962 11.1552
46.60655647313217 11.1022
46.630988654873654 11.099
46.655233659129024 11.055
46.67948087571551 11.0436
46.70373030632484 11.0177
46.72817142736393 11.0071
46.752425308428684 10.9905
46.77668140861147 10.9931
46.80093972960865 10.9506
46.82538981736788 10.9348
46.849652602470904 10.9164
46.87391761349769 10.9029
46.8981848521493 10.8663
46.9226439341274 10.8234
46.946915650573224 10.81
46.97118959976749 10.8224
46.99546578341598 10.7826
47.019933887188216 10.7932
47.04421456235744 10.7558
47.06849747711879 10.6948
47.09278263318286 10.6811
47.11725978640143 10.6839
47.14154944775105 10.6592
47.165841355555656 10.6376
47.1901355115306 10.5854
47.214621741924994 10.6182
47.23892041698887 10.6197
47.26322134538975 10.5472
47.28771440635075 10.5327
47.31201986422527 10.5319
47.33632758061436 10.5159
47.360637557241866 10.4657
47.38513974410611 10.4414
47.40945426407847 10.4221
47.43377104948137 10.423
47.45809010204344 10.4023
47.48260144275502 10.3982
47.506925052572285 10.3673
47.53125093475548 10.3539
47.55557909103813 10.3336
47.58009961361992 10.3135
47.60443234110732 10.2736
47.62876734791564 10.2751
47.65310463578333 10.247
47.6776343683373 10.2752
47.7019762413987 10.2214
47.72632040075572 10.218
47.75066684815169 10.1752
47.77520581885936 10.1587
47.799556865477655 10.1185
47.823910205386 10.1302
47.84826584033272 10.1162
47.87281407745551 10.0664
47.89717432569297 10.0969
47.92153687423484 10.0819
47.94609208429692 10.0191
47.97045925671401 10.0037
47.99482873471275 9.99617
48.01920052005013 9.97441
48.04376504619224 9.95839
48.068141469543484 9.94842
48.09252020552573 9.9226
48.11690125590099 9.89553
48.1414751266064 9.88078
48.16586082917454 9.85748
48.19024885144316 9.875919999999999
48.2146391951793 9.81807
48.239222439012764 9.80903
48.26361744916137 9.78311
48.28801478610016 9.765239999999999
48.31241445160131 9.7632
48.337007097209366 9.75018
48.36141144338331 9.72838
48.38581812345755 9.68608
48.41022713920929 9.68063
48.434829215320704 9.68403
48.45924292604658 9.67928
48.48365897780325 9.66257
48.50807737237308 9.62973
48.532688907799276 9.63142
48.55711201168574 9.60075
48.581537463754074 9.55743
48.60615611725119 9.56981
48.63058628942721 9.53112
48.65501881516546 9.53866
48.6794536962573 9.54239
48.70408185970339 9.51625
48.72852147531801 9.47129
48.75296345168211 9.426680000000001
48.77740779059232 9.45282
48.80204549302823 9.45363
48.82649458091802 9.39451
48.85094603676547 9.37935
48.87539986237231 9.3396
48.90004713292306 9.32958
48.92450572200832 9.36696
48.94896668628025 9.33109
48.97343002754588 9.2884
48.99808689542115 9.27493
49.02255501470614 9.26158
49.04702551642794 9.23339
49.0714984023988 9.22751
49.096164896893235 9.21217
49.120642575466796 9.204889999999999
49.145122643748394 9.19626
49.16960510355558 9.1381
49.19428125404938 9.13321
49.2187685210852 9.13893
49.243258185121555 9.06495
49.26794160167084 9.07956
49.2924360839405 9.06925
49.31693296869764 9.03825
49.34143225776915 9.006160000000001
49.36612538195438 8.99869
49.39062950396021 8.99717
49.41513603578346 8.99083
49.4396449792564 8.97681
49.46434784069503 8.95503
49.488861631846454 8.895660000000001
49.513377840166804 8.89294
49.537896467493745 8.91156
49.56260909589029 8.85932
49.587132585683285 8.86554
49.611658500018365 8.86085
49.636186840738596 8.829369999999999
49.66090926588511 8.8163
49.685442483902584 8.83175
49.70997813385706 8.75267
49.734516217597076 8.74784
49.75924846937352 8.67924
49.7837914452858 8.70652
49.80833686055187 8.66292
49.83288471702571 8.710560000000001
49.85762682540054 8.68582
49.882179588965734 8.64897
49.9067347993235 8.62575
49.93129245833333 8.62965
49.95604445336378 8.62322
49.98060703442832 8.59643
50.005172069746266 8.577169999999999
50.02993150438364 8.588519999999999
50.05450147301533 8.51804
50.07907390151433 8.47827
50.10364879174981 8.4912
50.12841816587289 8.48059
50.1529980044635 8.48621
50.17758031042124 8.47799
50.20216508562089 8.4747
50.22694442953363 8.45256
50.25153416817468 8.39361
50.27612638170508 8.36887
50.300721072005196 8.3779
50.325510416102105 8.36774
50.350110084975064 8.356160000000001
50.37471223628208 8.38754
50.39931687190919 8.32507
50.424116246675766 8.34217
50.44872587605249 8.29278
50.47333799543065 8.30142
50.49795260670191 8.266160000000001
50.52276204271512 8.22739
50.54738166295838 8.2506
50.57200378079314 8.23099
50.596628398116835 8.2205
50.62144792604559 8.19257
50.646077567609396 8.15393
50.670709714377715 8.15986
50.69553683636198 8.11687
50.72017401885922 8.07509
50.7448137122895 8.0921
50.76945591856022 8.07095
50.79429318636823 8.07665
50.818940443716784 8.070839999999999
50.84359021965163 8.0281
50.868242516085964 8.00601
50.893089960641895 8.0074
50.917747323549435 8.00039
50.94240721271973 7.975510000000001
50.96706963007175 7.93946
50.99192728239342 7.953989999999999
51.01659478166073 7.95788
51.04126481489051 7.881660000000001
51.06593738400761 7.894660000000001
51.090805275207074 7.9204300000000005
51.11548294172845 7.8565
51.14016314993547 7.842289999999999
51.164845901758845 7.8307899999999995
51.18972406304274 7.81385
51.21441192780656 7.8071399999999995
51.23910234200271 7.7847800000000005
51.2637953075678 7.76812
51.288683770237945 7.747380000000001
51.31338186432707 7.713610000000001
51.33808251561888 7.718889999999999
51.362978729967345 7.708189999999999
51.387684521509755 7.6924600000000005
51.41239287610203 7.6550199999999995
51.437103795691165 7.6081
51.46201036644977 7.622380000000001
51.486726441956634 7.59957
51.51144508832545 7.60014
51.536166307509156 7.6200399999999995
51.56108326624387 7.57857
51.58580965706056 7.5301100000000005
51.61053862657523 7.54825
51.635270176746864 7.512580000000001
51.66019755512065 7.53822
51.68493429268881 7.4844
51.70967361681515 7.50305
51.73441552946465 7.4866600000000005
51.759353359237934 7.4806
51.7841004750961 7.4330300000000005
51.80885018539685 7.4257
51.833602492111254 7.40642
51.8585508051424 7.3661
51.883308330926425 7.356739999999999
51.90806845906181 7.347060000000001
51.932831191525715 7.29038
51.95779001977161 7.332510000000001
51.98255798721516 7.31475
52.00732856494335 7.280989999999999
52.03229530577543 7.24302
52.057071130455945 7.26772
52.081849571391054 7.23504
52.106630630568695 7.22467
52.13160794279417 7.195289999999999
52.15639426492067 7.2164
52.18118321127822 7.208360000000001
52.205974783860896 7.19413
52.23096269971011 7.18088
52.255759551287994 7.13857
52.280559035098186 7.1140300000000005
52.30536115314103 7.07975
52.33035970494467 7.108810000000001
52.35516711807904 7.077660000000001
52.37997717147198 7.04626
52.40478986713005 7.09496
52.42979908731974 7.02375
52.454617094216 7.023610000000001
52.47943774942214 6.9793
52.50426105495102 7.02842
52.529280976059844 7.01807
52.554109609024096 6.956110000000001
52.57894089837482 6.921860000000001
52.60377484613117 6.95131
52.62880550079408 6.94883
52.65364479223379 6.89703
52.67848674816189 6.874630000000001
52.70352547971946 6.89544
52.72837279155837 6.85957
52.753222773982785 6.84771
52.778075429022984 6.84046
52.80312495150885 6.8655
52.827982978797436 6.82912
52.85284368481815 6.79433
52.87770707160767 6.778460000000001
52.90276741793998 6.74798
52.92763619336701 6.75674
52.952507655698504 6.732069999999999
52.977381806977576 6.73688
53.00245301017842 6.7251
53.02733256653592 6.71528
53.052214817996074 6.699260000000001
53.077099766608484 6.63402
53.102181859804446 6.65192
53.127072229988265 6.704330000000001
53.15196530349892 6.628419999999999
53.17686108239249 6.57985
53.20195409881522 6.59432
53.22685531582556 6.60066
53.25175924441303 6.5754600000000005
53.27666588664027 6.54556
53.30176985962693 6.51845
53.3266819565689 6.5294099999999995
53.35159677336455 6.5065
53.376514312083096 6.505240000000001
53.40162927507703 6.53678
53.42655228516116 6.49812
53.45147802340193 6.43571
53.47660125628886 6.43084
53.50153247842639 6.42822
53.52646643496923 6.4527
53.55140312799818 6.3981900000000005
53.576537409691696 6.39015
53.60147960336152 6.40183
53.626424539786164 6.40149
53.65137222105307 6.36181
53.67651758529126 6.33706
53.70147078399681 6.31278
53.72642673383343 6.28394
53.75138543689533 6.29129
53.776541917524526 6.254919999999999
53.801506154876755 6.25441
53.826473151763246 6.2659199999999995
53.851442910284916 6.23956
53.87661054126026 6.19853
53.9015858509782 6.1823
53.92656392866066 6.19779
53.95154477641532 6.16942
53.976723591801296 6.15255
54.00171000771266 6.14405
54.02669920004598 6.17875
54.051691170915745 6.169969999999999
54.076881204886796 6.11514
54.101878760928514 6.13598
54.12687910187696 6.14826
54.152077577768296 6.07409
54.1770835166946 6.05386
54.20209224691339 6.0727199999999995
54.22710377055121 6.0507800000000005
54.25231352511594 6.0549599999999995
54.27733066384342 5.96572
54.30235060239643 5.98533
54.32737334290836 5.9227300000000005
54.35259441062629 5.95248
54.377622783395324 5.90925
54.40265396455061 5.92638
54.42768795623251 5.900440000000001
54.45292037169559 5.84549
54.477960012857906 5.924180000000001
54.50300247099511 5.8782
54.52804774825457 5.85133
54.55329154616743 5.80532
54.57834249018678 5.8028900000000005
54.6033962597977 5.75195
54.6284528571545 5.7823199999999995
54.653708072335164 5.7659
54.67877035378786 5.75491
54.70383546947698 5.68481
54.72890342156389 5.620369999999999
54.7541700889442 5.58325
54.77924374251975 5.62119
54.8043202390049 5.57268
54.82959552413022 5.578930000000001
54.8546777351945 5.5896099999999995
54.87976279569621 5.49704
54.90485070780914 5.57025
54.930137506558005 5.51512
54.95523115074295 5.5222
54.98032765308844 5.502269999999999
55.005427015775496 5.44313
55.03072536339621 5.4310599999999996
55.05583047570572 5.38094
55.080938454927676 5.40712
55.10604930325027 5.387569999999999
55.131359235107396 5.36495
55.15647585066083 5.3267
55.181595341907496 5.3122300000000005
55.20671771104285 5.2588
55.232039262617704 5.27112
55.25716741665048 5.25076
55.28229845518636 5.241230000000001
55.30743238042802 5.2186699999999995
55.33276558731939 5.2109
55.357905315183636 5.19104
55.383047936390035 5.14072
55.40819345314859 5.04929
55.433538351073295 5.0441
55.458689688238415 5.09091
55.483843927614096 5.06246
55.509197623043605 5.007630000000001
55.53435769621134 4.9570099999999995
55.55952067826466 4.95904
55.5846865714265 4.9316699999999996
55.61005202069737 4.93524
55.63522376553902 4.94409
55.66039842818645 4.92319
55.68557601087004 4.85067
55.7109532500271 4.8228
55.73613670233794 4.833819999999999
