TT I
1.2716486653135266 6.662610000000001
1.2939594142134223 6.770580000000001
1.3162702121660406 6.34048
1.3385810600174564 6.31382
1.3608919586137629 6.59927
1.383202908801069 6.26192
1.405513911425503 6.39388
1.4278249673332093 5.99379
1.4501343378461518 6.06275
1.4724455028545926 5.43852
1.4947567236847858 6.57298
1.517068001182951 6.54851
1.5393793361953272 5.74482
1.5616907295681737 5.88788
1.5840021821477681 5.24209
1.60631369478041 4.506819999999999
1.6286252683124185 5.33847
1.6509369035901333 5.4496
1.6732468618895553 5.08076
1.695558623192809 4.616140000000001
1.7178704487808514 4.8354800000000004
1.7401823395001077 5.09544
1.7625012545597203 4.54362
1.7848028405262486 4.32568
1.8071218901122095 4.82704
1.8294236121921872 4.76985
1.8517427996910911 4.76687
1.8740620574440425 4.73487
1.8963639900671978 4.544230000000001
1.9186833908139995 4.70326
1.9409854680117449 4.89656
1.9633050151394713 4.95366
1.9856246367570705 5.2059
2.0079269371922672 4.73566
2.03024671027244 4.8041
2.0525491637446027 5.46854
2.074869091674931 4.96615
2.097171701569106 4.33753
2.1194917877373847 4.27882
2.141811954326636 5.05626
2.164114805233074 4.72869
2.186435135143035 5.68577
2.208738150935709 8.35438
2.231058647554722 12.5948
2.2533792288321184 9.806939999999999
2.275682498336085 6.608860000000001
2.298003251406138 5.86855
2.3203066942619714 5.258780000000001
2.3426276225136022 5.6311
2.3649486396617507 5.72282
2.387252348930071 5.990530000000001
2.4095735463442893 6.0879199999999996
2.4318774374315884 6.60035
2.4541988185014043 7.03273
2.476502894794693 7.79667
2.498824462909887 7.1243300000000005
2.521146125856138 7.4770199999999996
2.5434504863470337 7.453010000000001
2.5657723414244717 7.877730000000001
2.588076895590662 8.72044
2.610398946189713 8.875869999999999
2.6327210958598384 8.54847
2.6550259469304716 8.6211
2.6773482972090137 8.75918
2.6996533504259 8.863439999999999
2.7219759047039602 9.0029
2.744298562293959 8.52965
2.7666039251246595 8.50549
2.7889267918020164 8.324060000000001
2.8112323652516555 8.475610000000001
2.833555444408179 8.45764
2.8558786311183852 8.17897
2.8781845268938557 8.38465
2.9005079311721484 9.10174
2.9228140460410397 9.29878
2.9451376712799635 9.50044
2.967444008632326 9.9048
2.9897678582247247 10.3371
3.0120918213106695 10.2979
3.0343984987899373 10.8812
3.0567226913198637 11.5863
3.079029599759726 11.4914
3.101354025127254 12.342
3.123678568232338 12.9626
3.145985829517914 13.4004
3.16831061055229 13.6564
3.1906181112775593 14.5965
3.212943133635653 15.1864
3.2352682779763207 15.1777
3.2575761442691227 15.3242
3.2799015350264273 15.7535
3.302209649240067 16.6183
3.3245352898092655 16.9683
3.3468436553365257 16.9937
3.369169549113219 17.5437
3.3914955708171384 18.8017
3.413804319727358 18.6231
3.4361305997334863 18.7908
3.4584396084414553 19.5869
3.4807661501462652 20.6088
3.503092824025881 20.7299
3.5254022288463154 21.1093
3.5477291695206588 21.4854
3.5700388426251948 21.9882
3.5923660534916446 23.2068
3.6146934007816114 28.6634
3.637003482731501 43.9937
3.6593311053109985 47.4578
3.681641464033634 34.2228
3.7039693653009733 26.3065
3.726297407241705 25.1143
3.7486081875460804 24.9202
3.7709365132734978 25.4811
3.793247578841633 26.2457
3.8155761917550093 26.2561
3.8378875459837216 27.1317
3.8602164494827234 27.2559
3.882545499606844 28.1432
3.9048572932539183 28.36
3.9271866390645718 28.6487
3.9494987298666713 29.4836
3.971828374764527 29.8066
3.9941581705403255 30.3863
4.016470713506008 30.5686
4.038800813471445 31.3171
4.061113662089144 32.2001
4.0834440696459176 32.867
4.105774632334751 33.4921
4.128087945865126 33.8425
4.150418821249301 34.7904
4.172732448931298 35.196999999999996
4.195063640413578 36.441
4.2173775856475215 38.4547
4.239709096631102 50.6785
4.262040768704612 104.738
4.284355196706267 127.413
4.306687193387355 90.6843
4.329001947444346 52.8081
4.35133427213731 43.7552
4.373666762177566 42.9264
4.395982011761091 43.3492
4.418314834921175 44.0585
4.44063041906622 47.4299
4.4629635787515625 52.0023
4.4852969080429785 52.5072
4.5076130004776225 52.6063
4.529946671403969 58.5632
4.552263106909177 63.4616
4.574597122877047 59.1375
4.596931312711224 54.5688
4.619248269273446 53.4454
4.6415828092605835 54.0242
4.663900117405352 54.9254
4.686235010953232 56.512
4.708552674085913 57.9499
4.730887924602802 59.2474
4.753223354952695 61.5575
4.775541557023902 65.3712
4.797877349456786 69.0357
4.820195915032126 69.3748
4.842532072957498 68.2879
4.864868414979744 70.4551
4.88718753227192 75.9325
4.909524244902505 77.7441
4.931843734218147 76.2468
4.954180820867835 77.2197
4.976518095879839 80.3397
4.998838149695359 82.819
5.021175803844231 86.1995
5.043496238205739 89.4068
5.065834274903528 93.5516
5.088172504230693 98.5293
5.1104935158799565 104.932
5.132832132875765 124.572
5.155153533596801 153.57299999999998
5.1774925416746225 191.47799999999998
5.199814334878411 372.89099999999996
5.2221537374521505 952.56
5.244493338631803 2783.44
5.266815727034316 8055.85
5.289155727832427 13467.5
5.311478517248165 8758.65
5.333818921080011 2651.75
5.356159527788849 500.167
5.3784829252032536 195.88299999999998
5.400823940070432 155.542
5.423147747031976 129.833
5.445489173474152 119.84100000000001
5.467830807066149 120.678
5.490155234831516 122.06200000000001
5.512497285125229 113.432
5.534822130975162 105.928
5.557164601388673 101.45
5.579489868738879 98.448
5.601832762690846 97.0069
5.6241758697774475 95.6168
5.646501775867269 95.2567
5.668845311622074 94.0754
5.691171647754637 93.6082
5.713515615597765 92.1184
5.735859800852677 92.2156
5.758186788542988 94.2531
5.780531411018185 99.6069
5.802858837297399 99.9476
5.825203900414495 99.5834
5.8475491852224 103.96
5.869877275883075 102.67200000000001
5.892223006467101 96.99600000000001
5.914551544266608 94.2871
5.936897724049891 95.6785
5.959244129804903 102.189
5.981573344815301 128.535
6.0039202049061 229.33700000000002
6.026249875609095 447.707
6.04859719346037 915.6489999999999
6.070927323278297 2234.18
6.093275102315365 4692.58
6.115623113320588 5226.02
6.137953938319995 2972.75
6.160302415650845 809.4730000000001
6.182633708324452 190.757
6.2049826554078376 103.662
6.227331838745022 87.9151
6.249663839443684 82.023
6.27201349767565 78.9952
6.294345974611799 79.5748
6.316696111167083 81.3262
6.339046488263839 78.5386
6.361379686074702 72.6897
6.383730546639482 69.5662
6.406064229255215 69.4864
6.428415576718203 71.3121
6.450749747566656 70.2096
6.47310158535871 66.6656
6.495453669698332 64.652
6.517788579421056 63.5488
6.540141159237969 62.675
6.562476565766648 61.88399999999999
6.5848296444934045 62.0087
6.607182974060425 62.7476
6.6295191323281015 62.5279
6.651872965955752 62.5367
6.6742096296068985 70.2592
6.6965639707294615 84.2921
6.71891856698715 83.2954
6.741255995248479 69.3978
6.763611104154477 60.8506
6.785949046381137 58.5316
6.808304671371482 59.6003
6.8306605557940046 61.1635
6.852999275508618 60.3711
6.875355681171544 57.8676
6.897694923437771 55.7389
6.92005185377892 55.3003
6.9423916220322655 55.4131
6.964749080490181 54.9219
6.987106804399774 54.74
7.009447368180821 55.5247
7.031805625367033 55.6385
7.054146723727803 54.8673
7.076505517631004 53.7049
7.098864581288365 53.7834
7.121206488070854 54.1923
7.143566093607822 54.7916
7.165908543567245 55.7989
7.188268694426048 56.208
7.2106291193438095 54.9991
7.232972390625943 54.6545
7.255333366030969 59.2551
7.277677189091925 76.5578
7.300038718428332 89.2488
7.322400526130865 80.8935
7.344745183422596 64.5353
7.367107550224791 55.7637
7.389452767901992 54.0026
7.411815697249891 53.5097
7.434161478756298 52.748000000000005
7.456524974096713 52.7665
7.478888753837185 53.0618
7.501235387657368 53.3552
7.523599738562711 53.7119
7.545946944825532 53.8694
7.568311870344528 54.4038
7.5906770845765665 53.9031
7.613025156078678 54.6057
7.635390950099687 55.3972
7.657739602662809 55.4255
7.680105979923558 55.58
7.702472650212829 56.3939
7.724822180948224 56.3203
7.747189439655568 55.806999999999995
7.769539560075357 55.3057
7.791907410653562 55.733999999999995
7.81425812420825 55.3706
7.836626570110925 55.8751
7.858995315087906 56.7103
7.881346924933401 56.6645
7.903716270417482 57.4828
7.926068482028405 57.7783
7.948438431475253 58.3375
7.9708086843180235 58.7934
7.993161805171116 59.5669
8.015532667162402 60.2328
8.037886398416653 61.6001
8.060257873014221 61.693999999999996
8.082629655331942 62.7712
8.104984308787587 63.477
8.127356708900503 66.1136
8.149711981398308 70.4903
8.172085002766314 72.2559
8.194458336181368 70.3051
8.216814543847752 68.3428
8.23918850371002 68.505
8.26154533906492 69.0175
8.283919928836452 70.7171
8.306277395339652 71.66
8.328652618483376 73.2595
8.351028159736202 75.094
8.373386579575245 77.5327
8.395762759396959 79.3252
8.418121819038275 82.369
8.440498640894003 89.3112
8.462875785192262 99.8194
8.485235811156207 123.73700000000001
8.507613602688501 171.192
8.529974277114228 245.868
8.552352719347912 367.18699999999995
8.574731488360351 629.727
8.59709314210385 1209.96
8.619472567021075 1969.52
8.64183487789147 2244.72
8.664214962183097 1692.9
8.686577933647762 828.053
8.708958680784317 296.556
8.731339760774953 139.608
8.753703729764451 104.311
8.77608547780821 95.8617
8.798450116065078 92.9373
8.820832535634787 91.5302
8.843215292401656 91.9191
8.865580941199045 92.848
8.887964374703538 92.7539
8.910330701447199 92.5637
8.932714815164482 91.9681
8.955099270424924 88.9747
8.977466620733543 85.9229
8.999851761421976 84.295
9.022219798361645 83.3964
9.04460562795561 83.3956
9.066991803441677 83.1357
9.089360876979615 84.2487
9.111747746589993 83.7987
9.13411751544971 82.3657
9.156505082664324 81.6113
9.178875550323522 81.3477
9.20126381862328 81.5091
9.223652438908596 81.23100000000001
9.246023961427412 81.1341
9.26841328802173 81.2362
9.290785518039224 82.0232
9.313175554425882 84.7978
9.335565947154315 87.0933
9.357939245086508 87.2636
9.380330352834827 86.2257
9.40270436697103 85.8193
9.425096193225055 84.9766
9.447488380180165 84.6938
9.469863475295412 83.6352
9.492256385987508 83.3502
9.514632206018318 84.3921
9.537025843935714 85.0841
9.559402392368193 86.274
9.581796761000229 89.3408
9.604191496441521 91.9544
9.626569144158516 94.656
9.648964615551032 95.6279
9.671343000390081 94.8853
9.693739211225699 92.6486
9.716135793237463 91.6503
9.738515290448102 92.6237
9.760912617143402 94.2467
9.783292860202891 96.7887
9.805690935076182 99.2381
9.828089385495742 100.10799999999999
9.850470754023561 101.038
9.872869957865444 103.74
9.89525208097539 109.71
9.917652041736662 115.766
9.940052382417589 123.959
9.962435644102392 148.084
9.984836746950979 184.35
10.007220771957746 239.415
10.029622640473708 330.62300000000005
10.052007432299963 510.226
10.074410069984072 834.3380000000001
10.096813093716005 1311.29
10.119199042482517 1851.16
10.141602840636468 1981.94
10.163989564971628 1457.5
10.186394141051062 766.2810000000001
10.208799107559706 320.474
10.231187001965623 161.393
10.253592751657669 118.147
10.275981430388155 109.03299999999999
10.298387966769793 107.199
10.320794897965431 107.632
10.343184759907361 106.22399999999999
10.36559248305461 103.426
10.387983138083852 103.428
10.410391656691655 109.416
10.432800574501677 119.42399999999999
10.455192425893369 132.675
10.47760214443012 158.116
10.499994797678786 204.65099999999998
10.522405320453982 292.413
10.54479877906917 414.164
10.567210109595656 551.369
10.5896218454736 584.9259999999999
10.612016518879773 481.32300000000004
10.634429067781074 311.501
10.656824555333241 175.304
10.679237920773568 111.625
10.701651695961992 91.7785
10.724048411481384 87.1646
10.746463008485165 85.1343
10.768860546937125 83.6487
10.791275969274796 81.9361
10.81369180576079 81.1585
10.836090585366925 79.824
10.858507252467449 78.8565
10.88090686379991 77.7653
10.903324365036394 77.6383
10.925724811614439 77.2776
10.948143150509463 77.8694
10.970561909719066 77.3554
10.992963615930844 76.6233
11.015383218085756 74.7114
11.037785768347074 72.9485
11.06020621697282 71.6946
11.082627090322113 71.039
11.105030913430326 70.2561
11.12745263854165 70.259
11.149857314510728 70.8259
11.172279894912576 72.6573
11.194702904450653 71.7838
11.217108866490921 70.3393
11.239532736615194 68.5668
11.26193956033512 67.8969
11.284364294577085 67.14399999999999
11.306789462371718 66.3497
11.329197585398376 65.9354
11.351623622610898 66.0352
11.37403261614354 65.1854
11.396459526308487 65.30199999999999
11.418869393879497 64.6422
11.441297180532617 64.0665
11.463725406927658 63.9263
11.486136592353875 63.6652
11.508565700543707 63.6882
11.530977768845315 64.3663
11.553407762368774 64.0746
11.575838200059769 63.8874
11.598251599479612 62.9617
11.620682927815501 62.4571
11.64309721895548 62.2118
11.665529441478206 61.9147
11.687962112597958 61.6818
11.710377748130886 61.8751
11.732811318753434 61.6393
11.755227854859067 61.7718
11.777662328529495 61.6651
11.800079768750786 61.6716
11.822515149015453 61.7969
11.844950984084935 62.1936
11.867369787303163 61.4247
11.889806534289491 61.4213
11.912226250487029 61.8241
11.934663912939751 62.1989
11.9571020346363 62.026
11.979523127133968 62.3642
12.001962169624331 63.7792
12.024384183972964 65.1282
12.046824150809913 67.7851
12.069264581333726 71.8673
12.091687985297767 77.1871
12.11412934550045 86.2636
12.136553680195208 102.493
12.158995973632788 127.1
12.181438735204349 158.935
12.20386447284199 189.858
12.226308172985636 209.199
12.24873485024193 199.835
12.271179492516982 153.352
12.293607112949127 113.04899999999999
12.316052700916226 85.1489
12.338498763250042 70.6605
12.360927805303868 65.4174
12.383374818673879 63.3703
12.405804812803074 62.9724
12.428252780773262 63.075
12.45070122756722 63.1992
12.473132656675375 63.2281
12.49558206341869 63.8976
12.518014453510101 64.2808
12.540464823770117 64.0972
12.562915677315177 63.9223
12.58534951575545 63.9852
12.607801338171472 64.7456
12.630236146511358 66.4575
12.652688941369085 68.5105
12.675124723177234 69.1022
12.697578494048786 68.2324
12.720032754458185 66.9791
12.742470003354093 66.5511
12.764925245138771 66.704
12.787363476431278 67.1465
12.809819703166806 67.5825
12.83227642391173 68.3142
12.854716135692716 68.9135
12.877173846755147 70.1548
12.899614549869717 70.4178
12.9220732548287 71.6
12.94453245827299 72.3263
12.966974655289818 73.1356
12.989434858002571 73.6219
13.011878055298721 74.0932
13.034339260862497 74.8954
13.056800969391883 76.9148
13.079245674017244 79.6239
13.101708390774869 83.5513
13.12415410463411 91.1283
13.146617833206086 99.729
13.169064559883248 109.04799999999999
13.191529303857127 122.854
13.213994557076367 146.054
13.236442809902437 185.981
13.258909083908291 247.597
13.28135835851934 318.759
13.30382565690295 392.772
13.326293469022952 444.56199999999995
13.348744283242008 418.159
13.371213125129904 329.13300000000004
13.39366497011003 225.50599999999997
13.416134845360597 150.607
13.438605238843131 114.214
13.46105863690397 103.199
13.483530069144786 103.934
13.505984506951902 108.39200000000001
13.528456981549432 117.823
13.550929978879088 132.923
13.573385983253365 158.231
13.595860028340867 201.595
13.618317081455832 259.807
13.64079217790333 325.502
13.663250283359057 373.971
13.685726434770173 382.94199999999995
13.708203115221277 322.404
13.730662806148091 239.451
13.75314054697177 165.864
13.775601299246777 115.234
13.798080104050406 91.7132
13.820559442405358 83.0398
13.843021793671388 80.2888
13.865502201420897 78.5411
13.887965623051947 78.4922
13.910447103807167 77.52
13.932929122629764 76.1913
13.955394156785959 75.7389
13.977877254034569 74.7425
14.000343367582113 73.7581
14.022827546871707 73.2697
14.045294743423524 72.8839
14.06778000837062 72.1232
14.090265817715476 71.5153
14.112734645763819 71.2496
14.13522154619454 70.8988
14.157691466286913 70.9209
14.180179461423874 70.7166
14.202668005486178 70.1206
14.22513957064374 69.6355
14.247629214846473 69.1678
14.270101881097517 68.8067
14.29259262906496 69.0367
14.315083930490205 69.2031
14.337558255389705 68.9722
14.360050666019726 69.0895
14.382526101071944 68.5454
14.405019624534942 68.2314
14.427513705993134 67.9556
14.449990813291825 67.8699
14.47248601302899 67.6274
14.49496423954951 67.7997
14.517460561197822 68.0543
14.539939910570322 67.594
14.562437357763558 67.8601
14.58493536931253 68.5547
14.607416409993311 68.7127
14.62991555254159 69.2305
14.652397725157423 69.0581
14.674898002342799 69.3827
14.697398848433282 69.4759
14.719882725991326 70.9766
14.74238471217934 72.8737
14.764869730765593 76.0851
14.787372860692983 78.1651
14.809876564079925 81.88600000000001
14.83236330125751 87.5178
14.854868153850365 95.9137
14.877356041159485 110.829
14.899862046604186 131.178
14.922351087688757 159.931
14.944858249632887 191.641
14.967365991421232 218.877
14.989856770231246 228.435
15.012365673994204 211.601
15.03485761569738 176.52
15.05736768508665 135.416
15.07987833888692 102.352
15.102372032001655 83.6395
15.124883856909658 73.7587
15.14737872204565 70.3504
15.169891721717274 69.2831
15.192405310371893 69.0853
15.214901940621196 69.0122
15.237416709527137 68.2659
15.259914520936249 68.0559
15.282430473753607 67.2566
15.304947020131227 66.3996
15.327446610371178 66.407
15.349964346154254 65.913
15.372465126703139 65.7331
15.394984055556009 65.3751
15.417486030076159 65.1464
15.44000615566487 64.8529
15.462526881230803 64.8272
15.485030653812652 65.0762
15.507552581617434 64.81
15.530057557334603 64.84899999999999
15.55258069104857 64.5631
15.575104429329837 64.9851
15.597611216864632 64.6943
15.620136166564563 65.4244
15.6426441664095 66.9314
15.665170331202765 69.0483
15.687697105158826 71.4465
15.710206930593545 74.5501
15.732734925158933 78.5052
15.755245972089478 84.7545
15.77777519094324 94.1825
15.800287463046663 108.259
15.822817909869592 128.99200000000002
15.84534897229804 152.991
15.867863089299354 178.25
15.890395385222186 195.03900000000002
15.912910736597423 194.899
15.935444269699861 176.153
15.957978423016485 144.679
15.980495633101265 111.279
16.003031029129367 86.4741
16.02554948280019 71.0133
16.048086125229432 64.5392
16.070623392487107 62.5941
16.09314371869582 61.8011
16.11568223789321 60.919
16.13820381691126 60.2664
16.160743591742527 59.6176
16.183283996022084 59.1044
16.205807461423195 58.3759
16.228349126881973 57.841
16.25087385432698 57.6774
16.27341678466365 57.191
16.29594277784926 57.0409
16.31848697676433 56.8209
16.341031811604868 56.5402
16.36355971058487 56.6789
16.3861058195587 56.2272
16.40863499352978 55.6962
16.431182380342005 55.4833
16.453730407713202 54.9075
16.476261501364792 54.675
16.498810812136167 54.626999999999995
16.52134319004079 54.5857
16.54389378792203 54.6425
16.566445031001553 54.4244
16.588979342490088 54.1203
16.61153187824822 54.0109
16.634067483263312 53.9484
16.656621315414416 54.0333
16.679175797408888 53.6054
16.701713349928728 53.576
16.72426913389191 53.8577
16.74680798922351 53.6948
16.76936507887444 53.861000000000004
16.791905240734874 53.8644
16.814463639794468 53.8185
16.837022695210294 53.776
16.859564824093756 53.9071
16.882125194503903 54.0748
16.904668639217885 54.6278
16.927230328348003 54.568000000000005
16.949792678493612 54.5336
16.972338104193863 54.443999999999996
16.994901778652235 54.2321
17.017448529496576 54.6257
17.040013531998152 55.0601
17.06257920018044 55.5464
17.0851279459922 56.333999999999996
17.107694947817667 56.9749
17.130245028099072 57.6026
17.15281336730298 58.7869
17.17536478578733 60.5694
17.19793446610687 63.0454
17.220504818648422 66.2879
17.243058251703697 69.9969
17.265629950971032 74.4052
17.288184731571736 79.7134
17.310757781306908 82.8479
17.33333150794385 82.7222
17.355888317140174 79.8972
17.37846339986244 73.80199999999999
17.401021565958885 67.4074
17.42359800851343 62.8835
17.44617513265564 59.8818
17.468735341390783 58.8483
17.491261035594565 58.2214
17.51396340099364 58.0038
17.536490463869136 58.2514
17.559018209820174 58.0883
17.58154663977963 58.1229
17.604251766089718 58.3122
17.626781572227713 58.8663
17.64931206518155 58.9306
17.671843245885103 59.2376
17.69455114821572 59.332
17.717083712612634 59.8958
17.739616967569667 59.8038
17.762150914021706 60.3235
17.78486160749854 60.6023
17.807396945166804 61.6166
17.829932977143503 62.5862
17.85246970436452 64.1146
17.875183204129467 65.4768
17.897721330097664 67.1817
17.920260154126645 69.2484
17.942799677153296 72.1656
17.9655159983646 76.2543
17.988056927677544 81.8669
18.010598558807683 90.40299999999999
18.033140892692916 101.23299999999999
18.05586005052525 113.896
18.07840379824407 126.40899999999999
18.10094825154059 136.08700000000002
18.12366954819864 140.44799999999998
18.146215420998306 136.069
18.16876200220057 124.82799999999999
18.191309292745153 109.677
18.214033452627167 96.2776
18.236582170236648 86.6562
18.259131600016456 83.5564
18.281681742907335 85.4535
18.304408781233683 90.9586
18.32696035875955 97.006
18.349512652227624 101.844
18.372065662579683 106.415
18.394795594587553 105.51299999999999
18.41735004715306 98.7193
18.43990521943684 90.50200000000001
18.46246111238171 81.0423
18.485193953325208 72.7144
18.507751296070428 66.7268
18.530309362314178 63.6043
18.552868153000343 62.0801
18.57560391815056 60.8916
18.59816416623245 60.453
18.620725141597372 60.1236
18.643286845190268 59.652
18.666025549835414 59.2425
18.688588718427933 58.8236
18.711152618092243 58.6654
18.73389353884365 58.3062
18.75645890921984 57.8809
18.77902501351406 57.6456
18.801591852673102 57.4696
18.824335739722738 56.9324
18.846904057212626 56.9874
18.8694731124168 56.7103
18.89204290628315 56.8942
18.914789774966803 56.6416
18.937361054791623 56.202
18.959933076131318 55.9906
18.982505839934877 56.0583
19.00525570560582 56.172
19.027829963004184 56.019
19.05040496572238 55.951
19.072980714710468 55.9706
19.095733592739563 56.1753
19.11831084296757 56.0605
19.140888842324735 56.4991
19.16346759176222 56.6222
19.18622349753803 57.3716
19.208803755869358 58.4328
19.231384767143577 59.3235
19.253966532312948 61.1206
19.276725481241822 63.5964
19.29930876296784 66.3259
19.3218928014549 69.3341
19.34465404436217 72.3185
19.36723960516257 74.5971
19.389825925592426 74.7255
19.412413006605938 72.987
19.43517731967805 69.2515
19.457765930683355 64.5433
19.48035530514408 60.2566
19.50294544401556 57.0446
19.525712842708348 54.8085
19.54830451925909 53.9542
19.570896963095727 53.1599
19.593490175174704 52.9525
19.616260674962184 52.9781
19.638855432416964 52.3723
19.661450960992624 52.7066
19.68404726164677 52.692
19.706820878021247 52.3927
19.729418731756834 52.61600000000001
19.752017360452857 52.482
19.77461676506804 52.6617
19.797393513540218 52.836000000000006
19.819994478951667 52.9739
19.84259622316767 53.4346
19.8651987471481 53.7264
19.887978643247177 54.0038
19.91058273574792 54.5477
19.933187610901943 55.2431
19.955969879466828 56.6444
19.97857632894404 58.3137
20.00118356396599 59.9997
20.023791585494575 62.4658
20.046577028914875 65.3338
20.069186632506966 67.5645
20.091797025500632 69.1496
20.114408208858933 69.3229
20.137196842715273 67.9041
20.159809615886765 66.1998
20.18242318232135 63.4359
20.20503754298326 61.4493
20.227829382875154 60.8458
20.250445341109344 61.3305
20.27306209647285 62.6444
20.29567964993108 64.2415
20.31847471147704 65.1531
20.34109387027612 65.0707
20.363713830075454 64.1711
20.386334591841646 62.1971
20.409132890679302 59.3422
20.431755265564437 55.9689
20.454378445325528 53.6644
20.477002430930366 51.6677
20.499803982716553 50.8637
20.522429589228004 50.0154
20.54505600449589 49.8862
20.567683229489194 49.8305
20.590488049900088 49.3521
20.61311690359731 49.2555
20.63574656993626 49.162
20.658553853717297 48.7755
20.681185154618298 48.848
20.703817271080066 48.65
20.72645020407368 48.21
20.749260783967177 48.0961
20.771895359337133 48.1645
20.794530754161617 48.19
20.817166969412938 48.0781
20.83998086114876 47.928999999999995
20.86261872660049 47.9281
20.885257415405402 47.9664
20.90789692853701 47.9011
20.930714147864748 47.8772
20.953355319030678 48.016000000000005
20.97599731745334 48.0648
20.99864014410749 47.6895
21.021460706796564 47.8347
21.044105199328826 48.1001
21.06675052302631 48.0386
21.089396678865015 48.378
21.112220600704806 48.6398
21.134868430275347 49.2569
21.15751709492456 49.6474
21.180166595629693 49.8048
21.202993892429635 50.277
21.22564507473034 50.6063
21.24829709602816 50.7679
21.27112693608965 50.5387
21.293780644891275 50.4792
21.316435195634053 49.8203
21.339090589297417 48.9732
21.361923832041875 48.4268
21.384580921090404 47.8155
21.407238856007325 47.5253
21.429897637773326 47.6675
21.45273429906592 47.4857
21.475394784108598 47.7055
21.498056118951983 47.5649
21.520718304578022 47.8182
21.543558400304388 48.0883
21.566222297108816 48.3406
21.58888704765135 48.2994
21.61155265291521 48.4799
21.63439619898156 48.9498
21.657063523335786 49.0621
21.67973170537063 49.5638
21.7024007460706 50.0902
21.72524775840385 50.7257
21.747918526116475 51.9432
21.770590155457388 53.3615
21.79326264741238 54.8745
21.816113141960237 57.1456
21.838787368860547 59.0947
21.861462461341976 61.0403
21.884315579735777 62.9891
21.90699241312273 63.9302
21.92967011506078 64.1698
21.95234868653799 62.9081
21.9752053151131 61.2004
21.997885635446785 59.1825
22.020566828293532 57.3982
22.04324889464272 56.1531
22.066109049404666 55.513999999999996
22.088792872571794 55.415
22.111477572219204 55.7289
22.1341631493376 55.5118
22.157026846313123 55.1222
22.179714188221507 54.0652
22.202402410582668 52.6135
22.22509151438863 51.1856
22.24795876962584 49.9787
22.270649646204486 49.3012
22.293341407213727 48.8352
22.316034053646906 48.3341
22.338904883215342 48.0068
22.36159931041458 47.9414
22.38429462602756 47.912
22.40699083104897 47.9346
22.429865251039757 47.9235
22.452563244831367 47.8784
22.47526213102522 47.7654
22.49813925616515 47.778999999999996
22.520839937143307 47.7023
22.543541513520587 47.7579
22.56624398629403 47.6819
22.589124730075895 47.7364
22.611829005656723 47.9888
22.63453418063466 47.8663
22.657240256008077 48.1367
22.680124634582935 48.2317
22.70283252079775 48.4233
22.725541310413075 48.7044
22.74825100442868 48.8186
22.771139033969575 49.3226
22.79385054687155 49.6562
22.81656296718292 50.4026
22.83927629590484 51.3205
22.862167992606945 52.4728
22.88488314827121 53.5795
22.907599215359284 54.8026
22.93031619487366 56.0067
22.953211574954405 56.5977
22.975930389478226 57.2439
22.998650119445763 57.1711
23.02137076586092 56.0787
23.044269845560063 54.4675
23.06699233506288 52.8036
23.089715744034912 50.855
23.112617610931565 49.6741
23.135342869061212 48.6879
23.158069049684816 48.0018
23.1807961538087 47.7968
23.20370174880544 47.8921
23.226430710184808 47.894
23.249160598093425 48.0045
23.271891413539002 48.067
23.294800752937697 47.9465
23.31753343374794 48.2064
23.340267045128353 48.3633
23.36300158808808 48.6525
23.38591468821339 48.9358
23.408651104658304 49.3755
23.431388455719986 50.0627
23.454126742409 50.8606
23.4770436196085 52.1453
23.499783787914662 53.6015
23.522524894889884 54.7974
23.54526694154616 55.9445
23.56818761219047 56.8348
23.59093154860734 57.3692
23.613676427751283 57.2497
23.636422250635754 55.9964
23.659346731118656 53.9202
23.68209445191868 51.7587
23.704843119509587 49.70399999999999
23.72759273490623 48.1068
23.750521041644767 47.038999999999994
23.77327256312355 46.1504
23.796025035462787 45.7765
23.818956224555475 45.2821
23.841710609113413 45.2187
23.86446594758979 45.0193
23.887222241002014 44.6614
23.910157285144578 44.4226
23.932915498962537 44.4338
23.955674670778713 44.2799
23.978434801611975 44.1957
24.001373717286125 44.0399
24.024135776723917 43.8507
24.046898798245582 43.5954
24.06966278287146 43.5598
24.092605586582614 43.3537
24.115371508023642 43.394
24.1381383956401 43.3329
24.16090625045381 43.1817
24.183852958731244 43.1525
24.206622758582608 43.0474
24.229393528706886 42.8608
24.252165270127392 42.9592
24.27511589952438 42.8545
24.297889594216997 42.6753
24.32066426328598 42.5371
24.34343990775613 42.6366
24.36639447485003 42.4927
24.38917208083877 42.3075
24.41195066531332 42.3253
24.43490819850244 42.3705
24.457688750692377 42.2513
24.48047028445616 42.277
24.503252800821233 42.3587
24.526214300784112 42.3906
24.548998793132213 42.3976
24.57178427117417 42.3336
24.59457073593893 42.3063
24.617536219319863 42.391000000000005
24.64032466834748 42.2192
24.663114107195035 41.9449
24.685904536893013 41.7708
24.708874020360852 41.6723
24.731666442613744 41.798
24.754459858818787 41.6175
24.777254270007962 41.5774
24.80022777025625 41.468999999999994
24.82302418230472 41.4852
24.845821592443674 41.54
24.86862000170663 41.4643
24.891597535453727 41.4972
24.914397953892728 41.6999
24.93719937456671 41.6903
24.96000179851076 41.7907
24.98298338249997 42.0083
25.00578782394922 42.1619
25.028593271784167 42.174
25.05157790644186 42.478
25.07438537804115 42.7611
25.097193859145293 42.9415
25.120003350792075 43.0495
25.142992065061257 43.5418
25.165803588823465 43.799
25.18861612625217 43.9072
25.211429678386736 43.9665
25.234422489079968 44.2243
25.257238081693636 44.1259
25.280054692141732 44.2527
25.3028723214652 44.3774
25.325869245420463 44.4211
25.348688923599397 44.3374
25.371509623787006 44.1511
25.394331347025812 43.8176
25.41733240110666 43.104
25.440156181590016 42.4235
25.46298098826268 41.9291
25.48580682216873 41.5192
25.50881202326435 40.9473
25.53163992281684 40.4976
25.55446885274561 40.3367
25.577298814096377 40.2857
25.600308179121807 40.1407
25.623140214533745 40.2156
25.64597328451537 40.1016
25.66898578564376 39.8407
25.691820936010206 39.8949
25.714657124097695 39.8138
25.737494350954734 39.9319
25.760511045684957 39.8234
25.783350361364224 39.7289
25.806190718969255 39.7855
25.82903211955018 39.8355
25.852053024868923 39.7731
25.874896522722523 40.0282
25.897741066713106 39.9414
25.920586657892454 40.0789
25.943611790812668 40.242
25.966459487728237 40.3524
25.989308234998564 40.3775
26.01215803367705 40.718
26.03518741123814 40.9847
26.05803932412957 40.9683
26.080892291600094 41.0416
26.10374631470478 40.924
26.12677995397268 41.0799
26.14963609978026 41.0618
26.172493304397875 40.6336
26.19535156888223 40.4113
26.218389486949604 40.118
26.241249882640123 39.7591
26.26411134137826 39.5678
26.28715248187403 39.3986
26.31001607820869 39.4382
26.3328807407756 39.2521
26.35574647063438 39.4373
26.37879191991473 39.3239
26.401659795896734 39.3209
26.424528742360263 39.5536
26.447398760366614 39.8144
26.470448535598294 39.9069
26.49332070826805 40.2654
26.516193955675355 40.5286
26.53906827888316 40.7176
26.562122397260108 40.8525
26.584998883685063 41.2667
26.607876449110325 41.4602
26.63075509460056 41.5687
26.65381357334404 41.6271
26.67669439061878 41.567
26.699576291163382 41.324
26.722459276044212 41.1701
26.745522132402975 40.742
26.768407297649354 40.6284
26.791293550442003 40.2507
26.814180891848974 40.1218
26.837248143099337 39.8276
26.860137673466657 39.7788
26.88302829566349 39.5108
26.90592001075963 39.2645
26.92899167420566 39.0905
26.951885586870763 38.7602
26.974780595655517 38.6056
26.99785558178161 38.4584
27.020752794605112 38.2098
27.043651106772522 38.1583
27.06655051935668 38.1223
27.089629948036183 37.9624
27.112531573292053 37.9988
27.135434302194138 38.1206
27.158338135817015 37.8982
27.181422024430987 38.0726
27.204328079372566 37.8162
27.22723524226965 37.8316
27.250143514198573 37.9241
27.273231880156334 38.0829
27.296142382065014 37.7767
27.319053996245536 37.6719
27.341966723775965 37.7726
27.365059584515222 37.8866
27.38797455070062 37.9616
27.410890633481237 37.8373
27.433807833936918 37.8263
27.456905206923906 37.9473
27.47982465472398 37.9799
27.502745223449743 38.0433
27.525666914182825 38.0847
27.548768816912457 37.8956
27.571692763693633 37.8458
27.59461783573812 37.655
27.617723149491244 37.6083
27.640650484125285 37.567
27.66357894728264 37.3459
27.686508540048052 37.3464
27.709618414237887 37.3757
27.732550278321757 37.1084
27.755483275279115 37.1663
27.778417406196485 37.1612
27.801531858397514 37.3444
27.824468269376716 37.1754
27.847405817586786 37.1485
27.870344504116094 37.4067
27.893463551932008 37.3304
27.916404527281053 37.6344
27.93934664422563 37.8005
27.962289903855886 37.836
27.98541356491974 38.11
28.00835912214229 38.1828
28.03130582533231 38.6068
28.054253675581805 38.6951
28.077381967556104 38.5012
28.100332124185126 38.3424
28.123283431160893 38.1711
28.146235889577238 38.0727
28.169368830154156 37.8163
28.192323603752033 37.7712
28.215279532083304 37.4607
28.238415973016764 37.2234
28.261374223145094 37.0623
28.284333631303806 36.9884
28.307294198589954 36.9224
28.330435319167677 36.5504
28.353398217078915 36.2376
28.376362277420153 35.9184
28.39932750129032 35.7983
28.422473319286713 35.7158
28.44544088262495 35.8327
28.468409612800283 35.5898
28.491379510913497 35.4634
28.51453004413313 35.3635
28.53750229057244 35.4282
28.56047570826344 35.3419
28.583450298308804 35.2548
28.606605564586562 35.0194
28.629582511831156 35.0962
28.65256063474956 34.973
28.675539934446338 35.0561
28.698699951647605 35.0626
28.72168161743193 34.8892
28.74466446331978 34.8601
28.767648490417624 34.9036
28.790813276438353 34.8481
28.813799678527303 34.7666
28.836787265157085 34.8696
28.859955641890075 34.9239
28.882945610203045 34.7928
28.905936766392035 34.7724
28.928929111566863 34.7786
28.952102288520145 34.6511
28.975097024308607 34.5336
28.998092952423807 34.4484
29.021090073977508 34.2769
29.04426806913204 34.2092
29.067267590245258 34.0362
29.090268308143695 34.0522
29.11327022394099 34.0102
29.13645305530891 33.8997
29.159457379627167 33.887
29.18246290519685 33.8781
29.20546963313352 33.7757
29.22865731875826 33.7957
29.25166646419296 33.7164
29.27467681535305 33.668
29.29768837335608 33.7306
29.320880931312562 33.7765
29.34389491580634 33.6754
29.366910110507334 33.6587
29.38992651653503 33.6839
29.41312396492981 33.5923
29.436142806456754 33.6539
29.45916286268059 33.4136
29.48236399319994 33.3169
29.50538649169417 33.2001
29.528410208259935 33.1284
29.55143514402014 32.9037
29.574641196749695 32.7835
29.597668583816574 32.8288
29.6206971934585 32.6093
29.64372702680042 32.6362
29.666938019934474 32.4767
29.689970313635285 32.3921
29.713003834422636 32.3578
29.73603858342347 32.4005
29.759254535188578 32.2305
29.78229175361658 32.2495
29.80533020365064 32.3006
29.82836988641968 32.3521
29.85159081507472 32.3168
29.874632976355343 32.1306
29.89767637376955 32.1725
29.920721008448314 32.071
29.9439469322847 32.0925
29.96699405457564 32.0444
29.9900424175358 32.2328
30.013092022298157 31.8952
30.03632295963995 31.9351
30.059375061131373 31.9305
30.08242840783577 31.916999999999998
30.105483000888153 31.9808
30.128718970092244 31.8395
30.151776069006917 31.9087
30.17483441768648 31.9397
30.198074175317235 31.8434
30.221135036724256 31.820999999999998
30.24419715131772 31.8874
30.267260520236203 31.7996
30.290505341942243 31.7337
30.313571232750228 31.7732
30.336638381310948 31.7414
30.35970678876503 31.7636
30.38295669299435 31.6384
30.40602763151657 31.5825
30.429099832366074 31.5863
30.452173296685572 31.4988
30.47542830191959 31.4391
30.498504306502497 31.5556
30.521581577995562 31.5596
30.544660117543582 31.6804
30.56792024229725 31.7008
30.59100133132069 31.6209
30.614083691845494 31.6418
30.637167325018545 31.7805
30.660432587840603 31.7667
30.683518779717886 31.6409
30.70660624769615 31.6931
30.729694992924372 31.7335
30.75296541239743 31.6878
30.77605672557558 31.6135
30.799149319462742 31.5627
30.8224236211637 31.4843
30.845518789950724 31.4549
30.868615242910597 31.3185
30.891712981195973 31.0895
30.91499247215866 31.0847
30.938092794619365 30.894000000000002
30.96119440587579 30.9455
30.984297307082752 30.8449
31.00758200598383 30.7236
31.030687500658694 30.5707
31.053794288760695 30.5672
31.076902371446767 30.4603
31.100192296997445 30.5342
31.12330298246119 30.5546
31.14641496599209 30.3331
31.169528248749216 30.4482
31.19282341969534 30.3935
31.215939314557186 30.4661
31.239056512134788 30.4095
31.262175013589378 30.4291
31.28547544871168 30.3377
31.30859657161541 30.2605
31.331719001892175 30.3342
31.35484274070538 30.3633
31.378148458819545 30.3849
31.401274828443725 30.4252
31.424402510106933 30.3955
31.447712205419993 30.4666
31.470842524931633 30.3495
31.493974159989783 30.3071
31.51710711176168 30.319000000000003
31.54042212308802 30.3348
31.563557722100917 30.2745
31.586694641341655 30.1783
31.609832881979628 30.0055
31.63315322823208 29.8302
31.656294125521327 29.7556
31.679436347728515 29.796999999999997
31.70257989602529 29.6625
31.725905596152327 29.664
31.74905181052835 29.4883
31.772199354521323 29.5875
31.79534822930507 29.6834
31.818679302290967 29.6482
31.84183085259981 29.6986
31.864983737233473 29.6647
31.88813795736804 29.6933
31.911474422233013 29.5731
31.934631327356435 29.5038
31.9577895715215 29.4957
31.980949155906522 29.5161
32.004291031706956 29.4956
32.027453310562606 29.3373
32.05061693318573 29.261
32.07396288236386 29.2797
32.09712920658542 29.2907
32.12029687812702 29.1084
32.14346589817093 29.096999999999998
32.166817291729984 29.0527
32.18998902288583 28.9971
32.21316210610336 28.9087
32.23633654256711 28.7594
32.259693399663725 28.7686
32.282870556771144 28.701
32.30604907069099 28.7127
32.329228942610065 28.6102
32.35259128243769 28.483
32.375773884550505 28.5008
32.398957848235646 28.4944
32.422143174682176 28.4173
32.445511016471215 28.3489
32.468699082679954 28.2772
32.49188851523011 28.2353
32.51507931531304 28.0897
32.538452678331 28.1249
32.56164622776311 28.0096
32.58484114831493 28.0209
32.60803744118015 28.0148
32.631416344731896 28.0557
32.654615396551876 28.0218
32.67781582427913 27.9583
32.701198898634416 27.9033
32.72440209253756 27.8287
32.747606665947124 27.77
32.77081262006088 27.6461
32.79420126883317 27.7184
32.81740999876112 27.7004
32.840620112999424 27.5712
32.86383161274818 27.5366
32.88722585534586 27.5682
32.91044014056596 27.6108
32.933655814909734 27.5239
32.95687287957963 27.4644
32.98027273544904 27.4891
33.00349259526636 27.3817
33.026713849030116 27.4273
33.04993649794511 27.4241
33.073341986570746 27.3937
33.09656744032826 27.3164
33.11979429286444 27.2253
33.14302254538647 27.2809
33.166433686291185 27.2866
33.18966475336992 27.201999999999998
33.212897224069096 27.0158
33.23613109959831 27.1196
33.259547912343415 27.0871
33.2827846121627 27.1318
33.306022720453775 27.0328
33.32926223842861 26.9293
33.352684742614166 26.9218
33.37592709463173 26.9079
33.399170859982064 26.8587
33.422597648419426 26.772
33.44584425514446 26.6332
33.46909227885668 26.5592
33.4923417207723 26.5157
33.51577423505344 26.6237
33.539026528130385 26.5344
33.56228024307245 26.4876
33.585535381098246 26.3251
33.60897364093058 26.2589
33.63223163992385 26.3104
33.6554910656699 26.2188
33.678751919389796 26.2763
33.702195944520106 26.128
33.72545966903325 26.1145
33.74872482519663 26.0395
33.771991414233746 26.0557
33.79544122444841 26.0275
33.81871069412428 25.9431
33.84198160035767 25.8763
33.86525394437455 25.9283
33.88870955949969 25.8181
33.911984794020626 25.8523
33.93526147001624 25.8402
33.958539588715006 25.7537
33.98200102861669 25.7069
34.0052820477047 25.5991
34.02856451319451 25.5982
34.05203033759056 25.5342
34.07531571090147 25.5606
34.09860253431845 25.4338
34.121890809074316 25.416
34.145362493118924 25.3979
34.16865368561615 25.3866
34.191946333164054 25.2745
34.21524043699793 25.3686
34.23871800066799 25.3745
34.26201503218366 25.1968
34.28531352370466 25.247
34.30861347646881 25.1158
34.33209693978188 25.0881
34.3553998301885 25.0581
34.378704185565205 25.0325
34.402010007152356 24.9529
34.42549939016683 25.021
34.44880815937748 24.8872
34.472118398533134 24.7586
34.49543010887669 24.8119
34.51892543169198 24.6157
34.54224009966052 24.7244
34.56555624255917 24.713
34.58887386163339 24.639
34.61237514439016 24.6545
34.6356957311114 24.5411
34.65901779775809 24.5434
34.68252356662995 24.4421
34.705848608458616 24.5683
34.72917513396849 24.4416
34.75250314440949 24.3927
34.77601490857862 24.3022
34.799345904259795 24.2961
34.82267838863559 24.3215
34.846012362958525 24.3125
34.869530142679984 24.1414
34.89286711232212 24.2604
34.91620557568269 24.2478
34.93954553401677 24.098000000000003
34.9630693495876 24.0045
34.986412313340814 24.0479
35.00975677584668 24.0505
35.033102738362956 24.0244
35.05663261012228 23.9311
35.0799815881786 23.9722
35.10333207003229 23.9006
35.12668405694369 23.9528
35.150220005273056 23.8561
35.17357501786656 23.8628
35.19693153931268 23.8219
35.220289570874385 23.7194
35.24383161619786 23.6694
35.267192683604904 23.6968
35.290555264930376 23.6762
35.314101899412165 23.7371
35.33746752422433 23.7067
35.36083466676374 23.6458
35.38420332829803 23.6112
35.407756095629054 23.6162
35.43112781085063 23.5988
35.45450104888391 23.5626
35.477875810999194 23.5861
35.50143473172161 23.4641
35.52481255774625 23.4742
35.54819191167777 23.3805
35.57157279478914 23.3321
35.595137889488406 23.3801
35.61852184675279 23.3126
35.641907337029984 23.2575
35.665294361595684 23.2414
35.68886565090076 23.1724
35.7122557598848 23.1899
35.73564740699838 23.1161
35.759040593519934 23.142
35.78261809810353 23.0165
35.80601437933051 22.9275
35.829412203814705 22.9102
35.85281157283719 22.8465
35.876395313415884 22.8703
35.8997977874528 22.8622
35.92320180988546 22.8452
35.946790244133936 22.7526
35.97019737933222 22.7522
35.993606066789866 22.6635
36.01701630779276 22.7261
36.04061101440684 22.5338
36.06402437852291 22.5653
36.08743930005611 22.6184
36.1108557802951 22.5352
36.13445678011326 22.5165
36.15787639383515 22.4605
36.18129757014299 22.4874
36.20472031032821 22.4424
36.22832762423364 22.2882
36.25175350829375 22.261
36.275180960119776 22.2659
36.298609981005924 22.3396
36.32222362992669 22.256
36.34565580510207 22.2333
36.36908955323448 22.2253
36.39252487562093 22.0739
36.416144880530226 22.0747
36.43958336764275 22.0339
36.463023432914625 22.0359
36.486465077645676 21.9419
36.51009145956204 22.0164
36.53353627947859 21.9816
36.55698268276811 21.9348
36.58043067073321 21.8607
36.60406345072071 21.8594
36.62751462435344 21.8579
36.65096738658405 21.8217
36.67460498210655 21.7937
36.69806093788647 21.7167
36.72151848619297 21.6663
36.744977628333636 21.6811
36.76862165890998 21.5752
36.79208400512205 21.5469
36.81554794910557 21.5119
36.83901349217101 21.4586
36.862663978991606 21.495
36.88613273667352 21.4755
36.90960309738324 21.4225
36.933075062434064 21.3519
36.95673202673572 21.3175
36.98020721697122 21.3306
37.003684015502365 21.2891
37.027162423645365 21.1863
37.050825886711465 21.1947
37.07430753063053 21.1551
37.09779078812467 21.1812
37.121275660513014 21.1564
37.144945643673694 21.0583
37.16843376245278 20.9826
37.19192350009803 21.0572
37.215414857931435 21.005
37.239091382563885 21.0178
37.262585997426164 20.9419
37.28608223645736 20.93
37.309763684451696 20.8811
37.33326318851098 20.7819
37.356764320726555 20.7746
37.380267082425526 20.7446
37.40395510942588 20.7146
37.42746114683234 20.6869
37.45096881771841 20.644000000000002
37.474478123414166 20.6057
37.49817275092816 20.5287
37.52168534303452 20.5835
37.54519957395567 20.4301
37.568715445024665 20.5373
37.592416694607714 20.379
37.61593586281424 20.4653
37.63945667518264 20.5034
37.66297913304891 20.4163
37.68668702630454 20.3105
37.710212792059274 20.2862
37.733740207334854 20.2234
37.757269273470364 20.1846
37.780983832050374 20.2221
37.80451621684926 20.1637
37.82805025654007 20.1629
37.851585952464795 20.0739
37.8753071980695 20.101
37.89884622345676 20.032
37.92238690911902 19.9944
37.94611318753442 19.9023
37.969657210779765 19.9916
37.99320289834801 19.9415
38.016750251586465 19.8984
38.04048325513017 19.7797
38.06403395679343 19.7789
38.087586328183946 19.7926
38.11114037065203 19.7541
38.13488012115898 19.7307
38.1584375229181 19.6017
38.181996599821 19.5923
38.205557353221124 19.6559
38.229303872575656 19.5982
38.2528679961576 19.6089
38.27643380031219 19.4816
38.30000128639589 19.4594
38.32375459653193 19.4961
38.34732546371299 19.5444
38.37089801690786 19.3306
38.39447225747609 19.3867
38.418232380377425 19.404
38.441810012983396 19.3312
38.46538933705673 19.279
38.488970353960084 19.2828
38.51273731166058 19.2225
38.536321731567014 19.1756
38.55990784840681 19.2023
38.58367995004091 19.1142
38.60726947812959 19.0924
38.63086070726198 19.0793
38.654453638806274 19.0337
38.678232613930824 18.9769
38.70182896773327 18.9044
38.72542702806741 18.8857
38.7490267963045 18.9043
38.77281266709232 18.9004
38.79641586862214 18.8531
38.8200207821842 18.8257
38.843627409152944 18.8203
38.86742019782782 18.767
38.891030269149255 18.6812
38.914642058016156 18.7058
38.938255565806124 18.6472
38.96205529464307 18.6079
38.98567225787121 18.6467
39.00929094417078 18.5961
39.03291135492255 18.6022
39.05671804624804 18.5532
39.080341923549106 18.4783
39.103967529460334 18.4591
39.127594865365744 18.3868
39.15140854155791 18.323
39.17503935514948 18.3198
39.19867190290282 18.2939
39.22249083587951 18.2836
39.24612686969409 18.3353
39.269764641845306 18.3286
39.293404153722804 18.2912
39.317230110864074 18.1448
39.34087311998506 18.2021
39.36451787301696 18.1573
39.388164371352595 18.0745
39.41199737518003 18.0495
39.43564738196752 18.0314
39.45929913825317 17.9654
39.48295264543308 17.9918
39.506792718520884 17.9312
39.530449745387216 17.9184
39.55410852735203 17.9005
39.57776906581474 17.88
39.60161623079 17.8911
39.625280300200025 17.8233
39.64894613032202 17.7845
39.67261372255866 17.7429
39.6964680021016 17.7285
39.72013913657293 17.6918
39.74381203738292 17.6898
39.76748670593756 17.6686
39.79134812278169 17.674
39.81502634488497 17.625999999999998
39.83870633896685 17.5556
39.862388106436654 17.5822
39.88625668336918 17.5429
39.90994201572829 17.5378
39.933629125719285 17.477999999999998
39.957503091207826 17.4111
39.9811937746168 17.4364
40.00488623990914 17.4301
40.02858048850006 17.3731
40.05246165409549 17.3452
40.076159487492085 17.3347
40.099859108448875 17.3044
40.123560518384345 17.2636
40.1474489070226 17.2098
40.171153913178564 17.1706
40.194860712584955 17.1232
40.2185693066637 17.1411
40.242464941335314 17.1359
40.26617714307655 17.1813
40.289891143772046 17.0662
40.3136069448471 16.9986
40.33750984859743 16.9721
40.3612292688043 16.9735
40.3849504936829 16.9334
40.40867352466194 16.8879
40.43258372059144 16.9029
40.45631038219906 16.9172
40.48003885420956 16.8105
40.503769138055105 16.7716
40.52768664931955 16.7805
40.55142057531802 16.8334
40.57515631746428 16.7276
40.599079334038514 16.7019
40.62281872700477 16.6481
40.64655994043941 16.6416
40.67030297578061 16.628
40.69423334835778 16.5823
40.71798004609188 16.537
40.74172857006355 16.5274
40.76547892171441 16.5483
40.7894166736039 16.5198
40.813170699248566 16.4882
40.83692655691388 16.4325
40.86068424804498 16.462
40.884629402612525 16.4199
40.908390779366385 16.4176
40.932153993938 16.3602
40.95591904777605 16.336
40.979871628443995 16.3198
41.003640379561936 16.2927
41.02741097430883 16.268
41.05118341413683 16.2118
41.075143444384416 16.21
41.098919593177826 16.1634
41.1226975914255 16.1385
41.14647744058318 16.0912
41.170444943946755 16.0466
41.19422851378379 16.0285
41.218013938914645 15.9843
41.24198706625173 15.9866
41.26577622087193 15.975
41.289567235177785 15.9053
41.31336011063129 15.95
41.337340752422875 15.9019
41.361137369129835 15.8802
41.38493585138705 15.8721
41.40873620066004 15.7975
41.43272438060107 15.7831
41.45652848292052 15.7207
41.48033445666918 15.6843
41.50414230331616 15.6746
41.528138045159764 15.6915
41.551949656675205 15.6182
41.575763145513235 15.629000000000001
41.59957851314666 15.6389
41.62358184070442 15.5693
41.64740098505737 15.5626
41.6712220126409 15.5275
41.69504492493139 15.4683
41.71905586207357 15.498
41.74288256296395 15.4356
41.766711153007456 15.4242
41.79054163368412 15.377
41.814560204340054 15.3623
41.838394485526365 15.4029
41.86223066180303 15.2852
41.88625497706819 15.3017
41.910094962812 15.2799
41.93393684811168 15.2363
41.95778063445365 15.182
41.981812625263366 15.1901
42.00566023303407 15.0985
42.029509746323676 15.1155
42.05336116662236 15.1375
42.077400857069705 15.1127
42.10125611078846 15.0455
42.12511327600405 15.0118
42.14897235421036 15.0069
42.173019768448455 14.9818
42.19688269209613 14.9502
42.22074753323349 14.9359
42.24461429335818 14.8929
42.268669455600495 14.8537
42.292540073217886 14.8401
42.31641261433284 14.8125
42.34028708044675 14.7935
42.36435001496739 14.7682
42.38822835065557 14.7694
42.41210861586426 14.7385
42.4359908120986 14.698
42.46006154323262 14.6677
42.48394762115317 14.6724
42.507835634632315 14.6615
42.531912233047436 14.6429
42.55580413732265 14.5926
42.579697981698 14.5729
42.60359376768525 14.5338
42.62767820545945 14.4836
42.65157789440821 14.5412
42.67547952952185 14.4508
42.699383112316 14.4282
42.72347541395347 14.4024
42.74738291190531 14.4034
42.771292362102166 14.3971
42.795203766063516 14.3658
42.819303956130405 14.3015
42.843219287476536 14.3078
42.86713657716324 14.2751
42.89105582671383 14.2454
42.91516392983864 14.2208
42.939087119032166 14.2318
42.963012272677304 14.1913
42.98693939230129 14.1441
43.01105543317513 14.1248
43.034986504731386 14.0759
43.05891954686589 14.0337
43.08285456110972 14.0409
43.10697856448665 14.0028
43.130917542983475 14.0017
43.15485849820081 13.9796
43.17880143167367 13.9467
43.20293342237094 13.9028
43.226880332449 13.904000000000002
43.25082922540554 13.9198
43.27496722682525 13.8892
43.29892010567796 13.8821
43.32287497204102 13.7892
43.34683182745632 13.7675
43.370977859791836 13.705
43.39493871351105 13.7715
43.41890156092628 13.7333
43.44286640358341 13.7322
43.46702049182749 13.7068
43.49098934522816 13.6939
43.51496019852649 13.6222
43.5389330532723 13.5831
43.56309522248204 13.5596
43.58707210044314 13.5598
43.61105098451946 13.5273
43.63503187626491 13.5384
43.659202151562134 13.4837
43.68318707902681 13.4983
43.70717401884041 13.4591
43.731162972560874 13.413
43.75534137913236 13.3654
43.779334381108384 13.3693
43.803329401683186 13.3488
43.82732644241872 13.3383
43.8515130055166 13.3259
43.87551410707659 13.2311
43.89951723350145 13.2869
43.923709934595614 13.254000000000001
43.94771713129917 13.2246
43.97172635758096 13.1626
43.99573761501002 13.1491
44.0199385169922 13.1655
44.04395385732619 13.1394
44.067971233533086 13.0916
44.09199064718605 13.05
44.11619977548961 13.0347
44.14022328470671 13.0079
44.16424883610785 13.0132
44.18827643127035 13.0108
44.21249381139513 12.9632
44.236525514814076 12.9409
44.26055926674478 12.9498
44.28459506876863 12.9468
44.3088207262813 12.879000000000001
44.33286064928722 12.8569
44.35690262714919 12.8138
44.38094666145278 12.7838
44.4051806219871 12.780999999999999
44.42922879003185 12.7758
44.45327901929361 12.7049
44.477331311362136 12.68
44.501573600619416 12.625
44.525630039221795 12.6134
44.54968854541895 12.6516
44.573937102200176 12.6161
44.5979997645541 12.5881
44.622064499300315 12.5186
44.64613130803592 12.5233
44.67038823869318 12.5474
44.69445921643748 12.5287
44.718532272981385 12.487
44.742607409926194 12.4745
44.76687274034801 12.4596
44.79095205918753 12.4284
44.81503346325094 12.4273
44.839116954143876 12.3995
44.86339071028742 12.3507
44.88747839599524 12.3453
44.91156817336837 12.2991
44.93566004401666 12.2955
44.959942251908146 12.3216
44.984038330325966 12.2698
45.00813650686762 12.2172
45.03223678314731 12.2263
45.05652746888232 12.1767
45.08063196592069 12.1593
45.104738567558705 12.117
45.128847275414856 12.1025
45.15314646515866 12.0784
45.17725940679741 12.1116
45.20137445952892 12.0408
45.22568004865265 12.0358
45.24979934496396 12.0821
45.27392075725247 12.0187
45.29804428714431 12.0009
45.322358426247604 11.932
45.346486212804315 11.8966
45.370616121861914 11.9406
45.39474815505086 11.8974
45.41907087049246 11.8859
45.4432071734666 11.8468
45.46734560548283 11.8021
45.49148616817604 11.815999999999999
45.51581748638564 11.7375
45.5399623320197 11.7669
45.56410931325473 11.6885
45.58825843173002 11.7372
45.61259837920865 11.6887
45.636751793816 11.7035
45.66090735060093 11.6729
45.68506505120716 11.605
45.7094136545275 11.5782
45.73357566449271 11.5904
45.75773982322992 11.5987
45.78190613238733 11.5764
45.806263418194064 11.5103
45.83043404997326 11.5288
45.85460683713677 11.4987
45.87897065658495 11.5139
45.90314777634752 11.429
45.92732705646868 11.425
45.9515084986045 11.4017
45.97588104735473 11.3799
46.00006683541565 11.3193
46.02425479047904 11.3476
46.04844491420549 11.334000000000001
46.0728262191024 11.2948
46.09702070211635 11.3014
46.12121735879483 11.2515
46.14541619080294 11.2606
46.169806278764455 11.2188
46.194009483459034 11.2355
46.21821486849841 11.2164
46.24242243555223 11.173
46.266821333570014 11.132
46.29103328674601 11.1404
46.31524742696538 11.1488
46.33946375590237 11.0938
46.36387149104216 11.0896
46.38809221957392 11.0005
46.41231514186606 10.9946
46.436540259597464 11.0045
46.460956858999374 11.0004
46.48518638983522 10.9334
46.509418121166966 10.9458
46.533652054678114 10.9203
46.55807754555709 10.9229
46.58231590571962 10.9299
46.60655647313217 10.863
46.630988654873654 10.8767
46.655233659129024 10.8401
46.67948087571551 10.8405
46.70373030632484 10.7555
46.72817142736393 10.7936
46.752425308428684 10.7642
46.77668140861147 10.7121
46.80093972960865 10.6665
46.82538981736788 10.6849
46.849652602470904 10.6304
46.87391761349769 10.6347
46.8981848521493 10.6615
46.9226439341274 10.5962
46.946915650573224 10.5762
46.97118959976749 10.5863
46.99546578341598 10.5532
47.019933887188216 10.5058
47.04421456235744 10.4962
47.06849747711879 10.4655
47.09278263318286 10.4575
47.11725978640143 10.429
47.14154944775105 10.4333
47.165841355555656 10.4311
47.1901355115306 10.350999999999999
47.214621741924994 10.3821
47.23892041698887 10.3706
47.26322134538975 10.3218
47.28771440635075 10.3018
47.31201986422527 10.2959
47.33632758061436 10.2468
47.360637557241866 10.2315
47.38513974410611 10.2278
47.40945426407847 10.2125
47.43377104948137 10.2488
47.45809010204344 10.2348
47.48260144275502 10.1476
47.506925052572285 10.1268
47.53125093475548 10.1219
47.55557909103813 10.1219
47.58009961361992 10.0977
47.60443234110732 10.085
47.62876734791564 10.0437
47.65310463578333 10.036
47.6776343683373 10.0358
47.7019762413987 9.980319999999999
47.72632040075572 9.96447
47.75066684815169 9.94738
47.77520581885936 9.94321
47.799556865477655 9.92802
47.823910205386 9.912889999999999
47.84826584033272 9.8655
47.87281407745551 9.83227
47.89717432569297 9.87152
47.92153687423484 9.83189
47.94609208429692 9.82495
47.97045925671401 9.82478
47.99482873471275 9.798689999999999
48.01920052005013 9.73616
48.04376504619224 9.74578
48.068141469543484 9.67427
48.09252020552573 9.73297
48.11690125590099 9.715019999999999
48.1414751266064 9.66193
48.16586082917454 9.68765
48.19024885144316 9.64211
48.2146391951793 9.64044
48.239222439012764 9.60283
48.26361744916137 9.612630000000001
48.28801478610016 9.56426
48.31241445160131 9.57927
48.337007097209366 9.56263
48.36141144338331 9.521339999999999
48.38581812345755 9.47527
48.41022713920929 9.50113
48.434829215320704 9.490089999999999
48.45924292604658 9.47322
48.48365897780325 9.47364
48.50807737237308 9.42608
48.532688907799276 9.4354
48.55711201168574 9.36515
48.581537463754074 9.375160000000001
48.60615611725119 9.341289999999999
48.63058628942721 9.357339999999999
48.65501881516546 9.33826
48.6794536962573 9.32584
48.70408185970339 9.25632
48.72852147531801 9.27567
48.75296345168211 9.24098
48.77740779059232 9.22134
48.80204549302823 9.246039999999999
48.82649458091802 9.14905
48.85094603676547 9.192730000000001
48.87539986237231 9.14475
48.90004713292306 9.1161
48.92450572200832 9.1115
48.94896668628025 9.04927
48.97343002754588 9.07372
48.99808689542115 9.09493
49.02255501470614 9.04919
49.04702551642794 9.02994
49.0714984023988 9.0078
49.096164896893235 9.0048
49.120642575466796 8.99253
49.145122643748394 8.94905
49.16960510355558 8.947239999999999
49.19428125404938 8.96438
49.2187685210852 8.93791
49.243258185121555 8.88369
49.26794160167084 8.8472
49.2924360839405 8.83234
49.31693296869764 8.8388
49.34143225776915 8.83359
49.36612538195438 8.813130000000001
49.39062950396021 8.78837
49.41513603578346 8.78628
49.4396449792564 8.7288
49.46434784069503 8.77197
49.488861631846454 8.745619999999999
49.513377840166804 8.72086
49.537896467493745 8.69744
49.56260909589029 8.644960000000001
49.587132585683285 8.66588
49.611658500018365 8.58548
49.636186840738596 8.61248
49.66090926588511 8.62374
49.685442483902584 8.59029
49.70997813385706 8.53534
49.734516217597076 8.538969999999999
49.75924846937352 8.54385
49.7837914452858 8.515889999999999
49.80833686055187 8.50883
49.83288471702571 8.48961
49.85762682540054 8.45077
49.882179588965734 8.425880000000001
49.9067347993235 8.46096
49.93129245833333 8.45191
49.95604445336378 8.42695
49.98060703442832 8.37146
50.005172069746266 8.41772
50.02993150438364 8.37053
50.05450147301533 8.37774
50.07907390151433 8.36362
50.10364879174981 8.317860000000001
50.12841816587289 8.283719999999999
50.1529980044635 8.29905
50.17758031042124 8.25836
50.20216508562089 8.252369999999999
50.22694442953363 8.248460000000001
50.25153416817468 8.2331
50.27612638170508 8.21604
50.300721072005196 8.19467
50.325510416102105 8.1829
50.350110084975064 8.1533
50.37471223628208 8.15945
50.39931687190919 8.12519
50.424116246675766 8.14914
50.44872587605249 8.117560000000001
50.47333799543065 8.063939999999999
50.49795260670191 8.07582
50.52276204271512 8.05593
50.54738166295838 8.06325
50.57200378079314 8.0339
50.596628398116835 8.00842
50.62144792604559 7.955610000000001
50.646077567609396 7.98385
50.670709714377715 7.963660000000001
50.69553683636198 7.922060000000001
50.72017401885922 7.90406
50.7448137122895 7.927010000000001
50.76945591856022 7.877839999999999
50.79429318636823 7.870089999999999
50.818940443716784 7.874739999999999
50.84359021965163 7.84847
50.868242516085964 7.8014399999999995
50.893089960641895 7.82632
50.917747323549435 7.78068
50.94240721271973 7.81312
50.96706963007175 7.78407
50.99192728239342 7.769360000000001
51.01659478166073 7.724710000000001
51.04126481489051 7.70515
51.06593738400761 7.701389999999999
51.090805275207074 7.68766
51.11548294172845 7.67334
51.14016314993547 7.66251
51.164845901758845 7.65389
51.18972406304274 7.609539999999999
51.21441192780656 7.5878
51.23910234200271 7.62494
51.2637953075678 7.60773
51.288683770237945 7.573189999999999
51.31338186432707 7.54165
51.33808251561888 7.51625
51.362978729967345 7.525530000000001
51.387684521509755 7.50484
51.41239287610203 7.488689999999999
51.437103795691165 7.449269999999999
51.46201036644977 7.48336
51.486726441956634 7.44072
51.51144508832545 7.443230000000001
51.536166307509156 7.422969999999999
51.56108326624387 7.409510000000001
51.58580965706056 7.385730000000001
51.61053862657523 7.34675
51.635270176746864 7.32256
51.66019755512065 7.31307
51.68493429268881 7.317239999999999
51.70967361681515 7.30218
51.73441552946465 7.27388
51.759353359237934 7.27314
51.7841004750961 7.27544
51.80885018539685 7.27685
51.833602492111254 7.2561100000000005
51.8585508051424 7.23642
51.883308330926425 7.2178
51.90806845906181 7.1860100000000005
51.932831191525715 7.18445
51.95779001977161 7.164610000000001
51.98255798721516 7.1331
52.00732856494335 7.10549
52.03229530577543 7.10568
52.057071130455945 7.136310000000001
52.081849571391054 7.11647
52.106630630568695 7.091639999999999
52.13160794279417 7.0407399999999996
52.15639426492067 7.03321
52.18118321127822 7.01266
52.205974783860896 7.032939999999999
52.23096269971011 7.02088
52.255759551287994 6.99593
52.280559035098186 6.9720699999999995
52.30536115314103 6.9589300000000005
52.33035970494467 6.92183
52.35516711807904 6.9618
52.37997717147198 6.9039600000000005
52.40478986713005 6.9199
52.42979908731974 6.89535
52.454617094216 6.88302
52.47943774942214 6.89054
52.50426105495102 6.8716800000000005
52.529280976059844 6.820460000000001
52.554109609024096 6.7997
52.57894089837482 6.788710000000001
52.60377484613117 6.79125
52.62880550079408 6.79168
52.65364479223379 6.750310000000001
52.67848674816189 6.738630000000001
52.70352547971946 6.7069
52.72837279155837 6.7492
52.753222773982785 6.7107
52.778075429022984 6.7203800000000005
52.80312495150885 6.7031600000000005
52.827982978797436 6.667860000000001
52.85284368481815 6.63992
52.87770707160767 6.615819999999999
52.90276741793998 6.61481
52.92763619336701 6.6064
52.952507655698504 6.5904300000000005
52.977381806977576 6.5503599999999995
53.00245301017842 6.57685
53.02733256653592 6.58294
53.052214817996074 6.55273
53.077099766608484 6.54903
53.102181859804446 6.52071
53.127072229988265 6.5097
53.15196530349892 6.51236
53.17686108239249 6.464519999999999
53.20195409881522 6.47355
53.22685531582556 6.45402
53.25175924441303 6.38699
53.27666588664027 6.38984
53.30176985962693 6.3759
53.3266819565689 6.41639
53.35159677336455 6.4006300000000005
53.376514312083096 6.3631
53.40162927507703 6.34342
53.42655228516116 6.33343
53.45147802340193 6.33586
53.47660125628886 6.30436
53.50153247842639 6.2989999999999995
53.52646643496923 6.2878300000000005
53.55140312799818 6.30087
53.576537409691696 6.2697199999999995
53.60147960336152 6.23854
53.626424539786164 6.2495400000000005
53.65137222105307 6.21479
53.67651758529126 6.237419999999999
53.70147078399681 6.18377
53.72642673383343 6.16683
53.75138543689533 6.18136
53.776541917524526 6.17256
53.801506154876755 6.144830000000001
53.826473151763246 6.12755
53.851442910284916 6.08701
53.87661054126026 6.11629
53.9015858509782 6.0673699999999995
53.92656392866066 6.0294300000000005
53.95154477641532 6.05501
53.976723591801296 6.03841
54.00171000771266 6.01255
54.02669920004598 6.04446
54.051691170915745 6.010190000000001
54.076881204886796 6.00822
54.101878760928514 5.94409
54.12687910187696 5.95333
54.152077577768296 5.9375599999999995
54.1770835166946 5.8852
54.20209224691339 5.85919
54.22710377055121 5.86998
54.25231352511594 5.891380000000001
54.27733066384342 5.87183
54.30235060239643 5.8879
54.32737334290836 5.89896
54.35259441062629 5.831919999999999
54.377622783395324 5.80735
54.40265396455061 5.81419
54.42768795623251 5.77686
54.45292037169559 5.774290000000001
54.477960012857906 5.7233
54.50300247099511 5.70519
54.52804774825457 5.73194
54.55329154616743 5.73485
54.57834249018678 5.68816
54.6033962597977 5.6087
54.6284528571545 5.58956
54.653708072335164 5.59438
54.67877035378786 5.57219
54.70383546947698 5.5384400000000005
54.72890342156389 5.51593
54.7541700889442 5.48398
54.77924374251975 5.48747
54.8043202390049 5.46665
54.82959552413022 5.470619999999999
54.8546777351945 5.446359999999999
54.87976279569621 5.42624
54.90485070780914 5.47958
54.930137506558005 5.38145
54.95523115074295 5.35494
54.98032765308844 5.36397
55.005427015775496 5.321219999999999
55.03072536339621 5.34647
55.05583047570572 5.27441
55.080938454927676 5.26726
55.10604930325027 5.25873
55.131359235107396 5.26927
55.15647585066083 5.2205
55.181595341907496 5.156000000000001
55.20671771104285 5.1376800000000005
55.232039262617704 5.127619999999999
55.25716741665048 5.0999
55.28229845518636 5.14608
55.30743238042802 5.090319999999999
55.33276558731939 5.0501
55.357905315183636 5.07719
55.383047936390035 4.97366
55.40819345314859 4.98344
55.433538351073295 4.99138
55.458689688238415 4.9692099999999995
55.483843927614096 4.93804
55.509197623043605 4.8564099999999994
55.53435769621134 4.89881
55.55952067826466 4.863580000000001
55.5846865714265 4.8574
55.61005202069737 4.8345
55.63522376553902 4.83052
55.66039842818645 4.7656
55.68557601087004 4.77365
55.7109532500271 4.69519
55.73613670233794 4.71678
