TT I
1.2716486653135266 7.16488
1.2939594142134223 7.41182
1.3162702121660406 6.81827
1.3385810600174564 6.5403199999999995
1.3608919586137629 7.01577
1.383202908801069 6.57182
1.405513911425503 5.604369999999999
1.4278249673332093 6.1889199999999995
1.4501343378461518 6.17622
1.4724455028545926 5.4864
1.4947567236847858 5.52664
1.517068001182951 5.81688
1.5393793361953272 5.84922
1.5616907295681737 4.99909
1.5840021821477681 5.56155
1.60631369478041 5.6731300000000005
1.6286252683124185 5.7319
1.6509369035901333 5.28573
1.6732468618895553 4.7430699999999995
1.695558623192809 5.10606
1.7178704487808514 5.21901
1.7401823395001077 4.62796
1.7625012545597203 5.104830000000001
1.7848028405262486 5.2878
1.8071218901122095 5.23439
1.8294236121921872 4.73906
1.8517427996910911 5.4757
1.8740620574440425 4.7790099999999995
1.8963639900671978 4.53348
1.9186833908139995 4.62934
1.9409854680117449 5.12906
1.9633050151394713 4.71876
1.9856246367570705 4.43901
2.0079269371922672 4.8606300000000005
2.03024671027244 4.67641
2.0525491637446027 4.5102400000000005
2.074869091674931 4.5703
2.097171701569106 4.20215
2.1194917877373847 5.02726
2.141811954326636 5.0797300000000005
2.164114805233074 4.7329099999999995
2.186435135143035 5.2681
2.208738150935709 13.0118
2.231058647554722 26.2046
2.2533792288321184 19.8874
2.275682498336085 9.33718
2.298003251406138 5.781280000000001
2.3203066942619714 5.59558
2.3426276225136022 5.4751
2.3649486396617507 5.28634
2.387252348930071 6.13401
2.4095735463442893 5.5998
2.4318774374315884 6.01219
2.4541988185014043 5.93852
2.476502894794693 6.1852
2.498824462909887 6.725110000000001
2.521146125856138 6.715339999999999
2.5434504863470337 7.4406300000000005
2.5657723414244717 7.05655
2.588076895590662 7.13887
2.610398946189713 7.75299
2.6327210958598384 7.76737
2.6550259469304716 7.4303
2.6773482972090137 7.34001
2.6996533504259 8.11325
2.7219759047039602 7.71515
2.744298562293959 7.59887
2.7666039251246595 7.32647
2.7889267918020164 7.244260000000001
2.8112323652516555 7.553910000000001
2.833555444408179 8.55091
2.8558786311183852 8.16949
2.8781845268938557 8.714210000000001
2.9005079311721484 9.102689999999999
2.9228140460410397 8.90393
2.9451376712799635 9.4889
2.967444008632326 9.68713
2.9897678582247247 9.32911
3.0120918213106695 10.2708
3.0343984987899373 11.0202
3.0567226913198637 11.3745
3.079029599759726 11.9674
3.101354025127254 12.3801
3.123678568232338 12.9938
3.145985829517914 12.9302
3.16831061055229 13.6965
3.1906181112775593 14.1806
3.212943133635653 14.6833
3.2352682779763207 15.2
3.2575761442691227 15.6138
3.2799015350264273 15.7155
3.302209649240067 16.7435
3.3245352898092655 17.1819
3.3468436553365257 17.6428
3.369169549113219 17.8813
3.3914955708171384 18.8477
3.413804319727358 18.82
3.4361305997334863 19.2816
3.4584396084414553 19.7665
3.4807661501462652 20.6011
3.503092824025881 21.180999999999997
3.5254022288463154 21.4078
3.5477291695206588 21.8578
3.5700388426251948 22.3928
3.5923660534916446 24.064
3.6146934007816114 37.5966
3.637003482731501 83.7484
3.6593311053109985 91.9084
3.681641464033634 53.655
3.7039693653009733 30.4911
3.726297407241705 26.351999999999997
3.7486081875460804 26.3658
3.7709365132734978 26.4147
3.793247578841633 26.9547
3.8155761917550093 26.7788
3.8378875459837216 27.3515
3.8602164494827234 27.8462
3.882545499606844 28.4602
3.9048572932539183 29.3224
3.9271866390645718 29.1571
3.9494987298666713 29.685
3.971828374764527 30.6681
3.9941581705403255 31.3237
4.016470713506008 31.8367
4.038800813471445 32.8494
4.061113662089144 33.2606
4.0834440696459176 33.943000000000005
4.105774632334751 34.4389
4.128087945865126 35.4007
4.150418821249301 36.2612
4.172732448931298 37.4187
4.195063640413578 38.858000000000004
4.2173775856475215 43.7061
4.239709096631102 73.3954
4.262040768704612 220.797
4.284355196706267 291.161
4.306687193387355 187.918
4.329001947444346 77.9803
4.35133427213731 48.8722
4.373666762177566 45.0487
4.395982011761091 45.0409
4.418314834921175 46.402
4.44063041906622 53.7815
4.4629635787515625 63.6476
4.4852969080429785 63.2273
4.5076130004776225 54.2649
4.529946671403969 51.333999999999996
4.552263106909177 51.3954
4.574597122877047 51.7553
4.596931312711224 52.7764
4.619248269273446 53.9979
4.6415828092605835 55.1565
4.663900117405352 56.2684
4.686235010953232 57.4629
4.708552674085913 59.1397
4.730887924602802 60.1087
4.753223354952695 61.4922
4.775541557023902 62.7817
4.797877349456786 64.7082
4.820195915032126 66.8021
4.842532072957498 68.1611
4.864868414979744 70.7583
4.88718753227192 72.9728
4.909524244902505 74.6095
4.931843734218147 76.3478
4.954180820867835 79.0742
4.976518095879839 82.7192
4.998838149695359 85.2352
5.021175803844231 88.7764
5.043496238205739 92.1454
5.065834274903528 96.7771
5.088172504230693 101.914
5.1104935158799565 109.351
5.132832132875765 132.29399999999998
5.155153533596801 174.97099999999998
5.1774925416746225 214.578
5.199814334878411 411.379
5.2221537374521505 1169.88
5.244493338631803 3140.54
5.266815727034316 7520.94
5.289155727832427 11764.1
5.311478517248165 8879.78
5.333818921080011 3176.52
5.356159527788849 651.207
5.3784829252032536 204.27
5.400823940070432 153.115
5.423147747031976 134.188
5.445489173474152 123.164
5.467830807066149 116.74700000000001
5.490155234831516 112.947
5.512497285125229 108.665
5.534822130975162 106.51
5.557164601388673 104.274
5.579489868738879 101.75299999999999
5.601832762690846 100.943
5.6241758697774475 99.3295
5.646501775867269 98.3658
5.668845311622074 97.1557
5.691171647754637 96.1111
5.713515615597765 94.7495
5.735859800852677 93.7416
5.758186788542988 93.5235
5.780531411018185 93.8789
5.802858837297399 92.8215
5.825203900414495 93.1245
5.8475491852224 93.8193
5.869877275883075 94.2083
5.892223006467101 95.7432
5.914551544266608 96.6971
5.936897724049891 99.7238
5.959244129804903 106.29
5.981573344815301 127.645
6.0039202049061 231.705
6.026249875609095 511.319
6.04859719346037 1068.0
6.070927323278297 2263.24
6.093275102315365 4202.18
6.115623113320588 5293.93
6.137953938319995 3526.65
6.160302415650845 1207.54
6.182633708324452 287.812
6.2049826554078376 123.595
6.227331838745022 97.4279
6.249663839443684 88.6684
6.27201349767565 84.9893
6.294345974611799 89.9007
6.316696111167083 100.169
6.339046488263839 94.3146
6.361379686074702 80.3283
6.383730546639482 73.0566
6.406064229255215 70.3473
6.428415576718203 69.4792
6.450749747566656 68.4427
6.47310158535871 67.2801
6.495453669698332 66.1902
6.517788579421056 65.5703
6.540141159237969 64.6791
6.562476565766648 64.6287
6.5848296444934045 63.8613
6.607182974060425 63.5491
6.6295191323281015 63.8632
6.651872965955752 66.9938
6.6742096296068985 90.6928
6.6965639707294615 133.196
6.71891856698715 132.2
6.741255995248479 92.2995
6.763611104154477 67.9431
6.785949046381137 61.1095
6.808304671371482 59.4005
6.8306605557940046 58.88399999999999
6.852999275508618 58.0298
6.875355681171544 57.7033
6.897694923437771 57.4864
6.92005185377892 57.3899
6.9423916220322655 56.8707
6.964749080490181 56.6907
6.987106804399774 56.498999999999995
7.009447368180821 56.8434
7.031805625367033 56.2412
7.054146723727803 56.3884
7.076505517631004 56.2748
7.098864581288365 55.5789
7.121206488070854 55.5826
7.143566093607822 55.4797
7.165908543567245 55.8057
7.188268694426048 55.9811
7.2106291193438095 56.099
7.232972390625943 57.6739
7.255333366030969 69.1719
7.277677189091925 117.238
7.300038718428332 159.939
7.322400526130865 135.855
7.344745183422596 86.5123
7.367107550224791 62.206
7.389452767901992 56.8496
7.411815697249891 55.9537
7.434161478756298 55.3081
7.456524974096713 54.9183
7.478888753837185 55.0872
7.501235387657368 55.3182
7.523599738562711 55.2659
7.545946944825532 55.7932
7.568311870344528 56.1199
7.5906770845765665 56.1697
7.613025156078678 57.5568
7.635390950099687 58.8964
7.657739602662809 57.8252
7.680105979923558 56.6522
7.702472650212829 56.7752
7.724822180948224 56.5419
7.747189439655568 57.0175
7.769539560075357 56.9477
7.791907410653562 57.6104
7.81425812420825 57.518
7.836626570110925 58.1305
7.858995315087906 58.5007
7.881346924933401 58.8353
7.903716270417482 59.1859
7.926068482028405 59.4834
7.948438431475253 60.3899
7.9708086843180235 60.8529
7.993161805171116 61.5126
8.015532667162402 61.6077
8.037886398416653 62.7497
8.060257873014221 63.1763
8.082629655331942 63.9017
8.104984308787587 64.8141
8.127356708900503 67.8327
8.149711981398308 73.5179
8.172085002766314 75.4681
8.194458336181368 72.2124
8.216814543847752 70.1269
8.23918850371002 70.1638
8.26154533906492 71.2372
8.283919928836452 72.83
8.306277395339652 73.7374
8.328652618483376 75.1084
8.351028159736202 77.1096
8.373386579575245 79.3915
8.395762759396959 81.212
8.418121819038275 86.3466
8.440498640894003 99.7254
8.462875785192262 113.241
8.485235811156207 127.928
8.507613602688501 176.487
8.529974277114228 275.312
8.552352719347912 421.501
8.574731488360351 699.512
8.59709314210385 1202.49
8.619472567021075 1784.98
8.64183487789147 2129.28
8.664214962183097 1857.79
8.686577933647762 1060.61
8.708958680784317 421.31199999999995
8.731339760774953 183.16400000000002
8.753703729764451 117.637
8.77608547780821 102.105
8.798450116065078 97.8163
8.820832535634787 94.5822
8.843215292401656 93.1252
8.865580941199045 91.2449
8.887964374703538 89.93700000000001
8.910330701447199 91.0241
8.932714815164482 93.0179
8.955099270424924 92.0583
8.977466620733543 89.09200000000001
8.999851761421976 86.4234
9.022219798361645 84.6236
9.04460562795561 84.7181
9.066991803441677 84.4838
9.089360876979615 83.8537
9.111747746589993 83.9607
9.13411751544971 83.2224
9.156505082664324 83.006
9.178875550323522 83.0664
9.20126381862328 83.6117
9.223652438908596 83.97200000000001
9.246023961427412 83.3821
9.26841328802173 83.4136
9.290785518039224 83.1762
9.313175554425882 83.8989
9.335565947154315 83.4936
9.357939245086508 83.9862
9.380330352834827 84.2791
9.40270436697103 84.4213
9.425096193225055 84.3807
9.447488380180165 85.3848
9.469863475295412 85.5937
9.492256385987508 85.7905
9.514632206018318 86.7529
9.537025843935714 87.1914
9.559402392368193 87.5616
9.581796761000229 88.8853
9.604191496441521 89.9059
9.626569144158516 93.022
9.648964615551032 97.4947
9.671343000390081 98.8526
9.693739211225699 97.3049
9.716135793237463 94.9175
9.738515290448102 94.7389
9.760912617143402 95.4157
9.783292860202891 96.2533
9.805690935076182 97.7789
9.828089385495742 99.2094
9.850470754023561 101.515
9.872869957865444 108.821
9.89525208097539 122.743
9.917652041736662 134.954
9.940052382417589 135.57
9.962435644102392 145.961
9.984836746950979 189.87099999999998
10.007220771957746 260.152
10.029622640473708 372.705
10.052007432299963 558.342
10.074410069984072 843.862
10.096813093716005 1257.13
10.119199042482517 1656.45
10.141602840636468 1887.3
10.163989564971628 1655.42
10.186394141051062 1003.96
10.208799107559706 458.977
10.231187001965623 217.53099999999998
10.253592751657669 135.85
10.275981430388155 117.165
10.298387966769793 115.119
10.320794897965431 116.875
10.343184759907361 115.402
10.36559248305461 109.994
10.387983138083852 106.671
10.410391656691655 110.083
10.432800574501677 122.74799999999999
10.455192425893369 140.77200000000002
10.47760214443012 167.493
10.499994797678786 211.31900000000002
10.522405320453982 292.095
10.54479877906917 403.10900000000004
10.567210109595656 500.161
10.5896218454736 557.779
10.612016518879773 499.13199999999995
10.634429067781074 370.594
10.656824555333241 223.832
10.679237920773568 133.344
10.701651695961992 99.9016
10.724048411481384 91.54700000000001
10.746463008485165 88.1153
10.768860546937125 86.4733
10.791275969274796 84.7499
10.81369180576079 83.2257
10.836090585366925 82.0027
10.858507252467449 80.9824
10.88090686379991 80.1156
10.903324365036394 79.6941
10.925724811614439 79.6754
10.948143150509463 80.212
10.970561909719066 79.6353
10.992963615930844 77.961
11.015383218085756 75.7648
11.037785768347074 74.4134
11.06020621697282 73.8307
11.082627090322113 73.4525
11.105030913430326 72.7253
11.12745263854165 73.1542
11.149857314510728 76.3258
11.172279894912576 81.7235
11.194702904450653 82.1797
11.217108866490921 78.5087
11.239532736615194 74.1816
11.26193956033512 72.4948
11.284364294577085 70.9255
11.306789462371718 69.0223
11.329197585398376 68.1338
11.351623622610898 68.0354
11.37403261614354 67.2093
11.396459526308487 66.8886
11.418869393879497 66.6325
11.441297180532617 66.2343
11.463725406927658 65.8733
11.486136592353875 65.686
11.508565700543707 66.2807
11.530977768845315 68.2018
11.553407762368774 68.90899999999999
11.575838200059769 68.2396
11.598251599479612 66.2665
11.620682927815501 64.878
11.64309721895548 64.5275
11.665529441478206 64.1038
11.687962112597958 64.0149
11.710377748130886 63.9142
11.732811318753434 63.9031
11.755227854859067 63.9026
11.777662328529495 63.6602
11.800079768750786 63.4895
11.822515149015453 63.4146
11.844950984084935 63.6698
11.867369787303163 63.3194
11.889806534289491 63.5259
11.912226250487029 63.6485
11.934663912939751 63.7652
11.9571020346363 63.73
11.979523127133968 63.8071
12.001962169624331 64.4943
12.024384183972964 65.907
12.046824150809913 69.597
12.069264581333726 75.2324
12.091687985297767 81.82300000000001
12.11412934550045 91.4178
12.136553680195208 106.625
12.158995973632788 129.064
12.181438735204349 155.444
12.20386447284199 182.528
12.226308172985636 198.07
12.24873485024193 201.63400000000001
12.271179492516982 167.99400000000003
12.293607112949127 131.16
12.316052700916226 100.323
12.338498763250042 80.6111
12.360927805303868 71.0495
12.383374818673879 67.3646
12.405804812803074 65.6048
12.428252780773262 65.3089
12.45070122756722 65.2022
12.473132656675375 65.0711
12.49558206341869 65.389
12.518014453510101 65.3665
12.540464823770117 65.5447
12.562915677315177 65.5694
12.58534951575545 66.3583
12.607801338171472 68.4077
12.630236146511358 73.4849
12.652688941369085 77.7271
12.675124723177234 77.7704
12.697578494048786 74.2265
12.720032754458185 70.2843
12.742470003354093 68.8947
12.764925245138771 68.7276
12.787363476431278 69.1191
12.809819703166806 69.2824
12.83227642391173 69.9942
12.854716135692716 70.8002
12.877173846755147 71.9528
12.899614549869717 71.9961
12.9220732548287 72.7868
12.94453245827299 73.1193
12.966974655289818 74.3199
12.989434858002571 75.169
13.011878055298721 75.5767
13.034339260862497 76.795
13.056800969391883 78.1124
13.079245674017244 80.0302
13.101708390774869 82.61200000000001
13.12415410463411 90.6554
13.146617833206086 103.51700000000001
13.169064559883248 116.164
13.191529303857127 131.59799999999998
13.213994557076367 154.504
13.236442809902437 191.083
13.258909083908291 242.94400000000002
13.28135835851934 299.509
13.30382565690295 360.941
13.326293469022952 410.505
13.348744283242008 416.72
13.371213125129904 364.56699999999995
13.39366497011003 278.415
13.416134845360597 187.109
13.438605238843131 131.841
13.46105863690397 110.36399999999999
13.483530069144786 109.14
13.505984506951902 114.87799999999999
13.528456981549432 125.117
13.550929978879088 140.846
13.573385983253365 164.863
13.595860028340867 201.352
13.618317081455832 249.797
13.64079217790333 293.626
13.663250283359057 332.29699999999997
13.685726434770173 359.966
13.708203115221277 342.105
13.730662806148091 275.548
13.75314054697177 203.49900000000002
13.775601299246777 142.202
13.798080104050406 103.78299999999999
13.820559442405358 87.9287
13.843021793671388 83.5405
13.865502201420897 81.539
13.887965623051947 81.0057
13.910447103807167 79.7911
13.932929122629764 78.2505
13.955394156785959 77.8818
13.977877254034569 76.7341
14.000343367582113 76.2078
14.022827546871707 75.5725
14.045294743423524 74.6653
14.06778000837062 74.2757
14.090265817715476 74.2201
14.112734645763819 73.9156
14.13522154619454 73.5865
14.157691466286913 73.428
14.180179461423874 73.1454
14.202668005486178 72.4071
14.22513957064374 71.9313
14.247629214846473 71.5257
14.270101881097517 71.1024
14.29259262906496 71.7594
14.315083930490205 72.1992
14.337558255389705 72.5197
14.360050666019726 72.1885
14.382526101071944 71.199
14.405019624534942 70.1868
14.427513705993134 69.7987
14.449990813291825 69.7737
14.47248601302899 69.7646
14.49496423954951 69.9449
14.517460561197822 69.9905
14.539939910570322 69.5687
14.562437357763558 70.1158
14.58493536931253 71.2729
14.607416409993311 71.8921
14.62991555254159 72.6033
14.652397725157423 72.5404
14.674898002342799 71.7632
14.697398848433282 71.3845
14.719882725991326 72.1925
14.74238471217934 73.1644
14.764869730765593 76.6603
14.787372860692983 80.7205
14.809876564079925 85.3885
14.83236330125751 91.7694
14.854868153850365 100.79700000000001
14.877356041159485 114.15799999999999
14.899862046604186 132.026
14.922351087688757 154.759
14.944858249632887 179.895
14.967365991421232 200.455
14.989856770231246 213.72299999999998
15.012365673994204 214.112
15.03485761569738 193.005
15.05736768508665 156.917
15.07987833888692 121.984
15.102372032001655 96.1678
15.124883856909658 79.5596
15.14737872204565 73.9942
15.169891721717274 71.8871
15.192405310371893 71.5576
15.214901940621196 72.113
15.237416709527137 72.0726
15.259914520936249 71.959
15.282430473753607 70.9389
15.304947020131227 69.9327
15.327446610371178 69.2554
15.349964346154254 68.582
15.372465126703139 67.8684
15.394984055556009 67.4762
15.417486030076159 67.2949
15.44000615566487 66.762
15.462526881230803 67.0708
15.485030653812652 67.4584
15.507552581617434 67.3041
15.530057557334603 67.2592
15.55258069104857 67.1881
15.575104429329837 67.2008
15.597611216864632 66.7709
15.620136166564563 67.1198
15.6426441664095 67.9792
15.665170331202765 70.7655
15.687697105158826 74.0518
15.710206930593545 77.6846
15.732734925158933 82.3686
15.755245972089478 88.8437
15.77777519094324 98.1345
15.800287463046663 110.868
15.822817909869592 128.2
15.84534897229804 147.012
15.867863089299354 167.15
15.890395385222186 180.34400000000002
15.912910736597423 188.266
15.935444269699861 180.56799999999998
15.957978423016485 159.059
15.980495633101265 128.784
16.003031029129367 102.41
16.02554948280019 81.1247
16.048086125229432 70.2651
16.070623392487107 66.7037
16.09314371869582 65.5368
16.11568223789321 64.5084
16.13820381691126 63.5772
16.160743591742527 62.4379
16.183283996022084 61.515
16.205807461423195 60.597
16.228349126881973 59.8285
16.25087385432698 59.7434
16.27341678466365 59.126000000000005
16.29594277784926 59.2821
16.31848697676433 59.4975
16.341031811604868 59.6832
16.36355971058487 59.9575
16.3861058195587 59.5657
16.40863499352978 58.3259
16.431182380342005 57.6421
16.453730407713202 57.1582
16.476261501364792 56.809
16.498810812136167 56.2292
16.52134319004079 56.5424
16.54389378792203 56.272
16.566445031001553 56.2113
16.588979342490088 56.0633
16.61153187824822 56.1219
16.634067483263312 55.843999999999994
16.656621315414416 55.699
16.679175797408888 55.4816
16.701713349928728 55.6084
16.72426913389191 55.7546
16.74680798922351 55.6603
16.76936507887444 55.6704
16.791905240734874 55.6857
16.814463639794468 55.3855
16.837022695210294 55.6002
16.859564824093756 55.8508
16.882125194503903 56.6537
16.904668639217885 57.4861
16.927230328348003 57.3431
16.949792678493612 57.5725
16.972338104193863 57.0522
16.994901778652235 56.5874
17.017448529496576 56.571000000000005
17.040013531998152 56.7421
17.06257920018044 57.0837
17.0851279459922 57.8974
17.107694947817667 58.8815
17.130245028099072 59.6628
17.15281336730298 61.092
17.17536478578733 62.8861
17.19793446610687 65.279
17.220504818648422 68.1398
17.243058251703697 70.9558
17.265629950971032 75.0671
17.288184731571736 78.2188
17.310757781306908 81.4521
17.33333150794385 82.6469
17.355888317140174 82.0466
17.37846339986244 78.3741
17.401021565958885 72.9689
17.42359800851343 67.7907
17.44617513265564 63.7497
17.468735341390783 61.2988
17.491261035594565 60.2168
17.51396340099364 59.7798
17.536490463869136 59.8338
17.559018209820174 59.8314
17.58154663977963 60.1166
17.604251766089718 60.3959
17.626781572227713 60.2637
17.64931206518155 60.6876
17.671843245885103 61.0867
17.69455114821572 61.4796
17.717083712612634 61.6911
17.739616967569667 61.9764
17.762150914021706 62.1919
17.78486160749854 62.1385
17.807396945166804 62.7635
17.829932977143503 63.6727
17.85246970436452 65.3676
17.875183204129467 67.5236
17.897721330097664 69.8061
17.920260154126645 72.3768
17.942799677153296 75.5548
17.9655159983646 79.366
17.988056927677544 84.8846
18.010598558807683 92.3563
18.033140892692916 101.441
18.05586005052525 110.875
18.07840379824407 120.595
18.10094825154059 129.86700000000002
18.12366954819864 136.442
18.146215420998306 138.19299999999998
18.16876200220057 133.181
18.191309292745153 121.588
18.214033452627167 107.845
18.236582170236648 96.0677
18.259131600016456 89.9091
18.281681742907335 88.7763
18.304408781233683 91.6229
18.32696035875955 95.9596
18.349512652227624 99.6507
18.372065662579683 103.635
18.394795594587553 104.82600000000001
18.41735004715306 103.48
18.43990521943684 98.3371
18.46246111238171 90.0617
18.485193953325208 80.5304
18.507751296070428 73.1816
18.530309362314178 68.0651
18.552868153000343 64.9084
18.57560391815056 63.2906
18.59816416623245 62.8665
18.620725141597372 62.1127
18.643286845190268 61.952
18.666025549835414 61.5982
18.688588718427933 61.0288
18.711152618092243 60.4486
18.73389353884365 60.2564
18.75645890921984 59.8177
18.77902501351406 59.4414
18.801591852673102 59.4938
18.824335739722738 58.9869
18.846904057212626 59.0171
18.8694731124168 58.636
18.89204290628315 58.5609
18.914789774966803 58.4884
18.937361054791623 58.1731
18.959933076131318 57.808
18.982505839934877 57.8508
19.00525570560582 57.601000000000006
19.027829963004184 57.9881
19.05040496572238 57.8121
19.072980714710468 57.6005
19.095733592739563 58.026
19.11831084296757 58.3732
19.140888842324735 58.9149
19.16346759176222 59.2447
19.18622349753803 59.6749
19.208803755869358 60.5772
19.231384767143577 61.7657
19.253966532312948 63.317
19.276725481241822 65.36
19.29930876296784 67.4442
19.3218928014549 69.8993
19.34465404436217 72.5344
19.36723960516257 75.0699
19.389825925592426 76.3284
19.412413006605938 75.9255
19.43517731967805 73.1279
19.457765930683355 69.2404
19.48035530514408 65.0055
19.50294544401556 60.8366
19.525712842708348 57.8936
19.54830451925909 56.3413
19.570896963095727 55.1001
19.593490175174704 54.7618
19.616260674962184 54.5018
19.638855432416964 54.3491
19.661450960992624 54.5866
19.68404726164677 54.4726
19.706820878021247 53.9121
19.729418731756834 54.2401
19.752017360452857 54.0043
19.77461676506804 54.1754
19.797393513540218 54.5054
19.819994478951667 54.7046
19.84259622316767 55.3618
19.8651987471481 55.6879
19.887978643247177 56.1088
19.91058273574792 56.6066
19.933187610901943 57.3435
19.955969879466828 58.4401
19.97857632894404 59.8294
20.00118356396599 61.2677
20.023791585494575 63.1237
20.046577028914875 65.4038
20.069186632506966 67.3368
20.091797025500632 69.0785
20.114408208858933 69.9562
20.137196842715273 70.2701
20.159809615886765 69.0321
20.18242318232135 67.2009
20.20503754298326 65.2729
20.227829382875154 64.1019
20.250445341109344 63.3202
20.27306209647285 63.4141
20.29567964993108 64.2956
20.31847471147704 65.0042
20.34109387027612 65.7331
20.363713830075454 65.9517
20.386334591841646 64.8388
20.409132890679302 62.7293
20.431755265564437 59.9141
20.454378445325528 56.9449
20.477002430930366 55.0853
20.499803982716553 53.3922
20.522429589228004 52.5792
20.54505600449589 52.0045
20.567683229489194 51.8526
20.590488049900088 51.3852
20.61311690359731 51.0341
20.63574656993626 50.8641
20.658553853717297 50.5701
20.681185154618298 50.3977
20.703817271080066 50.2593
20.72645020407368 49.9155
20.749260783967177 49.9729
20.771895359337133 49.768
20.794530754161617 49.6603
20.817166969412938 49.4889
20.83998086114876 49.358999999999995
20.86261872660049 49.3571
20.885257415405402 49.4273
20.90789692853701 49.266000000000005
20.930714147864748 49.2263
20.953355319030678 49.3566
20.97599731745334 49.5249
20.99864014410749 49.3643
21.021460706796564 49.3617
21.044105199328826 49.5021
21.06675052302631 49.7972
21.089396678865015 49.9993
21.112220600704806 50.4106
21.134868430275347 50.6279
21.15751709492456 50.8366
21.180166595629693 51.0659
21.202993892429635 51.4033
21.22564507473034 51.8763
21.24829709602816 51.9654
21.27112693608965 52.0053
21.293780644891275 52.0631
21.316435195634053 51.5433
21.339090589297417 51.0309
21.361923832041875 50.4693
21.384580921090404 49.708999999999996
21.407238856007325 49.3479
21.429897637773326 49.2777
21.45273429906592 49.3802
21.475394784108598 49.1712
21.498056118951983 48.865
21.520718304578022 49.3103
21.543558400304388 49.382
21.566222297108816 49.5659
21.58888704765135 49.6204
21.61155265291521 49.9292
21.63439619898156 50.5992
21.657063523335786 50.7545
21.67973170537063 51.3796
21.7024007460706 51.761
21.72524775840385 52.5809
21.747918526116475 53.6168
21.770590155457388 54.6241
21.79326264741238 56.4431
21.816113141960237 57.9684
21.838787368860547 59.5293
21.861462461341976 61.1913
21.884315579735777 62.8627
21.90699241312273 63.8588
21.92967011506078 64.7561
21.95234868653799 64.8407
21.9752053151131 64.0558
21.997885635446785 62.6238
22.020566828293532 61.0819
22.04324889464272 59.1034
22.066109049404666 57.5721
22.088792872571794 56.6869
22.111477572219204 56.6341
22.1341631493376 56.6072
22.157026846313123 56.5175
22.179714188221507 55.971000000000004
22.202402410582668 55.157
22.22509151438863 53.895
22.24795876962584 52.5304
22.270649646204486 51.5646
22.293341407213727 50.6636
22.316034053646906 50.2094
22.338904883215342 49.9288
22.36159931041458 49.8351
22.38429462602756 49.9105
22.40699083104897 49.5517
22.429865251039757 49.5471
22.452563244831367 49.6257
22.47526213102522 49.5416
22.49813925616515 49.3308
22.520839937143307 49.3043
22.543541513520587 49.2217
22.56624398629403 49.06100000000001
22.589124730075895 49.0895
22.611829005656723 49.4676
22.63453418063466 49.4731
22.657240256008077 49.6917
22.680124634582935 49.7393
22.70283252079775 50.0144
22.725541310413075 50.4673
22.74825100442868 50.5059
22.771139033969575 50.898999999999994
22.79385054687155 51.3915
22.81656296718292 51.9339
22.83927629590484 52.7855
22.862167992606945 53.6739
22.88488314827121 54.79
22.907599215359284 55.5689
22.93031619487366 56.4592
22.953211574954405 57.1912
22.975930389478226 57.8682
22.998650119445763 58.4131
23.02137076586092 57.9971
23.044269845560063 57.04
23.06699233506288 55.7163
23.089715744034912 54.0326
23.112617610931565 52.1393
23.135342869061212 51.0469
23.158069049684816 50.1337
23.1807961538087 49.7058
23.20370174880544 49.5629
23.226430710184808 49.4813
23.249160598093425 49.465
23.271891413539002 49.5566
23.294800752937697 49.688
23.31753343374794 49.9408
23.340267045128353 49.9329
23.36300158808808 50.3281
23.38591468821339 50.5257
23.408651104658304 50.8741
23.431388455719986 51.6238
23.454126742409 52.3975
23.4770436196085 53.4155
23.499783787914662 54.6172
23.522524894889884 55.3403
23.54526694154616 56.1204
23.56818761219047 57.0059
23.59093154860734 57.4925
23.613676427751283 58.0026
23.636422250635754 57.6678
23.659346731118656 56.4521
23.68209445191868 54.94
23.704843119509587 52.6039
23.72759273490623 50.8141
23.750521041644767 49.278
23.77327256312355 48.1865
23.796025035462787 47.4833
23.818956224555475 46.9231
23.841710609113413 46.8701
23.86446594758979 46.5184
23.887222241002014 46.2793
23.910157285144578 45.8816
23.932915498962537 45.9403
23.955674670778713 45.6641
23.978434801611975 45.5627
24.001373717286125 45.4578
24.024135776723917 45.2623
24.046898798245582 45.1891
24.06966278287146 45.0642
24.092605586582614 44.875
24.115371508023642 44.8337
24.1381383956401 44.6794
24.16090625045381 44.6857
24.183852958731244 44.5828
24.206622758582608 44.3087
24.229393528706886 44.1743
24.252165270127392 44.4387
24.27511589952438 44.2089
24.297889594216997 44.1437
24.32066426328598 44.0049
24.34343990775613 44.0253
24.36639447485003 43.9762
24.38917208083877 43.7752
24.41195066531332 43.5764
24.43490819850244 43.7672
24.457688750692377 43.6188
24.48047028445616 43.54
24.503252800821233 43.6228
24.526214300784112 43.6452
24.548998793132213 43.5944
24.57178427117417 43.4778
24.59457073593893 43.6615
24.617536219319863 43.5741
24.64032466834748 43.6434
24.663114107195035 43.4323
24.685904536893013 43.2481
24.708874020360852 43.1378
24.731666442613744 43.1321
24.754459858818787 42.9431
24.777254270007962 42.8488
24.80022777025625 42.8432
24.82302418230472 42.8734
24.845821592443674 42.836999999999996
24.86862000170663 42.8072
24.891597535453727 42.6624
24.914397953892728 42.8646
24.93719937456671 42.8783
24.96000179851076 42.8654
24.98298338249997 43.2111
25.00578782394922 43.4638
25.028593271784167 43.4379
25.05157790644186 43.891000000000005
25.07438537804115 44.0098
25.097193859145293 44.2395
25.120003350792075 44.3442
25.142992065061257 44.7783
25.165803588823465 44.8687
25.18861612625217 45.0753
25.211429678386736 45.3261
25.234422489079968 45.2767
25.257238081693636 45.4039
25.280054692141732 45.4077
25.3028723214652 45.3884
25.325869245420463 45.2818
25.348688923599397 45.4352
25.371509623787006 45.3213
25.394331347025812 45.0979
25.41733240110666 44.7147
25.440156181590016 44.2261
25.46298098826268 43.7747
25.48580682216873 43.1417
25.50881202326435 42.8392
25.53163992281684 42.4205
25.55446885274561 42.0674
25.577298814096377 41.532
25.600308179121807 41.3237
25.623140214533745 41.4106
25.64597328451537 41.4247
25.66898578564376 41.1192
25.691820936010206 41.111999999999995
25.714657124097695 41.1559
25.737494350954734 41.1639
25.760511045684957 40.9769
25.783350361364224 41.1589
25.806190718969255 41.0556
25.82903211955018 41.2652
25.852053024868923 41.2418
25.874896522722523 41.3561
25.897741066713106 41.1439
25.920586657892454 41.2897
25.943611790812668 41.4675
25.966459487728237 41.6346
25.989308234998564 41.5679
26.01215803367705 41.8964
26.03518741123814 42.0857
26.05803932412957 42.0503
26.080892291600094 42.1404
26.10374631470478 42.0333
26.12677995397268 42.2972
26.14963609978026 42.3026
26.172493304397875 41.9472
26.19535156888223 42.021
26.218389486949604 41.4994
26.241249882640123 41.198
26.26411134137826 40.9979
26.28715248187403 40.9566
26.31001607820869 40.7989
26.3328807407756 40.7001
26.35574647063438 40.6745
26.37879191991473 40.6824
26.401659795896734 40.7109
26.424528742360263 40.8297
26.447398760366614 41.1046
26.470448535598294 41.1249
26.49332070826805 41.313
26.516193955675355 41.6946
26.53906827888316 41.8479
26.562122397260108 41.8835
26.584998883685063 42.2506
26.607876449110325 42.5465
26.63075509460056 42.465
26.65381357334404 42.7229
26.67669439061878 42.6133
26.699576291163382 42.58
26.722459276044212 42.5826
26.745522132402975 42.2757
26.768407297649354 42.0987
26.791293550442003 41.7609
26.814180891848974 41.5212
26.837248143099337 41.1216
26.860137673466657 41.0117
26.88302829566349 40.7725
26.90592001075963 40.5844
26.92899167420566 40.4758
26.951885586870763 40.1565
26.974780595655517 40.1051
26.99785558178161 39.9269
27.020752794605112 39.5566
27.043651106772522 39.3891
27.06655051935668 39.4118
27.089629948036183 39.2435
27.112531573292053 39.1965
27.135434302194138 39.2162
27.158338135817015 39.1921
27.181422024430987 39.1732
27.204328079372566 39.059
27.22723524226965 39.0179
27.250143514198573 39.1578
27.273231880156334 39.2184
27.296142382065014 39.0386
27.319053996245536 38.9734
27.341966723775965 39.0202
27.365059584515222 39.0011
27.38797455070062 39.0823
27.410890633481237 38.9209
27.433807833936918 38.9476
27.456905206923906 38.9834
27.47982465472398 39.1441
27.502745223449743 39.037
27.525666914182825 39.1386
27.548768816912457 39.1003
27.571692763693633 38.9654
27.59461783573812 39.0317
27.617723149491244 38.763000000000005
27.640650484125285 38.8341
27.66357894728264 38.6515
27.686508540048052 38.6323
27.709618414237887 38.5953
27.732550278321757 38.4537
27.755483275279115 38.448
27.778417406196485 38.3302
27.801531858397514 38.3607
27.824468269376716 38.4146
27.847405817586786 38.4658
27.870344504116094 38.6913
27.893463551932008 38.7427
27.916404527281053 38.8414
27.93934664422563 38.993
27.962289903855886 38.9201
27.98541356491974 39.1364
28.00835912214229 39.1868
28.03130582533231 39.4938
28.054253675581805 39.6141
28.077381967556104 39.5107
28.100332124185126 39.4946
28.123283431160893 39.4193
28.146235889577238 39.3392
28.169368830154156 39.2991
28.192323603752033 39.0218
28.215279532083304 38.6752
28.238415973016764 38.3888
28.261374223145094 38.4808
28.284333631303806 38.2952
28.307294198589954 38.0749
28.330435319167677 37.6819
28.353398217078915 37.4023
28.376362277420153 37.2493
28.39932750129032 37.2341
28.422473319286713 37.0507
28.44544088262495 36.9063
28.468409612800283 36.7448
28.491379510913497 36.5906
28.51453004413313 36.5376
28.53750229057244 36.5366
28.56047570826344 36.4256
28.583450298308804 36.5441
28.606605564586562 36.1824
28.629582511831156 36.3145
28.65256063474956 36.0479
28.675539934446338 36.0948
28.698699951647605 36.1345
28.72168161743193 36.0367
28.74466446331978 36.0206
28.767648490417624 35.9323
28.790813276438353 36.0117
28.813799678527303 35.9658
28.836787265157085 35.895
28.859955641890075 35.9554
28.882945610203045 35.9076
28.905936766392035 35.7849
28.928929111566863 35.7917
28.952102288520145 35.8391
28.975097024308607 35.6711
28.998092952423807 35.4333
29.021090073977508 35.597
29.04426806913204 35.361999999999995
29.067267590245258 35.1582
29.090268308143695 35.1291
29.11327022394099 35.0801
29.13645305530891 34.9513
29.159457379627167 34.8405
29.18246290519685 34.9453
29.20546963313352 34.8899
29.22865731875826 34.8341
29.25166646419296 34.8993
29.27467681535305 34.7717
29.29768837335608 34.7141
29.320880931312562 34.8166
29.34389491580634 34.7175
29.366910110507334 34.7951
29.38992651653503 34.6889
29.41312396492981 34.6456
29.436142806456754 34.6094
29.45916286268059 34.5878
29.48236399319994 34.5028
29.50538649169417 34.3932
29.528410208259935 34.2759
29.55143514402014 34.0032
29.574641196749695 33.9615
29.597668583816574 33.7902
29.6206971934585 33.7022
29.64372702680042 33.6072
29.666938019934474 33.4988
29.689970313635285 33.6005
29.713003834422636 33.5033
29.73603858342347 33.3962
29.759254535188578 33.3065
29.78229175361658 33.2927
29.80533020365064 33.3857
29.82836988641968 33.4176
29.85159081507472 33.2441
29.874632976355343 33.305
29.89767637376955 33.2435
29.920721008448314 33.0903
29.9439469322847 33.1612
29.96699405457564 32.9563
29.9900424175358 33.0041
30.013092022298157 33.0438
30.03632295963995 32.8493
30.059375061131373 32.9905
30.08242840783577 33.0102
30.105483000888153 32.9516
30.128718970092244 32.9469
30.151776069006917 32.8708
30.17483441768648 32.9533
30.198074175317235 32.8382
30.221135036724256 32.8795
30.24419715131772 32.8124
30.267260520236203 32.7361
30.290505341942243 32.9045
30.313571232750228 32.975
30.336638381310948 32.8473
30.35970678876503 32.7048
30.38295669299435 32.6279
30.40602763151657 32.5385
30.429099832366074 32.5963
30.452173296685572 32.6261
30.47542830191959 32.5364
30.498504306502497 32.5583
30.521581577995562 32.5535
30.544660117543582 32.6662
30.56792024229725 32.6758
30.59100133132069 32.4782
30.614083691845494 32.5893
30.637167325018545 32.6055
30.660432587840603 32.6207
30.683518779717886 32.5263
30.70660624769615 32.6521
30.729694992924372 32.5891
30.75296541239743 32.6934
30.77605672557558 32.5893
30.799149319462742 32.5333
30.8224236211637 32.3861
30.845518789950724 32.357
30.868615242910597 32.3636
30.891712981195973 32.1896
30.91499247215866 32.1231
30.938092794619365 32.0237
30.96119440587579 31.993000000000002
30.984297307082752 31.8638
31.00758200598383 31.7132
31.030687500658694 31.6767
31.053794288760695 31.662
31.076902371446767 31.5279
31.100192296997445 31.5472
31.12330298246119 31.5945
31.14641496599209 31.4641
31.169528248749216 31.454
31.19282341969534 31.3795
31.215939314557186 31.3975
31.239056512134788 31.4211
31.262175013589378 31.3624
31.28547544871168 31.3046
31.30859657161541 31.1819
31.331719001892175 31.3554
31.35484274070538 31.5023
31.378148458819545 31.3442
31.401274828443725 31.3822
31.424402510106933 31.3305
31.447712205419993 31.3979
31.470842524931633 31.2305
31.493974159989783 31.3191
31.51710711176168 31.2958
31.54042212308802 31.2021
31.563557722100917 31.1832
31.586694641341655 31.0752
31.609832881979628 31.0057
31.63315322823208 30.945999999999998
31.656294125521327 30.7699
31.679436347728515 30.7392
31.70257989602529 30.7281
31.725905596152327 30.592
31.74905181052835 30.5046
31.772199354521323 30.7077
31.79534822930507 30.6649
31.818679302290967 30.6149
31.84183085259981 30.5109
31.864983737233473 30.6075
31.88813795736804 30.5947
31.911474422233013 30.4361
31.934631327356435 30.474
31.9577895715215 30.5163
31.980949155906522 30.4413
32.004291031706956 30.4217
32.027453310562606 30.3677
32.05061693318573 30.2204
32.07396288236386 30.2497
32.09712920658542 30.2719
32.12029687812702 30.0479
32.14346589817093 29.9554
32.166817291729984 29.958000000000002
32.18998902288583 29.9303
32.21316210610336 29.7219
32.23633654256711 29.6828
32.259693399663725 29.7291
32.282870556771144 29.4967
32.30604907069099 29.5403
32.329228942610065 29.4518
32.35259128243769 29.4365
32.375773884550505 29.3055
32.398957848235646 29.2635
32.422143174682176 29.247
32.445511016471215 29.2066
32.468699082679954 29.2135
32.49188851523011 29.0908
32.51507931531304 29.0382
32.538452678331 29.1176
32.56164622776311 28.9273
32.58484114831493 28.9083
32.60803744118015 28.9908
32.631416344731896 28.9659
32.654615396551876 28.9204
32.67781582427913 28.9039
32.701198898634416 28.7766
32.72440209253756 28.6964
32.747606665947124 28.6778
32.77081262006088 28.5029
32.79420126883317 28.5652
32.81740999876112 28.5302
32.840620112999424 28.4965
32.86383161274818 28.4095
32.88722585534586 28.4013
32.91044014056596 28.4095
32.933655814909734 28.3485
32.95687287957963 28.3594
32.98027273544904 28.2902
33.00349259526636 28.3078
33.026713849030116 28.2451
33.04993649794511 28.2609
33.073341986570746 28.2085
33.09656744032826 28.2927
33.11979429286444 28.2941
33.14302254538647 28.1658
33.166433686291185 28.1312
33.18966475336992 28.0943
33.212897224069096 27.991999999999997
33.23613109959831 28.0135
33.259547912343415 27.9462
33.2827846121627 28.0067
33.306022720453775 28.024
33.32926223842861 27.8559
33.352684742614166 27.8027
33.37592709463173 27.8218
33.399170859982064 27.7497
33.422597648419426 27.7071
33.44584425514446 27.4973
33.46909227885668 27.4584
33.4923417207723 27.3671
33.51577423505344 27.4603
33.539026528130385 27.3122
33.56228024307245 27.2764
33.585535381098246 27.1998
33.60897364093058 27.1551
33.63223163992385 27.087
33.6554910656699 27.0301
33.678751919389796 27.0995
33.702195944520106 26.9338
33.72545966903325 26.923000000000002
33.74872482519663 26.9493
33.771991414233746 26.9174
33.79544122444841 26.9017
33.81871069412428 26.7292
33.84198160035767 26.7505
33.86525394437455 26.7324
33.88870955949969 26.6831
33.911984794020626 26.6949
33.93526147001624 26.6173
33.958539588715006 26.5396
33.98200102861669 26.4063
34.0052820477047 26.4325
34.02856451319451 26.4712
34.05203033759056 26.3998
34.07531571090147 26.3829
34.09860253431845 26.2935
34.121890809074316 26.3259
34.145362493118924 26.2522
34.16865368561615 26.229
34.191946333164054 26.1805
34.21524043699793 26.1073
34.23871800066799 26.164
34.26201503218366 26.0299
34.28531352370466 25.9938
34.30861347646881 25.9972
34.33209693978188 25.9263
34.3553998301885 25.9207
34.378704185565205 25.8408
34.402010007152356 25.816999999999997
34.42549939016683 25.8216
34.44880815937748 25.6114
34.472118398533134 25.6752
34.49543010887669 25.5519
34.51892543169198 25.5065
34.54224009966052 25.5045
34.56555624255917 25.5017
34.58887386163339 25.4067
34.61237514439016 25.3085
34.6356957311114 25.3341
34.65901779775809 25.3216
34.68252356662995 25.2895
34.705848608458616 25.2804
34.72917513396849 25.1959
34.75250314440949 25.1862
34.77601490857862 25.0704
34.799345904259795 25.0347
34.82267838863559 25.0994
34.846012362958525 25.0137
34.869530142679984 24.9202
34.89286711232212 24.9711
34.91620557568269 25.0078
34.93954553401677 24.9397
34.9630693495876 24.8059
34.986412313340814 24.8873
35.00975677584668 24.8424
35.033102738362956 24.7448
35.05663261012228 24.7655
35.0799815881786 24.6912
35.10333207003229 24.6191
35.12668405694369 24.6919
35.150220005273056 24.6147
35.17357501786656 24.5616
35.19693153931268 24.5206
35.220289570874385 24.4998
35.24383161619786 24.5806
35.267192683604904 24.5065
35.290555264930376 24.4348
35.314101899412165 24.3739
35.33746752422433 24.3659
35.36083466676374 24.3708
35.38420332829803 24.4252
35.407756095629054 24.3385
35.43112781085063 24.2777
35.45450104888391 24.2707
35.477875810999194 24.2253
35.50143473172161 24.194000000000003
35.52481255774625 24.2667
35.54819191167777 24.1586
35.57157279478914 24.1699
35.595137889488406 24.0736
35.61852184675279 24.0815
35.641907337029984 23.9509
35.665294361595684 23.9362
35.68886565090076 23.8935
35.7122557598848 23.8107
35.73564740699838 23.8043
35.759040593519934 23.752
35.78261809810353 23.8282
35.80601437933051 23.7214
35.829412203814705 23.7021
35.85281157283719 23.5976
35.876395313415884 23.6974
35.8997977874528 23.5798
35.92320180988546 23.5029
35.946790244133936 23.4141
35.97019737933222 23.4112
35.993606066789866 23.409000000000002
36.01701630779276 23.3046
36.04061101440684 23.2976
36.06402437852291 23.3567
36.08743930005611 23.2802
36.1108557802951 23.2424
36.13445678011326 23.15
36.15787639383515 23.1107
36.18129757014299 23.1548
36.20472031032821 23.1279
36.22832762423364 23.0954
36.25175350829375 23.0513
36.275180960119776 22.964000000000002
36.298609981005924 23.0147
36.32222362992669 22.9848
36.34565580510207 22.9382
36.36908955323448 22.8634
36.39252487562093 22.7975
36.416144880530226 22.8451
36.43958336764275 22.7916
36.463023432914625 22.7874
36.486465077645676 22.7052
36.51009145956204 22.7677
36.53353627947859 22.6771
36.55698268276811 22.7078
36.58043067073321 22.6132
36.60406345072071 22.5541
36.62751462435344 22.5219
36.65096738658405 22.498
36.67460498210655 22.4638
36.69806093788647 22.3896
36.72151848619297 22.3658
36.744977628333636 22.3562
36.76862165890998 22.3485
36.79208400512205 22.3773
36.81554794910557 22.2847
36.83901349217101 22.2029
36.862663978991606 22.2189
36.88613273667352 22.1588
36.90960309738324 22.1877
36.933075062434064 22.0634
36.95673202673572 21.9908
36.98020721697122 21.9512
37.003684015502365 21.8939
37.027162423645365 21.8986
37.050825886711465 21.9131
37.07430753063053 21.8478
37.09779078812467 21.828000000000003
37.121275660513014 21.8359
37.144945643673694 21.7096
37.16843376245278 21.6685
37.19192350009803 21.7079
37.215414857931435 21.6816
37.239091382563885 21.5482
37.262585997426164 21.4994
37.28608223645736 21.5245
37.309763684451696 21.4354
37.33326318851098 21.4626
37.356764320726555 21.412
37.380267082425526 21.4786
37.40395510942588 21.4812
37.42746114683234 21.3774
37.45096881771841 21.2779
37.474478123414166 21.2541
37.49817275092816 21.2604
37.52168534303452 21.1904
37.54519957395567 21.1626
37.568715445024665 21.186
37.592416694607714 21.1012
37.61593586281424 21.1653
37.63945667518264 21.1659
37.66297913304891 21.1549
37.68668702630454 21.046
37.710212792059274 20.9665
37.733740207334854 20.9462
37.757269273470364 20.8106
37.780983832050374 20.8032
37.80451621684926 20.801
37.82805025654007 20.808000000000003
37.851585952464795 20.739
37.8753071980695 20.6831
37.89884622345676 20.6474
37.92238690911902 20.6721
37.94611318753442 20.5799
37.969657210779765 20.5444
37.99320289834801 20.5963
38.016750251586465 20.5171
38.04048325513017 20.4349
38.06403395679343 20.4971
38.087586328183946 20.4389
38.11114037065203 20.3622
38.13488012115898 20.4234
38.1584375229181 20.2929
38.181996599821 20.2674
38.205557353221124 20.2698
38.229303872575656 20.2181
38.2528679961576 20.2236
38.27643380031219 20.17
38.30000128639589 20.0803
38.32375459653193 20.1254
38.34732546371299 20.1489
38.37089801690786 20.0359
38.39447225747609 20.0223
38.418232380377425 19.9658
38.441810012983396 19.9863
38.46538933705673 19.8706
38.488970353960084 19.8784
38.51273731166058 19.8157
38.536321731567014 19.8195
38.55990784840681 19.8337
38.58367995004091 19.7535
38.60726947812959 19.663
38.63086070726198 19.6754
38.654453638806274 19.6522
38.678232613930824 19.6667
38.70182896773327 19.5628
38.72542702806741 19.5383
38.7490267963045 19.5034
38.77281266709232 19.5241
38.79641586862214 19.3909
38.8200207821842 19.357
38.843627409152944 19.4198
38.86742019782782 19.3768
38.891030269149255 19.3351
38.914642058016156 19.355999999999998
38.938255565806124 19.3333
38.96205529464307 19.1998
38.98567225787121 19.2134
39.00929094417078 19.2221
39.03291135492255 19.2139
39.05671804624804 19.1565
39.080341923549106 19.1307
39.103967529460334 19.0907
39.127594865365744 19.0114
39.15140854155791 19.0744
39.17503935514948 18.9595
39.19867190290282 18.953
39.22249083587951 18.9376
39.24612686969409 18.9211
39.269764641845306 18.8828
39.293404153722804 18.8646
39.317230110864074 18.7694
39.34087311998506 18.6879
39.36451787301696 18.746
39.388164371352595 18.695
39.41199737518003 18.6227
39.43564738196752 18.6033
39.45929913825317 18.5554
39.48295264543308 18.5496
39.506792718520884 18.5339
39.530449745387216 18.4906
39.55410852735203 18.4271
39.57776906581474 18.525
39.60161623079 18.4464
39.625280300200025 18.4627
39.64894613032202 18.3831
39.67261372255866 18.4209
39.6964680021016 18.3691
39.72013913657293 18.3579
39.74381203738292 18.324
39.76748670593756 18.2566
39.79134812278169 18.2462
39.81502634488497 18.1797
39.83870633896685 18.1362
39.862388106436654 18.143
39.88625668336918 18.1257
39.90994201572829 18.1624
39.933629125719285 18.0338
39.957503091207826 18.0071
39.9811937746168 18.0374
40.00488623990914 17.9466
40.02858048850006 17.9
40.05246165409549 17.8955
40.076159487492085 17.8146
40.099859108448875 17.8294
40.123560518384345 17.8429
40.1474489070226 17.817
40.171153913178564 17.7497
40.194860712584955 17.7364
40.2185693066637 17.7035
40.242464941335314 17.6684
40.26617714307655 17.6777
40.289891143772046 17.6412
40.3136069448471 17.5791
40.33750984859743 17.5733
40.3612292688043 17.5342
40.3849504936829 17.5263
40.40867352466194 17.537
40.43258372059144 17.4081
40.45631038219906 17.4039
40.48003885420956 17.4
40.503769138055105 17.4036
40.52768664931955 17.3645
40.55142057531802 17.3337
40.57515631746428 17.2969
40.599079334038514 17.2711
40.62281872700477 17.1688
40.64655994043941 17.1733
40.67030297578061 17.1667
40.69423334835778 17.1789
40.71798004609188 17.1047
40.74172857006355 17.0667
40.76547892171441 17.0547
40.7894166736039 17.0672
40.813170699248566 16.9476
40.83692655691388 17.0016
40.86068424804498 17.0412
40.884629402612525 16.9003
40.908390779366385 16.9076
40.932153993938 16.8777
40.95591904777605 16.8807
40.979871628443995 16.8757
41.003640379561936 16.7967
41.02741097430883 16.799
41.05118341413683 16.7763
41.075143444384416 16.6816
41.098919593177826 16.7377
41.1226975914255 16.6506
41.14647744058318 16.6122
41.170444943946755 16.5851
41.19422851378379 16.5686
41.218013938914645 16.5346
41.24198706625173 16.5189
41.26577622087193 16.4352
41.289567235177785 16.4872
41.31336011063129 16.4451
41.337340752422875 16.3715
41.361137369129835 16.3978
41.38493585138705 16.4086
41.40873620066004 16.3908
41.43272438060107 16.322
41.45652848292052 16.2665
41.48033445666918 16.1852
41.50414230331616 16.2505
41.528138045159764 16.2024
41.551949656675205 16.107
41.575763145513235 16.1247
41.59957851314666 16.0485
41.62358184070442 15.9749
41.64740098505737 16.0071
41.6712220126409 16.0545
41.69504492493139 15.966
41.71905586207357 15.927999999999999
41.74288256296395 15.8708
41.766711153007456 15.9092
41.79054163368412 15.8224
41.814560204340054 15.8489
41.838394485526365 15.8295
41.86223066180303 15.8139
41.88625497706819 15.7729
41.910094962812 15.7495
41.93393684811168 15.7449
41.95778063445365 15.7184
41.981812625263366 15.7081
42.00566023303407 15.7151
42.029509746323676 15.6024
42.05336116662236 15.5424
42.077400857069705 15.6043
42.10125611078846 15.5611
42.12511327600405 15.5382
42.14897235421036 15.5007
42.173019768448455 15.4832
42.19688269209613 15.4571
42.22074753323349 15.4154
42.24461429335818 15.3682
42.268669455600495 15.3324
42.292540073217886 15.3795
42.31641261433284 15.3188
42.34028708044675 15.2889
42.36435001496739 15.3405
42.38822835065557 15.2308
42.41210861586426 15.2177
42.4359908120986 15.2208
42.46006154323262 15.1736
42.48394762115317 15.1136
42.507835634632315 15.0937
42.531912233047436 15.0737
42.55580413732265 15.0409
42.579697981698 15.0392
42.60359376768525 15.0091
42.62767820545945 15.0085
42.65157789440821 14.9448
42.67547952952185 14.8993
42.699383112316 14.8822
42.72347541395347 14.8525
42.74738291190531 14.8673
42.771292362102166 14.843
42.795203766063516 14.8056
42.819303956130405 14.7662
42.843219287476536 14.7395
42.86713657716324 14.7367
42.89105582671383 14.693
42.91516392983864 14.6711
42.939087119032166 14.6872
42.963012272677304 14.609000000000002
42.98693939230129 14.5622
43.01105543317513 14.5711
43.034986504731386 14.5541
43.05891954686589 14.4904
43.08285456110972 14.5035
43.10697856448665 14.3933
43.130917542983475 14.4258
43.15485849820081 14.4782
43.17880143167367 14.4235
43.20293342237094 14.398
43.226880332449 14.3632
43.25082922540554 14.3501
43.27496722682525 14.2997
43.29892010567796 14.2435
43.32287497204102 14.2427
43.34683182745632 14.2192
43.370977859791836 14.1829
43.39493871351105 14.1587
43.41890156092628 14.1923
43.44286640358341 14.1775
43.46702049182749 14.1722
43.49098934522816 14.0833
43.51496019852649 14.0605
43.5389330532723 14.0522
43.56309522248204 13.9942
43.58707210044314 13.9986
43.61105098451946 13.9002
43.63503187626491 13.8935
43.659202151562134 13.86
43.68318707902681 13.8919
43.70717401884041 13.8663
43.731162972560874 13.8459
43.75534137913236 13.7968
43.779334381108384 13.7455
43.803329401683186 13.7583
43.82732644241872 13.7847
43.8515130055166 13.7264
43.87551410707659 13.6698
43.89951723350145 13.7402
43.923709934595614 13.6895
43.94771713129917 13.6665
43.97172635758096 13.5911
43.99573761501002 13.5769
44.0199385169922 13.5808
44.04395385732619 13.5185
44.067971233533086 13.5073
44.09199064718605 13.5202
44.11619977548961 13.4594
44.14022328470671 13.3876
44.16424883610785 13.4521
44.18827643127035 13.4309
44.21249381139513 13.4009
44.236525514814076 13.2935
44.26055926674478 13.3061
44.28459506876863 13.3345
44.3088207262813 13.2169
44.33286064928722 13.2136
44.35690262714919 13.2257
44.38094666145278 13.2051
44.4051806219871 13.1658
44.42922879003185 13.1547
44.45327901929361 13.1
44.477331311362136 13.1122
44.501573600619416 13.0666
44.525630039221795 13.0175
44.54968854541895 13.0538
44.573937102200176 13.027999999999999
44.5979997645541 12.9833
44.622064499300315 12.9521
44.64613130803592 12.9546
44.67038823869318 12.9634
44.69445921643748 12.894
44.718532272981385 12.8721
44.742607409926194 12.865
44.76687274034801 12.8304
44.79095205918753 12.7599
44.81503346325094 12.7782
44.839116954143876 12.7646
44.86339071028742 12.7235
44.88747839599524 12.7629
44.91156817336837 12.7141
44.93566004401666 12.7167
44.959942251908146 12.6672
44.984038330325966 12.6401
45.00813650686762 12.5561
45.03223678314731 12.5996
45.05652746888232 12.5606
45.08063196592069 12.5539
45.104738567558705 12.5099
45.128847275414856 12.5379
45.15314646515866 12.4515
45.17725940679741 12.4635
45.20137445952892 12.4331
45.22568004865265 12.4209
45.24979934496396 12.3826
45.27392075725247 12.4024
45.29804428714431 12.3686
45.322358426247604 12.3378
45.346486212804315 12.3144
45.370616121861914 12.2861
45.39474815505086 12.2761
45.41907087049246 12.2551
45.4432071734666 12.2145
45.46734560548283 12.2048
45.49148616817604 12.2073
45.51581748638564 12.2031
45.5399623320197 12.1537
45.56410931325473 12.1186
45.58825843173002 12.1037
45.61259837920865 12.0706
45.636751793816 12.0737
45.66090735060093 12.0208
45.68506505120716 11.9983
45.7094136545275 11.9699
45.73357566449271 11.9286
45.75773982322992 11.9746
45.78190613238733 11.9015
45.806263418194064 11.8413
45.83043404997326 11.9315
45.85460683713677 11.8717
45.87897065658495 11.8254
45.90314777634752 11.7971
45.92732705646868 11.7594
45.9515084986045 11.7733
45.97588104735473 11.7378
46.00006683541565 11.6961
46.02425479047904 11.6778
46.04844491420549 11.6978
46.0728262191024 11.6674
46.09702070211635 11.6282
46.12121735879483 11.637
46.14541619080294 11.6132
46.169806278764455 11.595999999999998
46.194009483459034 11.5454
46.21821486849841 11.5704
46.24242243555223 11.5382
46.266821333570014 11.4886
46.29103328674601 11.4593
46.31524742696538 11.4637
46.33946375590237 11.4382
46.36387149104216 11.4288
46.38809221957392 11.405
46.41231514186606 11.3709
46.436540259597464 11.3957
46.460956858999374 11.3204
46.48518638983522 11.2937
46.509418121166966 11.2999
46.533652054678114 11.2691
46.55807754555709 11.252
46.58231590571962 11.2332
46.60655647313217 11.213
46.630988654873654 11.1719
46.655233659129024 11.1548
46.67948087571551 11.1446
46.70373030632484 11.1478
46.72817142736393 11.1347
46.752425308428684 11.0555
46.77668140861147 11.0811
46.80093972960865 11.0103
46.82538981736788 11.0507
46.849652602470904 11.0208
46.87391761349769 11.0096
46.8981848521493 10.9523
46.9226439341274 10.915999999999999
46.946915650573224 10.885
46.97118959976749 10.9301
46.99546578341598 10.88
47.019933887188216 10.8454
47.04421456235744 10.8237
47.06849747711879 10.8336
47.09278263318286 10.8017
47.11725978640143 10.7536
47.14154944775105 10.7363
47.165841355555656 10.7159
47.1901355115306 10.7513
47.214621741924994 10.6692
47.23892041698887 10.6453
47.26322134538975 10.6656
47.28771440635075 10.6175
47.31201986422527 10.6356
47.33632758061436 10.6311
47.360637557241866 10.5764
47.38513974410611 10.5638
47.40945426407847 10.5528
47.43377104948137 10.544
47.45809010204344 10.5063
47.48260144275502 10.4825
47.506925052572285 10.4322
47.53125093475548 10.4205
47.55557909103813 10.4161
47.58009961361992 10.3926
47.60443234110732 10.3772
47.62876734791564 10.3781
47.65310463578333 10.366
47.6776343683373 10.3543
47.7019762413987 10.2807
47.72632040075572 10.3124
47.75066684815169 10.3037
47.77520581885936 10.2538
47.799556865477655 10.2249
47.823910205386 10.2286
47.84826584033272 10.2417
47.87281407745551 10.1804
47.89717432569297 10.1569
47.92153687423484 10.1684
47.94609208429692 10.0853
47.97045925671401 10.0957
47.99482873471275 10.0656
48.01920052005013 10.0987
48.04376504619224 10.0863
48.068141469543484 10.0587
48.09252020552573 10.0054
48.11690125590099 9.989930000000001
48.1414751266064 9.92708
48.16586082917454 9.93136
48.19024885144316 9.92645
48.2146391951793 9.968119999999999
48.239222439012764 9.922830000000001
48.26361744916137 9.90373
48.28801478610016 9.89972
48.31241445160131 9.84098
48.337007097209366 9.8553
48.36141144338331 9.81897
48.38581812345755 9.805069999999999
48.41022713920929 9.77068
48.434829215320704 9.759780000000001
48.45924292604658 9.75026
48.48365897780325 9.75129
48.50807737237308 9.72299
48.532688907799276 9.71017
48.55711201168574 9.6644
48.581537463754074 9.65622
48.60615611725119 9.680639999999999
48.63058628942721 9.64666
48.65501881516546 9.6257
48.6794536962573 9.59159
48.70408185970339 9.61898
48.72852147531801 9.540280000000001
48.75296345168211 9.525030000000001
48.77740779059232 9.50178
48.80204549302823 9.53808
48.82649458091802 9.51627
48.85094603676547 9.44233
48.87539986237231 9.467089999999999
48.90004713292306 9.43332
48.92450572200832 9.37696
48.94896668628025 9.3606
48.97343002754588 9.34535
48.99808689542115 9.3694
49.02255501470614 9.35207
49.04702551642794 9.32479
49.0714984023988 9.27464
49.096164896893235 9.28475
49.120642575466796 9.24581
49.145122643748394 9.25946
49.16960510355558 9.23317
49.19428125404938 9.23912
49.2187685210852 9.22274
49.243258185121555 9.17525
49.26794160167084 9.18109
49.2924360839405 9.14856
49.31693296869764 9.12551
49.34143225776915 9.081380000000001
49.36612538195438 9.05557
49.39062950396021 9.07761
49.41513603578346 9.03295
49.4396449792564 9.01362
49.46434784069503 9.04776
49.488861631846454 8.975060000000001
49.513377840166804 8.97583
49.537896467493745 8.99514
49.56260909589029 8.94885
49.587132585683285 8.93796
49.611658500018365 8.91852
49.636186840738596 8.90017
49.66090926588511 8.898019999999999
49.685442483902584 8.85092
49.70997813385706 8.84826
49.734516217597076 8.82598
49.75924846937352 8.79358
49.7837914452858 8.79824
49.80833686055187 8.77767
49.83288471702571 8.7892
49.85762682540054 8.779810000000001
49.882179588965734 8.73293
49.9067347993235 8.717419999999999
49.93129245833333 8.73196
49.95604445336378 8.73935
49.98060703442832 8.70282
50.005172069746266 8.66511
50.02993150438364 8.65277
50.05450147301533 8.60565
50.07907390151433 8.59649
50.10364879174981 8.58285
50.12841816587289 8.55821
50.1529980044635 8.54073
50.17758031042124 8.56206
50.20216508562089 8.536010000000001
50.22694442953363 8.50378
50.25153416817468 8.49804
50.27612638170508 8.472560000000001
50.300721072005196 8.46378
50.325510416102105 8.4328
50.350110084975064 8.42191
50.37471223628208 8.41755
50.39931687190919 8.385480000000001
50.424116246675766 8.3641
50.44872587605249 8.37423
50.47333799543065 8.34762
50.49795260670191 8.32264
50.52276204271512 8.34107
50.54738166295838 8.31282
50.57200378079314 8.30817
50.596628398116835 8.25763
50.62144792604559 8.26578
50.646077567609396 8.21446
50.670709714377715 8.2158
50.69553683636198 8.19534
50.72017401885922 8.199869999999999
50.7448137122895 8.1664
50.76945591856022 8.14883
50.79429318636823 8.12447
50.818940443716784 8.13331
50.84359021965163 8.08901
50.868242516085964 8.077010000000001
50.893089960641895 8.09613
50.917747323549435 8.04571
50.94240721271973 8.04144
50.96706963007175 7.98695
50.99192728239342 7.97145
51.01659478166073 8.00652
51.04126481489051 8.00818
51.06593738400761 7.94446
51.090805275207074 7.931539999999999
51.11548294172845 7.91627
51.14016314993547 7.900980000000001
51.164845901758845 7.87816
51.18972406304274 7.88461
51.21441192780656 7.8803
51.23910234200271 7.833639999999999
51.2637953075678 7.83522
51.288683770237945 7.83476
51.31338186432707 7.793419999999999
51.33808251561888 7.77353
51.362978729967345 7.767710000000001
51.387684521509755 7.78185
51.41239287610203 7.722339999999999
51.437103795691165 7.70995
51.46201036644977 7.68268
51.486726441956634 7.67932
51.51144508832545 7.7045
51.536166307509156 7.65642
51.56108326624387 7.61475
51.58580965706056 7.60589
51.61053862657523 7.62135
51.635270176746864 7.6028899999999995
51.66019755512065 7.58595
51.68493429268881 7.5881300000000005
51.70967361681515 7.58149
51.73441552946465 7.536980000000001
51.759353359237934 7.54179
51.7841004750961 7.51377
51.80885018539685 7.495660000000001
51.833602492111254 7.46363
51.8585508051424 7.446560000000001
51.883308330926425 7.42404
51.90806845906181 7.401669999999999
51.932831191525715 7.4176
51.95779001977161 7.38876
51.98255798721516 7.33657
52.00732856494335 7.330989999999999
52.03229530577543 7.35585
52.057071130455945 7.32585
52.081849571391054 7.31453
52.106630630568695 7.29942
52.13160794279417 7.28915
52.15639426492067 7.29355
52.18118321127822 7.30428
52.205974783860896 7.24655
52.23096269971011 7.1945
52.255759551287994 7.241289999999999
52.280559035098186 7.20935
52.30536115314103 7.201460000000001
52.33035970494467 7.17673
52.35516711807904 7.14355
52.37997717147198 7.140569999999999
52.40478986713005 7.144139999999999
52.42979908731974 7.11485
52.454617094216 7.09243
52.47943774942214 7.0655399999999995
52.50426105495102 7.042789999999999
52.529280976059844 6.99975
52.554109609024096 7.05992
52.57894089837482 7.04345
52.60377484613117 7.02102
52.62880550079408 7.00703
52.65364479223379 7.006530000000001
52.67848674816189 6.9133
52.70352547971946 6.913530000000001
52.72837279155837 6.93497
52.753222773982785 6.88242
52.778075429022984 6.89622
52.80312495150885 6.86702
52.827982978797436 6.9093100000000005
52.85284368481815 6.89262
52.87770707160767 6.88019
52.90276741793998 6.8459699999999994
52.92763619336701 6.82844
52.952507655698504 6.8063
52.977381806977576 6.7757
53.00245301017842 6.765219999999999
53.02733256653592 6.758589999999999
53.052214817996074 6.73905
53.077099766608484 6.7203100000000004
53.102181859804446 6.69255
53.127072229988265 6.7293199999999995
53.15196530349892 6.6875800000000005
53.17686108239249 6.68014
53.20195409881522 6.665780000000001
53.22685531582556 6.6617
53.25175924441303 6.57457
53.27666588664027 6.60583
53.30176985962693 6.5761899999999995
53.3266819565689 6.57229
53.35159677336455 6.5785800000000005
53.376514312083096 6.56835
53.40162927507703 6.54476
53.42655228516116 6.494619999999999
53.45147802340193 6.49621
53.47660125628886 6.50899
53.50153247842639 6.4707
53.52646643496923 6.48428
53.55140312799818 6.464119999999999
53.576537409691696 6.45515
53.60147960336152 6.46076
53.626424539786164 6.41109
53.65137222105307 6.370430000000001
53.67651758529126 6.37542
53.70147078399681 6.36994
53.72642673383343 6.37972
53.75138543689533 6.3099
53.776541917524526 6.36113
53.801506154876755 6.30264
53.826473151763246 6.26026
53.851442910284916 6.297540000000001
53.87661054126026 6.23909
53.9015858509782 6.27609
53.92656392866066 6.24959
53.95154477641532 6.20505
53.976723591801296 6.1738
54.00171000771266 6.2024
54.02669920004598 6.18496
54.051691170915745 6.17101
54.076881204886796 6.20608
54.101878760928514 6.204940000000001
54.12687910187696 6.15669
54.152077577768296 6.13909
54.1770835166946 6.13669
54.20209224691339 6.09255
54.22710377055121 6.06122
54.25231352511594 6.03754
54.27733066384342 6.0087
54.30235060239643 6.03948
54.32737334290836 6.0621599999999995
54.35259441062629 5.96879
54.377622783395324 5.98728
54.40265396455061 5.98297
54.42768795623251 5.96071
54.45292037169559 5.93117
54.477960012857906 5.94137
54.50300247099511 5.96839
54.52804774825457 5.88272
54.55329154616743 5.8156
54.57834249018678 5.8327800000000005
54.6033962597977 5.85492
54.6284528571545 5.787780000000001
54.653708072335164 5.76219
54.67877035378786 5.75304
54.70383546947698 5.76971
54.72890342156389 5.73909
54.7541700889442 5.67755
54.77924374251975 5.66296
54.8043202390049 5.6403300000000005
54.82959552413022 5.66268
54.8546777351945 5.59
54.87976279569621 5.5747599999999995
54.90485070780914 5.60988
54.930137506558005 5.56647
54.95523115074295 5.55989
54.98032765308844 5.51388
55.005427015775496 5.47994
55.03072536339621 5.54364
55.05583047570572 5.480180000000001
55.080938454927676 5.4972199999999996
55.10604930325027 5.48096
55.131359235107396 5.43851
55.15647585066083 5.40112
55.181595341907496 5.35396
55.20671771104285 5.33588
55.232039262617704 5.27952
55.25716741665048 5.238169999999999
55.28229845518636 5.30128
55.30743238042802 5.20359
55.33276558731939 5.24726
55.357905315183636 5.21161
55.383047936390035 5.1858699999999995
55.40819345314859 5.1555800000000005
55.433538351073295 5.1327
55.458689688238415 5.15806
55.483843927614096 5.107469999999999
55.509197623043605 5.07371
55.53435769621134 5.00811
55.55952067826466 5.0259
55.5846865714265 5.0304
55.61005202069737 4.92056
55.63522376553902 4.98224
55.66039842818645 4.9703
55.68557601087004 4.92295
55.7109532500271 4.86563
55.73613670233794 4.91593
