TT I
1.2716486653135266 36.2647
1.2939594142134223 37.5439
1.3162702121660406 35.7915
1.3385810600174564 35.8891
1.3608919586137629 35.5498
1.383202908801069 33.4092
1.405513911425503 32.8478
1.4278249673332093 33.2341
1.4501343378461518 31.9588
1.4724455028545926 30.5347
1.4947567236847858 30.930999999999997
1.517068001182951 30.6377
1.5393793361953272 29.8918
1.5616907295681737 28.8611
1.5840021821477681 28.4075
1.60631369478041 27.9744
1.6286252683124185 28.0703
1.6509369035901333 27.9898
1.6732468618895553 27.5731
1.695558623192809 26.8853
1.7178704487808514 26.8812
1.7401823395001077 26.2661
1.7625012545597203 26.5363
1.7848028405262486 25.0714
1.8071218901122095 25.5934
1.8294236121921872 24.7541
1.8517427996910911 25.656999999999996
1.8740620574440425 25.5645
1.8963639900671978 25.3646
1.9186833908139995 24.9725
1.9409854680117449 25.0801
1.9633050151394713 25.7937
1.9856246367570705 25.9384
2.0079269371922672 25.6083
2.03024671027244 25.5537
2.0525491637446027 24.9317
2.074869091674931 25.3705
2.097171701569106 25.5331
2.1194917877373847 26.131
2.141811954326636 25.8269
2.164114805233074 25.629
2.186435135143035 26.8006
2.208738150935709 26.2286
2.231058647554722 26.6127
2.2533792288321184 26.728
2.275682498336085 26.7818
2.298003251406138 26.8345
2.3203066942619714 27.4476
2.3426276225136022 26.6855
2.3649486396617507 26.0571
2.387252348930071 26.1556
2.4095735463442893 25.5991
2.4318774374315884 25.6334
2.4541988185014043 25.8178
2.476502894794693 26.0849
2.498824462909887 26.4444
2.521146125856138 26.0253
2.5434504863470337 26.3664
2.5657723414244717 27.5455
2.588076895590662 27.0133
2.610398946189713 27.6259
2.6327210958598384 28.1094
2.6550259469304716 28.695
2.6773482972090137 29.0851
2.6996533504259 30.0114
2.7219759047039602 30.6175
2.744298562293959 30.9832
2.7666039251246595 32.3471
2.7889267918020164 33.4686
2.8112323652516555 34.4601
2.833555444408179 36.245
2.8558786311183852 38.125
2.8781845268938557 40.5211
2.9005079311721484 41.8388
2.9228140460410397 44.2277
2.9451376712799635 46.8756
2.967444008632326 49.5532
2.9897678582247247 53.4746
3.0120918213106695 57.0336
3.0343984987899373 61.7672
3.0567226913198637 66.0553
3.079029599759726 70.686
3.101354025127254 76.4618
3.123678568232338 80.3721
3.145985829517914 83.1099
3.16831061055229 85.1068
3.1906181112775593 84.4904
3.212943133635653 83.3852
3.2352682779763207 79.6957
3.2575761442691227 75.1939
3.2799015350264273 70.0335
3.302209649240067 64.1645
3.3245352898092655 58.6585
3.3468436553365257 54.6305
3.369169549113219 50.5276
3.3914955708171384 47.3565
3.413804319727358 44.3432
3.4361305997334863 41.9967
3.4584396084414553 40.6181
3.4807661501462652 40.1706
3.503092824025881 39.6374
3.5254022288463154 38.9107
3.5477291695206588 38.5585
3.5700388426251948 39.0006
3.5923660534916446 39.6748
3.6146934007816114 39.9313
3.637003482731501 40.2527
3.6593311053109985 40.8059
3.681641464033634 40.8077
3.7039693653009733 40.9478
3.726297407241705 41.2788
3.7486081875460804 40.6672
3.7709365132734978 40.813
3.793247578841633 40.8483
3.8155761917550093 40.6807
3.8378875459837216 40.1959
3.8602164494827234 40.7548
3.882545499606844 41.3183
3.9048572932539183 41.8712
3.9271866390645718 42.1465
3.9494987298666713 42.4081
3.971828374764527 43.5787
3.9941581705403255 43.9887
4.016470713506008 45.1797
4.038800813471445 46.766000000000005
4.061113662089144 48.1687
4.0834440696459176 49.7247
4.105774632334751 51.54600000000001
4.128087945865126 53.597
4.150418821249301 56.1939
4.172732448931298 59.4468
4.195063640413578 63.0027
4.2173775856475215 66.2899
4.239709096631102 69.9468
4.262040768704612 73.3502
4.284355196706267 76.2362
4.306687193387355 78.8286
4.329001947444346 80.69
4.35133427213731 79.2601
4.373666762177566 78.2969
4.395982011761091 75.4243
4.418314834921175 72.6609
4.44063041906622 70.4419
4.4629635787515625 68.3961
4.4852969080429785 66.3887
4.5076130004776225 64.6531
4.529946671403969 62.1707
4.552263106909177 59.5384
4.574597122877047 58.0628
4.596931312711224 56.4923
4.619248269273446 55.4955
4.6415828092605835 53.6567
4.663900117405352 52.8094
4.686235010953232 52.3215
4.708552674085913 52.3104
4.730887924602802 52.9588
4.753223354952695 53.4672
4.775541557023902 54.2471
4.797877349456786 55.7291
4.820195915032126 57.0347
4.842532072957498 58.2317
4.864868414979744 60.3075
4.88718753227192 62.8585
4.909524244902505 64.9776
4.931843734218147 68.0889
4.954180820867835 71.7143
4.976518095879839 76.5554
4.998838149695359 81.5039
5.021175803844231 90.0664
5.043496238205739 100.863
5.065834274903528 113.352
5.088172504230693 124.34200000000001
5.1104935158799565 135.195
5.132832132875765 151.877
5.155153533596801 173.90599999999998
5.1774925416746225 204.68900000000002
5.199814334878411 258.46
5.2221537374521505 354.249
5.244493338631803 508.515
5.266815727034316 726.552
5.289155727832427 1052.76
5.311478517248165 1713.63
5.333818921080011 2814.94
5.356159527788849 4097.13
5.3784829252032536 3993.75
5.400823940070432 2723.07
5.423147747031976 1376.99
5.445489173474152 674.812
5.467830807066149 404.44300000000004
5.490155234831516 289.818
5.512497285125229 224.47299999999998
5.534822130975162 187.005
5.557164601388673 160.80700000000002
5.579489868738879 141.118
5.601832762690846 127.925
5.6241758697774475 118.546
5.646501775867269 112.988
5.668845311622074 108.756
5.691171647754637 105.833
5.713515615597765 103.259
5.735859800852677 99.8989
5.758186788542988 97.2599
5.780531411018185 95.9899
5.802858837297399 95.1742
5.825203900414495 95.3254
5.8475491852224 97.0123
5.869877275883075 99.7936
5.892223006467101 103.68799999999999
5.914551544266608 109.219
5.936897724049891 116.037
5.959244129804903 125.295
5.981573344815301 140.64600000000002
6.0039202049061 163.134
6.026249875609095 199.247
6.04859719346037 250.27599999999998
6.070927323278297 321.432
6.093275102315365 421.07300000000004
6.115623113320588 536.856
6.137953938319995 732.3960000000001
6.160302415650845 1049.4
6.182633708324452 1274.98
6.2049826554078376 1199.35
6.227331838745022 853.1110000000001
6.249663839443684 532.947
6.27201349767565 346.14599999999996
6.294345974611799 244.11599999999999
6.316696111167083 177.023
6.339046488263839 137.09
6.361379686074702 113.531
6.383730546639482 98.0347
6.406064229255215 85.984
6.428415576718203 78.7269
6.450749747566656 73.3276
6.47310158535871 68.9084
6.495453669698332 65.4216
6.517788579421056 62.5
6.540141159237969 59.6251
6.562476565766648 57.974
6.5848296444934045 56.6812
6.607182974060425 56.028
6.6295191323281015 54.8893
6.651872965955752 54.4242
6.6742096296068985 54.0062
6.6965639707294615 54.2078
6.71891856698715 53.8125
6.741255995248479 53.6793
6.763611104154477 53.4441
6.785949046381137 53.1728
6.808304671371482 52.1026
6.8306605557940046 51.7628
6.852999275508618 51.2849
6.875355681171544 50.5819
6.897694923437771 49.7523
6.92005185377892 49.4992
6.9423916220322655 48.7859
6.964749080490181 47.8744
6.987106804399774 47.5598
7.009447368180821 47.589
7.031805625367033 47.528999999999996
7.054146723727803 47.583
7.076505517631004 48.2059
7.098864581288365 48.451
7.121206488070854 49.0319
7.143566093607822 49.6941
7.165908543567245 50.8065
7.188268694426048 51.8786
7.2106291193438095 52.8793
7.232972390625943 54.629
7.255333366030969 56.3328
7.277677189091925 59.192
7.300038718428332 63.0593
7.322400526130865 65.706
7.344745183422596 69.0613
7.367107550224791 70.2284
7.389452767901992 70.6344
7.411815697249891 68.9357
7.434161478756298 66.2686
7.456524974096713 63.5035
7.478888753837185 61.6916
7.501235387657368 61.1964
7.523599738562711 62.9105
7.545946944825532 71.532
7.568311870344528 94.9789
7.5906770845765665 137.916
7.613025156078678 164.90900000000002
7.635390950099687 138.141
7.657739602662809 92.0795
7.680105979923558 62.0494
7.702472650212829 50.2484
7.724822180948224 45.623999999999995
7.747189439655568 43.5443
7.769539560075357 42.156000000000006
7.791907410653562 41.0741
7.81425812420825 40.3129
7.836626570110925 39.6048
7.858995315087906 39.7201
7.881346924933401 38.8846
7.903716270417482 39.3295
7.926068482028405 39.2541
7.948438431475253 39.2767
7.9708086843180235 39.469
7.993161805171116 39.6733
8.015532667162402 39.5673
8.037886398416653 40.0785
8.060257873014221 40.2247
8.082629655331942 40.5225
8.104984308787587 40.8136
8.127356708900503 41.2434
8.149711981398308 41.6467
8.172085002766314 42.1932
8.194458336181368 42.9203
8.216814543847752 43.4632
8.23918850371002 44.6878
8.26154533906492 45.2432
8.283919928836452 46.196999999999996
8.306277395339652 46.8061
8.328652618483376 47.9116
8.351028159736202 49.6753
8.373386579575245 51.3849
8.395762759396959 52.7892
8.418121819038275 55.9276
8.440498640894003 58.8401
8.462875785192262 62.5558
8.485235811156207 67.2015
8.507613602688501 73.5343
8.529974277114228 83.3647
8.552352719347912 96.1674
8.574731488360351 116.584
8.59709314210385 147.44299999999998
8.619472567021075 177.12
8.64183487789147 203.395
8.664214962183097 245.692
8.686577933647762 330.225
8.708958680784317 484.18
8.731339760774953 674.993
8.753703729764451 808.448
8.77608547780821 726.928
8.798450116065078 523.361
8.820832535634787 334.57199999999995
8.843215292401656 215.282
8.865580941199045 152.882
8.887964374703538 119.65700000000001
8.910330701447199 100.565
8.932714815164482 88.2018
8.955099270424924 79.5999
8.977466620733543 74.2473
8.999851761421976 70.5001
9.022219798361645 67.3776
9.04460562795561 65.0548
9.066991803441677 62.9686
9.089360876979615 61.3944
9.111747746589993 59.8064
9.13411751544971 58.8087
9.156505082664324 58.8632
9.178875550323522 59.5793
9.20126381862328 61.4416
9.223652438908596 65.7324
9.246023961427412 77.7173
9.26841328802173 110.79899999999999
9.290785518039224 175.916
9.313175554425882 248.611
9.335565947154315 253.42700000000002
9.357939245086508 183.805
9.380330352834827 112.85799999999999
9.40270436697103 75.3437
9.425096193225055 61.496
9.447488380180165 56.7084
9.469863475295412 53.986999999999995
9.492256385987508 52.3707
9.514632206018318 51.3699
9.537025843935714 50.5424
9.559402392368193 50.2717
9.581796761000229 50.4037
9.604191496441521 50.1033
9.626569144158516 50.3286
9.648964615551032 50.5192
9.671343000390081 50.9912
9.693739211225699 51.7781
9.716135793237463 52.4211
9.738515290448102 52.4833
9.760912617143402 53.4329
9.783292860202891 53.845
9.805690935076182 55.0848
9.828089385495742 55.8591
9.850470754023561 57.3269
9.872869957865444 58.8762
9.89525208097539 60.7738
9.917652041736662 63.0512
9.940052382417589 65.4507
9.962435644102392 69.2919
9.984836746950979 74.3375
10.007220771957746 80.7679
10.029622640473708 90.8861
10.052007432299963 106.97200000000001
10.074410069984072 126.98899999999999
10.096813093716005 151.382
10.119199042482517 172.666
10.141602840636468 191.273
10.163989564971628 220.351
10.186394141051062 288.184
10.208799107559706 412.413
10.231187001965623 588.533
10.253592751657669 777.045
10.275981430388155 817.035
10.298387966769793 667.415
10.320794897965431 468.711
10.343184759907361 301.47700000000003
10.36559248305461 198.917
10.387983138083852 145.319
10.410391656691655 116.65
10.432800574501677 99.2429
10.455192425893369 88.8895
10.47760214443012 83.9467
10.499994797678786 81.98299999999999
10.522405320453982 83.264
10.54479877906917 87.3957
10.567210109595656 89.4087
10.5896218454736 91.1649
10.612016518879773 95.8413
10.634429067781074 107.90299999999999
10.656824555333241 134.22299999999998
10.679237920773568 181.838
10.701651695961992 246.918
10.724048411481384 295.747
10.746463008485165 291.836
10.768860546937125 243.88099999999997
10.791275969274796 174.78
10.81369180576079 118.417
10.836090585366925 83.7362
10.858507252467449 65.846
10.88090686379991 57.2825
10.903324365036394 52.5403
10.925724811614439 49.168
10.948143150509463 47.7896
10.970561909719066 45.8675
10.992963615930844 45.17
11.015383218085756 44.2022
11.037785768347074 43.3974
11.06020621697282 42.6786
11.082627090322113 42.2136
11.105030913430326 41.967
11.12745263854165 41.7854
11.149857314510728 41.3073
11.172279894912576 41.3263
11.194702904450653 40.9118
11.217108866490921 40.8174
11.239532736615194 40.5738
11.26193956033512 40.6268
11.284364294577085 40.5469
11.306789462371718 40.1353
11.329197585398376 40.1464
11.351623622610898 40.3776
11.37403261614354 39.8497
11.396459526308487 39.7777
11.418869393879497 39.4154
11.441297180532617 38.9432
11.463725406927658 38.8076
11.486136592353875 38.4584
11.508565700543707 37.9546
11.530977768845315 37.9269
11.553407762368774 37.656
11.575838200059769 37.6388
11.598251599479612 37.4999
11.620682927815501 37.6337
11.64309721895548 37.6396
11.665529441478206 37.5407
11.687962112597958 37.4482
11.710377748130886 37.2588
11.732811318753434 37.2576
11.755227854859067 37.3199
11.777662328529495 37.0101
11.800079768750786 36.9859
11.822515149015453 37.1634
11.844950984084935 37.3144
11.867369787303163 37.5006
11.889806534289491 38.3455
11.912226250487029 39.5771
11.934663912939751 41.1723
11.9571020346363 44.6279
11.979523127133968 52.7115
12.001962169624331 68.0853
12.024384183972964 85.1328
12.046824150809913 95.2719
12.069264581333726 88.3286
12.091687985297767 70.1927
12.11412934550045 55.4959
12.136553680195208 48.2875
12.158995973632788 46.4973
12.181438735204349 46.3884
12.20386447284199 46.8276
12.226308172985636 48.3649
12.24873485024193 49.9625
12.271179492516982 52.8316
12.293607112949127 57.9453
12.316052700916226 65.5791
12.338498763250042 77.2816
12.360927805303868 89.77600000000001
12.383374818673879 97.6002
12.405804812803074 96.6328
12.428252780773262 85.8844
12.45070122756722 72.3131
12.473132656675375 61.1649
12.49558206341869 54.0207
12.518014453510101 48.825
12.540464823770117 45.8682
12.562915677315177 43.6379
12.58534951575545 42.1382
12.607801338171472 41.093
12.630236146511358 40.37
12.652688941369085 40.1128
12.675124723177234 39.7729
12.697578494048786 39.9676
12.720032754458185 39.7532
12.742470003354093 39.9333
12.764925245138771 39.9929
12.787363476431278 40.1467
12.809819703166806 39.9673
12.83227642391173 40.051
12.854716135692716 39.6647
12.877173846755147 39.8676
12.899614549869717 39.6555
12.9220732548287 39.6609
12.94453245827299 39.2457
12.966974655289818 39.7663
12.989434858002571 39.9951
13.011878055298721 40.001
13.034339260862497 40.1861
13.056800969391883 40.7347
13.079245674017244 41.7305
13.101708390774869 42.5654
13.12415410463411 44.7188
13.146617833206086 48.9513
13.169064559883248 54.5702
13.191529303857127 59.1891
13.213994557076367 61.9611
13.236442809902437 61.8351
13.258909083908291 62.0943
13.28135835851934 63.8904
13.30382565690295 66.4302
13.326293469022952 68.8691
13.348744283242008 71.3376
13.371213125129904 76.9147
13.39366497011003 86.4423
13.416134845360597 101.875
13.438605238843131 128.43200000000002
13.46105863690397 166.50599999999997
13.483530069144786 207.12400000000002
13.505984506951902 230.09400000000002
13.528456981549432 219.74900000000002
13.550929978879088 184.002
13.573385983253365 146.207
13.595860028340867 116.131
13.618317081455832 98.4917
13.64079217790333 88.9585
13.663250283359057 83.5796
13.685726434770173 79.9766
13.708203115221277 79.8336
13.730662806148091 83.0342
13.75314054697177 91.427
13.775601299246777 108.786
13.798080104050406 137.881
13.820559442405358 178.665
13.843021793671388 209.95
13.865502201420897 215.80599999999998
13.887965623051947 189.502
13.910447103807167 146.069
13.932929122629764 107.713
13.955394156785959 82.9117
13.977877254034569 67.357
14.000343367582113 58.0482
14.022827546871707 52.7622
14.045294743423524 49.0538
14.06778000837062 46.5311
14.090265817715476 45.3448
14.112734645763819 44.7648
14.13522154619454 44.4928
14.157691466286913 46.3424
14.180179461423874 50.6056
14.202668005486178 60.6218
14.22513957064374 73.9942
14.247629214846473 86.3326
14.270101881097517 89.1983
14.29259262906496 78.5085
14.315083930490205 62.6681
14.337558255389705 50.6139
14.360050666019726 43.82
14.382526101071944 40.7245
14.405019624534942 39.3286
14.427513705993134 38.4941
14.449990813291825 38.0707
14.47248601302899 37.3348
14.49496423954951 37.148
14.517460561197822 36.9382
14.539939910570322 36.6062
14.562437357763558 36.5551
14.58493536931253 36.7075
14.607416409993311 36.5328
14.62991555254159 36.525
14.652397725157423 36.5427
14.674898002342799 36.5942
14.697398848433282 36.8162
14.719882725991326 37.1817
14.74238471217934 37.2546
14.764869730765593 37.5389
14.787372860692983 37.6358
14.809876564079925 38.2108
14.83236330125751 39.2223
14.854868153850365 39.7914
14.877356041159485 41.2718
14.899862046604186 43.1071
14.922351087688757 45.5292
14.944858249632887 47.0989
14.967365991421232 48.3169
14.989856770231246 49.0015
15.012365673994204 50.3147
15.03485761569738 52.5718
15.05736768508665 56.4055
15.07987833888692 62.5055
15.102372032001655 73.0441
15.124883856909658 88.0123
15.14737872204565 108.665
15.169891721717274 126.156
15.192405310371893 133.417
15.214901940621196 125.70700000000001
15.237416709527137 106.251
15.259914520936249 86.4163
15.282430473753607 70.5823
15.304947020131227 59.3018
15.327446610371178 51.9516
15.349964346154254 47.1188
15.372465126703139 44.4628
15.394984055556009 42.3776
15.417486030076159 41.005
15.44000615566487 39.9478
15.462526881230803 39.2035
15.485030653812652 38.7026
15.507552581617434 38.3646
15.530057557334603 38.1376
15.55258069104857 37.9883
15.575104429329837 37.9531
15.597611216864632 37.488
15.620136166564563 37.5732
15.6426441664095 37.4634
15.665170331202765 37.5498
15.687697105158826 37.5198
15.710206930593545 37.9437
15.732734925158933 38.4283
15.755245972089478 38.7847
15.77777519094324 40.0137
15.800287463046663 41.3238
15.822817909869592 43.1921
15.84534897229804 44.6161
15.867863089299354 46.4484
15.890395385222186 47.0158
15.912910736597423 47.465
15.935444269699861 48.7553
15.957978423016485 51.6524
15.980495633101265 55.1023
16.003031029129367 61.4626
16.02554948280019 71.9579
16.048086125229432 86.7518
16.070623392487107 105.29299999999999
16.09314371869582 122.76899999999999
16.11568223789321 132.494
16.13820381691126 130.142
16.160743591742527 116.92
16.183283996022084 99.6459
16.205807461423195 81.9231
16.228349126881973 66.3435
16.25087385432698 55.2464
16.27341678466365 47.7205
16.29594277784926 43.2215
16.31848697676433 40.3963
16.341031811604868 38.3237
16.36355971058487 37.0278
16.3861058195587 35.9551
16.40863499352978 34.8829
16.431182380342005 34.4876
16.453730407713202 34.0233
16.476261501364792 33.5644
16.498810812136167 33.1155
16.52134319004079 32.8359
16.54389378792203 32.6779
16.566445031001553 32.4483
16.588979342490088 32.2591
16.61153187824822 31.9841
16.634067483263312 31.6999
16.656621315414416 31.5611
16.679175797408888 31.3422
16.701713349928728 31.1879
16.72426913389191 31.1958
16.74680798922351 31.1492
16.76936507887444 31.178
16.791905240734874 31.2373
16.814463639794468 31.0704
16.837022695210294 31.1153
16.859564824093756 31.0583
16.882125194503903 31.2049
16.904668639217885 31.2545
16.927230328348003 31.5711
16.949792678493612 32.0171
16.972338104193863 33.0513
16.994901778652235 34.6743
17.017448529496576 36.8567
17.040013531998152 38.904
17.06257920018044 40.0671
17.0851279459922 39.286
17.107694947817667 37.3798
17.130245028099072 34.9692
17.15281336730298 33.471
17.17536478578733 32.769
17.19793446610687 32.4572
17.220504818648422 32.8881
17.243058251703697 32.9314
17.265629950971032 33.1407
17.288184731571736 33.5282
17.310757781306908 33.8897
17.33333150794385 33.8769
17.355888317140174 34.1866
17.37846339986244 34.498000000000005
17.401021565958885 35.0605
17.42359800851343 36.3119
17.44617513265564 38.1503
17.468735341390783 40.5967
17.491261035594565 44.1162
17.51396340099364 48.3407
17.536490463869136 51.4831
17.559018209820174 52.5255
17.58154663977963 50.618
17.604251766089718 46.7508
17.626781572227713 42.8121
17.64931206518155 39.5292
17.671843245885103 37.1567
17.69455114821572 35.7062
17.717083712612634 34.785
17.739616967569667 34.5098
17.762150914021706 34.57
17.78486160749854 34.6013
17.807396945166804 35.4111
17.829932977143503 36.6852
17.85246970436452 38.5663
17.875183204129467 40.4129
17.897721330097664 42.0443
17.920260154126645 42.0195
17.942799677153296 40.661
17.9655159983646 39.0049
17.988056927677544 38.314
18.010598558807683 38.7529
18.033140892692916 39.5129
18.05586005052525 40.2416
18.07840379824407 41.3024
18.10094825154059 41.886
18.12366954819864 42.2965
18.146215420998306 42.762
18.16876200220057 43.9194
18.191309292745153 45.6443
18.214033452627167 48.3431
18.236582170236648 52.2955
18.259131600016456 59.0664
18.281681742907335 68.3476
18.304408781233683 82.0009
18.32696035875955 95.2612
18.349512652227624 104.751
18.372065662579683 106.792
18.394795594587553 98.7642
18.41735004715306 86.0223
18.43990521943684 73.4395
18.46246111238171 64.0482
18.485193953325208 58.3994
18.507751296070428 56.4199
18.530309362314178 57.7037
18.552868153000343 61.2552
18.57560391815056 66.95100000000001
18.59816416623245 73.7939
18.620725141597372 77.5973
18.643286845190268 76.9699
18.666025549835414 71.7807
18.688588718427933 64.3769
18.711152618092243 57.3193
18.73389353884365 50.63
18.75645890921984 45.0728
18.77902501351406 41.2655
18.801591852673102 38.7639
18.824335739722738 37.0706
18.846904057212626 35.988
18.8694731124168 35.2436
18.89204290628315 34.7335
18.914789774966803 34.2625
18.937361054791623 33.7652
18.959933076131318 33.3845
18.982505839934877 33.4476
19.00525570560582 33.1234
19.027829963004184 32.8619
19.05040496572238 32.778
19.072980714710468 32.6947
19.095733592739563 32.4214
19.11831084296757 32.4675
19.140888842324735 32.4227
19.16346759176222 32.4664
19.18622349753803 32.4835
19.208803755869358 32.7575
19.231384767143577 33.0585
19.253966532312948 33.2473
19.276725481241822 33.6359
19.29930876296784 34.0561
19.3218928014549 34.679
19.34465404436217 35.1535
19.36723960516257 36.3582
19.389825925592426 38.1409
19.412413006605938 41.1142
19.43517731967805 44.5261
19.457765930683355 47.3638
19.48035530514408 48.4373
19.50294544401556 47.9844
19.525712842708348 46.4814
19.54830451925909 45.5449
19.570896963095727 45.691
19.593490175174704 47.515
19.616260674962184 49.426
19.638855432416964 49.9826
19.661450960992624 49.2731
19.68404726164677 46.4169
19.706820878021247 42.8624
19.729418731756834 39.6893
19.752017360452857 37.0815
19.77461676506804 35.3086
19.797393513540218 34.0839
19.819994478951667 32.9537
19.84259622316767 32.7671
19.8651987471481 32.188
19.887978643247177 31.5464
19.91058273574792 31.2882
19.933187610901943 31.2844
19.955969879466828 31.4104
19.97857632894404 31.4865
20.00118356396599 31.5215
20.023791585494575 31.6958
20.046577028914875 31.9473
20.069186632506966 31.9571
20.091797025500632 31.9776
20.114408208858933 31.9434
20.137196842715273 32.0388
20.159809615886765 32.47
20.18242318232135 32.8
20.20503754298326 33.5638
20.227829382875154 34.5845
20.250445341109344 35.9296
20.27306209647285 37.8908
20.29567964993108 40.4385
20.31847471147704 43.3245
20.34109387027612 46.1042
20.363713830075454 47.9304
20.386334591841646 48.2135
20.409132890679302 46.4527
20.431755265564437 43.4585
20.454378445325528 41.2139
20.477002430930366 39.746
20.499803982716553 39.1374
20.522429589228004 39.788000000000004
20.54505600449589 41.4167
20.567683229489194 43.772
20.590488049900088 45.3506
20.61311690359731 45.597
20.63574656993626 44.4478
20.658553853717297 41.8412
20.681185154618298 38.7064
20.703817271080066 35.7396
20.72645020407368 33.4794
20.749260783967177 32.3074
20.771895359337133 31.5854
20.794530754161617 31.1583
20.817166969412938 30.8695
20.83998086114876 31.2685
20.86261872660049 31.9116
20.885257415405402 32.9247
20.90789692853701 33.5601
20.930714147864748 33.9475
20.953355319030678 33.4627
20.97599731745334 32.4633
20.99864014410749 30.9297
21.021460706796564 29.6643
21.044105199328826 29.113000000000003
21.06675052302631 28.7585
21.089396678865015 28.4198
21.112220600704806 28.2929
21.134868430275347 28.256
21.15751709492456 28.0586
21.180166595629693 28.1244
21.202993892429635 28.1133
21.22564507473034 28.0674
21.24829709602816 28.0184
21.27112693608965 27.9493
21.293780644891275 28.1569
21.316435195634053 28.0913
21.339090589297417 28.0785
21.361923832041875 28.0585
21.384580921090404 28.2692
21.407238856007325 28.5256
21.429897637773326 29.0081
21.45273429906592 29.660999999999998
21.475394784108598 30.4525
21.498056118951983 31.4342
21.520718304578022 32.2617
21.543558400304388 32.6098
21.566222297108816 32.6035
21.58888704765135 32.113
21.61155265291521 31.4862
21.63439619898156 30.7718
21.657063523335786 30.1751
21.67973170537063 29.7714
21.7024007460706 29.2357
21.72524775840385 29.0933
21.747918526116475 29.1394
21.770590155457388 29.3167
21.79326264741238 29.4925
21.816113141960237 29.7287
21.838787368860547 29.9197
21.861462461341976 30.1475
21.884315579735777 30.4746
21.90699241312273 30.5413
21.92967011506078 30.6945
21.95234868653799 30.8941
21.9752053151131 31.2622
21.997885635446785 31.8005
22.020566828293532 32.6835
22.04324889464272 33.7569
22.066109049404666 34.9449
22.088792872571794 36.6153
22.111477572219204 38.8661
22.1341631493376 41.8583
22.157026846313123 45.0924
22.179714188221507 48.3016
22.202402410582668 50.4297
22.22509151438863 50.6329
22.24795876962584 49.5006
22.270649646204486 47.5211
22.293341407213727 45.3676
22.316034053646906 43.3099
22.338904883215342 41.7897
22.36159931041458 41.129
22.38429462602756 40.5781
22.40699083104897 40.1719
22.429865251039757 39.839
22.452563244831367 39.0347
22.47526213102522 37.251999999999995
22.49813925616515 35.5088
22.520839937143307 33.9605
22.543541513520587 32.6322
22.56624398629403 31.5694
22.589124730075895 30.9356
22.611829005656723 30.5276
22.63453418063466 29.9965
22.657240256008077 29.7553
22.680124634582935 29.5199
22.70283252079775 29.4048
22.725541310413075 29.3989
22.74825100442868 29.2251
22.771139033969575 29.4115
22.79385054687155 29.2629
22.81656296718292 29.3255
22.83927629590484 29.7567
22.862167992606945 30.1853
22.88488314827121 30.651999999999997
22.907599215359284 31.4031
22.93031619487366 31.875
22.953211574954405 31.9224
22.975930389478226 31.9125
22.998650119445763 31.5494
23.02137076586092 31.0723
23.044269845560063 30.9015
23.06699233506288 30.8823
23.089715744034912 31.1551
23.112617610931565 31.5449
23.135342869061212 32.3291
23.158069049684816 33.3796
23.1807961538087 34.9969
23.20370174880544 37.2751
23.226430710184808 39.7776
23.249160598093425 42.2382
23.271891413539002 43.7469
23.294800752937697 43.7674
23.31753343374794 42.43899999999999
23.340267045128353 40.2688
23.36300158808808 37.7978
23.38591468821339 35.3664
23.408651104658304 33.9009
23.431388455719986 32.8645
23.454126742409 32.3611
23.4770436196085 32.3793
23.499783787914662 32.8395
23.522524894889884 33.3716
23.54526694154616 33.9375
23.56818761219047 34.4668
23.59093154860734 34.6266
23.613676427751283 34.4833
23.636422250635754 33.674
23.659346731118656 33.0755
23.68209445191868 32.6695
23.704843119509587 32.5283
23.72759273490623 32.6146
23.750521041644767 33.3015
23.77327256312355 34.2294
23.796025035462787 35.8223
23.818956224555475 37.8851
23.841710609113413 40.687
23.86446594758979 43.272
23.887222241002014 45.3797
23.910157285144578 45.9525
23.932915498962537 45.1477
23.955674670778713 42.6811
23.978434801611975 39.4582
24.001373717286125 36.3222
24.024135776723917 33.8427
24.046898798245582 32.099000000000004
24.06966278287146 30.8234
24.092605586582614 29.9789
24.115371508023642 29.4986
24.1381383956401 29.1723
24.16090625045381 28.8852
24.183852958731244 28.7297
24.206622758582608 28.5097
24.229393528706886 28.1884
24.252165270127392 28.002
24.27511589952438 27.6377
24.297889594216997 27.1825
24.32066426328598 26.8907
24.34343990775613 26.8015
24.36639447485003 26.5883
24.38917208083877 26.4436
24.41195066531332 26.2278
24.43490819850244 26.182
24.457688750692377 26.0634
24.48047028445616 26.0167
24.503252800821233 26.0022
24.526214300784112 26.0174
24.548998793132213 25.9657
24.57178427117417 25.7732
24.59457073593893 25.9072
24.617536219319863 25.7967
24.64032466834748 26.0158
24.663114107195035 26.052
24.685904536893013 25.9443
24.708874020360852 26.1064
24.731666442613744 26.3915
24.754459858818787 26.8388
24.777254270007962 27.3602
24.80022777025625 27.6351
24.82302418230472 27.8917
24.845821592443674 27.808000000000003
24.86862000170663 27.6287
24.891597535453727 27.0765
24.914397953892728 26.7818
24.93719937456671 26.4608
24.96000179851076 26.3263
24.98298338249997 26.1833
25.00578782394922 26.0277
25.028593271784167 25.8781
25.05157790644186 25.8273
25.07438537804115 25.7489
25.097193859145293 25.698
25.120003350792075 25.6081
25.142992065061257 25.7505
25.165803588823465 25.7289
25.18861612625217 25.7757
25.211429678386736 25.9343
25.234422489079968 26.1444
25.257238081693636 26.1595
25.280054692141732 26.3676
25.3028723214652 26.5669
25.325869245420463 26.9686
25.348688923599397 27.3766
25.371509623787006 27.7396
25.394331347025812 28.316
25.41733240110666 28.8246
25.440156181590016 29.2648
25.46298098826268 29.9986
25.48580682216873 30.3429
25.50881202326435 30.4547
25.53163992281684 30.5551
25.55446885274561 30.5335
25.577298814096377 30.4769
25.600308179121807 30.6785
25.623140214533745 31.3907
25.64597328451537 32.0371
25.66898578564376 32.65
25.691820936010206 32.8733
25.714657124097695 32.4758
25.737494350954734 31.6116
25.760511045684957 30.1795
25.783350361364224 29.0212
25.806190718969255 28.0876
25.82903211955018 27.4497
25.852053024868923 26.8093
25.874896522722523 26.5365
25.897741066713106 26.4287
25.920586657892454 26.4774
25.943611790812668 26.6553
25.966459487728237 26.714000000000002
25.989308234998564 26.619
26.01215803367705 26.6697
26.03518741123814 26.4753
26.05803932412957 26.1119
26.080892291600094 25.6229
26.10374631470478 25.4
26.12677995397268 25.3123
26.14963609978026 25.3495
26.172493304397875 25.2453
26.19535156888223 25.3886
26.218389486949604 25.2963
26.241249882640123 25.5517
26.26411134137826 25.6504
26.28715248187403 25.8914
26.31001607820869 26.0904
26.3328807407756 26.3606
26.35574647063438 27.0736
26.37879191991473 27.6694
26.401659795896734 28.2947
26.424528742360263 28.7532
26.447398760366614 29.0762
26.470448535598294 28.9764
26.49332070826805 28.5622
26.516193955675355 28.1135
26.53906827888316 27.4972
26.562122397260108 26.9653
26.584998883685063 26.5342
26.607876449110325 26.3574
26.63075509460056 26.0568
26.65381357334404 25.7958
26.67669439061878 25.6081
26.699576291163382 25.6573
26.722459276044212 25.8356
26.745522132402975 25.8372
26.768407297649354 25.9646
26.791293550442003 25.9778
26.814180891848974 26.2918
26.837248143099337 26.4918
26.860137673466657 26.7847
26.88302829566349 27.3456
26.90592001075963 28.088
26.92899167420566 28.9051
26.951885586870763 29.756
26.974780595655517 30.7376
26.99785558178161 31.4
27.020752794605112 31.6406
27.043651106772522 31.4545
27.06655051935668 31.2824
27.089629948036183 30.8578
27.112531573292053 30.4221
27.135434302194138 30.1852
27.158338135817015 29.6028
27.181422024430987 29.0386
27.204328079372566 28.393
27.22723524226965 27.6413
27.250143514198573 27.0311
27.273231880156334 26.441999999999997
27.296142382065014 25.8434
27.319053996245536 25.3384
27.341966723775965 25.0777
27.365059584515222 24.7873
27.38797455070062 24.6773
27.410890633481237 24.4808
27.433807833936918 24.3957
27.456905206923906 24.4698
27.47982465472398 24.3119
27.502745223449743 24.2428
27.525666914182825 24.2749
27.548768816912457 24.3412
27.571692763693633 24.3292
27.59461783573812 24.311
27.617723149491244 24.3082
27.640650484125285 24.261999999999997
27.66357894728264 24.3877
27.686508540048052 24.5043
27.709618414237887 24.5513
27.732550278321757 24.3946
27.755483275279115 24.5048
27.778417406196485 24.6187
27.801531858397514 24.7899
27.824468269376716 24.9558
27.847405817586786 25.1154
27.870344504116094 25.5277
27.893463551932008 25.7464
27.916404527281053 25.8614
27.93934664422563 25.7764
27.962289903855886 25.5902
27.98541356491974 25.3916
28.00835912214229 25.0832
28.03130582533231 24.8558
28.054253675581805 24.8743
28.077381967556104 24.8008
28.100332124185126 24.9153
28.123283431160893 25.1979
28.146235889577238 25.3854
28.169368830154156 25.6587
28.192323603752033 25.9536
28.215279532083304 26.0203
28.238415973016764 25.9963
28.261374223145094 25.9613
28.284333631303806 26.0233
28.307294198589954 26.3154
28.330435319167677 26.6697
28.353398217078915 27.3119
28.376362277420153 28.0923
28.39932750129032 28.7453
28.422473319286713 29.1214
28.44544088262495 29.4431
28.468409612800283 29.2345
28.491379510913497 28.6594
28.51453004413313 28.2856
28.53750229057244 27.7703
28.56047570826344 27.541999999999998
28.583450298308804 27.4526
28.606605564586562 27.1281
28.629582511831156 27.006
28.65256063474956 26.6387
28.675539934446338 26.1404
28.698699951647605 25.6698
28.72168161743193 25.0844
28.74466446331978 24.6126
28.767648490417624 24.1453
28.790813276438353 23.8276
28.813799678527303 23.5896
28.836787265157085 23.2877
28.859955641890075 23.1288
28.882945610203045 22.9514
28.905936766392035 22.7277
28.928929111566863 22.6444
28.952102288520145 22.7076
28.975097024308607 22.5434
28.998092952423807 22.4895
29.021090073977508 22.4358
29.04426806913204 22.3959
29.067267590245258 22.3625
29.090268308143695 22.3629
29.11327022394099 22.3957
29.13645305530891 22.4467
29.159457379627167 22.6042
29.18246290519685 22.6996
29.20546963313352 22.9224
29.22865731875826 23.1555
29.25166646419296 23.235
29.27467681535305 23.3163
29.29768837335608 23.3801
29.320880931312562 23.2252
29.34389491580634 23.0922
29.366910110507334 22.7257
29.38992651653503 22.568
29.41312396492981 22.2985
29.436142806456754 22.0804
29.45916286268059 21.9959
29.48236399319994 21.8663
29.50538649169417 21.8212
29.528410208259935 21.8668
29.55143514402014 21.694000000000003
29.574641196749695 21.8422
29.597668583816574 21.8298
29.6206971934585 21.6915
29.64372702680042 21.8796
29.666938019934474 22.0305
29.689970313635285 22.1594
29.713003834422636 22.3406
29.73603858342347 22.5496
29.759254535188578 22.7292
29.78229175361658 22.8571
29.80533020365064 22.8899
29.82836988641968 22.8869
29.85159081507472 22.6693
29.874632976355343 22.271
29.89767637376955 22.0714
29.920721008448314 21.7374
29.9439469322847 21.5438
29.96699405457564 21.4408
29.9900424175358 21.3463
30.013092022298157 21.1714
30.03632295963995 21.0078
30.059375061131373 20.9991
30.08242840783577 21.113000000000003
30.105483000888153 21.0625
30.128718970092244 21.0061
30.151776069006917 21.0172
30.17483441768648 21.1463
30.198074175317235 21.302
30.221135036724256 21.4286
30.24419715131772 21.3611
30.267260520236203 21.4282
30.290505341942243 21.3675
30.313571232750228 21.2627
30.336638381310948 21.1669
30.35970678876503 20.9578
30.38295669299435 21.0267
30.40602763151657 20.932
30.429099832366074 20.9451
30.452173296685572 20.8401
30.47542830191959 20.8189
30.498504306502497 20.8706
30.521581577995562 21.1037
30.544660117543582 21.2645
30.56792024229725 21.3106
30.59100133132069 21.5055
30.614083691845494 21.3744
30.637167325018545 21.4615
30.660432587840603 21.5154
30.683518779717886 21.3108
30.70660624769615 21.2842
30.729694992924372 21.0867
30.75296541239743 21.1233
30.77605672557558 20.9786
30.799149319462742 21.0376
30.8224236211637 20.8283
30.845518789950724 20.8914
30.868615242910597 20.9164
30.891712981195973 20.980999999999998
30.91499247215866 21.0607
30.938092794619365 21.2701
30.96119440587579 21.4083
30.984297307082752 21.5411
31.00758200598383 21.7761
31.030687500658694 22.1325
31.053794288760695 22.5028
31.076902371446767 22.8086
31.100192296997445 23.1154
31.12330298246119 23.27
31.14641496599209 23.2802
31.169528248749216 23.2037
31.19282341969534 22.9468
31.215939314557186 22.8073
31.239056512134788 22.7178
31.262175013589378 22.5075
31.28547544871168 22.2282
31.30859657161541 21.8626
31.331719001892175 21.6543
31.35484274070538 21.4507
31.378148458819545 21.1125
31.401274828443725 20.8674
31.424402510106933 20.8123
31.447712205419993 20.7161
31.470842524931633 20.5505
31.493974159989783 20.5738
31.51710711176168 20.3978
31.54042212308802 20.4311
31.563557722100917 20.4321
31.586694641341655 20.3085
31.609832881979628 20.4355
31.63315322823208 20.3973
31.656294125521327 20.4055
31.679436347728515 20.5512
31.70257989602529 20.6882
31.725905596152327 20.7439
31.74905181052835 20.8264
31.772199354521323 20.9875
31.79534822930507 21.0499
31.818679302290967 21.1062
31.84183085259981 21.43
31.864983737233473 21.6442
31.88813795736804 21.7628
31.911474422233013 21.6543
31.934631327356435 21.6554
31.9577895715215 21.4711
31.980949155906522 21.2597
32.004291031706956 21.0097
32.027453310562606 20.7232
32.05061693318573 20.5248
32.07396288236386 20.4666
32.09712920658542 20.3317
32.12029687812702 20.3689
32.14346589817093 20.3444
32.166817291729984 20.4069
32.18998902288583 20.4153
32.21316210610336 20.4917
32.23633654256711 20.4741
32.259693399663725 20.6034
32.282870556771144 20.662
32.30604907069099 20.9044
32.329228942610065 21.0349
32.35259128243769 21.0899
32.375773884550505 21.1407
32.398957848235646 21.1528
32.422143174682176 21.1155
32.445511016471215 20.9479
32.468699082679954 20.7106
32.49188851523011 20.604
32.51507931531304 20.4081
32.538452678331 20.2731
32.56164622776311 20.1592
32.58484114831493 19.923
32.60803744118015 19.7771
32.631416344731896 19.6295
32.654615396551876 19.5845
32.67781582427913 19.3686
32.701198898634416 19.2484
32.72440209253756 19.1599
32.747606665947124 19.0645
32.77081262006088 18.9389
32.79420126883317 18.9197
32.81740999876112 18.8221
32.840620112999424 18.7685
32.86383161274818 18.64
32.88722585534586 18.6666
32.91044014056596 18.7201
32.933655814909734 18.6605
32.95687287957963 18.7899
32.98027273544904 18.6308
33.00349259526636 18.5787
33.026713849030116 18.6971
33.04993649794511 18.736
33.073341986570746 18.7818
33.09656744032826 18.838
33.11979429286444 18.8366
33.14302254538647 18.8195
33.166433686291185 18.813
33.18966475336992 18.7242
33.212897224069096 18.5688
33.23613109959831 18.4492
33.259547912343415 18.385
33.2827846121627 18.4843
33.306022720453775 18.3954
33.32926223842861 18.2973
33.352684742614166 18.3688
33.37592709463173 18.3861
33.399170859982064 18.4113
33.422597648419426 18.3992
33.44584425514446 18.4557
33.46909227885668 18.5182
33.4923417207723 18.5738
33.51577423505344 18.7691
33.539026528130385 18.8336
33.56228024307245 19.0308
33.585535381098246 19.0188
33.60897364093058 19.1456
33.63223163992385 19.2318
33.6554910656699 19.2534
33.678751919389796 19.2182
33.702195944520106 19.1989
33.72545966903325 19.1898
33.74872482519663 19.1674
33.771991414233746 19.0948
33.79544122444841 18.9475
33.81871069412428 18.7169
33.84198160035767 18.4688
33.86525394437455 18.3152
33.88870955949969 18.0774
33.911984794020626 18.0434
33.93526147001624 18.0138
33.958539588715006 17.9245
33.98200102861669 17.8317
34.0052820477047 17.6998
34.02856451319451 17.7903
34.05203033759056 17.7174
34.07531571090147 17.7344
34.09860253431845 17.655
34.121890809074316 17.5907
34.145362493118924 17.5689
34.16865368561615 17.5905
34.191946333164054 17.5789
34.21524043699793 17.566
34.23871800066799 17.6405
34.26201503218366 17.6149
34.28531352370466 17.5972
34.30861347646881 17.5941
34.33209693978188 17.6652
34.3553998301885 17.7419
34.378704185565205 17.644000000000002
34.402010007152356 17.5453
34.42549939016683 17.445999999999998
34.44880815937748 17.3224
34.472118398533134 17.2473
34.49543010887669 17.1648
34.51892543169198 17.0816
34.54224009966052 17.1206
34.56555624255917 17.1315
34.58887386163339 17.000999999999998
34.61237514439016 16.9538
34.6356957311114 16.9624
34.65901779775809 17.0506
34.68252356662995 17.0302
34.705848608458616 17.051
34.72917513396849 17.1066
34.75250314440949 17.1351
34.77601490857862 17.0517
34.799345904259795 17.1181
34.82267838863559 16.9542
34.846012362958525 16.9679
34.869530142679984 16.904
34.89286711232212 16.8248
34.91620557568269 16.7643
34.93954553401677 16.730999999999998
34.9630693495876 16.6257
34.986412313340814 16.6205
35.00975677584668 16.5205
35.033102738362956 16.4756
35.05663261012228 16.3985
35.0799815881786 16.394000000000002
35.10333207003229 16.331
35.12668405694369 16.3506
35.150220005273056 16.2516
35.17357501786656 16.3225
35.19693153931268 16.2927
35.220289570874385 16.2657
35.24383161619786 16.2727
35.267192683604904 16.2828
35.290555264930376 16.2719
35.314101899412165 16.2012
35.33746752422433 16.3104
35.36083466676374 16.3292
35.38420332829803 16.3132
35.407756095629054 16.3519
35.43112781085063 16.3048
35.45450104888391 16.2127
35.477875810999194 16.2815
35.50143473172161 16.246
35.52481255774625 16.2897
35.54819191167777 16.2621
35.57157279478914 16.3036
35.595137889488406 16.2684
35.61852184675279 16.244
35.641907337029984 16.2287
35.665294361595684 16.2533
35.68886565090076 16.2949
35.7122557598848 16.3194
35.73564740699838 16.4428
35.759040593519934 16.55
35.78261809810353 16.5562
35.80601437933051 16.6001
35.829412203814705 16.697
35.85281157283719 16.7072
35.876395313415884 16.8901
35.8997977874528 16.9501
35.92320180988546 16.9943
35.946790244133936 16.8962
35.97019737933222 16.9019
35.993606066789866 16.8402
36.01701630779276 16.7342
36.04061101440684 16.5365
36.06402437852291 16.5323
36.08743930005611 16.4769
36.1108557802951 16.2994
36.13445678011326 16.2438
36.15787639383515 16.0878
36.18129757014299 16.0378
36.20472031032821 15.9373
36.22832762423364 15.9004
36.25175350829375 15.8295
36.275180960119776 15.7094
36.298609981005924 15.7418
36.32222362992669 15.7594
36.34565580510207 15.6877
36.36908955323448 15.6169
36.39252487562093 15.508
36.416144880530226 15.537
36.43958336764275 15.5536
36.463023432914625 15.5508
36.486465077645676 15.5765
36.51009145956204 15.6128
36.53353627947859 15.6974
36.55698268276811 15.6729
36.58043067073321 15.6817
36.60406345072071 15.6708
36.62751462435344 15.7143
36.65096738658405 15.7245
36.67460498210655 15.648
36.69806093788647 15.5725
36.72151848619297 15.5538
36.744977628333636 15.5726
36.76862165890998 15.3924
36.79208400512205 15.3802
36.81554794910557 15.3513
36.83901349217101 15.2391
36.862663978991606 15.2127
36.88613273667352 15.2126
36.90960309738324 15.2937
36.933075062434064 15.3193
36.95673202673572 15.2932
36.98020721697122 15.254000000000001
37.003684015502365 15.2844
37.027162423645365 15.3772
37.050825886711465 15.3958
37.07430753063053 15.3011
37.09779078812467 15.286
37.121275660513014 15.3055
37.144945643673694 15.2436
37.16843376245278 15.1713
37.19192350009803 15.2004
37.215414857931435 15.1062
37.239091382563885 14.9809
37.262585997426164 14.924000000000001
37.28608223645736 14.8803
37.309763684451696 14.7893
37.33326318851098 14.7278
37.356764320726555 14.6499
37.380267082425526 14.6525
37.40395510942588 14.6941
37.42746114683234 14.6561
37.45096881771841 14.6274
37.474478123414166 14.6407
37.49817275092816 14.6338
37.52168534303452 14.5224
37.54519957395567 14.4261
37.568715445024665 14.4691
37.592416694607714 14.4625
37.61593586281424 14.472999999999999
37.63945667518264 14.4542
37.66297913304891 14.3636
37.68668702630454 14.3382
37.710212792059274 14.3065
37.733740207334854 14.3201
37.757269273470364 14.3001
37.780983832050374 14.3146
37.80451621684926 14.2603
37.82805025654007 14.242
37.851585952464795 14.2322
37.8753071980695 14.1597
37.89884622345676 14.1362
37.92238690911902 14.161
37.94611318753442 14.0715
37.969657210779765 14.0265
37.99320289834801 14.1241
38.016750251586465 14.0261
38.04048325513017 14.0467
38.06403395679343 14.0584
38.087586328183946 14.0151
38.11114037065203 14.0948
38.13488012115898 14.0524
38.1584375229181 14.0033
38.181996599821 14.0112
38.205557353221124 13.9916
38.229303872575656 13.9947
38.2528679961576 13.9363
38.27643380031219 13.8879
38.30000128639589 13.845
38.32375459653193 13.8365
38.34732546371299 13.8018
38.37089801690786 13.7176
38.39447225747609 13.6783
38.418232380377425 13.5471
38.441810012983396 13.6135
38.46538933705673 13.5281
38.488970353960084 13.5904
38.51273731166058 13.5978
38.536321731567014 13.4979
38.55990784840681 13.5184
38.58367995004091 13.5203
38.60726947812959 13.5148
38.63086070726198 13.4966
38.654453638806274 13.4604
38.678232613930824 13.4492
38.70182896773327 13.5007
38.72542702806741 13.524000000000001
38.7490267963045 13.5296
38.77281266709232 13.5158
38.79641586862214 13.5138
38.8200207821842 13.4256
38.843627409152944 13.4352
38.86742019782782 13.4235
38.891030269149255 13.3807
38.914642058016156 13.3367
38.938255565806124 13.2673
38.96205529464307 13.2453
38.98567225787121 13.305
39.00929094417078 13.2666
39.03291135492255 13.2826
39.05671804624804 13.2257
39.080341923549106 13.1821
39.103967529460334 13.229000000000001
39.127594865365744 13.2121
39.15140854155791 13.2552
39.17503935514948 13.2387
39.19867190290282 13.2868
39.22249083587951 13.2554
39.24612686969409 13.213
39.269764641845306 13.1503
39.293404153722804 13.0781
39.317230110864074 12.9979
39.34087311998506 12.9691
39.36451787301696 12.9554
39.388164371352595 12.8525
39.41199737518003 12.83
39.43564738196752 12.7994
39.45929913825317 12.7273
39.48295264543308 12.7757
39.506792718520884 12.75
39.530449745387216 12.7562
39.55410852735203 12.6692
39.57776906581474 12.6688
39.60161623079 12.6651
39.625280300200025 12.6077
39.64894613032202 12.5778
39.67261372255866 12.595
39.6964680021016 12.5568
39.72013913657293 12.5109
39.74381203738292 12.5432
39.76748670593756 12.5443
39.79134812278169 12.5759
39.81502634488497 12.548
39.83870633896685 12.4732
39.862388106436654 12.5327
39.88625668336918 12.5035
39.90994201572829 12.4539
39.933629125719285 12.4034
39.957503091207826 12.409
39.9811937746168 12.3953
40.00488623990914 12.3335
40.02858048850006 12.3659
40.05246165409549 12.3256
40.076159487492085 12.265
40.099859108448875 12.3322
40.123560518384345 12.3066
40.1474489070226 12.3177
40.171153913178564 12.331
40.194860712584955 12.3317
40.2185693066637 12.331
40.242464941335314 12.2374
40.26617714307655 12.314
40.289891143772046 12.3178
40.3136069448471 12.3252
40.33750984859743 12.3049
40.3612292688043 12.2905
40.3849504936829 12.2697
40.40867352466194 12.2893
40.43258372059144 12.2577
40.45631038219906 12.2235
40.48003885420956 12.1411
40.503769138055105 12.1349
40.52768664931955 12.0788
40.55142057531802 12.0783
40.57515631746428 12.0269
40.599079334038514 12.0388
40.62281872700477 11.9755
40.64655994043941 11.9991
40.67030297578061 11.9521
40.69423334835778 11.9492
40.71798004609188 11.9168
40.74172857006355 11.8817
40.76547892171441 11.9175
40.7894166736039 11.8926
40.813170699248566 11.8971
40.83692655691388 11.8494
40.86068424804498 11.8652
40.884629402612525 11.8551
40.908390779366385 11.8808
40.932153993938 11.8077
40.95591904777605 11.7773
40.979871628443995 11.7278
41.003640379561936 11.7391
41.02741097430883 11.6866
41.05118341413683 11.7147
41.075143444384416 11.6719
41.098919593177826 11.6517
41.1226975914255 11.6446
41.14647744058318 11.6788
41.170444943946755 11.692
41.19422851378379 11.6812
41.218013938914645 11.6605
41.24198706625173 11.6588
41.26577622087193 11.6726
41.289567235177785 11.6981
41.31336011063129 11.606
41.337340752422875 11.552999999999999
41.361137369129835 11.540999999999999
41.38493585138705 11.5209
41.40873620066004 11.4986
41.43272438060107 11.4843
41.45652848292052 11.4535
41.48033445666918 11.374
41.50414230331616 11.3492
41.528138045159764 11.33
41.551949656675205 11.3294
41.575763145513235 11.2714
41.59957851314666 11.2475
41.62358184070442 11.2053
41.64740098505737 11.2431
41.6712220126409 11.2034
41.69504492493139 11.2052
41.71905586207357 11.1653
41.74288256296395 11.1744
41.766711153007456 11.1358
41.79054163368412 11.0922
41.814560204340054 11.1032
41.838394485526365 11.1395
41.86223066180303 11.0844
41.88625497706819 11.0711
41.910094962812 10.9812
41.93393684811168 10.9888
41.95778063445365 10.9928
41.981812625263366 10.9781
42.00566023303407 11.0037
42.029509746323676 10.9402
42.05336116662236 10.9532
42.077400857069705 10.945
42.10125611078846 10.9821
42.12511327600405 10.9625
42.14897235421036 10.8761
42.173019768448455 10.9015
42.19688269209613 10.8877
42.22074753323349 10.8919
42.24461429335818 10.8876
42.268669455600495 10.9228
42.292540073217886 10.917
42.31641261433284 10.8557
42.34028708044675 10.8483
42.36435001496739 10.841
42.38822835065557 10.8325
42.41210861586426 10.7508
42.4359908120986 10.7259
42.46006154323262 10.6731
42.48394762115317 10.6278
42.507835634632315 10.6568
42.531912233047436 10.6055
42.55580413732265 10.5661
42.579697981698 10.5002
42.60359376768525 10.5133
42.62767820545945 10.477
42.65157789440821 10.4845
42.67547952952185 10.4787
42.699383112316 10.4662
42.72347541395347 10.4655
42.74738291190531 10.4241
42.771292362102166 10.429
42.795203766063516 10.4148
42.819303956130405 10.328
42.843219287476536 10.3439
42.86713657716324 10.3431
42.89105582671383 10.2949
42.91516392983864 10.2881
42.939087119032166 10.2654
42.963012272677304 10.2449
42.98693939230129 10.2261
43.01105543317513 10.2378
43.034986504731386 10.1923
43.05891954686589 10.1636
43.08285456110972 10.1271
43.10697856448665 10.1663
43.130917542983475 10.1156
43.15485849820081 10.128
43.17880143167367 10.0674
43.20293342237094 10.0899
43.226880332449 10.0396
43.25082922540554 10.0876
43.27496722682525 10.0516
43.29892010567796 9.99192
43.32287497204102 9.97512
43.34683182745632 9.98975
43.370977859791836 9.99165
43.39493871351105 9.929689999999999
43.41890156092628 9.89016
43.44286640358341 9.891910000000001
43.46702049182749 9.88895
43.49098934522816 9.9119
43.51496019852649 9.864469999999999
43.5389330532723 9.8411
43.56309522248204 9.819930000000001
43.58707210044314 9.79739
43.61105098451946 9.722560000000001
43.63503187626491 9.75943
43.659202151562134 9.71418
43.68318707902681 9.70882
43.70717401884041 9.6808
43.731162972560874 9.67117
43.75534137913236 9.6622
43.779334381108384 9.67433
43.803329401683186 9.67347
43.82732644241872 9.62197
43.8515130055166 9.67862
43.87551410707659 9.562619999999999
43.89951723350145 9.617280000000001
43.923709934595614 9.58462
43.94771713129917 9.56893
43.97172635758096 9.57933
43.99573761501002 9.56354
44.0199385169922 9.58256
44.04395385732619 9.55556
44.067971233533086 9.515989999999999
44.09199064718605 9.51495
44.11619977548961 9.497530000000001
44.14022328470671 9.47579
44.16424883610785 9.52317
44.18827643127035 9.494489999999999
44.21249381139513 9.455639999999999
44.236525514814076 9.442839999999999
44.26055926674478 9.42597
44.28459506876863 9.43603
44.3088207262813 9.390789999999999
44.33286064928722 9.37893
44.35690262714919 9.35223
44.38094666145278 9.38471
44.4051806219871 9.31311
44.42922879003185 9.288310000000001
44.45327901929361 9.27778
44.477331311362136 9.28312
44.501573600619416 9.23881
44.525630039221795 9.21631
44.54968854541895 9.20016
44.573937102200176 9.1764
44.5979997645541 9.154530000000001
44.622064499300315 9.15983
44.64613130803592 9.11604
44.67038823869318 9.14648
44.69445921643748 9.151710000000001
44.718532272981385 9.13765
44.742607409926194 9.08761
44.76687274034801 9.083919999999999
44.79095205918753 9.10313
44.81503346325094 9.09362
44.839116954143876 9.094669999999999
44.86339071028742 9.059569999999999
44.88747839599524 9.01479
44.91156817336837 8.96117
44.93566004401666 9.004589999999999
44.959942251908146 8.9957
44.984038330325966 8.98858
45.00813650686762 8.94935
45.03223678314731 8.94486
45.05652746888232 8.9301
45.08063196592069 8.89732
45.104738567558705 8.897
45.128847275414856 8.90583
45.15314646515866 8.849739999999999
45.17725940679741 8.86652
45.20137445952892 8.8457
45.22568004865265 8.817169999999999
45.24979934496396 8.803410000000001
45.27392075725247 8.79213
45.29804428714431 8.75343
45.322358426247604 8.72118
45.346486212804315 8.73724
45.370616121861914 8.717889999999999
45.39474815505086 8.69353
45.41907087049246 8.66719
45.4432071734666 8.64841
45.46734560548283 8.68839
45.49148616817604 8.660789999999999
45.51581748638564 8.63188
45.5399623320197 8.60865
45.56410931325473 8.57146
45.58825843173002 8.56135
45.61259837920865 8.59876
45.636751793816 8.574160000000001
45.66090735060093 8.522689999999999
45.68506505120716 8.51785
45.7094136545275 8.509030000000001
45.73357566449271 8.44965
45.75773982322992 8.470360000000001
45.78190613238733 8.47893
45.806263418194064 8.42103
45.83043404997326 8.45576
45.85460683713677 8.42532
45.87897065658495 8.40357
45.90314777634752 8.35133
45.92732705646868 8.36754
45.9515084986045 8.36245
45.97588104735473 8.39283
46.00006683541565 8.34773
46.02425479047904 8.32953
46.04844491420549 8.3277
46.0728262191024 8.30644
46.09702070211635 8.33329
46.12121735879483 8.3292
46.14541619080294 8.3226
46.169806278764455 8.27247
46.194009483459034 8.26229
46.21821486849841 8.24062
46.24242243555223 8.21284
46.266821333570014 8.18435
46.29103328674601 8.17375
46.31524742696538 8.16437
46.33946375590237 8.12847
46.36387149104216 8.09906
46.38809221957392 8.11674
46.41231514186606 8.07174
46.436540259597464 8.0771
46.460956858999374 8.07859
46.48518638983522 8.06588
46.509418121166966 8.04066
46.533652054678114 8.04096
46.55807754555709 7.9859100000000005
46.58231590571962 8.03358
46.60655647313217 7.9847
46.630988654873654 7.97412
46.655233659129024 7.93721
46.67948087571551 7.931489999999999
46.70373030632484 7.940339999999999
46.72817142736393 7.927389999999999
46.752425308428684 7.9398100000000005
46.77668140861147 7.89629
46.80093972960865 7.858910000000001
46.82538981736788 7.8828
46.849652602470904 7.833639999999999
46.87391761349769 7.812869999999999
46.8981848521493 7.81411
46.9226439341274 7.83568
46.946915650573224 7.794560000000001
46.97118959976749 7.788530000000001
46.99546578341598 7.77008
47.019933887188216 7.76151
47.04421456235744 7.75974
47.06849747711879 7.742089999999999
47.09278263318286 7.72889
47.11725978640143 7.675610000000001
47.14154944775105 7.695060000000001
47.165841355555656 7.685510000000001
47.1901355115306 7.622539999999999
47.214621741924994 7.6393699999999995
47.23892041698887 7.63395
47.26322134538975 7.55668
47.28771440635075 7.56065
47.31201986422527 7.57843
47.33632758061436 7.57017
47.360637557241866 7.54553
47.38513974410611 7.54904
47.40945426407847 7.50506
47.43377104948137 7.51202
47.45809010204344 7.48045
47.48260144275502 7.486000000000001
47.506925052572285 7.48078
47.53125093475548 7.47368
47.55557909103813 7.442069999999999
47.58009961361992 7.4198
47.60443234110732 7.4089100000000006
47.62876734791564 7.39469
47.65310463578333 7.37247
47.6776343683373 7.41096
47.7019762413987 7.360860000000001
47.72632040075572 7.356730000000001
47.75066684815169 7.34023
47.77520581885936 7.29922
47.799556865477655 7.287160000000001
47.823910205386 7.293019999999999
47.84826584033272 7.268730000000001
47.87281407745551 7.27054
47.89717432569297 7.2903199999999995
47.92153687423484 7.2442
47.94609208429692 7.25881
47.97045925671401 7.20995
47.99482873471275 7.22945
48.01920052005013 7.21271
48.04376504619224 7.18421
48.068141469543484 7.206510000000001
48.09252020552573 7.19795
48.11690125590099 7.126689999999999
48.1414751266064 7.1285
48.16586082917454 7.12886
48.19024885144316 7.12863
48.2146391951793 7.079460000000001
48.239222439012764 7.0831800000000005
48.26361744916137 7.051310000000001
48.28801478610016 7.07217
48.31241445160131 7.043539999999999
48.337007097209366 7.038289999999999
48.36141144338331 7.035010000000001
48.38581812345755 7.00974
48.41022713920929 7.0033
48.434829215320704 6.96477
48.45924292604658 6.9630399999999995
48.48365897780325 6.95725
48.50807737237308 6.95132
48.532688907799276 6.95176
48.55711201168574 6.92185
48.581537463754074 6.90492
48.60615611725119 6.90285
48.63058628942721 6.85588
48.65501881516546 6.8876100000000005
48.6794536962573 6.87905
48.70408185970339 6.837210000000001
48.72852147531801 6.81135
48.75296345168211 6.81739
48.77740779059232 6.82476
48.80204549302823 6.829510000000001
48.82649458091802 6.798189999999999
48.85094603676547 6.7788699999999995
48.87539986237231 6.776039999999999
48.90004713292306 6.74875
48.92450572200832 6.74095
48.94896668628025 6.727189999999999
48.97343002754588 6.73031
48.99808689542115 6.69785
49.02255501470614 6.69013
49.04702551642794 6.64452
49.0714984023988 6.678669999999999
49.096164896893235 6.6552
49.120642575466796 6.59519
49.145122643748394 6.591489999999999
49.16960510355558 6.63312
49.19428125404938 6.64762
49.2187685210852 6.573360000000001
49.243258185121555 6.57025
49.26794160167084 6.5707699999999996
49.2924360839405 6.55319
49.31693296869764 6.55317
49.34143225776915 6.5633
49.36612538195438 6.53745
49.39062950396021 6.54609
49.41513603578346 6.47331
49.4396449792564 6.51472
49.46434784069503 6.48083
49.488861631846454 6.469609999999999
49.513377840166804 6.46326
49.537896467493745 6.43921
49.56260909589029 6.43127
49.587132585683285 6.42345
49.611658500018365 6.42641
49.636186840738596 6.41605
49.66090926588511 6.42243
49.685442483902584 6.40117
49.70997813385706 6.334919999999999
49.734516217597076 6.3689599999999995
49.75924846937352 6.36132
49.7837914452858 6.357080000000001
49.80833686055187 6.31034
49.83288471702571 6.30931
49.85762682540054 6.30791
49.882179588965734 6.27556
49.9067347993235 6.26705
49.93129245833333 6.28069
49.95604445336378 6.26778
49.98060703442832 6.23064
50.005172069746266 6.2329300000000005
50.02993150438364 6.2218800000000005
50.05450147301533 6.22837
50.07907390151433 6.2175400000000005
50.10364879174981 6.20306
50.12841816587289 6.1721
50.1529980044635 6.17068
50.17758031042124 6.17708
50.20216508562089 6.152080000000001
50.22694442953363 6.1318
50.25153416817468 6.16061
50.27612638170508 6.13149
50.300721072005196 6.086530000000001
50.325510416102105 6.06876
50.350110084975064 6.0637
50.37471223628208 6.0743
50.39931687190919 6.04942
50.424116246675766 6.0254900000000005
50.44872587605249 6.02369
50.47333799543065 6.00919
50.49795260670191 6.02557
50.52276204271512 6.02157
50.54738166295838 6.01591
50.57200378079314 5.992290000000001
50.596628398116835 5.95426
50.62144792604559 5.98283
50.646077567609396 5.9625699999999995
50.670709714377715 5.9804
50.69553683636198 5.96068
50.72017401885922 5.9057699999999995
50.7448137122895 5.894080000000001
50.76945591856022 5.90331
50.79429318636823 5.8887
50.818940443716784 5.8568
50.84359021965163 5.847580000000001
50.868242516085964 5.825830000000001
50.893089960641895 5.82757
50.917747323549435 5.87312
50.94240721271973 5.82874
50.96706963007175 5.78709
50.99192728239342 5.77926
51.01659478166073 5.778519999999999
51.04126481489051 5.800730000000001
51.06593738400761 5.76668
51.090805275207074 5.744680000000001
51.11548294172845 5.73867
51.14016314993547 5.70336
51.164845901758845 5.68122
51.18972406304274 5.68764
51.21441192780656 5.68239
51.23910234200271 5.67151
51.2637953075678 5.6822
51.288683770237945 5.67623
51.31338186432707 5.66247
51.33808251561888 5.6311
51.362978729967345 5.63935
51.387684521509755 5.66646
51.41239287610203 5.61343
51.437103795691165 5.6204
51.46201036644977 5.58462
51.486726441956634 5.58242
51.51144508832545 5.58737
51.536166307509156 5.58528
51.56108326624387 5.5289
51.58580965706056 5.521730000000001
51.61053862657523 5.52639
51.635270176746864 5.4771
51.66019755512065 5.48185
51.68493429268881 5.45752
51.70967361681515 5.493609999999999
51.73441552946465 5.4614199999999995
51.759353359237934 5.46785
51.7841004750961 5.44436
51.80885018539685 5.46819
51.833602492111254 5.43088
51.8585508051424 5.41277
51.883308330926425 5.41766
51.90806845906181 5.39201
51.932831191525715 5.37355
51.95779001977161 5.36284
51.98255798721516 5.36876
52.00732856494335 5.38164
52.03229530577543 5.33229
52.057071130455945 5.3156
52.081849571391054 5.28444
52.106630630568695 5.2997
52.13160794279417 5.28589
52.15639426492067 5.29054
52.18118321127822 5.27388
52.205974783860896 5.2316400000000005
52.23096269971011 5.25104
52.255759551287994 5.200880000000001
52.280559035098186 5.23001
52.30536115314103 5.2335
52.33035970494467 5.2609900000000005
52.35516711807904 5.20852
52.37997717147198 5.1973
52.40478986713005 5.158519999999999
52.42979908731974 5.1791599999999995
52.454617094216 5.14792
52.47943774942214 5.14494
52.50426105495102 5.16361
52.529280976059844 5.1367
52.554109609024096 5.1119699999999995
52.57894089837482 5.12544
52.60377484613117 5.10086
52.62880550079408 5.1126
52.65364479223379 5.10313
52.67848674816189 5.04751
52.70352547971946 5.04384
52.72837279155837 5.042330000000001
52.753222773982785 5.0199300000000004
52.778075429022984 5.01262
52.80312495150885 5.02116
52.827982978797436 5.01616
52.85284368481815 4.97078
52.87770707160767 4.95331
52.90276741793998 4.9977800000000006
52.92763619336701 4.9714599999999995
52.952507655698504 4.961119999999999
52.977381806977576 4.95101
53.00245301017842 4.9658
53.02733256653592 4.915080000000001
53.052214817996074 4.9182
53.077099766608484 4.92379
53.102181859804446 4.89191
53.127072229988265 4.89536
53.15196530349892 4.84478
53.17686108239249 4.8472800000000005
53.20195409881522 4.8622
53.22685531582556 4.8782
53.25175924441303 4.83854
53.27666588664027 4.83336
53.30176985962693 4.82102
53.3266819565689 4.818890000000001
53.35159677336455 4.78115
53.376514312083096 4.821940000000001
53.40162927507703 4.7922199999999995
53.42655228516116 4.81199
53.45147802340193 4.740419999999999
53.47660125628886 4.783869999999999
53.50153247842639 4.727869999999999
53.52646643496923 4.731330000000001
53.55140312799818 4.71077
53.576537409691696 4.72114
53.60147960336152 4.70866
53.626424539786164 4.71736
53.65137222105307 4.684019999999999
53.67651758529126 4.66864
53.70147078399681 4.63128
53.72642673383343 4.63145
53.75138543689533 4.6639
53.776541917524526 4.6152
53.801506154876755 4.5973
53.826473151763246 4.59436
53.851442910284916 4.60318
53.87661054126026 4.59384
53.9015858509782 4.53987
53.92656392866066 4.55478
53.95154477641532 4.56844
53.976723591801296 4.54871
54.00171000771266 4.52746
54.02669920004598 4.50818
54.051691170915745 4.50708
54.076881204886796 4.498480000000001
54.101878760928514 4.500769999999999
54.12687910187696 4.44171
54.152077577768296 4.45372
54.1770835166946 4.45103
54.20209224691339 4.45173
54.22710377055121 4.42446
54.25231352511594 4.38858
54.27733066384342 4.35216
54.30235060239643 4.36453
54.32737334290836 4.39927
54.35259441062629 4.3327
54.377622783395324 4.3304599999999995
54.40265396455061 4.35588
54.42768795623251 4.35525
54.45292037169559 4.30737
54.477960012857906 4.2401599999999995
54.50300247099511 4.26472
54.52804774825457 4.27212
54.55329154616743 4.24405
54.57834249018678 4.2287300000000005
54.6033962597977 4.2216
54.6284528571545 4.21286
54.653708072335164 4.15378
54.67877035378786 4.11449
54.70383546947698 4.11719
54.72890342156389 4.13324
54.7541700889442 4.0909
54.77924374251975 4.10374
54.8043202390049 4.09393
54.82959552413022 4.06976
54.8546777351945 4.02993
54.87976279569621 4.0476
54.90485070780914 4.0788199999999994
54.930137506558005 3.9869800000000004
54.95523115074295 3.96121
54.98032765308844 3.9531300000000003
55.005427015775496 3.96444
55.03072536339621 3.95117
55.05583047570572 3.9133400000000003
55.080938454927676 3.9160199999999996
55.10604930325027 3.9032199999999997
55.131359235107396 3.89929
55.15647585066083 3.8588400000000003
55.181595341907496 3.82533
55.20671771104285 3.82268
55.232039262617704 3.7678199999999995
55.25716741665048 3.8104199999999997
55.28229845518636 3.75715
55.30743238042802 3.7785
55.33276558731939 3.76151
55.357905315183636 3.72135
55.383047936390035 3.72756
55.40819345314859 3.6882
55.433538351073295 3.62181
55.458689688238415 3.62709
55.483843927614096 3.60311
55.509197623043605 3.6206199999999997
55.53435769621134 3.5905199999999997
55.55952067826466 3.5926199999999997
55.5846865714265 3.59533
55.61005202069737 3.5540300000000005
55.63522376553902 3.5592900000000003
55.66039842818645 3.5477800000000004
55.68557601087004 3.5638699999999996
55.7109532500271 3.49684
55.73613670233794 3.51664
