TT I
1.2716486653135266 7.4790399999999995
1.2939594142134223 6.7959
1.3162702121660406 6.60686
1.3385810600174564 7.3731100000000005
1.3608919586137629 6.914110000000001
1.383202908801069 6.48839
1.405513911425503 6.36391
1.4278249673332093 6.51309
1.4501343378461518 6.49454
1.4724455028545926 5.773280000000001
1.4947567236847858 5.888999999999999
1.517068001182951 6.03702
1.5393793361953272 5.7382
1.5616907295681737 5.5475699999999994
1.5840021821477681 5.44993
1.60631369478041 5.24021
1.6286252683124185 5.80775
1.6509369035901333 5.13499
1.6732468618895553 5.01504
1.695558623192809 4.56484
1.7178704487808514 5.02231
1.7401823395001077 5.01898
1.7625012545597203 4.57659
1.7848028405262486 4.9364
1.8071218901122095 4.950080000000001
1.8294236121921872 4.90078
1.8517427996910911 4.74812
1.8740620574440425 4.635280000000001
1.8963639900671978 4.51141
1.9186833908139995 5.02845
1.9409854680117449 4.9423699999999995
1.9633050151394713 4.59485
1.9856246367570705 4.23546
2.0079269371922672 4.5963199999999995
2.03024671027244 4.641780000000001
2.0525491637446027 4.2378800000000005
2.074869091674931 4.59722
2.097171701569106 4.29444
2.1194917877373847 4.8459
2.141811954326636 5.2320199999999994
2.164114805233074 4.79474
2.186435135143035 6.19758
2.208738150935709 16.1865
2.231058647554722 36.9127
2.2533792288321184 27.7304
2.275682498336085 11.9554
2.298003251406138 5.7916
2.3203066942619714 5.099419999999999
2.3426276225136022 5.68895
2.3649486396617507 5.6536599999999995
2.387252348930071 5.69369
2.4095735463442893 6.11254
2.4318774374315884 5.871230000000001
2.4541988185014043 5.90246
2.476502894794693 6.93335
2.498824462909887 7.0564800000000005
2.521146125856138 6.19145
2.5434504863470337 7.127839999999999
2.5657723414244717 7.987089999999999
2.588076895590662 7.79915
2.610398946189713 7.81837
2.6327210958598384 7.43698
2.6550259469304716 7.57495
2.6773482972090137 8.67615
2.6996533504259 8.150089999999999
2.7219759047039602 7.70286
2.744298562293959 7.4436800000000005
2.7666039251246595 7.6832899999999995
2.7889267918020164 8.16981
2.8112323652516555 8.52292
2.833555444408179 8.28823
2.8558786311183852 7.96177
2.8781845268938557 8.73391
2.9005079311721484 9.0165
2.9228140460410397 8.95992
2.9451376712799635 9.7172
2.967444008632326 9.40765
2.9897678582247247 9.7372
3.0120918213106695 10.6316
3.0343984987899373 11.0024
3.0567226913198637 10.9632
3.079029599759726 11.4189
3.101354025127254 12.1357
3.123678568232338 12.4956
3.145985829517914 12.5636
3.16831061055229 13.7021
3.1906181112775593 14.5032
3.212943133635653 15.5641
3.2352682779763207 15.4753
3.2575761442691227 15.2687
3.2799015350264273 15.755999999999998
3.302209649240067 16.3164
3.3245352898092655 16.8682
3.3468436553365257 17.5922
3.369169549113219 17.7854
3.3914955708171384 18.1086
3.413804319727358 18.5954
3.4361305997334863 19.0237
3.4584396084414553 19.7832
3.4807661501462652 20.5519
3.503092824025881 21.0494
3.5254022288463154 21.1553
3.5477291695206588 21.9796
3.5700388426251948 22.9075
3.5923660534916446 24.6371
3.6146934007816114 43.7693
3.637003482731501 111.152
3.6593311053109985 127.56700000000001
3.681641464033634 69.8738
3.7039693653009733 33.4731
3.726297407241705 27.2925
3.7486081875460804 26.2306
3.7709365132734978 26.8497
3.793247578841633 27.1773
3.8155761917550093 27.0352
3.8378875459837216 27.3978
3.8602164494827234 27.8415
3.882545499606844 28.5532
3.9048572932539183 28.8864
3.9271866390645718 29.1755
3.9494987298666713 29.9544
3.971828374764527 30.2524
3.9941581705403255 31.2161
4.016470713506008 31.5018
4.038800813471445 32.2431
4.061113662089144 32.8515
4.0834440696459176 33.7497
4.105774632334751 34.7024
4.128087945865126 35.4117
4.150418821249301 36.083
4.172732448931298 37.3635
4.195063640413578 39.5361
4.2173775856475215 44.0363
4.239709096631102 83.7307
4.262040768704612 304.3
4.284355196706267 422.25199999999995
4.306687193387355 269.397
4.329001947444346 96.6191
4.35133427213731 50.9064
4.373666762177566 45.7471
4.395982011761091 44.9168
4.418314834921175 46.0898
4.44063041906622 56.0493
4.4629635787515625 71.2446
4.4852969080429785 71.4047
4.5076130004776225 57.038000000000004
4.529946671403969 51.0107
4.552263106909177 50.09
4.574597122877047 51.486999999999995
4.596931312711224 52.7364
4.619248269273446 53.7469
4.6415828092605835 54.8253
4.663900117405352 55.178999999999995
4.686235010953232 56.8599
4.708552674085913 57.9263
4.730887924602802 59.6484
4.753223354952695 60.7307
4.775541557023902 62.0939
4.797877349456786 63.1804
4.820195915032126 65.3438
4.842532072957498 66.9617
4.864868414979744 69.0322
4.88718753227192 70.7995
4.909524244902505 72.9608
4.931843734218147 74.9103
4.954180820867835 77.3561
4.976518095879839 80.5018
4.998838149695359 82.5411
5.021175803844231 86.2951
5.043496238205739 89.6492
5.065834274903528 93.564
5.088172504230693 98.1944
5.1104935158799565 104.21700000000001
5.132832132875765 130.52700000000002
5.155153533596801 184.74599999999998
5.1774925416746225 219.718
5.199814334878411 332.371
5.2221537374521505 920.3539999999999
5.244493338631803 2606.44
5.266815727034316 7158.9
5.289155727832427 12608.7
5.311478517248165 9247.67
5.333818921080011 3184.67
5.356159527788849 638.055
5.3784829252032536 197.329
5.400823940070432 147.56
5.423147747031976 130.289
5.445489173474152 119.97200000000001
5.467830807066149 113.62100000000001
5.490155234831516 109.28
5.512497285125229 105.699
5.534822130975162 104.08200000000001
5.557164601388673 101.912
5.579489868738879 99.6752
5.601832762690846 99.1253
5.6241758697774475 97.89200000000001
5.646501775867269 96.6967
5.668845311622074 94.9093
5.691171647754637 93.3313
5.713515615597765 92.4754
5.735859800852677 91.7895
5.758186788542988 91.0906
5.780531411018185 91.2348
5.802858837297399 90.5457
5.825203900414495 90.742
5.8475491852224 90.9228
5.869877275883075 91.4882
5.892223006467101 92.1007
5.914551544266608 93.0963
5.936897724049891 95.5774
5.959244129804903 100.094
5.981573344815301 114.729
6.0039202049061 191.38400000000001
6.026249875609095 410.366
6.04859719346037 907.393
6.070927323278297 2013.5
6.093275102315365 4292.74
6.115623113320588 5267.1
6.137953938319995 3526.07
6.160302415650845 1105.61
6.182633708324452 257.33
6.2049826554078376 118.88600000000001
6.227331838745022 94.5274
6.249663839443684 86.8429
6.27201349767565 84.2064
6.294345974611799 92.5928
6.316696111167083 110.245
6.339046488263839 103.79899999999999
6.361379686074702 83.854
6.383730546639482 73.072
6.406064229255215 69.0469
6.428415576718203 68.7134
6.450749747566656 67.8831
6.47310158535871 66.5111
6.495453669698332 66.0348
6.517788579421056 65.3393
6.540141159237969 64.0496
6.562476565766648 63.7112
6.5848296444934045 63.4042
6.607182974060425 63.1635
6.6295191323281015 63.5051
6.651872965955752 68.2
6.6742096296068985 102.41
6.6965639707294615 166.34799999999998
6.71891856698715 168.99599999999998
6.741255995248479 109.11399999999999
6.763611104154477 72.2083
6.785949046381137 61.585
6.808304671371482 59.2457
6.8306605557940046 58.916000000000004
6.852999275508618 57.9942
6.875355681171544 57.3909
6.897694923437771 57.3052
6.92005185377892 56.9629
6.9423916220322655 56.9092
6.964749080490181 56.2941
6.987106804399774 56.3294
7.009447368180821 56.4796
7.031805625367033 55.9113
7.054146723727803 56.0638
7.076505517631004 55.8893
7.098864581288365 55.7726
7.121206488070854 55.6009
7.143566093607822 55.4565
7.165908543567245 55.98
7.188268694426048 56.053000000000004
7.2106291193438095 56.2415
7.232972390625943 58.56399999999999
7.255333366030969 73.8163
7.277677189091925 147.36
7.300038718428332 217.25400000000002
7.322400526130865 180.727
7.344745183422596 103.38
7.367107550224791 65.2247
7.389452767901992 57.4872
7.411815697249891 56.4651
7.434161478756298 55.3194
7.456524974096713 55.1826
7.478888753837185 54.5709
7.501235387657368 55.1765
7.523599738562711 54.8016
7.545946944825532 55.245
7.568311870344528 55.881
7.5906770845765665 56.2711
7.613025156078678 57.8594
7.635390950099687 59.8467
7.657739602662809 58.4427
7.680105979923558 56.5932
7.702472650212829 56.5336
7.724822180948224 56.4036
7.747189439655568 56.4905
7.769539560075357 56.023999999999994
7.791907410653562 57.0418
7.81425812420825 56.9584
7.836626570110925 57.3514
7.858995315087906 57.8074
7.881346924933401 57.7264
7.903716270417482 58.3903
7.926068482028405 58.8001
7.948438431475253 59.4961
7.9708086843180235 59.9648
7.993161805171116 60.3699
8.015532667162402 60.6819
8.037886398416653 61.9693
8.060257873014221 62.3501
8.082629655331942 62.953
8.104984308787587 64.3394
8.127356708900503 68.3423
8.149711981398308 75.5464
8.172085002766314 78.7685
8.194458336181368 74.1042
8.216814543847752 70.281
8.23918850371002 69.8012
8.26154533906492 70.5591
8.283919928836452 71.7096
8.306277395339652 72.8054
8.328652618483376 74.2825
8.351028159736202 76.0633
8.373386579575245 78.3173
8.395762759396959 80.4246
8.418121819038275 85.178
8.440498640894003 101.706
8.462875785192262 120.0
8.485235811156207 127.67200000000001
8.507613602688501 157.33100000000002
8.529974277114228 234.865
8.552352719347912 363.101
8.574731488360351 605.432
8.59709314210385 1097.5
8.619472567021075 1777.73
8.64183487789147 2182.78
8.664214962183097 1914.35
8.686577933647762 1020.52
8.708958680784317 404.57199999999995
8.731339760774953 176.178
8.753703729764451 114.29299999999999
8.77608547780821 100.133
8.798450116065078 96.0627
8.820832535634787 92.5834
8.843215292401656 91.1496
8.865580941199045 89.6227
8.887964374703538 88.6603
8.910330701447199 90.5036
8.932714815164482 94.2863
8.955099270424924 93.3003
8.977466620733543 89.1709
8.999851761421976 85.8865
9.022219798361645 83.9468
9.04460562795561 83.7812
9.066991803441677 83.0758
9.089360876979615 82.8008
9.111747746589993 82.7951
9.13411751544971 81.8382
9.156505082664324 81.5164
9.178875550323522 81.935
9.20126381862328 82.8016
9.223652438908596 83.1226
9.246023961427412 83.0107
9.26841328802173 82.1448
9.290785518039224 82.0685
9.313175554425882 82.1436
9.335565947154315 82.3116
9.357939245086508 82.5437
9.380330352834827 82.956
9.40270436697103 83.2782
9.425096193225055 82.8051
9.447488380180165 83.7914
9.469863475295412 83.8083
9.492256385987508 84.5406
9.514632206018318 85.1309
9.537025843935714 85.3365
9.559402392368193 86.22200000000001
9.581796761000229 87.1569
9.604191496441521 88.2501
9.626569144158516 92.3923
9.648964615551032 98.6333
9.671343000390081 100.865
9.693739211225699 97.86200000000001
9.716135793237463 94.3716
9.738515290448102 93.8293
9.760912617143402 93.8659
9.783292860202891 94.6591
9.805690935076182 95.9982
9.828089385495742 96.5277
9.850470754023561 99.5193
9.872869957865444 108.87100000000001
9.89525208097539 128.969
9.917652041736662 145.041
9.940052382417589 142.457
9.962435644102392 140.614
9.984836746950979 167.74099999999999
10.007220771957746 227.071
10.029622640473708 323.558
10.052007432299963 488.991
10.074410069984072 755.072
10.096813093716005 1177.52
10.119199042482517 1681.17
10.141602840636468 1915.97
10.163989564971628 1637.47
10.186394141051062 980.279
10.208799107559706 443.658
10.231187001965623 205.43599999999998
10.253592751657669 130.957
10.275981430388155 115.351
10.298387966769793 115.743
10.320794897965431 119.37100000000001
10.343184759907361 118.079
10.36559248305461 111.161
10.387983138083852 105.427
10.410391656691655 106.31
10.432800574501677 115.02
10.455192425893369 130.658
10.47760214443012 153.898
10.499994797678786 193.732
10.522405320453982 265.987
10.54479877906917 376.845
10.567210109595656 497.11800000000005
10.5896218454736 574.799
10.612016518879773 518.41
10.634429067781074 363.275
10.656824555333241 211.604
10.679237920773568 131.963
10.701651695961992 98.61200000000001
10.724048411481384 90.01100000000001
10.746463008485165 86.7862
10.768860546937125 84.9811
10.791275969274796 83.2632
10.81369180576079 82.3981
10.836090585366925 81.4021
10.858507252467449 80.14399999999999
10.88090686379991 79.0829
10.903324365036394 78.6239
10.925724811614439 79.0332
10.948143150509463 80.8308
10.970561909719066 80.1819
10.992963615930844 77.6303
11.015383218085756 75.3448
11.037785768347074 73.64699999999999
11.06020621697282 73.2135
11.082627090322113 72.5308
11.105030913430326 72.02600000000001
11.12745263854165 73.01100000000001
11.149857314510728 77.7761
11.172279894912576 86.3073
11.194702904450653 87.8347
11.217108866490921 82.2792
11.239532736615194 76.5403
11.26193956033512 73.7943
11.284364294577085 71.7157
11.306789462371718 69.1803
11.329197585398376 67.6013
11.351623622610898 67.2681
11.37403261614354 66.6508
11.396459526308487 66.2339
11.418869393879497 65.9542
11.441297180532617 65.52199999999999
11.463725406927658 64.9858
11.486136592353875 65.1053
11.508565700543707 65.8389
11.530977768845315 68.5619
11.553407762368774 70.1499
11.575838200059769 69.1716
11.598251599479612 66.2012
11.620682927815501 64.4387
11.64309721895548 63.9208
11.665529441478206 63.5089
11.687962112597958 63.3707
11.710377748130886 63.3169
11.732811318753434 63.2574
11.755227854859067 63.2895
11.777662328529495 63.0533
11.800079768750786 62.7767
11.822515149015453 62.4287
11.844950984084935 62.8204
11.867369787303163 62.5272
11.889806534289491 62.6925
11.912226250487029 63.0398
11.934663912939751 62.9389
11.9571020346363 63.0838
11.979523127133968 63.0273
12.001962169624331 63.4039
12.024384183972964 64.0184
12.046824150809913 66.9983
12.069264581333726 71.6862
12.091687985297767 77.8846
12.11412934550045 86.3752
12.136553680195208 99.5008
12.158995973632788 119.959
12.181438735204349 145.987
12.20386447284199 176.36
12.226308172985636 203.618
12.24873485024193 202.71900000000002
12.271179492516982 173.178
12.293607112949127 138.375
12.316052700916226 103.70700000000001
12.338498763250042 82.8222
12.360927805303868 72.6973
12.383374818673879 67.594
12.405804812803074 64.8291
12.428252780773262 64.6447
12.45070122756722 64.6811
12.473132656675375 64.5013
12.49558206341869 64.497
12.518014453510101 64.7935
12.540464823770117 64.7697
12.562915677315177 64.9577
12.58534951575545 65.7921
12.607801338171472 68.3666
12.630236146511358 75.3398
12.652688941369085 82.0838
12.675124723177234 82.6569
12.697578494048786 77.4799
12.720032754458185 71.2879
12.742470003354093 68.7285
12.764925245138771 68.1686
12.787363476431278 68.1959
12.809819703166806 68.6321
12.83227642391173 69.2592
12.854716135692716 69.5693
12.877173846755147 70.7972
12.899614549869717 70.7503
12.9220732548287 71.6404
12.94453245827299 72.1429
12.966974655289818 73.1988
12.989434858002571 73.9029
13.011878055298721 74.7221
13.034339260862497 75.5036
13.056800969391883 76.6118
13.079245674017244 78.4754
13.101708390774869 80.2188
13.12415410463411 86.2398
13.146617833206086 97.6296
13.169064559883248 109.23
13.191529303857127 123.12299999999999
13.213994557076367 143.80700000000002
13.236442809902437 176.64700000000002
13.258909083908291 225.93200000000002
13.28135835851934 287.532
13.30382565690295 357.272
13.326293469022952 418.655
13.348744283242008 432.228
13.371213125129904 376.227
13.39366497011003 279.66200000000003
13.416134845360597 185.493
13.438605238843131 128.889
13.46105863690397 106.555
13.483530069144786 104.189
13.505984506951902 108.90299999999999
13.528456981549432 117.56
13.550929978879088 131.03
13.573385983253365 153.537
13.595860028340867 188.23
13.618317081455832 236.986
13.64079217790333 288.223
13.663250283359057 340.06699999999995
13.685726434770173 375.028
13.708203115221277 346.718
13.730662806148091 278.506
13.75314054697177 195.35
13.775601299246777 135.841
13.798080104050406 100.551
13.820559442405358 86.3288
13.843021793671388 82.3249
13.865502201420897 80.4402
13.887965623051947 79.9758
13.910447103807167 78.6026
13.932929122629764 77.226
13.955394156785959 76.7241
13.977877254034569 75.8324
14.000343367582113 74.9419
14.022827546871707 74.4644
14.045294743423524 73.736
14.06778000837062 73.0737
14.090265817715476 72.8123
14.112734645763819 72.6975
14.13522154619454 72.8071
14.157691466286913 72.9793
14.180179461423874 72.5903
14.202668005486178 71.7104
14.22513957064374 70.9299
14.247629214846473 70.4385
14.270101881097517 70.2534
14.29259262906496 70.7226
14.315083930490205 71.8767
14.337558255389705 72.411
14.360050666019726 71.9988
14.382526101071944 70.6654
14.405019624534942 69.7321
14.427513705993134 69.0617
14.449990813291825 68.96600000000001
14.47248601302899 68.6754
14.49496423954951 68.8096
14.517460561197822 68.7115
14.539939910570322 68.5909
14.562437357763558 69.0459
14.58493536931253 70.5181
14.607416409993311 71.9722
14.62991555254159 72.8215
14.652397725157423 72.3464
14.674898002342799 71.4313
14.697398848433282 70.4922
14.719882725991326 70.9651
14.74238471217934 71.4591
14.764869730765593 74.2636
14.787372860692983 77.6505
14.809876564079925 81.8852
14.83236330125751 87.1003
14.854868153850365 94.8927
14.877356041159485 107.119
14.899862046604186 124.891
14.922351087688757 147.662
14.944858249632887 173.97400000000002
14.967365991421232 199.856
14.989856770231246 217.635
15.012365673994204 218.16099999999997
15.03485761569738 192.71400000000003
15.05736768508665 152.929
15.07987833888692 119.51899999999999
15.102372032001655 92.8825
15.124883856909658 78.119
15.14737872204565 72.7242
15.169891721717274 70.8563
15.192405310371893 70.6972
15.214901940621196 71.4349
15.237416709527137 71.8215
15.259914520936249 72.3718
15.282430473753607 71.2061
15.304947020131227 69.9077
15.327446610371178 68.7463
15.349964346154254 67.4503
15.372465126703139 67.0526
15.394984055556009 66.7591
15.417486030076159 66.3851
15.44000615566487 66.1586
15.462526881230803 66.1602
15.485030653812652 66.6756
15.507552581617434 66.7315
15.530057557334603 66.6645
15.55258069104857 66.5519
15.575104429329837 66.2516
15.597611216864632 65.9251
15.620136166564563 65.8356
15.6426441664095 66.5691
15.665170331202765 68.2754
15.687697105158826 71.2112
15.710206930593545 74.6568
15.732734925158933 78.0271
15.755245972089478 83.9622
15.77777519094324 92.7266
15.800287463046663 104.431
15.822817909869592 121.586
15.84534897229804 140.89
15.867863089299354 163.358
15.890395385222186 183.058
15.912910736597423 193.299
15.935444269699861 184.805
15.957978423016485 162.243
15.980495633101265 130.308
16.003031029129367 102.02600000000001
16.02554948280019 79.7684
16.048086125229432 69.5149
16.070623392487107 66.8687
16.09314371869582 65.7941
16.11568223789321 64.9156
16.13820381691126 63.5231
16.160743591742527 62.1617
16.183283996022084 61.1026
16.205807461423195 59.952
16.228349126881973 59.3962
16.25087385432698 59.3156
16.27341678466365 58.5767
16.29594277784926 58.6718
16.31848697676433 59.2606
16.341031811604868 59.9051
16.36355971058487 60.3857
16.3861058195587 59.9792
16.40863499352978 58.6637
16.431182380342005 57.3722
16.453730407713202 56.7601
16.476261501364792 56.1741
16.498810812136167 55.8672
16.52134319004079 55.8498
16.54389378792203 55.6988
16.566445031001553 55.4438
16.588979342490088 55.4175
16.61153187824822 55.3045
16.634067483263312 55.25
16.656621315414416 55.0375
16.679175797408888 54.6339
16.701713349928728 55.0635
16.72426913389191 55.0823
16.74680798922351 55.1347
16.76936507887444 55.1917
16.791905240734874 55.2633
16.814463639794468 55.035
16.837022695210294 55.1208
16.859564824093756 55.6657
16.882125194503903 56.5241
16.904668639217885 57.4836
16.927230328348003 57.806000000000004
16.949792678493612 57.7336
16.972338104193863 56.8824
16.994901778652235 55.9407
17.017448529496576 55.7422
17.040013531998152 55.8772
17.06257920018044 56.1606
17.0851279459922 57.043
17.107694947817667 57.8008
17.130245028099072 58.6669
17.15281336730298 60.1066
17.17536478578733 61.5341
17.19793446610687 63.5356
17.220504818648422 66.2993
17.243058251703697 69.28699999999999
17.265629950971032 73.3201
17.288184731571736 78.1397
17.310757781306908 82.4361
17.33333150794385 84.0623
17.355888317140174 83.7399
17.37846339986244 78.7979
17.401021565958885 72.52600000000001
17.42359800851343 67.0789
17.44617513265564 62.691
17.468735341390783 60.5102
17.491261035594565 59.2523
17.51396340099364 59.1566
17.536490463869136 59.2661
17.559018209820174 59.2473
17.58154663977963 59.3234
17.604251766089718 59.4924
17.626781572227713 59.5785
17.64931206518155 59.8295
17.671843245885103 60.7283
17.69455114821572 60.9291
17.717083712612634 61.1686
17.739616967569667 61.1745
17.762150914021706 61.4133
17.78486160749854 61.2346
17.807396945166804 61.7029
17.829932977143503 62.3762
17.85246970436452 63.6404
17.875183204129467 65.7246
17.897721330097664 67.7266
17.920260154126645 69.9265
17.942799677153296 72.7304
17.9655159983646 76.3672
17.988056927677544 81.0086
18.010598558807683 87.8122
18.033140892692916 96.9642
18.05586005052525 106.958
18.07840379824407 118.821
18.10094825154059 129.889
18.12366954819864 139.059
18.146215420998306 141.21200000000002
18.16876200220057 133.394
18.191309292745153 120.551
18.214033452627167 106.227
18.236582170236648 93.8281
18.259131600016456 86.8753
18.281681742907335 85.6985
18.304408781233683 89.4707
18.32696035875955 93.9891
18.349512652227624 99.0858
18.372065662579683 103.758
18.394795594587553 106.039
18.41735004715306 103.62899999999999
18.43990521943684 98.6504
18.46246111238171 89.2464
18.485193953325208 79.2101
18.507751296070428 71.594
18.530309362314178 66.9687
18.552868153000343 64.1055
18.57560391815056 62.4538
18.59816416623245 61.8804
18.620725141597372 61.3251
18.643286845190268 61.0635
18.666025549835414 60.6563
18.688588718427933 60.0215
18.711152618092243 59.8377
18.73389353884365 59.6123
18.75645890921984 59.3452
18.77902501351406 58.953
18.801591852673102 58.7462
18.824335739722738 58.3566
18.846904057212626 58.2243
18.8694731124168 57.9814
18.89204290628315 57.916000000000004
18.914789774966803 57.7807
18.937361054791623 57.3544
18.959933076131318 57.1367
18.982505839934877 57.1722
19.00525570560582 57.3195
19.027829963004184 56.9977
19.05040496572238 57.0827
19.072980714710468 57.1315
19.095733592739563 57.0385
19.11831084296757 57.4483
19.140888842324735 57.9631
19.16346759176222 58.3326
19.18622349753803 58.6911
19.208803755869358 59.5576
19.231384767143577 60.5354
19.253966532312948 61.8268
19.276725481241822 63.7212
19.29930876296784 66.1207
19.3218928014549 69.2363
19.34465404436217 72.5166
19.36723960516257 75.4827
19.389825925592426 76.9387
19.412413006605938 76.4676
19.43517731967805 73.165
19.457765930683355 68.6771
19.48035530514408 64.1394
19.50294544401556 60.201
19.525712842708348 57.4779
19.54830451925909 55.6995
19.570896963095727 54.5061
19.593490175174704 54.1142
19.616260674962184 54.0203
19.638855432416964 53.6715
19.661450960992624 53.934
19.68404726164677 53.6406
19.706820878021247 53.6117
19.729418731756834 53.8436
19.752017360452857 53.4972
19.77461676506804 53.5217
19.797393513540218 53.7744
19.819994478951667 54.056999999999995
19.84259622316767 54.5644
19.8651987471481 54.7725
19.887978643247177 55.0498
19.91058273574792 55.2884
19.933187610901943 56.1688
19.955969879466828 57.1685
19.97857632894404 58.2917
20.00118356396599 59.7024
20.023791585494575 61.6974
20.046577028914875 64.2501
20.069186632506966 66.8208
20.091797025500632 68.7924
20.114408208858933 69.9719
20.137196842715273 69.9422
20.159809615886765 68.7551
20.18242318232135 65.9923
20.20503754298326 64.063
20.227829382875154 62.5227
20.250445341109344 62.0838
20.27306209647285 62.5074
20.29567964993108 63.6651
20.31847471147704 65.0223
20.34109387027612 66.1681
20.363713830075454 65.7553
20.386334591841646 64.8538
20.409132890679302 62.3541
20.431755265564437 58.9935
20.454378445325528 56.3073
20.477002430930366 54.1923
20.499803982716553 52.9337
20.522429589228004 51.9544
20.54505600449589 51.4909
20.567683229489194 51.4272
20.590488049900088 50.9939
20.61311690359731 50.6743
20.63574656993626 50.3135
20.658553853717297 49.8223
20.681185154618298 49.7908
20.703817271080066 49.7567
20.72645020407368 49.6337
20.749260783967177 49.3108
20.771895359337133 49.2019
20.794530754161617 49.1872
20.817166969412938 49.0275
20.83998086114876 48.7956
20.86261872660049 48.93600000000001
20.885257415405402 48.8458
20.90789692853701 48.7814
20.930714147864748 48.6587
20.953355319030678 48.8717
20.97599731745334 49.0142
20.99864014410749 48.7855
21.021460706796564 48.7874
21.044105199328826 48.8624
21.06675052302631 49.0967
21.089396678865015 49.299
21.112220600704806 49.4855
21.134868430275347 49.8619
21.15751709492456 50.1848
21.180166595629693 50.2673
21.202993892429635 50.6507
21.22564507473034 51.1559
21.24829709602816 51.4379
21.27112693608965 51.6306
21.293780644891275 51.4434
21.316435195634053 50.8685
21.339090589297417 50.3473
21.361923832041875 49.9175
21.384580921090404 49.2836
21.407238856007325 48.5708
21.429897637773326 48.5298
21.45273429906592 48.5646
21.475394784108598 48.5185
21.498056118951983 48.4415
21.520718304578022 48.6953
21.543558400304388 48.7991
21.566222297108816 48.7567
21.58888704765135 48.9452
21.61155265291521 49.3756
21.63439619898156 49.6636
21.657063523335786 49.9731
21.67973170537063 50.2987
21.7024007460706 50.8289
21.72524775840385 51.33
21.747918526116475 52.3974
21.770590155457388 53.4414
21.79326264741238 55.1633
21.816113141960237 56.5803
21.838787368860547 58.3115
21.861462461341976 60.2055
21.884315579735777 62.4363
21.90699241312273 63.6282
21.92967011506078 64.6161
21.95234868653799 64.7849
21.9752053151131 63.8156
21.997885635446785 62.0636
22.020566828293532 60.0995
22.04324889464272 58.0569
22.066109049404666 56.7431
22.088792872571794 56.1204
22.111477572219204 56.1851
22.1341631493376 56.4007
22.157026846313123 56.3073
22.179714188221507 55.6247
22.202402410582668 54.7321
22.22509151438863 53.0889
22.24795876962584 51.9127
22.270649646204486 50.7446
22.293341407213727 50.1087
22.316034053646906 49.7609
22.338904883215342 49.2952
22.36159931041458 49.2787
22.38429462602756 49.3336
22.40699083104897 49.2072
22.429865251039757 49.263000000000005
22.452563244831367 49.3182
22.47526213102522 49.1905
22.49813925616515 48.8696
22.520839937143307 48.757
22.543541513520587 48.8086
22.56624398629403 48.7135
22.589124730075895 48.464
22.611829005656723 48.5761
22.63453418063466 48.5487
22.657240256008077 48.8135
22.680124634582935 49.0977
22.70283252079775 49.3234
22.725541310413075 49.516999999999996
22.74825100442868 49.6862
22.771139033969575 50.2356
22.79385054687155 50.3709
22.81656296718292 51.0274
22.83927629590484 51.7123
22.862167992606945 52.6227
22.88488314827121 53.8025
22.907599215359284 54.5923
22.93031619487366 55.8215
22.953211574954405 56.7428
22.975930389478226 57.763000000000005
22.998650119445763 58.2845
23.02137076586092 57.7687
23.044269845560063 56.6265
23.06699233506288 55.1596
23.089715744034912 53.468
23.112617610931565 51.7838
23.135342869061212 50.3401
23.158069049684816 49.4888
23.1807961538087 49.1213
23.20370174880544 49.1062
23.226430710184808 48.924
23.249160598093425 48.9909
23.271891413539002 48.9052
23.294800752937697 48.8502
23.31753343374794 49.1879
23.340267045128353 49.2009
23.36300158808808 49.5508
23.38591468821339 49.673
23.408651104658304 50.0946
23.431388455719986 50.6227
23.454126742409 51.3189
23.4770436196085 52.3172
23.499783787914662 53.5135
23.522524894889884 54.6112
23.54526694154616 55.7623
23.56818761219047 56.8132
23.59093154860734 57.6839
23.613676427751283 58.122
23.636422250635754 57.691
23.659346731118656 56.3191
23.68209445191868 54.3075
23.704843119509587 52.1948
23.72759273490623 50.1137
23.750521041644767 48.7566
23.77327256312355 47.6732
23.796025035462787 46.9212
23.818956224555475 46.4313
23.841710609113413 46.2165
23.86446594758979 45.9472
23.887222241002014 45.711999999999996
23.910157285144578 45.4334
23.932915498962537 45.3066
23.955674670778713 45.2587
23.978434801611975 45.0451
24.001373717286125 44.8482
24.024135776723917 44.8282
24.046898798245582 44.5566
24.06966278287146 44.5138
24.092605586582614 44.5013
24.115371508023642 44.3124
24.1381383956401 44.1267
24.16090625045381 44.1974
24.183852958731244 44.028999999999996
24.206622758582608 44.0781
24.229393528706886 43.8152
24.252165270127392 43.7618
24.27511589952438 43.7292
24.297889594216997 43.6092
24.32066426328598 43.3485
24.34343990775613 43.4813
24.36639447485003 43.4393
24.38917208083877 43.2024
24.41195066531332 43.3249
24.43490819850244 43.2871
24.457688750692377 43.0603
24.48047028445616 43.0878
24.503252800821233 43.2035
24.526214300784112 43.1954
24.548998793132213 43.213
24.57178427117417 42.9003
24.59457073593893 43.0528
24.617536219319863 42.9808
24.64032466834748 43.2454
24.663114107195035 43.053999999999995
24.685904536893013 42.6876
24.708874020360852 42.7357
24.731666442613744 42.5977
24.754459858818787 42.4064
24.777254270007962 42.4683
24.80022777025625 42.3629
24.82302418230472 42.2905
24.845821592443674 42.3617
24.86862000170663 42.3786
24.891597535453727 42.1181
24.914397953892728 42.2512
24.93719937456671 42.1834
24.96000179851076 42.4631
24.98298338249997 42.5023
25.00578782394922 42.8866
25.028593271784167 42.8873
25.05157790644186 43.1389
25.07438537804115 43.3021
25.097193859145293 43.4214
25.120003350792075 43.6979
25.142992065061257 44.1108
25.165803588823465 44.4149
25.18861612625217 44.7112
25.211429678386736 44.5934
25.234422489079968 44.7662
25.257238081693636 44.8705
25.280054692141732 45.09
25.3028723214652 44.879
25.325869245420463 45.0301
25.348688923599397 45.1683
25.371509623787006 45.0853
25.394331347025812 44.7785
25.41733240110666 44.4862
25.440156181590016 43.8759
25.46298098826268 43.3421
25.48580682216873 42.6575
25.50881202326435 42.1324
25.53163992281684 41.7106
25.55446885274561 41.4013
25.577298814096377 41.1877
25.600308179121807 40.8773
25.623140214533745 41.0194
25.64597328451537 40.8731
25.66898578564376 40.6179
25.691820936010206 40.6421
25.714657124097695 40.6791
25.737494350954734 40.7251
25.760511045684957 40.5329
25.783350361364224 40.7235
25.806190718969255 40.6055
25.82903211955018 40.774
25.852053024868923 40.8854
25.874896522722523 40.9035
25.897741066713106 40.6185
25.920586657892454 40.8122
25.943611790812668 40.9411
25.966459487728237 41.1093
25.989308234998564 41.0525
26.01215803367705 41.451
26.03518741123814 41.6216
26.05803932412957 41.5566
26.080892291600094 41.5878
26.10374631470478 41.7189
26.12677995397268 41.8092
26.14963609978026 41.7452
26.172493304397875 41.5325
26.19535156888223 41.3661
26.218389486949604 41.0936
26.241249882640123 40.7684
26.26411134137826 40.4838
26.28715248187403 40.5667
26.31001607820869 40.1923
26.3328807407756 40.1145
26.35574647063438 40.3495
26.37879191991473 40.2001
26.401659795896734 40.2105
26.424528742360263 40.3257
26.447398760366614 40.4247
26.470448535598294 40.6315
26.49332070826805 40.8315
26.516193955675355 41.0535
26.53906827888316 41.1867
26.562122397260108 41.4771
26.584998883685063 41.7311
26.607876449110325 41.9317
26.63075509460056 42.1326
26.65381357334404 42.3042
26.67669439061878 42.3261
26.699576291163382 42.3204
26.722459276044212 42.2201
26.745522132402975 41.9546
26.768407297649354 41.5806
26.791293550442003 41.2003
26.814180891848974 41.0298
26.837248143099337 40.6731
26.860137673466657 40.6297
26.88302829566349 40.353
26.90592001075963 40.1173
26.92899167420566 40.016999999999996
26.951885586870763 39.6474
26.974780595655517 39.4332
26.99785558178161 39.2731
27.020752794605112 39.2021
27.043651106772522 38.9868
27.06655051935668 38.8476
27.089629948036183 38.8085
27.112531573292053 38.7389
27.135434302194138 38.8584
27.158338135817015 38.689
27.181422024430987 38.77
27.204328079372566 38.7409
27.22723524226965 38.6115
27.250143514198573 38.6575
27.273231880156334 38.6486
27.296142382065014 38.5606
27.319053996245536 38.5425
27.341966723775965 38.4775
27.365059584515222 38.626999999999995
27.38797455070062 38.561
27.410890633481237 38.3619
27.433807833936918 38.4285
27.456905206923906 38.6603
27.47982465472398 38.5323
27.502745223449743 38.5479
27.525666914182825 38.704
27.548768816912457 38.7566
27.571692763693633 38.5577
27.59461783573812 38.5298
27.617723149491244 38.2511
27.640650484125285 38.3617
27.66357894728264 38.2212
27.686508540048052 38.1489
27.709618414237887 37.9186
27.732550278321757 37.8938
27.755483275279115 37.8634
27.778417406196485 37.9997
27.801531858397514 37.9826
27.824468269376716 37.8324
27.847405817586786 37.8886
27.870344504116094 38.0321
27.893463551932008 38.1141
27.916404527281053 38.3169
27.93934664422563 38.4905
27.962289903855886 38.4997
27.98541356491974 38.729
28.00835912214229 38.7237
28.03130582533231 38.9682
28.054253675581805 39.1431
28.077381967556104 39.1846
28.100332124185126 39.1382
28.123283431160893 38.9798
28.146235889577238 38.952
28.169368830154156 38.8283
28.192323603752033 38.6976
28.215279532083304 38.3336
28.238415973016764 38.0953
28.261374223145094 38.0038
28.284333631303806 37.8597
28.307294198589954 37.6837
28.330435319167677 37.3839
28.353398217078915 37.1765
28.376362277420153 36.9571
28.39932750129032 36.7509
28.422473319286713 36.6421
28.44544088262495 36.5746
28.468409612800283 36.4824
28.491379510913497 36.2748
28.51453004413313 36.0129
28.53750229057244 35.9601
28.56047570826344 36.0166
28.583450298308804 35.9755
28.606605564586562 35.7735
28.629582511831156 35.8817
28.65256063474956 35.6916
28.675539934446338 35.7681
28.698699951647605 35.7309
28.72168161743193 35.5143
28.74466446331978 35.508
28.767648490417624 35.549
28.790813276438353 35.4315
28.813799678527303 35.504
28.836787265157085 35.5072
28.859955641890075 35.6671
28.882945610203045 35.5945
28.905936766392035 35.3836
28.928929111566863 35.5178
28.952102288520145 35.5142
28.975097024308607 35.368
28.998092952423807 35.16
29.021090073977508 34.9231
29.04426806913204 34.9911
29.067267590245258 34.7155
29.090268308143695 34.7251
29.11327022394099 34.6626
29.13645305530891 34.5385
29.159457379627167 34.566
29.18246290519685 34.4382
29.20546963313352 34.4323
29.22865731875826 34.4814
29.25166646419296 34.484
29.27467681535305 34.2708
29.29768837335608 34.4566
29.320880931312562 34.4107
29.34389491580634 34.3261
29.366910110507334 34.2554
29.38992651653503 34.3553
29.41312396492981 34.4128
29.436142806456754 34.2376
29.45916286268059 34.1628
29.48236399319994 34.1818
29.50538649169417 34.0023
29.528410208259935 33.8629
29.55143514402014 33.5859
29.574641196749695 33.4715
29.597668583816574 33.4755
29.6206971934585 33.3163
29.64372702680042 33.3049
29.666938019934474 33.1838
29.689970313635285 33.1447
29.713003834422636 33.1332
29.73603858342347 33.0418
29.759254535188578 32.973
29.78229175361658 32.905
29.80533020365064 32.9856
29.82836988641968 32.9716
29.85159081507472 32.9449
29.874632976355343 32.8573
29.89767637376955 32.9053
29.920721008448314 32.766
29.9439469322847 32.6693
29.96699405457564 32.6683
29.9900424175358 32.6854
30.013092022298157 32.6548
30.03632295963995 32.5191
30.059375061131373 32.6348
30.08242840783577 32.6278
30.105483000888153 32.6119
30.128718970092244 32.4743
30.151776069006917 32.4839
30.17483441768648 32.6452
30.198074175317235 32.4543
30.221135036724256 32.4526
30.24419715131772 32.4357
30.267260520236203 32.3872
30.290505341942243 32.3952
30.313571232750228 32.4633
30.336638381310948 32.4474
30.35970678876503 32.3548
30.38295669299435 32.3307
30.40602763151657 32.2659
30.429099832366074 32.2554
30.452173296685572 32.2583
30.47542830191959 32.2435
30.498504306502497 32.2132
30.521581577995562 32.2528
30.544660117543582 32.3643
30.56792024229725 32.3326
30.59100133132069 32.2127
30.614083691845494 32.2358
30.637167325018545 32.2958
30.660432587840603 32.3841
30.683518779717886 32.2775
30.70660624769615 32.3158
30.729694992924372 32.306
30.75296541239743 32.2861
30.77605672557558 32.2234
30.799149319462742 32.2519
30.8224236211637 32.1286
30.845518789950724 32.0721
30.868615242910597 32.0009
30.891712981195973 31.9655
30.91499247215866 31.7566
30.938092794619365 31.6824
30.96119440587579 31.5819
30.984297307082752 31.5294
31.00758200598383 31.3993
31.030687500658694 31.3152
31.053794288760695 31.3088
31.076902371446767 31.1113
31.100192296997445 31.1839
31.12330298246119 31.19
31.14641496599209 31.1069
31.169528248749216 30.9896
31.19282341969534 30.9696
31.215939314557186 31.0543
31.239056512134788 31.0836
31.262175013589378 31.0662
31.28547544871168 30.9881
31.30859657161541 30.8826
31.331719001892175 30.9037
31.35484274070538 31.0851
31.378148458819545 30.9504
31.401274828443725 30.9016
31.424402510106933 31.0329
31.447712205419993 31.0585
31.470842524931633 30.9355
31.493974159989783 30.9426
31.51710711176168 30.7992
31.54042212308802 30.8162
31.563557722100917 30.9348
31.586694641341655 30.7254
31.609832881979628 30.5775
31.63315322823208 30.5436
31.656294125521327 30.4027
31.679436347728515 30.4166
31.70257989602529 30.3315
31.725905596152327 30.245
31.74905181052835 30.1832
31.772199354521323 30.3087
31.79534822930507 30.3144
31.818679302290967 30.2409
31.84183085259981 30.3146
31.864983737233473 30.2461
31.88813795736804 30.2011
31.911474422233013 30.1881
31.934631327356435 30.1214
31.9577895715215 30.0959
31.980949155906522 30.0987
32.004291031706956 30.1624
32.027453310562606 30.0459
32.05061693318573 29.8608
32.07396288236386 29.8976
32.09712920658542 29.8534
32.12029687812702 29.7778
32.14346589817093 29.7243
32.166817291729984 29.6599
32.18998902288583 29.5599
32.21316210610336 29.4937
32.23633654256711 29.4037
32.259693399663725 29.3658
32.282870556771144 29.2784
32.30604907069099 29.2489
32.329228942610065 29.1849
32.35259128243769 29.0466
32.375773884550505 29.0693
32.398957848235646 29.0842
32.422143174682176 28.9605
32.445511016471215 28.879
32.468699082679954 28.8405
32.49188851523011 28.7755
32.51507931531304 28.7185
32.538452678331 28.7408
32.56164622776311 28.6312
32.58484114831493 28.6467
32.60803744118015 28.6614
32.631416344731896 28.6292
32.654615396551876 28.5629
32.67781582427913 28.4956
32.701198898634416 28.4514
32.72440209253756 28.3612
32.747606665947124 28.3728
32.77081262006088 28.2262
32.79420126883317 28.2516
32.81740999876112 28.2021
32.840620112999424 28.1917
32.86383161274818 28.1598
32.88722585534586 28.1423
32.91044014056596 28.1748
32.933655814909734 28.0807
32.95687287957963 28.0864
32.98027273544904 27.9449
33.00349259526636 27.9929
33.026713849030116 28.021
33.04993649794511 27.919
33.073341986570746 27.8225
33.09656744032826 27.8363
33.11979429286444 27.8627
33.14302254538647 27.8889
33.166433686291185 27.9069
33.18966475336992 27.8465
33.212897224069096 27.6604
33.23613109959831 27.7076
33.259547912343415 27.7175
33.2827846121627 27.733
33.306022720453775 27.5669
33.32926223842861 27.4131
33.352684742614166 27.5281
33.37592709463173 27.4613
33.399170859982064 27.3711
33.422597648419426 27.3775
33.44584425514446 27.2397
33.46909227885668 27.2077
33.4923417207723 27.1362
33.51577423505344 27.1674
33.539026528130385 26.9616
33.56228024307245 26.9442
33.585535381098246 26.8498
33.60897364093058 26.8717
33.63223163992385 26.8306
33.6554910656699 26.8619
33.678751919389796 26.7699
33.702195944520106 26.6591
33.72545966903325 26.7085
33.74872482519663 26.5715
33.771991414233746 26.6981
33.79544122444841 26.5159
33.81871069412428 26.4678
33.84198160035767 26.4977
33.86525394437455 26.4782
33.88870955949969 26.3737
33.911984794020626 26.3459
33.93526147001624 26.3042
33.958539588715006 26.3414
33.98200102861669 26.1971
34.0052820477047 26.0734
34.02856451319451 26.1356
34.05203033759056 26.0947
34.07531571090147 26.0783
34.09860253431845 26.0489
34.121890809074316 25.9942
34.145362493118924 26.0424
34.16865368561615 25.9258
34.191946333164054 25.9961
34.21524043699793 25.831
34.23871800066799 25.8374
34.26201503218366 25.7009
34.28531352370466 25.6439
34.30861347646881 25.6601
34.33209693978188 25.6722
34.3553998301885 25.6439
34.378704185565205 25.4379
34.402010007152356 25.4936
34.42549939016683 25.4994
34.44880815937748 25.4263
34.472118398533134 25.3559
34.49543010887669 25.2943
34.51892543169198 25.2077
34.54224009966052 25.3178
34.56555624255917 25.2857
34.58887386163339 25.1333
34.61237514439016 25.1394
34.6356957311114 25.0183
34.65901779775809 24.9652
34.68252356662995 24.9905
34.705848608458616 24.9627
34.72917513396849 24.969
34.75250314440949 24.987
34.77601490857862 24.8297
34.799345904259795 24.7576
34.82267838863559 24.8229
34.846012362958525 24.774
34.869530142679984 24.7219
34.89286711232212 24.7581
34.91620557568269 24.6675
34.93954553401677 24.6265
34.9630693495876 24.6187
34.986412313340814 24.5715
35.00975677584668 24.5605
35.033102738362956 24.4765
35.05663261012228 24.4624
35.0799815881786 24.4606
35.10333207003229 24.371
35.12668405694369 24.4075
35.150220005273056 24.4183
35.17357501786656 24.3096
35.19693153931268 24.2752
35.220289570874385 24.2323
35.24383161619786 24.2146
35.267192683604904 24.2084
35.290555264930376 24.1601
35.314101899412165 24.1453
35.33746752422433 24.2145
35.36083466676374 24.1452
35.38420332829803 23.9983
35.407756095629054 24.0902
35.43112781085063 24.1202
35.45450104888391 24.0166
35.477875810999194 24.0044
35.50143473172161 23.8431
35.52481255774625 23.9166
35.54819191167777 23.9269
35.57157279478914 23.8766
35.595137889488406 23.8534
35.61852184675279 23.7935
35.641907337029984 23.7233
35.665294361595684 23.7192
35.68886565090076 23.6667
35.7122557598848 23.5913
35.73564740699838 23.6323
35.759040593519934 23.4965
35.78261809810353 23.4817
35.80601437933051 23.4468
35.829412203814705 23.3989
35.85281157283719 23.3182
35.876395313415884 23.3493
35.8997977874528 23.3345
35.92320180988546 23.3074
35.946790244133936 23.2288
35.97019737933222 23.2387
35.993606066789866 23.1583
36.01701630779276 23.1584
36.04061101440684 22.9914
36.06402437852291 23.072
36.08743930005611 23.0988
36.1108557802951 22.8989
36.13445678011326 22.9238
36.15787639383515 22.9083
36.18129757014299 22.9382
36.20472031032821 22.8557
36.22832762423364 22.8352
36.25175350829375 22.7611
36.275180960119776 22.7127
36.298609981005924 22.7621
36.32222362992669 22.7292
36.34565580510207 22.7057
36.36908955323448 22.6159
36.39252487562093 22.5664
36.416144880530226 22.6651
36.43958336764275 22.5826
36.463023432914625 22.5159
36.486465077645676 22.3703
36.51009145956204 22.5055
36.53353627947859 22.5579
36.55698268276811 22.4272
36.58043067073321 22.3146
36.60406345072071 22.2095
36.62751462435344 22.2511
36.65096738658405 22.2538
36.67460498210655 22.2821
36.69806093788647 22.27
36.72151848619297 22.145
36.744977628333636 22.1828
36.76862165890998 22.0143
36.79208400512205 22.044
36.81554794910557 22.0872
36.83901349217101 21.9932
36.862663978991606 21.9041
36.88613273667352 21.9339
36.90960309738324 21.9525
36.933075062434064 21.8256
36.95673202673572 21.7811
36.98020721697122 21.8033
37.003684015502365 21.8138
37.027162423645365 21.7009
37.050825886711465 21.6533
37.07430753063053 21.5534
37.09779078812467 21.5267
37.121275660513014 21.5921
37.144945643673694 21.4246
37.16843376245278 21.496
37.19192350009803 21.4884
37.215414857931435 21.3908
37.239091382563885 21.320999999999998
37.262585997426164 21.3212
37.28608223645736 21.311999999999998
37.309763684451696 21.3423
37.33326318851098 21.2516
37.356764320726555 21.1675
37.380267082425526 21.3094
37.40395510942588 21.2189
37.42746114683234 21.1949
37.45096881771841 21.0713
37.474478123414166 21.0995
37.49817275092816 21.0444
37.52168534303452 20.9725
37.54519957395567 20.9281
37.568715445024665 20.8301
37.592416694607714 20.8154
37.61593586281424 20.8845
37.63945667518264 20.9378
37.66297913304891 20.8357
37.68668702630454 20.8474
37.710212792059274 20.7708
37.733740207334854 20.7423
37.757269273470364 20.6216
37.780983832050374 20.5936
37.80451621684926 20.5616
37.82805025654007 20.5491
37.851585952464795 20.5505
37.8753071980695 20.4288
37.89884622345676 20.4063
37.92238690911902 20.3832
37.94611318753442 20.3906
37.969657210779765 20.3724
37.99320289834801 20.293
38.016750251586465 20.3268
38.04048325513017 20.2816
38.06403395679343 20.237000000000002
38.087586328183946 20.2219
38.11114037065203 20.1681
38.13488012115898 20.1366
38.1584375229181 20.0523
38.181996599821 20.027
38.205557353221124 20.0385
38.229303872575656 19.9447
38.2528679961576 20.0483
38.27643380031219 19.958
38.30000128639589 19.9177
38.32375459653193 19.877
38.34732546371299 19.9495
38.37089801690786 19.7727
38.39447225747609 19.7094
38.418232380377425 19.7096
38.441810012983396 19.7904
38.46538933705673 19.7403
38.488970353960084 19.6528
38.51273731166058 19.6047
38.536321731567014 19.552
38.55990784840681 19.5708
38.58367995004091 19.5413
38.60726947812959 19.4829
38.63086070726198 19.4482
38.654453638806274 19.4397
38.678232613930824 19.3966
38.70182896773327 19.3735
38.72542702806741 19.3417
38.7490267963045 19.3512
38.77281266709232 19.3022
38.79641586862214 19.3027
38.8200207821842 19.1885
38.843627409152944 19.2065
38.86742019782782 19.1767
38.891030269149255 19.112000000000002
38.914642058016156 19.1183
38.938255565806124 19.0199
38.96205529464307 19.012999999999998
38.98567225787121 19.0178
39.00929094417078 18.991
39.03291135492255 18.9558
39.05671804624804 18.9615
39.080341923549106 18.87
39.103967529460334 18.8124
39.127594865365744 18.7866
39.15140854155791 18.8451
39.17503935514948 18.775
39.19867190290282 18.7319
39.22249083587951 18.7814
39.24612686969409 18.7873
39.269764641845306 18.7146
39.293404153722804 18.6315
39.317230110864074 18.5685
39.34087311998506 18.570999999999998
39.36451787301696 18.5365
39.388164371352595 18.4488
39.41199737518003 18.4262
39.43564738196752 18.4551
39.45929913825317 18.3596
39.48295264543308 18.4027
39.506792718520884 18.3536
39.530449745387216 18.3187
39.55410852735203 18.3554
39.57776906581474 18.3182
39.60161623079 18.2668
39.625280300200025 18.1812
39.64894613032202 18.187
39.67261372255866 18.1697
39.6964680021016 18.1445
39.72013913657293 18.1668
39.74381203738292 18.0665
39.76748670593756 18.1185
39.79134812278169 18.0234
39.81502634488497 17.9481
39.83870633896685 17.9609
39.862388106436654 17.9533
39.88625668336918 17.9073
39.90994201572829 17.9148
39.933629125719285 17.8496
39.957503091207826 17.8184
39.9811937746168 17.8199
40.00488623990914 17.773
40.02858048850006 17.746
40.05246165409549 17.7014
40.076159487492085 17.6485
40.099859108448875 17.6607
40.123560518384345 17.6227
40.1474489070226 17.6077
40.171153913178564 17.5397
40.194860712584955 17.5091
40.2185693066637 17.494
40.242464941335314 17.4704
40.26617714307655 17.4927
40.289891143772046 17.4346
40.3136069448471 17.394000000000002
40.33750984859743 17.3725
40.3612292688043 17.3272
40.3849504936829 17.3261
40.40867352466194 17.2643
40.43258372059144 17.2566
40.45631038219906 17.2396
40.48003885420956 17.160999999999998
40.503769138055105 17.1991
40.52768664931955 17.1876
40.55142057531802 17.1437
40.57515631746428 17.1051
40.599079334038514 17.1135
40.62281872700477 16.9851
40.64655994043941 16.9525
40.67030297578061 16.9701
40.69423334835778 16.9089
40.71798004609188 16.9207
40.74172857006355 16.9123
40.76547892171441 16.8303
40.7894166736039 16.8468
40.813170699248566 16.8046
40.83692655691388 16.754
40.86068424804498 16.7272
40.884629402612525 16.7564
40.908390779366385 16.7573
40.932153993938 16.6907
40.95591904777605 16.6427
40.979871628443995 16.6997
41.003640379561936 16.6442
41.02741097430883 16.5599
41.05118341413683 16.5563
41.075143444384416 16.4948
41.098919593177826 16.533
41.1226975914255 16.4975
41.14647744058318 16.4124
41.170444943946755 16.3901
41.19422851378379 16.4389
41.218013938914645 16.3676
41.24198706625173 16.2848
41.26577622087193 16.3214
41.289567235177785 16.3023
41.31336011063129 16.245
41.337340752422875 16.1847
41.361137369129835 16.2095
41.38493585138705 16.2013
41.40873620066004 16.167
41.43272438060107 16.1332
41.45652848292052 16.1207
41.48033445666918 16.0997
41.50414230331616 15.9876
41.528138045159764 16.0401
41.551949656675205 15.9654
41.575763145513235 15.9676
41.59957851314666 15.9536
41.62358184070442 15.9055
41.64740098505737 15.8467
41.6712220126409 15.8285
41.69504492493139 15.8775
41.71905586207357 15.7986
41.74288256296395 15.8026
41.766711153007456 15.7658
41.79054163368412 15.7597
41.814560204340054 15.6993
41.838394485526365 15.7623
41.86223066180303 15.6158
41.88625497706819 15.5964
41.910094962812 15.6274
41.93393684811168 15.5941
41.95778063445365 15.4713
41.981812625263366 15.5594
42.00566023303407 15.5
42.029509746323676 15.4277
42.05336116662236 15.4014
42.077400857069705 15.4151
42.10125611078846 15.3677
42.12511327600405 15.3663
42.14897235421036 15.2814
42.173019768448455 15.3247
42.19688269209613 15.2801
42.22074753323349 15.2464
42.24461429335818 15.2336
42.268669455600495 15.2237
42.292540073217886 15.1816
42.31641261433284 15.129000000000001
42.34028708044675 15.1117
42.36435001496739 15.1161
42.38822835065557 15.0905
42.41210861586426 15.050999999999998
42.4359908120986 15.0574
42.46006154323262 15.065999999999999
42.48394762115317 14.9665
42.507835634632315 14.9913
42.531912233047436 15.0007
42.55580413732265 14.9489
42.579697981698 14.8775
42.60359376768525 14.8261
42.62767820545945 14.8455
42.65157789440821 14.7628
42.67547952952185 14.7832
42.699383112316 14.8064
42.72347541395347 14.7586
42.74738291190531 14.6595
42.771292362102166 14.7187
42.795203766063516 14.6672
42.819303956130405 14.597999999999999
42.843219287476536 14.5819
42.86713657716324 14.568
42.89105582671383 14.5622
42.91516392983864 14.5132
42.939087119032166 14.5217
42.963012272677304 14.4699
42.98693939230129 14.4597
43.01105543317513 14.4712
43.034986504731386 14.3602
43.05891954686589 14.3933
43.08285456110972 14.3774
43.10697856448665 14.2924
43.130917542983475 14.2308
43.15485849820081 14.2905
43.17880143167367 14.2308
43.20293342237094 14.2249
43.226880332449 14.2216
43.25082922540554 14.2268
43.27496722682525 14.1475
43.29892010567796 14.1286
43.32287497204102 14.0669
43.34683182745632 14.0716
43.370977859791836 14.0402
43.39493871351105 14.065999999999999
43.41890156092628 14.0605
43.44286640358341 13.9818
43.46702049182749 13.9612
43.49098934522816 13.9027
43.51496019852649 13.9266
43.5389330532723 13.9143
43.56309522248204 13.8732
43.58707210044314 13.8707
43.61105098451946 13.7979
43.63503187626491 13.8047
43.659202151562134 13.7986
43.68318707902681 13.7882
43.70717401884041 13.7419
43.731162972560874 13.6905
43.75534137913236 13.6886
43.779334381108384 13.7109
43.803329401683186 13.6262
43.82732644241872 13.6095
43.8515130055166 13.6132
43.87551410707659 13.5479
43.89951723350145 13.5466
43.923709934595614 13.5514
43.94771713129917 13.4971
43.97172635758096 13.4261
43.99573761501002 13.4219
44.0199385169922 13.4026
44.04395385732619 13.3835
44.067971233533086 13.4121
44.09199064718605 13.3677
44.11619977548961 13.3577
44.14022328470671 13.3045
44.16424883610785 13.3357
44.18827643127035 13.252
44.21249381139513 13.2702
44.236525514814076 13.2385
44.26055926674478 13.2374
44.28459506876863 13.2208
44.3088207262813 13.1689
44.33286064928722 13.1061
44.35690262714919 13.0992
44.38094666145278 13.0614
44.4051806219871 13.0267
44.42922879003185 13.0195
44.45327901929361 12.9722
44.477331311362136 13.0123
44.501573600619416 12.9574
44.525630039221795 12.8962
44.54968854541895 12.9431
44.573937102200176 12.9445
44.5979997645541 12.8919
44.622064499300315 12.8381
44.64613130803592 12.8429
44.67038823869318 12.8212
44.69445921643748 12.7432
44.718532272981385 12.7592
44.742607409926194 12.7741
44.76687274034801 12.7453
44.79095205918753 12.6695
44.81503346325094 12.6892
44.839116954143876 12.6476
44.86339071028742 12.6809
44.88747839599524 12.6412
44.91156817336837 12.5916
44.93566004401666 12.5651
44.959942251908146 12.5018
44.984038330325966 12.5415
45.00813650686762 12.4992
45.03223678314731 12.4614
45.05652746888232 12.4355
45.08063196592069 12.4266
45.104738567558705 12.385
45.128847275414856 12.355
45.15314646515866 12.3569
45.17725940679741 12.3637
45.20137445952892 12.3058
45.22568004865265 12.3467
45.24979934496396 12.2629
45.27392075725247 12.277000000000001
45.29804428714431 12.247
45.322358426247604 12.2332
45.346486212804315 12.1742
45.370616121861914 12.1775
45.39474815505086 12.1491
45.41907087049246 12.1098
45.4432071734666 12.0709
45.46734560548283 12.1234
45.49148616817604 12.05
45.51581748638564 11.9815
45.5399623320197 12.0417
45.56410931325473 11.9725
45.58825843173002 12.0102
45.61259837920865 11.9211
45.636751793816 11.9469
45.66090735060093 11.9189
45.68506505120716 11.8747
45.7094136545275 11.8472
45.73357566449271 11.8399
45.75773982322992 11.8447
45.78190613238733 11.7976
45.806263418194064 11.7413
45.83043404997326 11.7769
45.85460683713677 11.763
45.87897065658495 11.6862
45.90314777634752 11.6942
45.92732705646868 11.6857
45.9515084986045 11.7055
45.97588104735473 11.6734
46.00006683541565 11.588
46.02425479047904 11.5826
46.04844491420549 11.544
46.0728262191024 11.5762
46.09702070211635 11.5692
46.12121735879483 11.5737
46.14541619080294 11.5045
46.169806278764455 11.4745
46.194009483459034 11.4786
46.21821486849841 11.4462
46.24242243555223 11.3775
46.266821333570014 11.3686
46.29103328674601 11.3132
46.31524742696538 11.3885
46.33946375590237 11.3364
46.36387149104216 11.3133
46.38809221957392 11.2996
46.41231514186606 11.2502
46.436540259597464 11.2835
46.460956858999374 11.2551
46.48518638983522 11.2529
46.509418121166966 11.2029
46.533652054678114 11.1772
46.55807754555709 11.1247
46.58231590571962 11.1634
46.60655647313217 11.1034
46.630988654873654 11.0481
46.655233659129024 11.0681
46.67948087571551 11.0516
46.70373030632484 11.0438
46.72817142736393 11.0064
46.752425308428684 10.9807
46.77668140861147 10.9666
46.80093972960865 10.9695
46.82538981736788 10.949000000000002
46.849652602470904 10.922
46.87391761349769 10.8827
46.8981848521493 10.8776
46.9226439341274 10.8165
46.946915650573224 10.8085
46.97118959976749 10.8106
46.99546578341598 10.7453
47.019933887188216 10.7356
47.04421456235744 10.758
47.06849747711879 10.6887
47.09278263318286 10.6795
47.11725978640143 10.6776
47.14154944775105 10.6512
47.165841355555656 10.6304
47.1901355115306 10.6252
47.214621741924994 10.603
47.23892041698887 10.595
47.26322134538975 10.5791
47.28771440635075 10.5643
47.31201986422527 10.5499
47.33632758061436 10.5204
47.360637557241866 10.4944
47.38513974410611 10.5269
47.40945426407847 10.4498
47.43377104948137 10.4316
47.45809010204344 10.3812
47.48260144275502 10.3805
47.506925052572285 10.345999999999998
47.53125093475548 10.3306
47.55557909103813 10.3227
47.58009961361992 10.2672
47.60443234110732 10.2401
47.62876734791564 10.2836
47.65310463578333 10.2574
47.6776343683373 10.2497
47.7019762413987 10.1992
47.72632040075572 10.1711
47.75066684815169 10.1199
47.77520581885936 10.146
47.799556865477655 10.1138
47.823910205386 10.1282
47.84826584033272 10.1223
47.87281407745551 10.0876
47.89717432569297 10.0555
47.92153687423484 10.0826
47.94609208429692 10.0505
47.97045925671401 10.055
47.99482873471275 9.98901
48.01920052005013 10.0117
48.04376504619224 9.951419999999999
48.068141469543484 9.9324
48.09252020552573 9.96428
48.11690125590099 9.94616
48.1414751266064 9.91271
48.16586082917454 9.91274
48.19024885144316 9.88898
48.2146391951793 9.83714
48.239222439012764 9.86351
48.26361744916137 9.81368
48.28801478610016 9.78161
48.31241445160131 9.76176
48.337007097209366 9.73532
48.36141144338331 9.72598
48.38581812345755 9.71043
48.41022713920929 9.708639999999999
48.434829215320704 9.719489999999999
48.45924292604658 9.66959
48.48365897780325 9.651069999999999
48.50807737237308 9.61895
48.532688907799276 9.588569999999999
48.55711201168574 9.60011
48.581537463754074 9.57596
48.60615611725119 9.57607
48.63058628942721 9.53991
48.65501881516546 9.48429
48.6794536962573 9.56419
48.70408185970339 9.50478
48.72852147531801 9.460180000000001
48.75296345168211 9.4119
48.77740779059232 9.44396
48.80204549302823 9.49891
48.82649458091802 9.4399
48.85094603676547 9.37787
48.87539986237231 9.364410000000001
48.90004713292306 9.33553
48.92450572200832 9.30885
48.94896668628025 9.30461
48.97343002754588 9.26648
48.99808689542115 9.29015
49.02255501470614 9.30055
49.04702551642794 9.25533
49.0714984023988 9.21884
49.096164896893235 9.18483
49.120642575466796 9.18898
49.145122643748394 9.24347
49.16960510355558 9.14658
49.19428125404938 9.144910000000001
49.2187685210852 9.13824
49.243258185121555 9.077010000000001
49.26794160167084 9.0928
49.2924360839405 9.048119999999999
49.31693296869764 9.07129
49.34143225776915 9.02816
49.36612538195438 8.99588
49.39062950396021 8.96875
49.41513603578346 8.96596
49.4396449792564 8.97055
49.46434784069503 8.941130000000001
49.488861631846454 8.91047
49.513377840166804 8.936869999999999
49.537896467493745 8.89616
49.56260909589029 8.85898
49.587132585683285 8.87217
49.611658500018365 8.88181
49.636186840738596 8.840819999999999
49.66090926588511 8.81457
49.685442483902584 8.81179
49.70997813385706 8.781360000000001
49.734516217597076 8.76582
49.75924846937352 8.73318
49.7837914452858 8.68932
49.80833686055187 8.68431
49.83288471702571 8.66849
49.85762682540054 8.6632
49.882179588965734 8.639489999999999
49.9067347993235 8.61824
49.93129245833333 8.6732
49.95604445336378 8.60548
49.98060703442832 8.57522
50.005172069746266 8.55919
50.02993150438364 8.56605
50.05450147301533 8.541139999999999
50.07907390151433 8.521
50.10364879174981 8.46139
50.12841816587289 8.45694
50.1529980044635 8.461319999999999
50.17758031042124 8.44691
50.20216508562089 8.4622
50.22694442953363 8.40301
50.25153416817468 8.38302
50.27612638170508 8.36705
50.300721072005196 8.37428
50.325510416102105 8.32377
50.350110084975064 8.31222
50.37471223628208 8.35018
50.39931687190919 8.29627
50.424116246675766 8.28791
50.44872587605249 8.25925
50.47333799543065 8.28802
50.49795260670191 8.27449
50.52276204271512 8.246789999999999
50.54738166295838 8.21701
50.57200378079314 8.20912
50.596628398116835 8.15788
50.62144792604559 8.17095
50.646077567609396 8.154
50.670709714377715 8.11341
50.69553683636198 8.123330000000001
50.72017401885922 8.11232
50.7448137122895 8.11711
50.76945591856022 8.07858
50.79429318636823 8.06925
50.818940443716784 8.02855
50.84359021965163 7.98148
50.868242516085964 8.01983
50.893089960641895 8.00509
50.917747323549435 7.97859
50.94240721271973 7.96439
50.96706963007175 7.951239999999999
50.99192728239342 7.9405399999999995
51.01659478166073 7.91628
51.04126481489051 7.90713
51.06593738400761 7.90815
51.090805275207074 7.86952
51.11548294172845 7.850219999999999
51.14016314993547 7.8750100000000005
51.164845901758845 7.83435
51.18972406304274 7.800269999999999
51.21441192780656 7.806589999999999
51.23910234200271 7.79635
51.2637953075678 7.770789999999999
51.288683770237945 7.73721
51.31338186432707 7.7333
51.33808251561888 7.7232899999999995
51.362978729967345 7.71962
51.387684521509755 7.684830000000001
51.41239287610203 7.6762
51.437103795691165 7.628610000000001
51.46201036644977 7.62666
51.486726441956634 7.63881
51.51144508832545 7.60814
51.536166307509156 7.59825
51.56108326624387 7.602639999999999
51.58580965706056 7.5776699999999995
51.61053862657523 7.58098
51.635270176746864 7.49798
51.66019755512065 7.502619999999999
51.68493429268881 7.45489
51.70967361681515 7.46715
51.73441552946465 7.4510000000000005
51.759353359237934 7.4759899999999995
51.7841004750961 7.45835
51.80885018539685 7.43145
51.833602492111254 7.429060000000001
51.8585508051424 7.415139999999999
51.883308330926425 7.387739999999999
51.90806845906181 7.36009
51.932831191525715 7.2910699999999995
51.95779001977161 7.3447
51.98255798721516 7.31371
52.00732856494335 7.26806
52.03229530577543 7.2628
52.057071130455945 7.26875
52.081849571391054 7.2770399999999995
52.106630630568695 7.24455
52.13160794279417 7.1944300000000005
52.15639426492067 7.25985
52.18118321127822 7.20162
52.205974783860896 7.20345
52.23096269971011 7.16096
52.255759551287994 7.144639999999999
52.280559035098186 7.15017
52.30536115314103 7.13933
52.33035970494467 7.0945
52.35516711807904 7.08684
52.37997717147198 7.06825
52.40478986713005 7.0652800000000004
52.42979908731974 7.03395
52.454617094216 7.0427800000000005
52.47943774942214 6.98941
52.50426105495102 6.9811
52.529280976059844 6.962219999999999
52.554109609024096 6.9587
52.57894089837482 6.95453
52.60377484613117 6.921760000000001
52.62880550079408 6.942939999999999
52.65364479223379 6.90544
52.67848674816189 6.91635
52.70352547971946 6.90154
52.72837279155837 6.870889999999999
52.753222773982785 6.85537
52.778075429022984 6.8503300000000005
52.80312495150885 6.82792
52.827982978797436 6.8219899999999996
52.85284368481815 6.78747
52.87770707160767 6.789810000000001
52.90276741793998 6.78021
52.92763619336701 6.74148
52.952507655698504 6.70246
52.977381806977576 6.74138
53.00245301017842 6.72052
53.02733256653592 6.728960000000001
53.052214817996074 6.680680000000001
53.077099766608484 6.6734
53.102181859804446 6.699910000000001
53.127072229988265 6.66918
53.15196530349892 6.63388
53.17686108239249 6.60875
53.20195409881522 6.60115
53.22685531582556 6.60416
53.25175924441303 6.5949800000000005
53.27666588664027 6.59963
53.30176985962693 6.57539
53.3266819565689 6.5551699999999995
53.35159677336455 6.55085
53.376514312083096 6.50356
53.40162927507703 6.49329
53.42655228516116 6.48022
53.45147802340193 6.463769999999999
53.47660125628886 6.43478
53.50153247842639 6.40278
53.52646643496923 6.43312
53.55140312799818 6.39656
53.576537409691696 6.37981
53.60147960336152 6.3851
53.626424539786164 6.3461300000000005
53.65137222105307 6.34123
53.67651758529126 6.3498
53.70147078399681 6.319380000000001
53.72642673383343 6.28925
53.75138543689533 6.3255300000000005
53.776541917524526 6.29355
53.801506154876755 6.2710099999999995
53.826473151763246 6.2458800000000005
53.851442910284916 6.22565
53.87661054126026 6.19415
53.9015858509782 6.23079
53.92656392866066 6.18577
53.95154477641532 6.1424
53.976723591801296 6.18128
54.00171000771266 6.17251
54.02669920004598 6.08369
54.051691170915745 6.11131
54.076881204886796 6.13834
54.101878760928514 6.13277
54.12687910187696 6.09917
54.152077577768296 6.01716
54.1770835166946 6.04942
54.20209224691339 6.047280000000001
54.22710377055121 6.00871
54.25231352511594 6.032109999999999
54.27733066384342 6.00091
54.30235060239643 6.0195
54.32737334290836 5.97841
54.35259441062629 5.90613
54.377622783395324 5.89745
54.40265396455061 5.922540000000001
54.42768795623251 5.89843
54.45292037169559 5.887630000000001
54.477960012857906 5.887919999999999
54.50300247099511 5.857880000000001
54.52804774825457 5.790109999999999
54.55329154616743 5.7407699999999995
54.57834249018678 5.73546
54.6033962597977 5.75732
54.6284528571545 5.75849
54.653708072335164 5.73115
54.67877035378786 5.74182
54.70383546947698 5.64375
54.72890342156389 5.65836
54.7541700889442 5.63333
54.77924374251975 5.66195
54.8043202390049 5.60599
54.82959552413022 5.57163
54.8546777351945 5.53883
54.87976279569621 5.49861
54.90485070780914 5.5793
54.930137506558005 5.53625
54.95523115074295 5.52581
54.98032765308844 5.52654
55.005427015775496 5.4692
55.03072536339621 5.474080000000001
55.05583047570572 5.42914
55.080938454927676 5.44666
55.10604930325027 5.39915
55.131359235107396 5.41531
55.15647585066083 5.33524
55.181595341907496 5.30016
55.20671771104285 5.28983
55.232039262617704 5.27479
55.25716741665048 5.26825
55.28229845518636 5.24006
55.30743238042802 5.16188
55.33276558731939 5.1691199999999995
55.357905315183636 5.13655
55.383047936390035 5.12675
55.40819345314859 5.11224
55.433538351073295 5.11765
55.458689688238415 5.08461
55.483843927614096 4.974480000000001
55.509197623043605 4.95786
55.53435769621134 4.93455
55.55952067826466 4.99381
55.5846865714265 4.96084
55.61005202069737 4.94798
55.63522376553902 4.93734
55.66039842818645 4.88478
55.68557601087004 4.86763
55.7109532500271 4.8343300000000005
55.73613670233794 4.81366
