TT I
1.2716486653135266 7.124689999999999
1.2939594142134223 7.374969999999999
1.3162702121660406 6.862410000000001
1.3385810600174564 6.43891
1.3608919586137629 6.8411800000000005
1.383202908801069 6.30307
1.405513911425503 7.12593
1.4278249673332093 5.84321
1.4501343378461518 6.19169
1.4724455028545926 5.73548
1.4947567236847858 6.395569999999999
1.517068001182951 5.9688300000000005
1.5393793361953272 5.887569999999999
1.5616907295681737 5.84818
1.5840021821477681 5.057980000000001
1.60631369478041 5.2733300000000005
1.6286252683124185 5.598269999999999
1.6509369035901333 5.62217
1.6732468618895553 4.90496
1.695558623192809 4.13494
1.7178704487808514 5.32826
1.7401823395001077 4.678719999999999
1.7625012545597203 4.73046
1.7848028405262486 4.973990000000001
1.8071218901122095 5.0756
1.8294236121921872 4.91052
1.8517427996910911 5.0282599999999995
1.8740620574440425 4.6839
1.8963639900671978 4.783530000000001
1.9186833908139995 5.07094
1.9409854680117449 5.49991
1.9633050151394713 4.96517
1.9856246367570705 4.83798
2.0079269371922672 4.33878
2.03024671027244 4.20109
2.0525491637446027 4.4394800000000005
2.074869091674931 4.24365
2.097171701569106 4.77241
2.1194917877373847 4.98046
2.141811954326636 4.90911
2.164114805233074 4.5472
2.186435135143035 5.7828800000000005
2.208738150935709 11.8745
2.231058647554722 22.4598
2.2533792288321184 17.3147
2.275682498336085 8.8203
2.298003251406138 5.95441
2.3203066942619714 5.45162
2.3426276225136022 5.40625
2.3649486396617507 5.61906
2.387252348930071 5.818169999999999
2.4095735463442893 5.8976
2.4318774374315884 5.91055
2.4541988185014043 6.50499
2.476502894794693 7.005910000000001
2.498824462909887 7.53165
2.521146125856138 7.37674
2.5434504863470337 7.75622
2.5657723414244717 7.60648
2.588076895590662 8.17488
2.610398946189713 8.2161
2.6327210958598384 8.45997
2.6550259469304716 7.614839999999999
2.6773482972090137 7.637739999999999
2.6996533504259 7.94688
2.7219759047039602 8.7539
2.744298562293959 8.38293
2.7666039251246595 8.11246
2.7889267918020164 8.18419
2.8112323652516555 8.80633
2.833555444408179 8.582230000000001
2.8558786311183852 8.51729
2.8781845268938557 8.80256
2.9005079311721484 9.21153
2.9228140460410397 8.88162
2.9451376712799635 9.30923
2.967444008632326 9.527519999999999
2.9897678582247247 10.2662
3.0120918213106695 10.6213
3.0343984987899373 10.9742
3.0567226913198637 11.4943
3.079029599759726 12.0442
3.101354025127254 11.8364
3.123678568232338 12.3117
3.145985829517914 12.8127
3.16831061055229 13.4806
3.1906181112775593 14.2475
3.212943133635653 14.8101
3.2352682779763207 14.6752
3.2575761442691227 15.360999999999999
3.2799015350264273 15.7225
3.302209649240067 16.3482
3.3245352898092655 17.0323
3.3468436553365257 17.0383
3.369169549113219 17.2448
3.3914955708171384 18.4616
3.413804319727358 18.9474
3.4361305997334863 19.5295
3.4584396084414553 19.8286
3.4807661501462652 20.469
3.503092824025881 20.8337
3.5254022288463154 21.0239
3.5477291695206588 21.4126
3.5700388426251948 22.4141
3.5923660534916446 23.5179
3.6146934007816114 35.2068
3.637003482731501 73.4407
3.6593311053109985 81.5306
3.681641464033634 48.8847
3.7039693653009733 29.3422
3.726297407241705 25.9896
3.7486081875460804 25.3874
3.7709365132734978 26.0298
3.793247578841633 26.6003
3.8155761917550093 26.2761
3.8378875459837216 26.9082
3.8602164494827234 27.4207
3.882545499606844 28.0539
3.9048572932539183 28.7151
3.9271866390645718 28.7838
3.9494987298666713 29.5889
3.971828374764527 30.2666
3.9941581705403255 30.7215
4.016470713506008 31.1517
4.038800813471445 31.8543
4.061113662089144 32.306
4.0834440696459176 32.9
4.105774632334751 33.1286
4.128087945865126 34.7488
4.150418821249301 35.6607
4.172732448931298 36.6256
4.195063640413578 37.8323
4.2173775856475215 41.1502
4.239709096631102 66.9446
4.262040768704612 191.687
4.284355196706267 253.658
4.306687193387355 164.731
4.329001947444346 70.5471
4.35133427213731 46.0339
4.373666762177566 43.5736
4.395982011761091 43.3969
4.418314834921175 45.1704
4.44063041906622 51.8153
4.4629635787515625 60.3953
4.4852969080429785 59.648999999999994
4.5076130004776225 52.2315
4.529946671403969 50.3109
4.552263106909177 50.7424
4.574597122877047 51.2774
4.596931312711224 52.1058
4.619248269273446 52.4467
4.6415828092605835 54.126000000000005
4.663900117405352 55.2035
4.686235010953232 56.6918
4.708552674085913 57.5535
4.730887924602802 59.3709
4.753223354952695 60.5467
4.775541557023902 61.6179
4.797877349456786 63.9174
4.820195915032126 65.4457
4.842532072957498 66.9325
4.864868414979744 68.9207
4.88718753227192 71.0101
4.909524244902505 73.064
4.931843734218147 74.6202
4.954180820867835 77.3366
4.976518095879839 80.4618
4.998838149695359 82.6999
5.021175803844231 86.3063
5.043496238205739 89.7326
5.065834274903528 93.7582
5.088172504230693 98.4903
5.1104935158799565 104.68
5.132832132875765 123.331
5.155153533596801 159.861
5.1774925416746225 192.75900000000001
5.199814334878411 347.653
5.2221537374521505 974.9960000000001
5.244493338631803 2802.6
5.266815727034316 7901.2
5.289155727832427 12746.3
5.311478517248165 8554.52
5.333818921080011 2638.16
5.356159527788849 495.24800000000005
5.3784829252032536 175.542
5.400823940070432 140.126
5.423147747031976 125.052
5.445489173474152 116.242
5.467830807066149 111.898
5.490155234831516 108.191
5.512497285125229 104.48899999999999
5.534822130975162 102.94200000000001
5.557164601388673 101.27600000000001
5.579489868738879 97.9383
5.601832762690846 96.9242
5.6241758697774475 96.1907
5.646501775867269 95.1565
5.668845311622074 93.9599
5.691171647754637 93.2741
5.713515615597765 92.5866
5.735859800852677 91.5762
5.758186788542988 90.78399999999999
5.780531411018185 90.67
5.802858837297399 90.5209
5.825203900414495 90.5169
5.8475491852224 90.9988
5.869877275883075 91.8468
5.892223006467101 92.1325
5.914551544266608 93.4044
5.936897724049891 95.7967
5.959244129804903 101.802
5.981573344815301 121.705
6.0039202049061 210.12400000000002
6.026249875609095 452.17900000000003
6.04859719346037 952.082
6.070927323278297 2221.54
6.093275102315365 4516.64
6.115623113320588 5301.63
6.137953938319995 3151.28
6.160302415650845 891.89
6.182633708324452 208.43099999999998
6.2049826554078376 108.167
6.227331838745022 89.6539
6.249663839443684 83.3869
6.27201349767565 80.7296
6.294345974611799 84.9404
6.316696111167083 93.7321
6.339046488263839 88.4682
6.361379686074702 77.0236
6.383730546639482 70.5602
6.406064229255215 68.317
6.428415576718203 67.4141
6.450749747566656 66.4159
6.47310158535871 65.5034
6.495453669698332 64.3723
6.517788579421056 63.6158
6.540141159237969 63.2589
6.562476565766648 62.6573
6.5848296444934045 62.1838
6.607182974060425 61.6815
6.6295191323281015 61.6335
6.651872965955752 64.5163
6.6742096296068985 85.1862
6.6965639707294615 120.266
6.71891856698715 119.48100000000001
6.741255995248479 85.9876
6.763611104154477 65.869
6.785949046381137 59.3634
6.808304671371482 57.9364
6.8306605557940046 57.3611
6.852999275508618 56.9476
6.875355681171544 56.2066
6.897694923437771 56.068999999999996
6.92005185377892 56.1756
6.9423916220322655 56.0566
6.964749080490181 55.3198
6.987106804399774 55.251000000000005
7.009447368180821 55.3546
7.031805625367033 54.9567
7.054146723727803 54.6545
7.076505517631004 54.4423
7.098864581288365 54.2794
7.121206488070854 54.3355
7.143566093607822 54.24100000000001
7.165908543567245 54.4638
7.188268694426048 54.3288
7.2106291193438095 54.3394
7.232972390625943 55.5809
7.255333366030969 66.1652
7.277677189091925 107.777
7.300038718428332 143.012
7.322400526130865 123.25
7.344745183422596 80.2656
7.367107550224791 59.4732
7.389452767901992 55.2949
7.411815697249891 54.4284
7.434161478756298 53.7781
7.456524974096713 53.9857
7.478888753837185 53.9571
7.501235387657368 54.0462
7.523599738562711 54.1476
7.545946944825532 54.2201
7.568311870344528 54.76
7.5906770845765665 54.9902
7.613025156078678 55.5752
7.635390950099687 56.5072
7.657739602662809 56.2073
7.680105979923558 55.0972
7.702472650212829 55.3308
7.724822180948224 55.3656
7.747189439655568 55.6937
7.769539560075357 55.9478
7.791907410653562 56.1652
7.81425812420825 56.0635
7.836626570110925 56.2323
7.858995315087906 57.1552
7.881346924933401 57.2743
7.903716270417482 57.8708
7.926068482028405 58.3041
7.948438431475253 58.6663
7.9708086843180235 59.3733
7.993161805171116 60.0895
8.015532667162402 60.3694
8.037886398416653 61.0465
8.060257873014221 61.4793
8.082629655331942 62.2244
8.104984308787587 63.2481
8.127356708900503 65.92399999999999
8.149711981398308 70.5894
8.172085002766314 72.6784
8.194458336181368 70.2319
8.216814543847752 68.3294
8.23918850371002 69.0729
8.26154533906492 69.4117
8.283919928836452 70.9708
8.306277395339652 72.1051
8.328652618483376 73.5428
8.351028159736202 75.52199999999999
8.373386579575245 77.8522
8.395762759396959 79.5103
8.418121819038275 83.8486
8.440498640894003 94.7311
8.462875785192262 107.87899999999999
8.485235811156207 122.516
8.507613602688501 166.296
8.529974277114228 252.80700000000002
8.552352719347912 379.923
8.574731488360351 651.9780000000001
8.59709314210385 1205.28
8.619472567021075 1922.75
8.64183487789147 2184.15
8.664214962183097 1707.72
8.686577933647762 841.323
8.708958680784317 313.971
8.731339760774953 147.878
8.753703729764451 106.811
8.77608547780821 97.0478
8.798450116065078 94.0024
8.820832535634787 91.2919
8.843215292401656 89.9925
8.865580941199045 88.3709
8.887964374703538 87.4281
8.910330701447199 88.4309
8.932714815164482 89.7067
8.955099270424924 89.0319
8.977466620733543 86.3373
8.999851761421976 84.3491
9.022219798361645 83.0669
9.04460562795561 82.2357
9.066991803441677 81.9783
9.089360876979615 81.8745
9.111747746589993 82.0356
9.13411751544971 80.9578
9.156505082664324 81.0281
9.178875550323522 81.2947
9.20126381862328 81.6168
9.223652438908596 81.9084
9.246023961427412 81.5357
9.26841328802173 81.0793
9.290785518039224 81.07600000000001
9.313175554425882 81.7765
9.335565947154315 81.9598
9.357939245086508 81.9816
9.380330352834827 81.8299
9.40270436697103 82.2697
9.425096193225055 82.2637
9.447488380180165 83.2697
9.469863475295412 83.335
9.492256385987508 83.6504
9.514632206018318 84.0982
9.537025843935714 84.5881
9.559402392368193 85.4555
9.581796761000229 86.6175
9.604191496441521 87.3151
9.626569144158516 90.4036
9.648964615551032 93.6736
9.671343000390081 95.0957
9.693739211225699 94.1264
9.716135793237463 92.6119
9.738515290448102 92.2721
9.760912617143402 92.6016
9.783292860202891 94.2036
9.805690935076182 95.7763
9.828089385495742 96.5507
9.850470754023561 98.8223
9.872869957865444 105.37299999999999
9.89525208097539 117.275
9.917652041736662 128.06
9.940052382417589 130.285
9.962435644102392 140.89700000000002
9.984836746950979 177.24200000000002
10.007220771957746 240.24099999999999
10.029622640473708 339.814
10.052007432299963 512.746
10.074410069984072 818.855
10.096813093716005 1282.43
10.119199042482517 1762.1
10.141602840636468 1964.37
10.163989564971628 1503.2
10.186394141051062 806.503
10.208799107559706 343.075
10.231187001965623 166.139
10.253592751657669 119.723
10.275981430388155 110.279
10.298387966769793 109.69
10.320794897965431 111.74
10.343184759907361 110.155
10.36559248305461 106.07
10.387983138083852 103.208
10.410391656691655 106.819
10.432800574501677 118.14399999999999
10.455192425893369 134.85299999999998
10.47760214443012 160.118
10.499994797678786 204.795
10.522405320453982 288.72
10.54479877906917 415.289
10.567210109595656 533.655
10.5896218454736 575.5830000000001
10.612016518879773 480.725
10.634429067781074 322.645
10.656824555333241 183.998
10.679237920773568 115.18
10.701651695961992 93.7317
10.724048411481384 87.8041
10.746463008485165 85.2708
10.768860546937125 83.6707
10.791275969274796 81.9889
10.81369180576079 80.8514
10.836090585366925 80.0954
10.858507252467449 78.7392
10.88090686379991 77.9265
10.903324365036394 77.4187
10.925724811614439 77.0533
10.948143150509463 78.0123
10.970561909719066 77.3271
10.992963615930844 75.7054
11.015383218085756 74.0825
11.037785768347074 72.232
11.06020621697282 71.8391
11.082627090322113 71.5345
11.105030913430326 70.8484
11.12745263854165 71.2653
11.149857314510728 73.4276
11.172279894912576 78.4978
11.194702904450653 78.7306
11.217108866490921 75.3966
11.239532736615194 72.1885
11.26193956033512 70.344
11.284364294577085 68.9252
11.306789462371718 67.3054
11.329197585398376 66.2097
11.351623622610898 66.5038
11.37403261614354 65.3331
11.396459526308487 65.2047
11.418869393879497 64.8175
11.441297180532617 64.3802
11.463725406927658 64.461
11.486136592353875 64.1484
11.508565700543707 64.3621
11.530977768845315 65.7986
11.553407762368774 66.10300000000001
11.575838200059769 65.4751
11.598251599479612 64.2353
11.620682927815501 63.2799
11.64309721895548 63.0206
11.665529441478206 62.4872
11.687962112597958 62.0856
11.710377748130886 62.4518
11.732811318753434 62.0463
11.755227854859067 62.0258
11.777662328529495 61.9073
11.800079768750786 61.8366
11.822515149015453 61.7263
11.844950984084935 61.7709
11.867369787303163 61.7791
11.889806534289491 61.5442
11.912226250487029 62.0284
11.934663912939751 62.2277
11.9571020346363 62.3474
11.979523127133968 62.2502
12.001962169624331 62.8723
12.024384183972964 64.0434
12.046824150809913 67.191
12.069264581333726 72.3251
12.091687985297767 77.7193
12.11412934550045 86.4824
12.136553680195208 101.73200000000001
12.158995973632788 125.649
12.181438735204349 156.82399999999998
12.20386447284199 193.90200000000002
12.226308172985636 212.64700000000002
12.24873485024193 201.87599999999998
12.271179492516982 167.03799999999998
12.293607112949127 119.171
12.316052700916226 88.4838
12.338498763250042 74.2469
12.360927805303868 67.5573
12.383374818673879 65.3757
12.405804812803074 63.6147
12.428252780773262 63.3908
12.45070122756722 63.7817
12.473132656675375 63.4273
12.49558206341869 63.7466
12.518014453510101 63.6116
12.540464823770117 63.5458
12.562915677315177 63.858000000000004
12.58534951575545 64.7676
12.607801338171472 66.2978
12.630236146511358 70.3139
12.652688941369085 73.8632
12.675124723177234 73.9882
12.697578494048786 71.8616
12.720032754458185 68.3573
12.742470003354093 66.9928
12.764925245138771 66.8968
12.787363476431278 67.0195
12.809819703166806 67.368
12.83227642391173 68.0592
12.854716135692716 68.8147
12.877173846755147 69.8307
12.899614549869717 70.268
12.9220732548287 71.2889
12.94453245827299 71.5631
12.966974655289818 72.1878
12.989434858002571 73.1573
13.011878055298721 73.9491
13.034339260862497 74.8985
13.056800969391883 76.331
13.079245674017244 78.7843
13.101708390774869 81.1494
13.12415410463411 88.0193
13.146617833206086 99.1539
13.169064559883248 110.527
13.191529303857127 124.75399999999999
13.213994557076367 147.357
13.236442809902437 185.34099999999998
13.258909083908291 244.27
13.28135835851934 315.556
13.30382565690295 386.966
13.326293469022952 437.001
13.348744283242008 425.265
13.371213125129904 346.789
13.39366497011003 243.36
13.416134845360597 159.776
13.438605238843131 116.941
13.46105863690397 102.854
13.483530069144786 104.391
13.505984506951902 109.507
13.528456981549432 118.72
13.550929978879088 132.923
13.573385983253365 157.344
13.595860028340867 198.074
13.618317081455832 254.00400000000002
13.64079217790333 314.33799999999997
13.663250283359057 361.87800000000004
13.685726434770173 380.772
13.708203115221277 331.485
13.730662806148091 249.517
13.75314054697177 168.11
13.775601299246777 117.53
13.798080104050406 92.4197
13.820559442405358 83.1896
13.843021793671388 80.2348
13.865502201420897 79.1824
13.887965623051947 78.5594
13.910447103807167 77.3772
13.932929122629764 76.0368
13.955394156785959 75.8916
13.977877254034569 75.071
14.000343367582113 74.0492
14.022827546871707 73.3738
14.045294743423524 72.737
14.06778000837062 72.0545
14.090265817715476 72.0367
14.112734645763819 71.6016
14.13522154619454 71.4692
14.157691466286913 71.1867
14.180179461423874 71.1834
14.202668005486178 70.6663
14.22513957064374 70.0841
14.247629214846473 69.5693
14.270101881097517 69.5024
14.29259262906496 69.7325
14.315083930490205 70.2082
14.337558255389705 70.2793
14.360050666019726 70.2804
14.382526101071944 69.2149
14.405019624534942 68.5564
14.427513705993134 67.9983
14.449990813291825 67.7779
14.47248601302899 67.8085
14.49496423954951 67.9624
14.517460561197822 67.96
14.539939910570322 67.6574
14.562437357763558 68.039
14.58493536931253 69.2641
14.607416409993311 69.7803
14.62991555254159 70.5392
14.652397725157423 70.2636
14.674898002342799 69.9396
14.697398848433282 69.7346
14.719882725991326 70.2495
14.74238471217934 71.6277
14.764869730765593 74.6187
14.787372860692983 78.3494
14.809876564079925 82.1662
14.83236330125751 87.8616
14.854868153850365 96.1752
14.877356041159485 110.291
14.899862046604186 129.475
14.922351087688757 156.754
14.944858249632887 186.827
14.967365991421232 214.74099999999999
14.989856770231246 227.486
15.012365673994204 220.287
15.03485761569738 185.59599999999998
15.05736768508665 142.589
15.07987833888692 107.79799999999999
15.102372032001655 86.0168
15.124883856909658 74.7796
15.14737872204565 71.0051
15.169891721717274 69.6985
15.192405310371893 69.4197
15.214901940621196 69.5632
15.237416709527137 69.4951
15.259914520936249 69.7696
15.282430473753607 68.9003
15.304947020131227 67.7121
15.327446610371178 67.3244
15.349964346154254 66.3388
15.372465126703139 65.8145
15.394984055556009 65.8354
15.417486030076159 65.5547
15.44000615566487 65.4335
15.462526881230803 65.3772
15.485030653812652 65.328
15.507552581617434 65.2343
15.530057557334603 65.5579
15.55258069104857 65.5314
15.575104429329837 65.5427
15.597611216864632 65.0926
15.620136166564563 65.2165
15.6426441664095 66.3217
15.665170331202765 68.6111
15.687697105158826 71.6142
15.710206930593545 75.0941
15.732734925158933 78.8853
15.755245972089478 84.7943
15.77777519094324 93.9331
15.800287463046663 107.78299999999999
15.822817909869592 128.47799999999998
15.84534897229804 152.283
15.867863089299354 178.873
15.890395385222186 195.799
15.912910736597423 199.02200000000002
15.935444269699861 180.925
15.957978423016485 148.565
15.980495633101265 115.44
16.003031029129367 89.4953
16.02554948280019 73.0767
16.048086125229432 65.9144
16.070623392487107 63.8918
16.09314371869582 63.0301
16.11568223789321 62.2967
16.13820381691126 61.4869
16.160743591742527 60.3774
16.183283996022084 59.6378
16.205807461423195 58.5876
16.228349126881973 58.176
16.25087385432698 57.9841
16.27341678466365 57.4294
16.29594277784926 57.6669
16.31848697676433 57.716
16.341031811604868 57.833999999999996
16.36355971058487 58.0092
16.3861058195587 57.6827
16.40863499352978 56.8561
16.431182380342005 55.9838
16.453730407713202 55.5289
16.476261501364792 54.9205
16.498810812136167 54.7576
16.52134319004079 55.0154
16.54389378792203 54.9709
16.566445031001553 54.8253
16.588979342490088 54.6749
16.61153187824822 54.4312
16.634067483263312 54.2986
16.656621315414416 54.2413
16.679175797408888 53.8954
16.701713349928728 54.1496
16.72426913389191 54.1676
16.74680798922351 54.3195
16.76936507887444 54.3173
16.791905240734874 54.1104
16.814463639794468 54.0605
16.837022695210294 54.2441
16.859564824093756 54.586000000000006
16.882125194503903 54.9984
16.904668639217885 55.5011
16.927230328348003 55.5496
16.949792678493612 55.7159
16.972338104193863 55.2723
16.994901778652235 54.8111
17.017448529496576 54.9787
17.040013531998152 55.3723
17.06257920018044 55.7283
17.0851279459922 56.4819
17.107694947817667 57.2224
17.130245028099072 58.1487
17.15281336730298 59.178999999999995
17.17536478578733 60.9573
17.19793446610687 63.2016
17.220504818648422 66.3688
17.243058251703697 69.8131
17.265629950971032 74.8699
17.288184731571736 79.9318
17.310757781306908 83.1464
17.33333150794385 83.5462
17.355888317140174 81.3403
17.37846339986244 75.6843
17.401021565958885 68.9147
17.42359800851343 63.8177
17.44617513265564 60.6652
17.468735341390783 59.0236
17.491261035594565 58.2756
17.51396340099364 58.1903
17.536490463869136 58.3444
17.559018209820174 58.4182
17.58154663977963 58.6104
17.604251766089718 58.6238
17.626781572227713 58.6627
17.64931206518155 58.9387
17.671843245885103 59.6507
17.69455114821572 59.8581
17.717083712612634 60.3875
17.739616967569667 60.4923
17.762150914021706 60.739
17.78486160749854 60.718
17.807396945166804 61.5857
17.829932977143503 62.4524
17.85246970436452 63.7443
17.875183204129467 65.5259
17.897721330097664 67.6593
17.920260154126645 69.7913
17.942799677153296 72.9746
17.9655159983646 76.6156
17.988056927677544 82.1191
18.010598558807683 90.0656
18.033140892692916 100.667
18.05586005052525 112.741
18.07840379824407 125.07799999999999
18.10094825154059 134.942
18.12366954819864 141.363
18.146215420998306 138.431
18.16876200220057 126.961
18.191309292745153 112.35600000000001
18.214033452627167 98.5171
18.236582170236648 88.0582
18.259131600016456 84.5644
18.281681742907335 85.7527
18.304408781233683 90.7778
18.32696035875955 96.5687
18.349512652227624 101.79799999999999
18.372065662579683 105.81
18.394795594587553 105.605
18.41735004715306 100.59700000000001
18.43990521943684 92.5423
18.46246111238171 83.2349
18.485193953325208 74.3982
18.507751296070428 67.8164
18.530309362314178 64.2994
18.552868153000343 62.4042
18.57560391815056 61.3634
18.59816416623245 60.8784
18.620725141597372 60.4878
18.643286845190268 60.1097
18.666025549835414 59.7145
18.688588718427933 58.998999999999995
18.711152618092243 58.9683
18.73389353884365 58.793
18.75645890921984 58.3284
18.77902501351406 57.8811
18.801591852673102 57.9703
18.824335739722738 57.4112
18.846904057212626 57.3567
18.8694731124168 56.9487
18.89204290628315 57.1243
18.914789774966803 56.9578
18.937361054791623 56.5601
18.959933076131318 56.321999999999996
18.982505839934877 56.3254
19.00525570560582 56.3937
19.027829963004184 56.1976
19.05040496572238 56.1583
19.072980714710468 56.1176
19.095733592739563 56.2962
19.11831084296757 56.7288
19.140888842324735 57.0977
19.16346759176222 57.2951
19.18622349753803 57.908
19.208803755869358 58.864
19.231384767143577 59.8549
19.253966532312948 61.4744
19.276725481241822 63.6674
19.29930876296784 66.2989
19.3218928014549 69.3324
19.34465404436217 72.7261
19.36723960516257 75.0791
19.389825925592426 76.0222
19.412413006605938 74.4657
19.43517731967805 70.2725
19.457765930683355 66.0319
19.48035530514408 61.3071
19.50294544401556 58.1066
19.525712842708348 55.4409
19.54830451925909 54.3755
19.570896963095727 53.3999
19.593490175174704 53.2235
19.616260674962184 53.4117
19.638855432416964 52.943999999999996
19.661450960992624 53.22
19.68404726164677 53.0389
19.706820878021247 52.7012
19.729418731756834 52.9927
19.752017360452857 52.8005
19.77461676506804 52.8262
19.797393513540218 53.0716
19.819994478951667 53.4416
19.84259622316767 53.7576
19.8651987471481 54.0177
19.887978643247177 54.2826
19.91058273574792 54.8392
19.933187610901943 55.7406
19.955969879466828 56.6947
19.97857632894404 58.3186
20.00118356396599 60.0638
20.023791585494575 62.6176
20.046577028914875 65.5849
20.069186632506966 67.7238
20.091797025500632 69.2995
20.114408208858933 69.5281
20.137196842715273 68.8169
20.159809615886765 66.9083
20.18242318232135 64.107
20.20503754298326 62.2074
20.227829382875154 61.1736
20.250445341109344 61.541000000000004
20.27306209647285 62.4574
20.29567964993108 64.0974
20.31847471147704 65.0281
20.34109387027612 65.3904
20.363713830075454 64.7481
20.386334591841646 63.1982
20.409132890679302 60.0909
20.431755265564437 56.7408
20.454378445325528 54.2549
20.477002430930366 52.5312
20.499803982716553 51.3708
20.522429589228004 50.6724
20.54505600449589 50.206
20.567683229489194 50.2104
20.590488049900088 49.8289
20.61311690359731 49.711000000000006
20.63574656993626 49.5265
20.658553853717297 49.0366
20.681185154618298 48.989
20.703817271080066 49.0201
20.72645020407368 48.6763
20.749260783967177 48.5265
20.771895359337133 48.3886
20.794530754161617 48.363
20.817166969412938 48.3417
20.83998086114876 48.3423
20.86261872660049 48.2142
20.885257415405402 48.0735
20.90789692853701 48.0374
20.930714147864748 47.9265
20.953355319030678 47.9243
20.97599731745334 48.1874
20.99864014410749 48.0889
21.021460706796564 48.0371
21.044105199328826 48.308
21.06675052302631 48.5086
21.089396678865015 48.6312
21.112220600704806 48.8383
21.134868430275347 49.2324
21.15751709492456 49.5383
21.180166595629693 50.1197
21.202993892429635 50.6512
21.22564507473034 51.047
21.24829709602816 51.0918
21.27112693608965 51.0667
21.293780644891275 50.8978
21.316435195634053 50.0603
21.339090589297417 49.2791
21.361923832041875 48.8753
21.384580921090404 48.3037
21.407238856007325 47.9364
21.429897637773326 47.9892
21.45273429906592 47.7912
21.475394784108598 47.7492
21.498056118951983 47.8224
21.520718304578022 48.0727
21.543558400304388 48.1579
21.566222297108816 48.3302
21.58888704765135 48.4945
21.61155265291521 48.7044
21.63439619898156 49.1828
21.657063523335786 49.2311
21.67973170537063 49.8302
21.7024007460706 50.2651
21.72524775840385 51.1244
21.747918526116475 52.1243
21.770590155457388 53.3828
21.79326264741238 55.1619
21.816113141960237 57.1109
21.838787368860547 59.0162
21.861462461341976 60.8549
21.884315579735777 62.7517
21.90699241312273 63.8642
21.92967011506078 64.1028
21.95234868653799 63.5928
21.9752053151131 61.8706
21.997885635446785 59.8615
22.020566828293532 58.2848
22.04324889464272 56.8017
22.066109049404666 55.8869
22.088792872571794 55.5555
22.111477572219204 55.6418
22.1341631493376 55.8478
22.157026846313123 55.4789
22.179714188221507 54.6084
22.202402410582668 53.3826
22.22509151438863 51.8405
22.24795876962584 50.6253
22.270649646204486 49.8156
22.293341407213727 49.2032
22.316034053646906 48.619
22.338904883215342 48.3786
22.36159931041458 48.3638
22.38429462602756 48.3047
22.40699083104897 48.1499
22.429865251039757 48.1202
22.452563244831367 48.3099
22.47526213102522 48.2445
22.49813925616515 48.0881
22.520839937143307 48.1202
22.543541513520587 48.1323
22.56624398629403 47.8976
22.589124730075895 48.0
22.611829005656723 48.1971
22.63453418063466 48.0692
22.657240256008077 48.3991
22.680124634582935 48.4754
22.70283252079775 48.8141
22.725541310413075 49.1521
22.74825100442868 49.3206
22.771139033969575 49.6851
22.79385054687155 49.9674
22.81656296718292 50.5982
22.83927629590484 51.3748
22.862167992606945 52.5914
22.88488314827121 53.808
22.907599215359284 54.8665
22.93031619487366 56.0575
22.953211574954405 56.8479
22.975930389478226 57.6966
22.998650119445763 57.5596
23.02137076586092 56.2976
23.044269845560063 54.9855
23.06699233506288 53.3514
23.089715744034912 51.6256
23.112617610931565 50.1198
23.135342869061212 49.0598
23.158069049684816 48.5137
23.1807961538087 48.2107
23.20370174880544 48.2507
23.226430710184808 48.2332
23.249160598093425 48.2846
23.271891413539002 48.2874
23.294800752937697 48.3492
23.31753343374794 48.6003
23.340267045128353 48.6947
23.36300158808808 48.9926
23.38591468821339 49.1723
23.408651104658304 49.5867
23.431388455719986 50.1605
23.454126742409 51.2169
23.4770436196085 52.2952
23.499783787914662 53.7252
23.522524894889884 54.707
23.54526694154616 55.9132
23.56818761219047 57.0007
23.59093154860734 57.3328
23.613676427751283 57.4275
23.636422250635754 56.2657
23.659346731118656 54.4012
23.68209445191868 52.3654
23.704843119509587 50.4497
23.72759273490623 48.7354
23.750521041644767 47.4393
23.77327256312355 46.4304
23.796025035462787 46.0119
23.818956224555475 45.5717
23.841710609113413 45.6471
23.86446594758979 45.2969
23.887222241002014 44.9526
23.910157285144578 44.677
23.932915498962537 44.7806
23.955674670778713 44.5762
23.978434801611975 44.4979
24.001373717286125 44.2765
24.024135776723917 44.0821
24.046898798245582 44.053000000000004
24.06966278287146 43.8873
24.092605586582614 43.8073
24.115371508023642 43.5708
24.1381383956401 43.5573
24.16090625045381 43.4787
24.183852958731244 43.3554
24.206622758582608 43.437
24.229393528706886 43.1797
24.252165270127392 43.1353
24.27511589952438 43.0768
24.297889594216997 42.9456
24.32066426328598 42.7372
24.34343990775613 42.6625
24.36639447485003 42.7063
24.38917208083877 42.6047
24.41195066531332 42.5983
24.43490819850244 42.5495
24.457688750692377 42.349
24.48047028445616 42.4454
24.503252800821233 42.5898
24.526214300784112 42.6959
24.548998793132213 42.5144
24.57178427117417 42.431999999999995
24.59457073593893 42.6302
24.617536219319863 42.4866
24.64032466834748 42.3949
24.663114107195035 42.3855
24.685904536893013 42.0672
24.708874020360852 41.8787
24.731666442613744 41.92
24.754459858818787 42.0324
24.777254270007962 41.7894
24.80022777025625 41.7533
24.82302418230472 41.6751
24.845821592443674 41.8665
24.86862000170663 41.8766
24.891597535453727 41.5249
24.914397953892728 41.8127
24.93719937456671 41.7856
24.96000179851076 41.9416
24.98298338249997 42.1203
25.00578782394922 42.3747
25.028593271784167 42.3697
25.05157790644186 42.7979
25.07438537804115 42.9771
25.097193859145293 43.152
25.120003350792075 43.3701
25.142992065061257 43.7011
25.165803588823465 43.9939
25.18861612625217 44.2697
25.211429678386736 44.4432
25.234422489079968 44.2804
25.257238081693636 44.2949
25.280054692141732 44.2964
25.3028723214652 44.3505
25.325869245420463 44.5526
25.348688923599397 44.4843
25.371509623787006 44.5557
25.394331347025812 44.1608
25.41733240110666 43.6294
25.440156181590016 43.0385
25.46298098826268 42.3361
25.48580682216873 41.9399
25.50881202326435 41.3601
25.53163992281684 40.9359
25.55446885274561 40.5928
25.577298814096377 40.4398
25.600308179121807 40.3245
25.623140214533745 40.2757
25.64597328451537 40.2232
25.66898578564376 40.161
25.691820936010206 40.1815
25.714657124097695 40.0438
25.737494350954734 39.9469
25.760511045684957 39.9819
25.783350361364224 40.1645
25.806190718969255 40.0687
25.82903211955018 40.1404
25.852053024868923 40.2778
25.874896522722523 40.1622
25.897741066713106 40.1304
25.920586657892454 40.383
25.943611790812668 40.4248
25.966459487728237 40.5266
25.989308234998564 40.641999999999996
26.01215803367705 40.9532
26.03518741123814 41.0978
26.05803932412957 41.2786
26.080892291600094 41.2671
26.10374631470478 41.2696
26.12677995397268 41.4101
26.14963609978026 41.2946
26.172493304397875 40.8917
26.19535156888223 40.6327
26.218389486949604 40.2422
26.241249882640123 39.954
26.26411134137826 39.7502
26.28715248187403 39.8751
26.31001607820869 39.7751
26.3328807407756 39.5479
26.35574647063438 39.765
26.37879191991473 39.7166
26.401659795896734 39.7429
26.424528742360263 39.7598
26.447398760366614 40.0543
26.470448535598294 40.0685
26.49332070826805 40.3654
26.516193955675355 40.7864
26.53906827888316 40.9619
26.562122397260108 41.0987
26.584998883685063 41.3891
26.607876449110325 41.7227
26.63075509460056 41.8528
26.65381357334404 41.8511
26.67669439061878 41.7321
26.699576291163382 41.5535
26.722459276044212 41.356
26.745522132402975 41.1695
26.768407297649354 41.0528
26.791293550442003 40.5724
26.814180891848974 40.3581
26.837248143099337 40.1197
26.860137673466657 39.9854
26.88302829566349 39.7533
26.90592001075963 39.4835
26.92899167420566 39.3372
26.951885586870763 39.1317
26.974780595655517 38.8416
26.99785558178161 38.7321
27.020752794605112 38.6712
27.043651106772522 38.4567
27.06655051935668 38.4257
27.089629948036183 38.353
27.112531573292053 38.3589
27.135434302194138 38.3786
27.158338135817015 38.1771
27.181422024430987 38.1356
27.204328079372566 38.1391
27.22723524226965 38.0608
27.250143514198573 38.154
27.273231880156334 38.1212
27.296142382065014 37.9545
27.319053996245536 37.9923
27.341966723775965 38.0381
27.365059584515222 38.0759
27.38797455070062 37.9853
27.410890633481237 37.9975
27.433807833936918 38.0635
27.456905206923906 38.0627
27.47982465472398 38.071999999999996
27.502745223449743 38.1496
27.525666914182825 38.2249
27.548768816912457 38.2637
27.571692763693633 38.0755
27.59461783573812 37.906
27.617723149491244 37.751
27.640650484125285 37.8105
27.66357894728264 37.7216
27.686508540048052 37.6876
27.709618414237887 37.6063
27.732550278321757 37.4146
27.755483275279115 37.2804
27.778417406196485 37.4489
27.801531858397514 37.4037
27.824468269376716 37.2967
27.847405817586786 37.4127
27.870344504116094 37.7198
27.893463551932008 37.7154
27.916404527281053 38.0033
27.93934664422563 38.1465
27.962289903855886 38.1452
27.98541356491974 38.3669
28.00835912214229 38.3965
28.03130582533231 38.7535
28.054253675581805 38.7937
28.077381967556104 38.6348
28.100332124185126 38.55
28.123283431160893 38.5025
28.146235889577238 38.3188
28.169368830154156 38.2997
28.192323603752033 37.9636
28.215279532083304 37.705999999999996
28.238415973016764 37.4578
28.261374223145094 37.3573
28.284333631303806 37.1515
28.307294198589954 36.9424
28.330435319167677 36.6494
28.353398217078915 36.5859
28.376362277420153 36.3667
28.39932750129032 36.146
28.422473319286713 36.0572
28.44544088262495 35.9469
28.468409612800283 35.9348
28.491379510913497 35.6255
28.51453004413313 35.597
28.53750229057244 35.5817
28.56047570826344 35.5831
28.583450298308804 35.5134
28.606605564586562 35.2336
28.629582511831156 35.3076
28.65256063474956 35.2631
28.675539934446338 35.3502
28.698699951647605 35.241
28.72168161743193 35.1426
28.74466446331978 35.2498
28.767648490417624 35.2348
28.790813276438353 35.1464
28.813799678527303 35.1689
28.836787265157085 35.1027
28.859955641890075 35.1201
28.882945610203045 35.0817
28.905936766392035 34.9965
28.928929111566863 34.8748
28.952102288520145 34.8516
28.975097024308607 34.827
28.998092952423807 34.6545
29.021090073977508 34.5359
29.04426806913204 34.3697
29.067267590245258 34.2677
29.090268308143695 34.3482
29.11327022394099 34.1812
29.13645305530891 34.0558
29.159457379627167 34.0596
29.18246290519685 34.0345
29.20546963313352 33.9477
29.22865731875826 33.8959
29.25166646419296 34.0322
29.27467681535305 33.8611
29.29768837335608 33.9591
29.320880931312562 33.8914
29.34389491580634 33.9089
29.366910110507334 33.8681
29.38992651653503 33.8997
29.41312396492981 33.937
29.436142806456754 33.8127
29.45916286268059 33.6633
29.48236399319994 33.6689
29.50538649169417 33.4594
29.528410208259935 33.2889
29.55143514402014 33.1109
29.574641196749695 32.9906
29.597668583816574 32.9989
29.6206971934585 32.7089
29.64372702680042 32.8726
29.666938019934474 32.7527
29.689970313635285 32.6067
29.713003834422636 32.6781
29.73603858342347 32.5997
29.759254535188578 32.5194
29.78229175361658 32.4378
29.80533020365064 32.6242
29.82836988641968 32.6336
29.85159081507472 32.501999999999995
29.874632976355343 32.4048
29.89767637376955 32.4637
29.920721008448314 32.289
29.9439469322847 32.2836
29.96699405457564 32.1774
29.9900424175358 32.2353
30.013092022298157 32.1272
30.03632295963995 32.0771
30.059375061131373 32.2161
30.08242840783577 32.1083
30.105483000888153 32.1469
30.128718970092244 32.1239
30.151776069006917 32.0434
30.17483441768648 32.2361
30.198074175317235 32.1845
30.221135036724256 32.1788
30.24419715131772 32.1551
30.267260520236203 31.9715
30.290505341942243 32.0932
30.313571232750228 32.0673
30.336638381310948 31.991999999999997
30.35970678876503 31.9186
30.38295669299435 31.9383
30.40602763151657 31.8581
30.429099832366074 31.7483
30.452173296685572 31.6618
30.47542830191959 31.8072
30.498504306502497 31.5847
30.521581577995562 31.735
30.544660117543582 31.8755
30.56792024229725 31.892
30.59100133132069 31.8844
30.614083691845494 31.8399
30.637167325018545 31.8699
30.660432587840603 31.88
30.683518779717886 31.8587
30.70660624769615 31.9025
30.729694992924372 31.8879
30.75296541239743 31.893
30.77605672557558 31.7823
30.799149319462742 31.8499
30.8224236211637 31.6265
30.845518789950724 31.4887
30.868615242910597 31.5553
30.891712981195973 31.3725
30.91499247215866 31.3751
30.938092794619365 31.2118
30.96119440587579 31.2524
30.984297307082752 31.0921
31.00758200598383 31.013
31.030687500658694 30.8567
31.053794288760695 30.8071
31.076902371446767 30.8178
31.100192296997445 30.8694
31.12330298246119 30.7607
31.14641496599209 30.5367
31.169528248749216 30.6237
31.19282341969534 30.5395
31.215939314557186 30.5765
31.239056512134788 30.6534
31.262175013589378 30.5732
31.28547544871168 30.551
31.30859657161541 30.521
31.331719001892175 30.5496
31.35484274070538 30.674
31.378148458819545 30.6316
31.401274828443725 30.5212
31.424402510106933 30.581
31.447712205419993 30.7492
31.470842524931633 30.6257
31.493974159989783 30.5414
31.51710711176168 30.4622
31.54042212308802 30.4179
31.563557722100917 30.47
31.586694641341655 30.2621
31.609832881979628 30.1908
31.63315322823208 30.2528
31.656294125521327 29.9653
31.679436347728515 29.8616
31.70257989602529 29.8513
31.725905596152327 29.8222
31.74905181052835 29.8228
31.772199354521323 29.8653
31.79534822930507 29.9524
31.818679302290967 29.9708
31.84183085259981 29.9627
31.864983737233473 29.8259
31.88813795736804 29.7979
31.911474422233013 29.7731
31.934631327356435 29.8153
31.9577895715215 29.8355
31.980949155906522 29.7019
32.004291031706956 29.7316
32.027453310562606 29.566
32.05061693318573 29.4393
32.07396288236386 29.46
32.09712920658542 29.4326
32.12029687812702 29.254
32.14346589817093 29.1924
32.166817291729984 29.1471
32.18998902288583 29.1715
32.21316210610336 29.0596
32.23633654256711 28.9864
32.259693399663725 28.9324
32.282870556771144 28.8509
32.30604907069099 28.8332
32.329228942610065 28.9202
32.35259128243769 28.7071
32.375773884550505 28.7149
32.398957848235646 28.5975
32.422143174682176 28.5468
32.445511016471215 28.4117
32.468699082679954 28.389
32.49188851523011 28.4426
32.51507931531304 28.3626
32.538452678331 28.2853
32.56164622776311 28.2807
32.58484114831493 28.1985
32.60803744118015 28.2531
32.631416344731896 28.2176
32.654615396551876 28.1869
32.67781582427913 28.0861
32.701198898634416 28.0087
32.72440209253756 27.9641
32.747606665947124 28.021
32.77081262006088 27.8615
32.79420126883317 27.8467
32.81740999876112 27.8589
32.840620112999424 27.7673
32.86383161274818 27.7118
32.88722585534586 27.7339
32.91044014056596 27.7337
32.933655814909734 27.7196
32.95687287957963 27.7463
32.98027273544904 27.6269
33.00349259526636 27.5265
33.026713849030116 27.6052
33.04993649794511 27.5961
33.073341986570746 27.4905
33.09656744032826 27.4275
33.11979429286444 27.4692
33.14302254538647 27.5579
33.166433686291185 27.4694
33.18966475336992 27.3827
33.212897224069096 27.2788
33.23613109959831 27.3854
33.259547912343415 27.3282
33.2827846121627 27.3894
33.306022720453775 27.2153
33.32926223842861 27.1189
33.352684742614166 27.0422
33.37592709463173 27.0248
33.399170859982064 26.9753
33.422597648419426 26.8753
33.44584425514446 26.8634
33.46909227885668 26.7953
33.4923417207723 26.6816
33.51577423505344 26.7114
33.539026528130385 26.6464
33.56228024307245 26.6209
33.585535381098246 26.5047
33.60897364093058 26.5131
33.63223163992385 26.4692
33.6554910656699 26.3846
33.678751919389796 26.4005
33.702195944520106 26.2891
33.72545966903325 26.3062
33.74872482519663 26.2261
33.771991414233746 26.3162
33.79544122444841 26.1465
33.81871069412428 26.1287
33.84198160035767 26.1292
33.86525394437455 26.0569
33.88870955949969 25.9646
33.911984794020626 26.0466
33.93526147001624 25.9889
33.958539588715006 25.884
33.98200102861669 25.7817
34.0052820477047 25.8286
34.02856451319451 25.8576
34.05203033759056 25.7267
34.07531571090147 25.7561
34.09860253431845 25.7019
34.121890809074316 25.5471
34.145362493118924 25.6419
34.16865368561615 25.6386
34.191946333164054 25.500999999999998
34.21524043699793 25.4778
34.23871800066799 25.4596
34.26201503218366 25.3966
34.28531352370466 25.3756
34.30861347646881 25.2645
34.33209693978188 25.2724
34.3553998301885 25.3158
34.378704185565205 25.2635
34.402010007152356 25.2233
34.42549939016683 25.2134
34.44880815937748 24.9829
34.472118398533134 24.9554
34.49543010887669 25.0439
34.51892543169198 24.8993
34.54224009966052 24.8456
34.56555624255917 24.8731
34.58887386163339 24.7604
34.61237514439016 24.7714
34.6356957311114 24.7329
34.65901779775809 24.7113
34.68252356662995 24.6341
34.705848608458616 24.6374
34.72917513396849 24.5652
34.75250314440949 24.5513
34.77601490857862 24.5682
34.799345904259795 24.4111
34.82267838863559 24.4267
34.846012362958525 24.4304
34.869530142679984 24.3943
34.89286711232212 24.3841
34.91620557568269 24.3301
34.93954553401677 24.3023
34.9630693495876 24.331999999999997
34.986412313340814 24.3206
35.00975677584668 24.247
35.033102738362956 24.1244
35.05663261012228 24.0754
35.0799815881786 24.0458
35.10333207003229 24.0894
35.12668405694369 24.0645
35.150220005273056 23.9325
35.17357501786656 24.087
35.19693153931268 23.986
35.220289570874385 23.9161
35.24383161619786 23.8759
35.267192683604904 23.9291
35.290555264930376 23.8897
35.314101899412165 23.816
35.33746752422433 23.7246
35.36083466676374 23.7979
35.38420332829803 23.6616
35.407756095629054 23.7747
35.43112781085063 23.6852
35.45450104888391 23.6774
35.477875810999194 23.7451
35.50143473172161 23.5767
35.52481255774625 23.6708
35.54819191167777 23.5635
35.57157279478914 23.5403
35.595137889488406 23.523000000000003
35.61852184675279 23.4416
35.641907337029984 23.4034
35.665294361595684 23.3168
35.68886565090076 23.2116
35.7122557598848 23.3454
35.73564740699838 23.2825
35.759040593519934 23.2335
35.78261809810353 23.1687
35.80601437933051 23.1687
35.829412203814705 23.1163
35.85281157283719 23.0115
35.876395313415884 23.0353
35.8997977874528 23.0523
35.92320180988546 22.9969
35.946790244133936 22.8889
35.97019737933222 22.8297
35.993606066789866 22.8815
36.01701630779276 22.9065
36.04061101440684 22.7842
36.06402437852291 22.8384
36.08743930005611 22.785
36.1108557802951 22.7048
36.13445678011326 22.6255
36.15787639383515 22.596
36.18129757014299 22.5775
36.20472031032821 22.519000000000002
36.22832762423364 22.4699
36.25175350829375 22.4869
36.275180960119776 22.3959
36.298609981005924 22.4469
36.32222362992669 22.4337
36.34565580510207 22.4055
36.36908955323448 22.3915
36.39252487562093 22.2531
36.416144880530226 22.2477
36.43958336764275 22.1847
36.463023432914625 22.1884
36.486465077645676 22.0838
36.51009145956204 22.1794
36.53353627947859 22.1838
36.55698268276811 22.1025
36.58043067073321 22.0284
36.60406345072071 22.0063
36.62751462435344 21.9867
36.65096738658405 21.9466
36.67460498210655 21.8658
36.69806093788647 21.8788
36.72151848619297 21.7321
36.744977628333636 21.8502
36.76862165890998 21.7355
36.79208400512205 21.691999999999997
36.81554794910557 21.7549
36.83901349217101 21.6638
36.862663978991606 21.6554
36.88613273667352 21.6294
36.90960309738324 21.5823
36.933075062434064 21.5448
36.95673202673572 21.4827
36.98020721697122 21.44
37.003684015502365 21.3553
37.027162423645365 21.348000000000003
37.050825886711465 21.2644
37.07430753063053 21.2753
37.09779078812467 21.2427
37.121275660513014 21.2829
37.144945643673694 21.2122
37.16843376245278 21.1653
37.19192350009803 21.16
37.215414857931435 21.1143
37.239091382563885 21.0474
37.262585997426164 21.0636
37.28608223645736 21.0392
37.309763684451696 21.076
37.33326318851098 20.9794
37.356764320726555 20.9362
37.380267082425526 20.9131
37.40395510942588 20.8459
37.42746114683234 20.8397
37.45096881771841 20.6904
37.474478123414166 20.6923
37.49817275092816 20.7107
37.52168534303452 20.7283
37.54519957395567 20.676
37.568715445024665 20.6641
37.592416694607714 20.6176
37.61593586281424 20.6681
37.63945667518264 20.6048
37.66297913304891 20.4526
37.68668702630454 20.4547
37.710212792059274 20.4314
37.733740207334854 20.3518
37.757269273470364 20.3254
37.780983832050374 20.3093
37.80451621684926 20.3331
37.82805025654007 20.2744
37.851585952464795 20.2296
37.8753071980695 20.1737
37.89884622345676 20.1337
37.92238690911902 20.0814
37.94611318753442 20.0379
37.969657210779765 20.0612
37.99320289834801 20.0675
38.016750251586465 19.9494
38.04048325513017 19.9535
38.06403395679343 19.9554
38.087586328183946 19.8978
38.11114037065203 19.9383
38.13488012115898 19.9239
38.1584375229181 19.8324
38.181996599821 19.7625
38.205557353221124 19.7094
38.229303872575656 19.7128
38.2528679961576 19.7303
38.27643380031219 19.6219
38.30000128639589 19.6394
38.32375459653193 19.6683
38.34732546371299 19.64
38.37089801690786 19.5293
38.39447225747609 19.4874
38.418232380377425 19.4104
38.441810012983396 19.4261
38.46538933705673 19.389
38.488970353960084 19.3922
38.51273731166058 19.3351
38.536321731567014 19.3296
38.55990784840681 19.3073
38.58367995004091 19.2317
38.60726947812959 19.1994
38.63086070726198 19.2223
38.654453638806274 19.1986
38.678232613930824 19.1398
38.70182896773327 19.1051
38.72542702806741 19.0184
38.7490267963045 19.0506
38.77281266709232 19.0153
38.79641586862214 18.9868
38.8200207821842 19.0072
38.843627409152944 18.9812
38.86742019782782 18.8946
38.891030269149255 18.8274
38.914642058016156 18.8878
38.938255565806124 18.8468
38.96205529464307 18.791
38.98567225787121 18.7284
39.00929094417078 18.706
39.03291135492255 18.7119
39.05671804624804 18.6532
39.080341923549106 18.6215
39.103967529460334 18.6064
39.127594865365744 18.5475
39.15140854155791 18.5196
39.17503935514948 18.5062
39.19867190290282 18.4973
39.22249083587951 18.4138
39.24612686969409 18.4092
39.269764641845306 18.3769
39.293404153722804 18.396
39.317230110864074 18.2659
39.34087311998506 18.2486
39.36451787301696 18.3198
39.388164371352595 18.2353
39.41199737518003 18.2187
39.43564738196752 18.2011
39.45929913825317 18.1776
39.48295264543308 18.1613
39.506792718520884 18.0615
39.530449745387216 18.0925
39.55410852735203 18.0706
39.57776906581474 18.0351
39.60161623079 17.9901
39.625280300200025 17.958
39.64894613032202 17.916
39.67261372255866 17.8588
39.6964680021016 17.8888
39.72013913657293 17.8389
39.74381203738292 17.829
39.76748670593756 17.8128
39.79134812278169 17.8715
39.81502634488497 17.7684
39.83870633896685 17.6881
39.862388106436654 17.7026
39.88625668336918 17.6569
39.90994201572829 17.6558
39.933629125719285 17.5524
39.957503091207826 17.5091
39.9811937746168 17.5901
40.00488623990914 17.5651
40.02858048850006 17.467
40.05246165409549 17.4262
40.076159487492085 17.3012
40.099859108448875 17.3958
40.123560518384345 17.3622
40.1474489070226 17.326
40.171153913178564 17.2766
40.194860712584955 17.2876
40.2185693066637 17.2394
40.242464941335314 17.258
40.26617714307655 17.2141
40.289891143772046 17.1897
40.3136069448471 17.1716
40.33750984859743 17.101
40.3612292688043 17.0493
40.3849504936829 17.0459
40.40867352466194 16.972
40.43258372059144 16.9629
40.45631038219906 17.0159
40.48003885420956 16.9297
40.503769138055105 16.9055
40.52768664931955 16.9409
40.55142057531802 16.9068
40.57515631746428 16.8813
40.599079334038514 16.8037
40.62281872700477 16.7971
40.64655994043941 16.721
40.67030297578061 16.6849
40.69423334835778 16.6884
40.71798004609188 16.6833
40.74172857006355 16.6388
40.76547892171441 16.6651
40.7894166736039 16.6117
40.813170699248566 16.5718
40.83692655691388 16.5012
40.86068424804498 16.5781
40.884629402612525 16.4903
40.908390779366385 16.5316
40.932153993938 16.4621
40.95591904777605 16.42
40.979871628443995 16.3991
41.003640379561936 16.4133
41.02741097430883 16.3661
41.05118341413683 16.3469
41.075143444384416 16.3215
41.098919593177826 16.2788
41.1226975914255 16.2636
41.14647744058318 16.2379
41.170444943946755 16.1488
41.19422851378379 16.1972
41.218013938914645 16.135
41.24198706625173 16.0835
41.26577622087193 16.1055
41.289567235177785 16.0405
41.31336011063129 16.0217
41.337340752422875 16.0435
41.361137369129835 15.9899
41.38493585138705 16.0086
41.40873620066004 15.921
41.43272438060107 15.9539
41.45652848292052 15.889000000000001
41.48033445666918 15.8399
41.50414230331616 15.8168
41.528138045159764 15.7746
41.551949656675205 15.7843
41.575763145513235 15.7365
41.59957851314666 15.7242
41.62358184070442 15.6525
41.64740098505737 15.6767
41.6712220126409 15.6614
41.69504492493139 15.6077
41.71905586207357 15.5591
41.74288256296395 15.6181
41.766711153007456 15.5452
41.79054163368412 15.4861
41.814560204340054 15.5471
41.838394485526365 15.4849
41.86223066180303 15.412
41.88625497706819 15.3814
41.910094962812 15.3793
41.93393684811168 15.2867
41.95778063445365 15.2927
41.981812625263366 15.3284
42.00566023303407 15.3069
42.029509746323676 15.2533
42.05336116662236 15.1805
42.077400857069705 15.2264
42.10125611078846 15.1713
42.12511327600405 15.097999999999999
42.14897235421036 15.1175
42.173019768448455 15.0991
42.19688269209613 15.0562
42.22074753323349 15.0616
42.24461429335818 14.9987
42.268669455600495 15.0372
42.292540073217886 15.0174
42.31641261433284 14.9896
42.34028708044675 14.9036
42.36435001496739 14.865
42.38822835065557 14.905
42.41210861586426 14.8661
42.4359908120986 14.8454
42.46006154323262 14.8314
42.48394762115317 14.7601
42.507835634632315 14.7424
42.531912233047436 14.7233
42.55580413732265 14.7011
42.579697981698 14.6829
42.60359376768525 14.6346
42.62767820545945 14.600999999999999
42.65157789440821 14.5946
42.67547952952185 14.6081
42.699383112316 14.5776
42.72347541395347 14.5424
42.74738291190531 14.4638
42.771292362102166 14.4853
42.795203766063516 14.4678
42.819303956130405 14.4279
42.843219287476536 14.3651
42.86713657716324 14.3809
42.89105582671383 14.3211
42.91516392983864 14.3283
42.939087119032166 14.3072
42.963012272677304 14.2479
42.98693939230129 14.2036
43.01105543317513 14.2293
43.034986504731386 14.1726
43.05891954686589 14.1589
43.08285456110972 14.1535
43.10697856448665 14.1342
43.130917542983475 14.0481
43.15485849820081 14.0876
43.17880143167367 14.0026
43.20293342237094 14.0564
43.226880332449 13.9589
43.25082922540554 13.981
43.27496722682525 13.9629
43.29892010567796 13.8963
43.32287497204102 13.9304
43.34683182745632 13.8573
43.370977859791836 13.8262
43.39493871351105 13.8198
43.41890156092628 13.8273
43.44286640358341 13.8042
43.46702049182749 13.7396
43.49098934522816 13.747
43.51496019852649 13.729000000000001
43.5389330532723 13.7205
43.56309522248204 13.66
43.58707210044314 13.6544
43.61105098451946 13.5846
43.63503187626491 13.5987
43.659202151562134 13.5636
43.68318707902681 13.5628
43.70717401884041 13.5307
43.731162972560874 13.4835
43.75534137913236 13.4367
43.779334381108384 13.4409
43.803329401683186 13.4697
43.82732644241872 13.4255
43.8515130055166 13.3711
43.87551410707659 13.3327
43.89951723350145 13.3736
43.923709934595614 13.3049
43.94771713129917 13.2787
43.97172635758096 13.2253
43.99573761501002 13.2772
44.0199385169922 13.2599
44.04395385732619 13.1743
44.067971233533086 13.2443
44.09199064718605 13.2211
44.11619977548961 13.129000000000001
44.14022328470671 13.1612
44.16424883610785 13.1208
44.18827643127035 13.0469
44.21249381139513 13.0444
44.236525514814076 13.0214
44.26055926674478 13.026
44.28459506876863 13.0304
44.3088207262813 12.9721
44.33286064928722 12.8961
44.35690262714919 12.9481
44.38094666145278 12.8937
44.4051806219871 12.9378
44.42922879003185 12.8757
44.45327901929361 12.8316
44.477331311362136 12.8253
44.501573600619416 12.783
44.525630039221795 12.7506
44.54968854541895 12.7137
44.573937102200176 12.7451
44.5979997645541 12.6976
44.622064499300315 12.6877
44.64613130803592 12.6199
44.67038823869318 12.6704
44.69445921643748 12.6136
44.718532272981385 12.5837
44.742607409926194 12.5694
44.76687274034801 12.5058
44.79095205918753 12.4822
44.81503346325094 12.4903
44.839116954143876 12.4721
44.86339071028742 12.4513
44.88747839599524 12.4364
44.91156817336837 12.4653
44.93566004401666 12.4211
44.959942251908146 12.3212
44.984038330325966 12.3307
45.00813650686762 12.2939
45.03223678314731 12.3495
45.05652746888232 12.2828
45.08063196592069 12.2423
45.104738567558705 12.2056
45.128847275414856 12.1898
45.15314646515866 12.1395
45.17725940679741 12.1409
45.20137445952892 12.1369
45.22568004865265 12.0849
45.24979934496396 12.0865
45.27392075725247 12.0798
45.29804428714431 12.0772
45.322358426247604 12.0674
45.346486212804315 12.0504
45.370616121861914 12.0412
45.39474815505086 11.9784
45.41907087049246 11.9106
45.4432071734666 11.9057
45.46734560548283 11.9589
45.49148616817604 11.9152
45.51581748638564 11.8908
45.5399623320197 11.8331
45.56410931325473 11.8076
45.58825843173002 11.7906
45.61259837920865 11.7553
45.636751793816 11.7819
45.66090735060093 11.7546
45.68506505120716 11.7096
45.7094136545275 11.6949
45.73357566449271 11.6295
45.75773982322992 11.6224
45.78190613238733 11.6414
45.806263418194064 11.624
45.83043404997326 11.5974
45.85460683713677 11.5969
45.87897065658495 11.5576
45.90314777634752 11.5422
45.92732705646868 11.5442
45.9515084986045 11.4861
45.97588104735473 11.4832
46.00006683541565 11.4263
46.02425479047904 11.4194
46.04844491420549 11.4235
46.0728262191024 11.4048
46.09702070211635 11.3972
46.12121735879483 11.321
46.14541619080294 11.3495
46.169806278764455 11.3019
46.194009483459034 11.2996
46.21821486849841 11.2694
46.24242243555223 11.2702
46.266821333570014 11.2168
46.29103328674601 11.1962
46.31524742696538 11.247
46.33946375590237 11.190999999999999
46.36387149104216 11.1529
46.38809221957392 11.107999999999999
46.41231514186606 11.1331
46.436540259597464 11.0671
46.460956858999374 11.0158
46.48518638983522 11.0154
46.509418121166966 11.0218
46.533652054678114 11.0493
46.55807754555709 10.9537
46.58231590571962 10.9381
46.60655647313217 10.9377
46.630988654873654 10.9169
46.655233659129024 10.9354
46.67948087571551 10.8801
46.70373030632484 10.8792
46.72817142736393 10.8702
46.752425308428684 10.815
46.77668140861147 10.805
46.80093972960865 10.7616
46.82538981736788 10.7888
46.849652602470904 10.7285
46.87391761349769 10.7281
46.8981848521493 10.7442
46.9226439341274 10.7035
46.946915650573224 10.65
46.97118959976749 10.6398
46.99546578341598 10.5908
47.019933887188216 10.5986
47.04421456235744 10.6041
47.06849747711879 10.5863
47.09278263318286 10.5646
47.11725978640143 10.5379
47.14154944775105 10.5004
47.165841355555656 10.4613
47.1901355115306 10.4611
47.214621741924994 10.4541
47.23892041698887 10.4418
47.26322134538975 10.408
47.28771440635075 10.3655
47.31201986422527 10.4099
47.33632758061436 10.3699
47.360637557241866 10.3261
47.38513974410611 10.3122
47.40945426407847 10.282
47.43377104948137 10.2857
47.45809010204344 10.2831
47.48260144275502 10.2279
47.506925052572285 10.2285
47.53125093475548 10.1904
47.55557909103813 10.1586
47.58009961361992 10.1428
47.60443234110732 10.1675
47.62876734791564 10.1571
47.65310463578333 10.0992
47.6776343683373 10.091000000000001
47.7019762413987 10.0782
47.72632040075572 10.0546
47.75066684815169 10.0252
47.77520581885936 9.99227
47.799556865477655 9.97994
47.823910205386 9.9674
47.84826584033272 9.91819
47.87281407745551 9.91083
47.89717432569297 9.92657
47.92153687423484 9.884
47.94609208429692 9.894110000000001
47.97045925671401 9.88378
47.99482873471275 9.84223
48.01920052005013 9.8268
48.04376504619224 9.808769999999999
48.068141469543484 9.82996
48.09252020552573 9.77712
48.11690125590099 9.75402
48.1414751266064 9.74135
48.16586082917454 9.72738
48.19024885144316 9.67735
48.2146391951793 9.67489
48.239222439012764 9.7243
48.26361744916137 9.657060000000001
48.28801478610016 9.62986
48.31241445160131 9.62065
48.337007097209366 9.6082
48.36141144338331 9.5706
48.38581812345755 9.52737
48.41022713920929 9.56061
48.434829215320704 9.53486
48.45924292604658 9.54299
48.48365897780325 9.5601
48.50807737237308 9.5009
48.532688907799276 9.46676
48.55711201168574 9.466289999999999
48.581537463754074 9.43925
48.60615611725119 9.43402
48.63058628942721 9.41976
48.65501881516546 9.37759
48.6794536962573 9.34105
48.70408185970339 9.3729
48.72852147531801 9.322980000000001
48.75296345168211 9.290980000000001
48.77740779059232 9.27612
48.80204549302823 9.30279
48.82649458091802 9.28008
48.85094603676547 9.283560000000001
48.87539986237231 9.205910000000001
48.90004713292306 9.183530000000001
48.92450572200832 9.19313
48.94896668628025 9.155330000000001
48.97343002754588 9.170760000000001
48.99808689542115 9.12907
49.02255501470614 9.14602
49.04702551642794 9.11852
49.0714984023988 9.06048
49.096164896893235 9.09888
49.120642575466796 9.054310000000001
49.145122643748394 9.013589999999999
49.16960510355558 9.01728
49.19428125404938 9.004610000000001
49.2187685210852 8.9908
49.243258185121555 8.957139999999999
49.26794160167084 8.97456
49.2924360839405 8.90997
49.31693296869764 8.91108
49.34143225776915 8.89211
49.36612538195438 8.81913
49.39062950396021 8.87513
49.41513603578346 8.813239999999999
49.4396449792564 8.79583
49.46434784069503 8.82302
49.488861631846454 8.78164
49.513377840166804 8.80032
49.537896467493745 8.7336
49.56260909589029 8.709019999999999
49.587132585683285 8.7299
49.611658500018365 8.70842
49.636186840738596 8.66399
49.66090926588511 8.67821
49.685442483902584 8.62495
49.70997813385706 8.60623
49.734516217597076 8.6218
49.75924846937352 8.6308
49.7837914452858 8.56533
49.80833686055187 8.55026
49.83288471702571 8.52475
49.85762682540054 8.54647
49.882179588965734 8.52111
49.9067347993235 8.45852
49.93129245833333 8.48638
49.95604445336378 8.462489999999999
49.98060703442832 8.429839999999999
50.005172069746266 8.423960000000001
50.02993150438364 8.3997
50.05450147301533 8.41514
50.07907390151433 8.40488
50.10364879174981 8.37786
50.12841816587289 8.34849
50.1529980044635 8.33897
50.17758031042124 8.32519
50.20216508562089 8.32382
50.22694442953363 8.32403
50.25153416817468 8.278880000000001
50.27612638170508 8.27009
50.300721072005196 8.21089
50.325510416102105 8.24813
50.350110084975064 8.23215
50.37471223628208 8.21851
50.39931687190919 8.20315
50.424116246675766 8.187510000000001
50.44872587605249 8.15754
50.47333799543065 8.13996
50.49795260670191 8.13804
50.52276204271512 8.111189999999999
50.54738166295838 8.08762
50.57200378079314 8.062339999999999
50.596628398116835 8.03538
50.62144792604559 8.048680000000001
50.646077567609396 8.04102
50.670709714377715 8.02769
50.69553683636198 8.00041
50.72017401885922 8.006789999999999
50.7448137122895 7.9690199999999995
50.76945591856022 7.9732899999999995
50.79429318636823 7.96865
50.818940443716784 7.9045
50.84359021965163 7.89352
50.868242516085964 7.9097800000000005
50.893089960641895 7.882619999999999
50.917747323549435 7.86892
50.94240721271973 7.869560000000001
50.96706963007175 7.8211
50.99192728239342 7.8364199999999995
51.01659478166073 7.84002
51.04126481489051 7.76461
51.06593738400761 7.75506
51.090805275207074 7.73197
51.11548294172845 7.738580000000001
51.14016314993547 7.766589999999999
51.164845901758845 7.72699
51.18972406304274 7.69596
51.21441192780656 7.68549
51.23910234200271 7.63485
51.2637953075678 7.6443
51.288683770237945 7.60837
51.31338186432707 7.5635699999999995
51.33808251561888 7.57567
51.362978729967345 7.58535
51.387684521509755 7.54287
51.41239287610203 7.5336
51.437103795691165 7.53465
51.46201036644977 7.48755
51.486726441956634 7.49275
51.51144508832545 7.51545
51.536166307509156 7.472580000000001
51.56108326624387 7.44135
51.58580965706056 7.46231
51.61053862657523 7.424589999999999
51.635270176746864 7.404210000000001
51.66019755512065 7.40405
51.68493429268881 7.36892
51.70967361681515 7.364839999999999
51.73441552946465 7.37978
51.759353359237934 7.37321
51.7841004750961 7.32516
51.80885018539685 7.322839999999999
51.833602492111254 7.306760000000001
51.8585508051424 7.29405
51.883308330926425 7.30624
51.90806845906181 7.2504800000000005
51.932831191525715 7.2228
51.95779001977161 7.21794
51.98255798721516 7.18668
52.00732856494335 7.21207
52.03229530577543 7.1484
52.057071130455945 7.1302
52.081849571391054 7.1532
52.106630630568695 7.14054
52.13160794279417 7.094110000000001
52.15639426492067 7.0991
52.18118321127822 7.095619999999999
52.205974783860896 7.0567899999999995
52.23096269971011 7.03927
52.255759551287994 7.04243
52.280559035098186 6.99948
52.30536115314103 7.006069999999999
52.33035970494467 6.99835
52.35516711807904 7.0019800000000005
52.37997717147198 6.97854
52.40478986713005 6.97912
52.42979908731974 6.913530000000001
52.454617094216 6.91028
52.47943774942214 6.894419999999999
52.50426105495102 6.91205
52.529280976059844 6.87575
52.554109609024096 6.849880000000001
52.57894089837482 6.85496
52.60377484613117 6.8494600000000005
52.62880550079408 6.8051
52.65364479223379 6.77007
52.67848674816189 6.79754
52.70352547971946 6.7957600000000005
52.72837279155837 6.714110000000001
52.753222773982785 6.70643
52.778075429022984 6.73279
52.80312495150885 6.7238
52.827982978797436 6.698239999999999
52.85284368481815 6.68301
52.87770707160767 6.680910000000001
52.90276741793998 6.69119
52.92763619336701 6.648810000000001
52.952507655698504 6.60615
52.977381806977576 6.591760000000001
53.00245301017842 6.59678
53.02733256653592 6.61302
53.052214817996074 6.5933
53.077099766608484 6.575489999999999
53.102181859804446 6.548030000000001
53.127072229988265 6.55233
53.15196530349892 6.495
53.17686108239249 6.47759
53.20195409881522 6.486000000000001
53.22685531582556 6.47234
53.25175924441303 6.47558
53.27666588664027 6.4656199999999995
53.30176985962693 6.466080000000001
53.3266819565689 6.39038
53.35159677336455 6.38427
53.376514312083096 6.380319999999999
53.40162927507703 6.36492
53.42655228516116 6.37651
53.45147802340193 6.39069
53.47660125628886 6.36383
53.50153247842639 6.3653699999999995
53.52646643496923 6.36682
53.55140312799818 6.3416
53.576537409691696 6.3032
53.60147960336152 6.27435
53.626424539786164 6.27698
53.65137222105307 6.23376
53.67651758529126 6.23931
53.70147078399681 6.20034
53.72642673383343 6.23745
53.75138543689533 6.22803
53.776541917524526 6.24554
53.801506154876755 6.18264
53.826473151763246 6.1904900000000005
53.851442910284916 6.12881
53.87661054126026 6.07733
53.9015858509782 6.10039
53.92656392866066 6.11475
53.95154477641532 6.0923099999999994
53.976723591801296 6.09576
54.00171000771266 6.0479400000000005
54.02669920004598 6.02685
54.051691170915745 6.05121
54.076881204886796 6.037999999999999
54.101878760928514 6.02308
54.12687910187696 5.99448
54.152077577768296 5.979
54.1770835166946 5.95386
54.20209224691339 5.93386
54.22710377055121 5.9377699999999995
54.25231352511594 5.90508
54.27733066384342 5.89691
54.30235060239643 5.87622
54.32737334290836 5.84514
54.35259441062629 5.79387
54.377622783395324 5.82291
54.40265396455061 5.85919
54.42768795623251 5.844040000000001
54.45292037169559 5.79922
54.477960012857906 5.7918199999999995
54.50300247099511 5.7481
54.52804774825457 5.78811
54.55329154616743 5.76013
54.57834249018678 5.722659999999999
54.6033962597977 5.68851
54.6284528571545 5.62817
54.653708072335164 5.6087
54.67877035378786 5.60493
54.70383546947698 5.59015
54.72890342156389 5.56155
54.7541700889442 5.54248
54.77924374251975 5.52581
54.8043202390049 5.5268
54.82959552413022 5.510619999999999
54.8546777351945 5.45714
54.87976279569621 5.46361
54.90485070780914 5.50802
54.930137506558005 5.4284
54.95523115074295 5.48244
54.98032765308844 5.40156
55.005427015775496 5.40944
55.03072536339621 5.35734
55.05583047570572 5.25364
55.080938454927676 5.2651
55.10604930325027 5.26926
55.131359235107396 5.29231
55.15647585066083 5.25478
55.181595341907496 5.23389
55.20671771104285 5.19606
55.232039262617704 5.15521
55.25716741665048 5.120430000000001
55.28229845518636 5.15497
55.30743238042802 5.08306
55.33276558731939 5.0841
55.357905315183636 5.07987
55.383047936390035 5.0159199999999995
55.40819345314859 4.98586
55.433538351073295 4.98501
55.458689688238415 5.02007
55.483843927614096 4.95458
55.509197623043605 4.96897
55.53435769621134 4.899369999999999
55.55952067826466 4.8368
55.5846865714265 4.8442099999999995
55.61005202069737 4.88108
55.63522376553902 4.86828
55.66039842818645 4.81665
55.68557601087004 4.814369999999999
55.7109532500271 4.75092
55.73613670233794 4.782030000000001
