TT I
1.2716486653135266 7.19809
1.2939594142134223 7.17519
1.3162702121660406 6.960489999999999
1.3385810600174564 6.9109300000000005
1.3608919586137629 6.85371
1.383202908801069 6.113230000000001
1.405513911425503 6.06693
1.4278249673332093 5.9413800000000005
1.4501343378461518 6.25929
1.4724455028545926 5.9747
1.4947567236847858 6.22468
1.517068001182951 6.0737
1.5393793361953272 5.61295
1.5616907295681737 4.60452
1.5840021821477681 5.51422
1.60631369478041 5.19517
1.6286252683124185 4.63928
1.6509369035901333 4.529380000000001
1.6732468618895553 4.941669999999999
1.695558623192809 4.65069
1.7178704487808514 5.14496
1.7401823395001077 4.88743
1.7625012545597203 5.01928
1.7848028405262486 4.48013
1.8071218901122095 4.3148
1.8294236121921872 5.0342199999999995
1.8517427996910911 4.58499
1.8740620574440425 4.6487
1.8963639900671978 5.028519999999999
1.9186833908139995 4.04561
1.9409854680117449 4.02551
1.9633050151394713 4.6687
1.9856246367570705 5.0111300000000005
2.0079269371922672 4.651730000000001
2.03024671027244 4.75265
2.0525491637446027 4.58292
2.074869091674931 4.65511
2.097171701569106 4.55368
2.1194917877373847 5.21276
2.141811954326636 5.22773
2.164114805233074 5.256869999999999
2.186435135143035 5.94881
2.208738150935709 15.1033
2.231058647554722 31.0351
2.2533792288321184 23.8685
2.275682498336085 11.2313
2.298003251406138 6.30703
2.3203066942619714 5.7846400000000004
2.3426276225136022 5.68497
2.3649486396617507 6.5974699999999995
2.387252348930071 6.64084
2.4095735463442893 6.27482
2.4318774374315884 6.8946
2.4541988185014043 6.859939999999999
2.476502894794693 7.5776699999999995
2.498824462909887 7.64047
2.521146125856138 7.623810000000001
2.5434504863470337 8.0288
2.5657723414244717 8.75893
2.588076895590662 8.44081
2.610398946189713 8.932739999999999
2.6327210958598384 8.60825
2.6550259469304716 8.39617
2.6773482972090137 8.39901
2.6996533504259 8.60758
2.7219759047039602 8.811069999999999
2.744298562293959 9.240110000000001
2.7666039251246595 8.34945
2.7889267918020164 8.33504
2.8112323652516555 8.72862
2.833555444408179 9.08998
2.8558786311183852 8.4885
2.8781845268938557 9.02159
2.9005079311721484 9.04676
2.9228140460410397 9.55209
2.9451376712799635 9.56155
2.967444008632326 10.3257
2.9897678582247247 10.5146
3.0120918213106695 10.8293
3.0343984987899373 11.1274
3.0567226913198637 11.2683
3.079029599759726 11.9242
3.101354025127254 12.5233
3.123678568232338 14.0632
3.145985829517914 12.8151
3.16831061055229 13.8055
3.1906181112775593 14.0983
3.212943133635653 14.8383
3.2352682779763207 15.375
3.2575761442691227 15.4592
3.2799015350264273 15.4137
3.302209649240067 16.5206
3.3245352898092655 16.7799
3.3468436553365257 17.1956
3.369169549113219 17.6857
3.3914955708171384 18.4712
3.413804319727358 18.9348
3.4361305997334863 19.1981
3.4584396084414553 19.6472
3.4807661501462652 20.3788
3.503092824025881 20.9132
3.5254022288463154 21.1064
3.5477291695206588 21.6481
3.5700388426251948 22.3725
3.5923660534916446 23.8205
3.6146934007816114 39.6553
3.637003482731501 94.6583
3.6593311053109985 107.681
3.681641464033634 61.5937
3.7039693653009733 31.3015
3.726297407241705 26.1181
3.7486081875460804 25.4331
3.7709365132734978 25.5814
3.793247578841633 26.0849
3.8155761917550093 26.857
3.8378875459837216 27.2807
3.8602164494827234 27.4895
3.882545499606844 28.1707
3.9048572932539183 28.6877
3.9271866390645718 28.5183
3.9494987298666713 29.2789
3.971828374764527 29.7716
3.9941581705403255 30.2234
4.016470713506008 31.0961
4.038800813471445 31.936999999999998
4.061113662089144 32.4437
4.0834440696459176 32.8314
4.105774632334751 33.2118
4.128087945865126 34.3667
4.150418821249301 35.3037
4.172732448931298 36.4085
4.195063640413578 38.4078
4.2173775856475215 42.6238
4.239709096631102 76.0449
4.262040768704612 256.553
4.284355196706267 352.79900000000004
4.306687193387355 231.36900000000003
4.329001947444346 86.8096
4.35133427213731 48.2259
4.373666762177566 43.8364
4.395982011761091 44.0062
4.418314834921175 45.5039
4.44063041906622 53.6191
4.4629635787515625 66.314
4.4852969080429785 66.0947
4.5076130004776225 54.4433
4.529946671403969 49.3423
4.552263106909177 49.3262
4.574597122877047 50.4918
4.596931312711224 51.7817
4.619248269273446 52.3763
4.6415828092605835 53.2186
4.663900117405352 54.4025
4.686235010953232 55.8008
4.708552674085913 56.7757
4.730887924602802 58.1378
4.753223354952695 59.7887
4.775541557023902 61.3731
4.797877349456786 62.6313
4.820195915032126 64.5631
4.842532072957498 66.0868
4.864868414979744 67.6248
4.88718753227192 69.1232
4.909524244902505 71.5407
4.931843734218147 73.3151
4.954180820867835 75.4295
4.976518095879839 77.9372
4.998838149695359 80.7573
5.021175803844231 84.0547
5.043496238205739 86.4865
5.065834274903528 90.706
5.088172504230693 95.2
5.1104935158799565 100.465
5.132832132875765 121.154
5.155153533596801 163.634
5.1774925416746225 192.19400000000002
5.199814334878411 269.73900000000003
5.2221537374521505 718.637
5.244493338631803 2278.71
5.266815727034316 7333.11
5.289155727832427 13386.9
5.311478517248165 9051.38
5.333818921080011 2781.85
5.356159527788849 511.23800000000006
5.3784829252032536 172.576
5.400823940070432 137.065
5.423147747031976 123.431
5.445489173474152 115.21
5.467830807066149 109.744
5.490155234831516 106.54799999999999
5.512497285125229 102.515
5.534822130975162 101.23899999999999
5.557164601388673 99.45100000000001
5.579489868738879 96.8978
5.601832762690846 96.1881
5.6241758697774475 95.2912
5.646501775867269 94.3903
5.668845311622074 92.4268
5.691171647754637 91.5649
5.713515615597765 90.7252
5.735859800852677 89.5783
5.758186788542988 89.1182
5.780531411018185 88.7895
5.802858837297399 88.4356
5.825203900414495 88.2524
5.8475491852224 88.2474
5.869877275883075 88.7409
5.892223006467101 89.5387
5.914551544266608 90.458
5.936897724049891 91.5238
5.959244129804903 95.2922
5.981573344815301 106.57700000000001
6.0039202049061 165.16400000000002
6.026249875609095 344.994
6.04859719346037 770.6410000000001
6.070927323278297 2054.69
6.093275102315365 4604.15
6.115623113320588 5344.28
6.137953938319995 3236.77
6.160302415650845 923.8710000000001
6.182633708324452 216.507
6.2049826554078376 108.741
6.227331838745022 88.7858
6.249663839443684 82.7326
6.27201349767565 80.5937
6.294345974611799 87.9424
6.316696111167083 101.635
6.339046488263839 95.9694
6.361379686074702 79.693
6.383730546639482 71.1126
6.406064229255215 67.8902
6.428415576718203 67.1126
6.450749747566656 66.5315
6.47310158535871 64.7962
6.495453669698332 64.3239
6.517788579421056 63.6049
6.540141159237969 62.8755
6.562476565766648 62.3445
6.5848296444934045 61.9137
6.607182974060425 61.4287
6.6295191323281015 61.8852
6.651872965955752 65.6249
6.6742096296068985 93.6222
6.6965639707294615 145.063
6.71891856698715 146.894
6.741255995248479 98.7424
6.763611104154477 68.7204
6.785949046381137 59.865
6.808304671371482 58.089
6.8306605557940046 57.4233
6.852999275508618 56.3085
6.875355681171544 55.9485
6.897694923437771 55.9562
6.92005185377892 55.9712
6.9423916220322655 55.5936
6.964749080490181 55.0867
6.987106804399774 54.7433
7.009447368180821 54.8777
7.031805625367033 54.9984
7.054146723727803 54.9934
7.076505517631004 54.4286
7.098864581288365 54.4486
7.121206488070854 54.2028
7.143566093607822 53.6433
7.165908543567245 54.3747
7.188268694426048 54.693000000000005
7.2106291193438095 54.695
7.232972390625943 56.4735
7.255333366030969 70.6977
7.277677189091925 130.944
7.300038718428332 185.333
7.322400526130865 154.752
7.344745183422596 93.7065
7.367107550224791 62.7562
7.389452767901992 56.1079
7.411815697249891 54.9845
7.434161478756298 53.9829
7.456524974096713 53.9446
7.478888753837185 53.7052
7.501235387657368 54.2109
7.523599738562711 54.2433
7.545946944825532 54.2573
7.568311870344528 54.4507
7.5906770845765665 54.7133
7.613025156078678 56.2432
7.635390950099687 57.4976
7.657739602662809 56.5035
7.680105979923558 55.3134
7.702472650212829 55.1988
7.724822180948224 55.0517
7.747189439655568 55.1188
7.769539560075357 55.2568
7.791907410653562 55.4896
7.81425812420825 55.6361
7.836626570110925 55.9443
7.858995315087906 56.4783
7.881346924933401 56.7564
7.903716270417482 57.0834
7.926068482028405 57.2742
7.948438431475253 58.183
7.9708086843180235 58.4278
7.993161805171116 59.2834
8.015532667162402 59.7405
8.037886398416653 60.8858
8.060257873014221 61.1411
8.082629655331942 61.6907
8.104984308787587 62.6393
8.127356708900503 65.8621
8.149711981398308 72.3707
8.172085002766314 74.6655
8.194458336181368 71.3817
8.216814543847752 68.2487
8.23918850371002 67.942
8.26154533906492 68.5978
8.283919928836452 70.2298
8.306277395339652 70.9435
8.328652618483376 72.3491
8.351028159736202 74.366
8.373386579575245 75.8677
8.395762759396959 77.7573
8.418121819038275 82.4775
8.440498640894003 96.40799999999999
8.462875785192262 110.355
8.485235811156207 117.303
8.507613602688501 139.859
8.529974277114228 206.455
8.552352719347912 322.065
8.574731488360351 558.092
8.59709314210385 1117.36
8.619472567021075 1898.38
8.64183487789147 2322.59
8.664214962183097 1871.13
8.686577933647762 941.029
8.708958680784317 355.663
8.731339760774953 161.249
8.753703729764451 108.43700000000001
8.77608547780821 96.2048
8.798450116065078 93.0602
8.820832535634787 90.4048
8.843215292401656 88.9738
8.865580941199045 87.1182
8.887964374703538 86.5861
8.910330701447199 88.0135
8.932714815164482 90.4848
8.955099270424924 90.2109
8.977466620733543 86.7372
8.999851761421976 83.5067
9.022219798361645 81.854
9.04460562795561 81.3828
9.066991803441677 81.4158
9.089360876979615 81.0926
9.111747746589993 80.8011
9.13411751544971 80.2023
9.156505082664324 79.9595
9.178875550323522 80.3734
9.20126381862328 80.8173
9.223652438908596 81.2786
9.246023961427412 80.5731
9.26841328802173 80.4987
9.290785518039224 80.062
9.313175554425882 80.6146
9.335565947154315 80.4793
9.357939245086508 80.65100000000001
9.380330352834827 80.9176
9.40270436697103 81.4034
9.425096193225055 81.1212
9.447488380180165 81.8343
9.469863475295412 82.2136
9.492256385987508 82.6559
9.514632206018318 83.0146
9.537025843935714 83.4631
9.559402392368193 83.935
9.581796761000229 85.2434
9.604191496441521 86.2451
9.626569144158516 90.25200000000001
9.648964615551032 94.9826
9.671343000390081 96.7438
9.693739211225699 94.6424
9.716135793237463 91.7497
9.738515290448102 90.554
9.760912617143402 91.7031
9.783292860202891 92.6465
9.805690935076182 93.71700000000001
9.828089385495742 94.7623
9.850470754023561 97.3159
9.872869957865444 105.02600000000001
9.89525208097539 121.476
9.917652041736662 134.779
9.940052382417589 132.888
9.962435644102392 131.686
9.984836746950979 151.828
10.007220771957746 202.986
10.029622640473708 290.476
10.052007432299963 457.463
10.074410069984072 746.8789999999999
10.096813093716005 1248.34
10.119199042482517 1766.67
10.141602840636468 2031.59
10.163989564971628 1562.51
10.186394141051062 870.485
10.208799107559706 372.343
10.231187001965623 179.11700000000002
10.253592751657669 122.846
10.275981430388155 110.48100000000001
10.298387966769793 111.021
10.320794897965431 113.83200000000001
10.343184759907361 112.59299999999999
10.36559248305461 107.01700000000001
10.387983138083852 102.22
10.410391656691655 102.363
10.432800574501677 109.584
10.455192425893369 121.95299999999999
10.47760214443012 143.92
10.499994797678786 185.707
10.522405320453982 266.262
10.54479877906917 402.07599999999996
10.567210109595656 528.831
10.5896218454736 599.749
10.612016518879773 507.358
10.634429067781074 346.495
10.656824555333241 200.38400000000001
10.679237920773568 123.51
10.701651695961992 94.7319
10.724048411481384 87.1505
10.746463008485165 84.7478
10.768860546937125 83.0195
10.791275969274796 81.1802
10.81369180576079 80.5394
10.836090585366925 79.1987
10.858507252467449 78.0373
10.88090686379991 77.0175
10.903324365036394 76.8047
10.925724811614439 77.003
10.948143150509463 78.5143
10.970561909719066 77.5789
10.992963615930844 75.5681
11.015383218085756 73.458
11.037785768347074 71.8303
11.06020621697282 71.3273
11.082627090322113 70.9781
11.105030913430326 70.4381
11.12745263854165 71.1598
11.149857314510728 74.9505
11.172279894912576 81.6678
11.194702904450653 83.0376
11.217108866490921 78.3668
11.239532736615194 73.7206
11.26193956033512 71.1895
11.284364294577085 69.0587
11.306789462371718 66.9754
11.329197585398376 66.1363
11.351623622610898 65.7881
11.37403261614354 64.6127
11.396459526308487 64.7559
11.418869393879497 64.2729
11.441297180532617 63.7012
11.463725406927658 63.5514
11.486136592353875 63.317
11.508565700543707 64.1176
11.530977768845315 66.0959
11.553407762368774 67.1038
11.575838200059769 66.59100000000001
11.598251599479612 64.5061
11.620682927815501 62.6281
11.64309721895548 62.3452
11.665529441478206 61.6694
11.687962112597958 61.4806
11.710377748130886 61.7704
11.732811318753434 61.5048
11.755227854859067 61.5697
11.777662328529495 61.4687
11.800079768750786 61.2591
11.822515149015453 61.2367
11.844950984084935 61.368
11.867369787303163 61.02
11.889806534289491 61.1965
11.912226250487029 61.6623
11.934663912939751 61.5745
11.9571020346363 61.806999999999995
11.979523127133968 61.4754
12.001962169624331 61.6036
12.024384183972964 62.2335
12.046824150809913 64.6221
12.069264581333726 68.8818
12.091687985297767 74.4105
12.11412934550045 82.5289
12.136553680195208 97.0355
12.158995973632788 119.762
12.181438735204349 151.899
12.20386447284199 185.36900000000003
12.226308172985636 204.688
12.24873485024193 199.72099999999998
12.271179492516982 162.525
12.293607112949127 124.061
12.316052700916226 94.6655
12.338498763250042 77.5413
12.360927805303868 69.5326
12.383374818673879 65.3848
12.405804812803074 63.2152
12.428252780773262 62.7147
12.45070122756722 62.7724
12.473132656675375 62.8358
12.49558206341869 62.9327
12.518014453510101 62.9082
12.540464823770117 63.3413
12.562915677315177 63.3125
12.58534951575545 64.1771
12.607801338171472 66.4333
12.630236146511358 72.3655
12.652688941369085 77.3925
12.675124723177234 77.796
12.697578494048786 73.8929
12.720032754458185 68.9946
12.742470003354093 66.7191
12.764925245138771 66.4315
12.787363476431278 66.7114
12.809819703166806 66.6484
12.83227642391173 67.6094
12.854716135692716 67.8638
12.877173846755147 69.2619
12.899614549869717 69.308
12.9220732548287 70.205
12.94453245827299 70.4437
12.966974655289818 71.4436
12.989434858002571 72.0498
13.011878055298721 72.8135
13.034339260862497 73.9517
13.056800969391883 74.9489
13.079245674017244 76.634
13.101708390774869 77.862
13.12415410463411 83.0951
13.146617833206086 92.7685
13.169064559883248 102.829
13.191529303857127 115.583
13.213994557076367 135.97299999999998
13.236442809902437 171.118
13.258909083908291 228.75400000000002
13.28135835851934 302.204
13.30382565690295 377.69699999999995
13.326293469022952 435.65
13.348744283242008 428.908
13.371213125129904 351.606
13.39366497011003 252.39
13.416134845360597 168.921
13.438605238843131 120.71600000000001
13.46105863690397 101.574
13.483530069144786 99.5293
13.505984506951902 102.96700000000001
13.528456981549432 111.366
13.550929978879088 125.07700000000001
13.573385983253365 147.069
13.595860028340867 186.265
13.618317081455832 242.11900000000003
13.64079217790333 307.066
13.663250283359057 358.81699999999995
13.685726434770173 377.23800000000006
13.708203115221277 335.665
13.730662806148091 254.579
13.75314054697177 178.35
13.775601299246777 124.29
13.798080104050406 94.7295
13.820559442405358 83.3878
13.843021793671388 79.9339
13.865502201420897 78.2153
13.887965623051947 77.4918
13.910447103807167 76.5505
13.932929122629764 75.3785
13.955394156785959 75.0336
13.977877254034569 73.8827
14.000343367582113 73.3641
14.022827546871707 72.5249
14.045294743423524 71.9782
14.06778000837062 71.4242
14.090265817715476 71.3285
14.112734645763819 71.0476
14.13522154619454 70.7595
14.157691466286913 70.8365
14.180179461423874 70.7824
14.202668005486178 69.8573
14.22513957064374 68.8994
14.247629214846473 68.9244
14.270101881097517 68.7131
14.29259262906496 68.8544
14.315083930490205 69.9623
14.337558255389705 70.2601
14.360050666019726 69.8891
14.382526101071944 69.1056
14.405019624534942 67.8156
14.427513705993134 67.5289
14.449990813291825 67.3842
14.47248601302899 67.1285
14.49496423954951 67.2498
14.517460561197822 67.429
14.539939910570322 67.1725
14.562437357763558 67.3876
14.58493536931253 68.6445
14.607416409993311 69.7503
14.62991555254159 70.4607
14.652397725157423 70.3072
14.674898002342799 69.6641
14.697398848433282 68.861
14.719882725991326 69.3107
14.74238471217934 69.4874
14.764869730765593 71.9149
14.787372860692983 74.3682
14.809876564079925 78.3622
14.83236330125751 83.4638
14.854868153850365 90.7184
14.877356041159485 104.29299999999999
14.899862046604186 122.77799999999999
14.922351087688757 150.21
14.944858249632887 183.421
14.967365991421232 213.571
14.989856770231246 229.743
15.012365673994204 218.95
15.03485761569738 189.576
15.05736768508665 149.986
15.07987833888692 113.429
15.102372032001655 88.6194
15.124883856909658 75.5469
15.14737872204565 71.0019
15.169891721717274 69.0629
15.192405310371893 69.0382
15.214901940621196 69.4023
15.237416709527137 69.7862
15.259914520936249 69.8896
15.282430473753607 68.8554
15.304947020131227 67.8024
15.327446610371178 66.9648
15.349964346154254 65.8463
15.372465126703139 65.1878
15.394984055556009 65.0165
15.417486030076159 64.7573
15.44000615566487 64.5328
15.462526881230803 64.7229
15.485030653812652 64.7543
15.507552581617434 64.7905
15.530057557334603 64.8109
15.55258069104857 64.8347
15.575104429329837 64.7139
15.597611216864632 63.927
15.620136166564563 64.0905
15.6426441664095 64.5999
15.665170331202765 66.0346
15.687697105158826 68.5526
15.710206930593545 71.2675
15.732734925158933 74.9517
15.755245972089478 80.6681
15.77777519094324 89.146
15.800287463046663 101.844
15.822817909869592 121.964
15.84534897229804 145.991
15.867863089299354 172.255
15.890395385222186 191.793
15.912910736597423 197.918
15.935444269699861 183.27599999999998
15.957978423016485 153.791
15.980495633101265 120.92299999999999
16.003031029129367 94.8157
16.02554948280019 76.4211
16.048086125229432 66.9888
16.070623392487107 64.3457
16.09314371869582 63.4912
16.11568223789321 62.5783
16.13820381691126 61.5468
16.160743591742527 60.3462
16.183283996022084 59.1658
16.205807461423195 58.3223
16.228349126881973 57.611000000000004
16.25087385432698 57.7901
16.27341678466365 57.2577
16.29594277784926 57.385
16.31848697676433 57.5572
16.341031811604868 57.8832
16.36355971058487 58.2569
16.3861058195587 57.9858
16.40863499352978 56.6606
16.431182380342005 55.6977
16.453730407713202 54.9971
16.476261501364792 54.7641
16.498810812136167 54.4773
16.52134319004079 54.5081
16.54389378792203 54.2277
16.566445031001553 54.004
16.588979342490088 53.886
16.61153187824822 53.7224
16.634067483263312 53.7286
16.656621315414416 53.6041
16.679175797408888 53.4161
16.701713349928728 53.4025
16.72426913389191 53.5608
16.74680798922351 53.7293
16.76936507887444 53.83
16.791905240734874 53.7508
16.814463639794468 53.6506
16.837022695210294 53.5397
16.859564824093756 54.0271
16.882125194503903 54.8667
16.904668639217885 55.7729
16.927230328348003 55.6408
16.949792678493612 55.6633
16.972338104193863 55.1588
16.994901778652235 54.495
17.017448529496576 54.2544
17.040013531998152 54.4673
17.06257920018044 54.703
17.0851279459922 55.2031
17.107694947817667 55.9244
17.130245028099072 56.8764
17.15281336730298 58.0566
17.17536478578733 59.7893
17.19793446610687 61.8771
17.220504818648422 64.6624
17.243058251703697 68.1403
17.265629950971032 73.1192
17.288184731571736 78.1489
17.310757781306908 82.3184
17.33333150794385 82.6419
17.355888317140174 80.3229
17.37846339986244 74.9922
17.401021565958885 68.7965
17.42359800851343 63.6901
17.44617513265564 60.3639
17.468735341390783 58.3382
17.491261035594565 57.7053
17.51396340099364 57.5399
17.536490463869136 57.7371
17.559018209820174 57.8864
17.58154663977963 57.8386
17.604251766089718 58.0985
17.626781572227713 58.2873
17.64931206518155 58.4456
17.671843245885103 58.8683
17.69455114821572 59.3187
17.717083712612634 59.341
17.739616967569667 59.726000000000006
17.762150914021706 59.8319
17.78486160749854 59.8347
17.807396945166804 60.22
17.829932977143503 60.8472
17.85246970436452 61.8975
17.875183204129467 63.6308
17.897721330097664 65.3705
17.920260154126645 67.5902
17.942799677153296 70.321
17.9655159983646 73.7434
17.988056927677544 78.936
18.010598558807683 86.4324
18.033140892692916 96.8
18.05586005052525 109.24799999999999
18.07840379824407 121.18
18.10094825154059 131.863
18.12366954819864 138.58
18.146215420998306 136.57399999999998
18.16876200220057 126.37
18.191309292745153 112.99
18.214033452627167 99.4446
18.236582170236648 88.5284
18.259131600016456 83.62
18.281681742907335 84.0781
18.304408781233683 89.0674
18.32696035875955 94.7298
18.349512652227624 100.26799999999999
18.372065662579683 105.335
18.394795594587553 106.368
18.41735004715306 102.161
18.43990521943684 94.6876
18.46246111238171 85.0847
18.485193953325208 75.5395
18.507751296070428 68.6944
18.530309362314178 64.6825
18.552868153000343 62.1637
18.57560391815056 60.9181
18.59816416623245 60.5712
18.620725141597372 59.9076
18.643286845190268 59.5124
18.666025549835414 59.0024
18.688588718427933 58.6476
18.711152618092243 58.3642
18.73389353884365 57.9697
18.75645890921984 57.5909
18.77902501351406 57.3324
18.801591852673102 57.3341
18.824335739722738 57.0048
18.846904057212626 56.6999
18.8694731124168 56.4292
18.89204290628315 56.4304
18.914789774966803 56.2752
18.937361054791623 55.831
18.959933076131318 55.6824
18.982505839934877 55.7805
19.00525570560582 55.9871
19.027829963004184 55.6264
19.05040496572238 55.7119
19.072980714710468 55.5491
19.095733592739563 55.6722
19.11831084296757 55.9508
19.140888842324735 56.5209
19.16346759176222 56.6051
19.18622349753803 56.986999999999995
19.208803755869358 57.8843
19.231384767143577 58.751999999999995
19.253966532312948 60.3906
19.276725481241822 62.4167
19.29930876296784 65.2352
19.3218928014549 68.5945
19.34465404436217 72.1059
19.36723960516257 74.8091
19.389825925592426 75.3747
19.412413006605938 74.3521
19.43517731967805 70.2775
19.457765930683355 65.9358
19.48035530514408 61.4653
19.50294544401556 58.0226
19.525712842708348 55.5975
19.54830451925909 54.1389
19.570896963095727 52.9883
19.593490175174704 52.6294
19.616260674962184 52.9014
19.638855432416964 52.4427
19.661450960992624 52.6488
19.68404726164677 52.2583
19.706820878021247 52.143
19.729418731756834 52.3904
19.752017360452857 52.063
19.77461676506804 52.1789
19.797393513540218 52.1073
19.819994478951667 52.4982
19.84259622316767 53.011
19.8651987471481 53.4238
19.887978643247177 53.6975
19.91058273574792 54.0417
19.933187610901943 54.6799
19.955969879466828 55.7659
19.97857632894404 57.1697
20.00118356396599 59.1263
20.023791585494575 61.3031
20.046577028914875 64.2646
20.069186632506966 66.3385
20.091797025500632 68.275
20.114408208858933 68.7503
20.137196842715273 68.1159
20.159809615886765 66.3517
20.18242318232135 63.6348
20.20503754298326 62.0649
20.227829382875154 60.8206
20.250445341109344 60.8982
20.27306209647285 61.956
20.29567964993108 63.2167
20.31847471147704 63.9122
20.34109387027612 65.0386
20.363713830075454 64.5649
20.386334591841646 62.8139
20.409132890679302 59.9686
20.431755265564437 57.1832
20.454378445325528 54.4756
20.477002430930366 52.5973
20.499803982716553 51.5345
20.522429589228004 50.6943
20.54505600449589 50.253
20.567683229489194 50.1144
20.590488049900088 49.6466
20.61311690359731 49.4314
20.63574656993626 49.1357
20.658553853717297 48.7254
20.681185154618298 48.6909
20.703817271080066 48.6039
20.72645020407368 48.2478
20.749260783967177 48.0996
20.771895359337133 47.9459
20.794530754161617 47.9333
20.817166969412938 47.8811
20.83998086114876 47.7399
20.86261872660049 47.6424
20.885257415405402 47.7202
20.90789692853701 47.5781
20.930714147864748 47.3801
20.953355319030678 47.5648
20.97599731745334 47.5997
20.99864014410749 47.335
21.021460706796564 47.5643
21.044105199328826 47.821000000000005
21.06675052302631 47.9117
21.089396678865015 48.0926
21.112220600704806 48.2244
21.134868430275347 48.7293
21.15751709492456 49.0368
21.180166595629693 49.4588
21.202993892429635 50.0572
21.22564507473034 50.2304
21.24829709602816 50.5278
21.27112693608965 50.4161
21.293780644891275 50.3195
21.316435195634053 49.5864
21.339090589297417 48.9567
21.361923832041875 48.3717
21.384580921090404 47.888000000000005
21.407238856007325 47.5248
21.429897637773326 47.4402
21.45273429906592 47.3214
21.475394784108598 47.4545
21.498056118951983 47.1127
21.520718304578022 47.4015
21.543558400304388 47.615
21.566222297108816 47.6411
21.58888704765135 47.5343
21.61155265291521 47.8844
21.63439619898156 48.3643
21.657063523335786 48.496
21.67973170537063 48.9749
21.7024007460706 49.3544
21.72524775840385 50.2155
21.747918526116475 51.1014
21.770590155457388 52.2851
21.79326264741238 53.8994
21.816113141960237 55.9033
21.838787368860547 57.9181
21.861462461341976 59.9096
21.884315579735777 61.8991
21.90699241312273 63.3522
21.92967011506078 63.5605
21.95234868653799 62.8977
21.9752053151131 61.6641
21.997885635446785 59.7896
22.020566828293532 58.2099
22.04324889464272 56.6315
22.066109049404666 55.6228
22.088792872571794 55.3204
22.111477572219204 55.2746
22.1341631493376 55.0901
22.157026846313123 54.9696
22.179714188221507 54.1235
22.202402410582668 52.8005
22.22509151438863 51.4393
22.24795876962584 50.2621
22.270649646204486 49.5292
22.293341407213727 48.7265
22.316034053646906 48.3615
22.338904883215342 48.3138
22.36159931041458 47.9961
22.38429462602756 48.0376
22.40699083104897 47.8289
22.429865251039757 47.8798
22.452563244831367 48.0851
22.47526213102522 47.9803
22.49813925616515 47.7282
22.520839937143307 47.5105
22.543541513520587 47.6943
22.56624398629403 47.4224
22.589124730075895 47.2496
22.611829005656723 47.5844
22.63453418063466 47.5988
22.657240256008077 47.6942
22.680124634582935 47.6309
22.70283252079775 48.0229
22.725541310413075 48.2744
22.74825100442868 48.3789
22.771139033969575 48.9067
22.79385054687155 49.1934
22.81656296718292 49.5937
22.83927629590484 50.5208
22.862167992606945 51.5466
22.88488314827121 52.9164
22.907599215359284 54.2599
22.93031619487366 55.5149
22.953211574954405 56.5929
22.975930389478226 57.2255
22.998650119445763 57.2302
23.02137076586092 56.5175
23.044269845560063 55.1121
23.06699233506288 53.5554
23.089715744034912 51.4376
23.112617610931565 49.9631
23.135342869061212 48.8927
23.158069049684816 48.2459
23.1807961538087 47.8614
23.20370174880544 47.715
23.226430710184808 47.6331
23.249160598093425 47.7397
23.271891413539002 47.5298
23.294800752937697 47.681000000000004
23.31753343374794 47.745
23.340267045128353 47.8557
23.36300158808808 48.3682
23.38591468821339 48.5428
23.408651104658304 48.7506
23.431388455719986 49.5241
23.454126742409 50.251999999999995
23.4770436196085 51.431000000000004
23.499783787914662 52.8996
23.522524894889884 54.0652
23.54526694154616 55.3224
23.56818761219047 56.4568
23.59093154860734 56.8582
23.613676427751283 57.1734
23.636422250635754 56.0299
23.659346731118656 54.4704
23.68209445191868 52.5206
23.704843119509587 50.2775
23.72759273490623 48.7233
23.750521041644767 47.2827
23.77327256312355 46.1992
23.796025035462787 45.5421
23.818956224555475 45.1131
23.841710609113413 45.0615
23.86446594758979 45.0377
23.887222241002014 44.7159
23.910157285144578 44.3617
23.932915498962537 44.2746
23.955674670778713 44.191
23.978434801611975 44.0041
24.001373717286125 43.7879
24.024135776723917 43.8088
24.046898798245582 43.7087
24.06966278287146 43.6633
24.092605586582614 43.4922
24.115371508023642 43.3169
24.1381383956401 43.2543
24.16090625045381 43.1296
24.183852958731244 43.188
24.206622758582608 42.9984
24.229393528706886 42.8856
24.252165270127392 42.8845
24.27511589952438 42.7634
24.297889594216997 42.5543
24.32066426328598 42.4006
24.34343990775613 42.368
24.36639447485003 42.3382
24.38917208083877 42.1995
24.41195066531332 42.2841
24.43490819850244 42.3185
24.457688750692377 42.0529
24.48047028445616 42.0229
24.503252800821233 42.153999999999996
24.526214300784112 42.3493
24.548998793132213 42.2503
24.57178427117417 42.1664
24.59457073593893 42.2119
24.617536219319863 42.0713
24.64032466834748 42.0773
24.663114107195035 42.0465
24.685904536893013 41.7397
24.708874020360852 41.7152
24.731666442613744 41.7585
24.754459858818787 41.6807
24.777254270007962 41.5097
24.80022777025625 41.4169
24.82302418230472 41.4088
24.845821592443674 41.3462
24.86862000170663 41.2959
24.891597535453727 41.2142
24.914397953892728 41.2998
24.93719937456671 41.2371
24.96000179851076 41.4249
24.98298338249997 41.5755
25.00578782394922 41.8094
25.028593271784167 41.8773
25.05157790644186 42.3069
25.07438537804115 42.3587
25.097193859145293 42.5917
25.120003350792075 42.9486
25.142992065061257 43.3136
25.165803588823465 43.4103
25.18861612625217 43.5338
25.211429678386736 43.7488
25.234422489079968 43.9428
25.257238081693636 43.8559
25.280054692141732 44.11
25.3028723214652 44.1526
25.325869245420463 44.2744
25.348688923599397 44.3112
25.371509623787006 44.102
25.394331347025812 43.7528
25.41733240110666 43.363
25.440156181590016 42.6302
25.46298098826268 42.0139
25.48580682216873 41.67
25.50881202326435 40.9835
25.53163992281684 40.5385
25.55446885274561 40.4071
25.577298814096377 40.15
25.600308179121807 39.974000000000004
25.623140214533745 40.1089
25.64597328451537 39.902
25.66898578564376 39.6546
25.691820936010206 39.7191
25.714657124097695 39.65
25.737494350954734 39.7304
25.760511045684957 39.5751
25.783350361364224 39.6962
25.806190718969255 39.568000000000005
25.82903211955018 39.7231
25.852053024868923 39.7414
25.874896522722523 39.6715
25.897741066713106 39.6562
25.920586657892454 39.8335
25.943611790812668 39.9298
25.966459487728237 40.0692
25.989308234998564 40.2537
26.01215803367705 40.5603
26.03518741123814 40.5946
26.05803932412957 40.8781
26.080892291600094 40.8657
26.10374631470478 40.9963
26.12677995397268 40.9521
26.14963609978026 40.8495
26.172493304397875 40.533
26.19535156888223 40.2657
26.218389486949604 39.9233
26.241249882640123 39.6892
26.26411134137826 39.4587
26.28715248187403 39.6162
26.31001607820869 39.2232
26.3328807407756 39.0709
26.35574647063438 39.3683
26.37879191991473 39.1697
26.401659795896734 39.1865
26.424528742360263 39.4137
26.447398760366614 39.5524
26.470448535598294 39.6782
26.49332070826805 39.9483
26.516193955675355 40.2738
26.53906827888316 40.5204
26.562122397260108 40.5556
26.584998883685063 40.7936
26.607876449110325 41.2631
26.63075509460056 41.3945
26.65381357334404 41.4828
26.67669439061878 41.3886
26.699576291163382 41.2684
26.722459276044212 41.1527
26.745522132402975 40.8703
26.768407297649354 40.6138
26.791293550442003 40.3229
26.814180891848974 40.0883
26.837248143099337 39.7383
26.860137673466657 39.73
26.88302829566349 39.4012
26.90592001075963 39.2813
26.92899167420566 39.1439
26.951885586870763 38.6384
26.974780595655517 38.4934
26.99785558178161 38.3557
27.020752794605112 38.2058
27.043651106772522 38.1237
27.06655051935668 38.102
27.089629948036183 37.9793
27.112531573292053 37.9466
27.135434302194138 37.8721
27.158338135817015 37.7421
27.181422024430987 37.8365
27.204328079372566 37.6715
27.22723524226965 37.7821
27.250143514198573 37.9478
27.273231880156334 37.7567
27.296142382065014 37.6337
27.319053996245536 37.6034
27.341966723775965 37.6314
27.365059584515222 37.6932
27.38797455070062 37.8651
27.410890633481237 37.5497
27.433807833936918 37.5792
27.456905206923906 37.6678
27.47982465472398 37.7357
27.502745223449743 37.844
27.525666914182825 38.0324
27.548768816912457 37.7857
27.571692763693633 37.6977
27.59461783573812 37.6716
27.617723149491244 37.4594
27.640650484125285 37.44
27.66357894728264 37.3913
27.686508540048052 37.3177
27.709618414237887 37.1749
27.732550278321757 37.0068
27.755483275279115 37.0256
27.778417406196485 37.1386
27.801531858397514 37.1203
27.824468269376716 36.9285
27.847405817586786 37.0352
27.870344504116094 37.1586
27.893463551932008 37.3053
27.916404527281053 37.5827
27.93934664422563 37.5822
27.962289903855886 37.6019
27.98541356491974 37.8472
28.00835912214229 38.0686
28.03130582533231 38.3568
28.054253675581805 38.4172
28.077381967556104 38.2866
28.100332124185126 38.2134
28.123283431160893 38.1513
28.146235889577238 37.9462
28.169368830154156 37.8579
28.192323603752033 37.7218
28.215279532083304 37.5183
28.238415973016764 37.3354
28.261374223145094 37.0849
28.284333631303806 36.8988
28.307294198589954 36.8326
28.330435319167677 36.5234
28.353398217078915 36.3016
28.376362277420153 35.9848
28.39932750129032 35.796
28.422473319286713 35.7491
28.44544088262495 35.7334
28.468409612800283 35.6089
28.491379510913497 35.2312
28.51453004413313 35.2463
28.53750229057244 35.282
28.56047570826344 35.0596
28.583450298308804 35.2294
28.606605564586562 35.0729
28.629582511831156 35.0853
28.65256063474956 34.8626
28.675539934446338 34.9334
28.698699951647605 34.8526
28.72168161743193 34.8561
28.74466446331978 34.8265
28.767648490417624 34.7742
28.790813276438353 34.7261
28.813799678527303 34.7255
28.836787265157085 34.7608
28.859955641890075 34.8306
28.882945610203045 34.7921
28.905936766392035 34.6607
28.928929111566863 34.6383
28.952102288520145 34.6268
28.975097024308607 34.4741
28.998092952423807 34.3017
29.021090073977508 34.260999999999996
29.04426806913204 34.2113
29.067267590245258 34.0482
29.090268308143695 33.9068
29.11327022394099 33.8929
29.13645305530891 33.7503
29.159457379627167 33.7267
29.18246290519685 33.6414
29.20546963313352 33.6593
29.22865731875826 33.7455
29.25166646419296 33.7522
29.27467681535305 33.6205
29.29768837335608 33.6171
29.320880931312562 33.5894
29.34389491580634 33.6018
29.366910110507334 33.6123
29.38992651653503 33.6582
29.41312396492981 33.6513
29.436142806456754 33.5769
29.45916286268059 33.4549
29.48236399319994 33.3454
29.50538649169417 33.1952
29.528410208259935 33.0282
29.55143514402014 32.8381
29.574641196749695 32.6925
29.597668583816574 32.5672
29.6206971934585 32.4765
29.64372702680042 32.4506
29.666938019934474 32.3433
29.689970313635285 32.3826
29.713003834422636 32.3831
29.73603858342347 32.2744
29.759254535188578 32.2049
29.78229175361658 32.3411
29.80533020365064 32.3232
29.82836988641968 32.2085
29.85159081507472 32.1204
29.874632976355343 32.0479
29.89767637376955 32.1347
29.920721008448314 31.9656
29.9439469322847 32.0016
29.96699405457564 31.9459
29.9900424175358 31.9709
30.013092022298157 31.8834
30.03632295963995 31.747
30.059375061131373 31.86
30.08242840783577 31.9253
30.105483000888153 31.8764
30.128718970092244 31.7976
30.151776069006917 31.8165
30.17483441768648 31.7647
30.198074175317235 31.7549
30.221135036724256 31.905
30.24419715131772 31.7832
30.267260520236203 31.636
30.290505341942243 31.6697
30.313571232750228 31.7928
30.336638381310948 31.6602
30.35970678876503 31.6597
30.38295669299435 31.5602
30.40602763151657 31.491999999999997
30.429099832366074 31.4444
30.452173296685572 31.3811
30.47542830191959 31.4764
30.498504306502497 31.2956
30.521581577995562 31.4609
30.544660117543582 31.4105
30.56792024229725 31.5688
30.59100133132069 31.5
30.614083691845494 31.5609
30.637167325018545 31.5426
30.660432587840603 31.6595
30.683518779717886 31.5691
30.70660624769615 31.5809
30.729694992924372 31.6174
30.75296541239743 31.5668
30.77605672557558 31.5545
30.799149319462742 31.4691
30.8224236211637 31.3519
30.845518789950724 31.1643
30.868615242910597 31.2644
30.891712981195973 31.0728
30.91499247215866 31.0339
30.938092794619365 30.9426
30.96119440587579 30.8658
30.984297307082752 30.791
31.00758200598383 30.7203
31.030687500658694 30.6607
31.053794288760695 30.5027
31.076902371446767 30.3875
31.100192296997445 30.5764
31.12330298246119 30.4385
31.14641496599209 30.3178
31.169528248749216 30.3761
31.19282341969534 30.3318
31.215939314557186 30.359
31.239056512134788 30.3071
31.262175013589378 30.2943
31.28547544871168 30.2174
31.30859657161541 30.2796
31.331719001892175 30.2456
31.35484274070538 30.3599
31.378148458819545 30.3169
31.401274828443725 30.2972
31.424402510106933 30.3654
31.447712205419993 30.403000000000002
31.470842524931633 30.1968
31.493974159989783 30.303
31.51710711176168 30.1479
31.54042212308802 30.1835
31.563557722100917 30.1755
31.586694641341655 29.9367
31.609832881979628 29.8962
31.63315322823208 29.8368
31.656294125521327 29.7717
31.679436347728515 29.75
31.70257989602529 29.6674
31.725905596152327 29.6476
31.74905181052835 29.5191
31.772199354521323 29.6311
31.79534822930507 29.5368
31.818679302290967 29.5569
31.84183085259981 29.5608
31.864983737233473 29.6112
31.88813795736804 29.5596
31.911474422233013 29.4406
31.934631327356435 29.5712
31.9577895715215 29.4465
31.980949155906522 29.4986
32.004291031706956 29.4553
32.027453310562606 29.3993
32.05061693318573 29.249000000000002
32.07396288236386 29.234
32.09712920658542 29.2333
32.12029687812702 29.0013
32.14346589817093 28.9979
32.166817291729984 28.9632
32.18998902288583 28.8894
32.21316210610336 28.7842
32.23633654256711 28.6545
32.259693399663725 28.6883
32.282870556771144 28.5841
32.30604907069099 28.5877
32.329228942610065 28.4996
32.35259128243769 28.3939
32.375773884550505 28.3898
32.398957848235646 28.301
32.422143174682176 28.3504
32.445511016471215 28.3194
32.468699082679954 28.2458
32.49188851523011 28.1399
32.51507931531304 28.0648
32.538452678331 28.0288
32.56164622776311 27.987
32.58484114831493 27.9489
32.60803744118015 27.9625
32.631416344731896 27.8592
32.654615396551876 27.9475
32.67781582427913 27.8279
32.701198898634416 27.7808
32.72440209253756 27.7265
32.747606665947124 27.8277
32.77081262006088 27.62
32.79420126883317 27.6151
32.81740999876112 27.6317
32.840620112999424 27.4989
32.86383161274818 27.3884
32.88722585534586 27.4599
32.91044014056596 27.5565
32.933655814909734 27.4689
32.95687287957963 27.4672
32.98027273544904 27.3713
33.00349259526636 27.2155
33.026713849030116 27.3253
33.04993649794511 27.3585
33.073341986570746 27.3529
33.09656744032826 27.3179
33.11979429286444 27.2979
33.14302254538647 27.2676
33.166433686291185 27.2734
33.18966475336992 27.209
33.212897224069096 27.1027
33.23613109959831 27.1192
33.259547912343415 27.0389
33.2827846121627 27.0171
33.306022720453775 26.9467
33.32926223842861 26.8922
33.352684742614166 26.8602
33.37592709463173 26.8576
33.399170859982064 26.7561
33.422597648419426 26.695999999999998
33.44584425514446 26.4738
33.46909227885668 26.4703
33.4923417207723 26.4572
33.51577423505344 26.4956
33.539026528130385 26.3034
33.56228024307245 26.3572
33.585535381098246 26.2606
33.60897364093058 26.3029
33.63223163992385 26.2549
33.6554910656699 26.1834
33.678751919389796 26.2458
33.702195944520106 26.1341
33.72545966903325 26.0812
33.74872482519663 25.9501
33.771991414233746 26.0249
33.79544122444841 25.9805
33.81871069412428 25.8385
33.84198160035767 25.8405
33.86525394437455 25.9059
33.88870955949969 25.8374
33.911984794020626 25.8391
33.93526147001624 25.741
33.958539588715006 25.6425
33.98200102861669 25.5729
34.0052820477047 25.5859
34.02856451319451 25.5911
34.05203033759056 25.3879
34.07531571090147 25.4863
34.09860253431845 25.4087
34.121890809074316 25.3537
34.145362493118924 25.3824
34.16865368561615 25.3512
34.191946333164054 25.3012
34.21524043699793 25.2648
34.23871800066799 25.261
34.26201503218366 25.1608
34.28531352370466 25.1204
34.30861347646881 25.0931
34.33209693978188 25.0356
34.3553998301885 25.0103
34.378704185565205 24.9818
34.402010007152356 24.8509
34.42549939016683 24.8833
34.44880815937748 24.7757
34.472118398533134 24.8442
34.49543010887669 24.7524
34.51892543169198 24.7056
34.54224009966052 24.7225
34.56555624255917 24.6433
34.58887386163339 24.5565
34.61237514439016 24.4294
34.6356957311114 24.451
34.65901779775809 24.439
34.68252356662995 24.4882
34.705848608458616 24.436
34.72917513396849 24.3615
34.75250314440949 24.3685
34.77601490857862 24.269000000000002
34.799345904259795 24.228
34.82267838863559 24.2137
34.846012362958525 24.2102
34.869530142679984 24.1559
34.89286711232212 24.0747
34.91620557568269 24.0518
34.93954553401677 24.1079
34.9630693495876 24.066
34.986412313340814 24.0388
35.00975677584668 24.0015
35.033102738362956 23.9376
35.05663261012228 23.8788
35.0799815881786 23.8611
35.10333207003229 23.8719
35.12668405694369 23.8699
35.150220005273056 23.8106
35.17357501786656 23.8817
35.19693153931268 23.7432
35.220289570874385 23.7511
35.24383161619786 23.7132
35.267192683604904 23.7362
35.290555264930376 23.6548
35.314101899412165 23.6608
35.33746752422433 23.5492
35.36083466676374 23.5699
35.38420332829803 23.4904
35.407756095629054 23.6396
35.43112781085063 23.5776
35.45450104888391 23.5226
35.477875810999194 23.5452
35.50143473172161 23.4302
35.52481255774625 23.4653
35.54819191167777 23.3935
35.57157279478914 23.3876
35.595137889488406 23.3629
35.61852184675279 23.1973
35.641907337029984 23.2153
35.665294361595684 23.1983
35.68886565090076 23.121
35.7122557598848 23.0858
35.73564740699838 23.1551
35.759040593519934 23.0517
35.78261809810353 22.9904
35.80601437933051 22.9043
35.829412203814705 22.949
35.85281157283719 22.8419
35.876395313415884 22.8347
35.8997977874528 22.7991
35.92320180988546 22.794
35.946790244133936 22.6521
35.97019737933222 22.7293
35.993606066789866 22.7266
36.01701630779276 22.6136
36.04061101440684 22.5791
36.06402437852291 22.5879
36.08743930005611 22.5747
36.1108557802951 22.5048
36.13445678011326 22.4744
36.15787639383515 22.4192
36.18129757014299 22.4437
36.20472031032821 22.4274
36.22832762423364 22.2725
36.25175350829375 22.2885
36.275180960119776 22.1901
36.298609981005924 22.2432
36.32222362992669 22.2077
36.34565580510207 22.1606
36.36908955323448 22.0814
36.39252487562093 22.0281
36.416144880530226 22.0352
36.43958336764275 22.0136
36.463023432914625 22.0663
36.486465077645676 21.9204
36.51009145956204 22.0512
36.53353627947859 21.9263
36.55698268276811 21.9278
36.58043067073321 21.9164
36.60406345072071 21.8466
36.62751462435344 21.8421
36.65096738658405 21.7832
36.67460498210655 21.7229
36.69806093788647 21.7354
36.72151848619297 21.5804
36.744977628333636 21.680999999999997
36.76862165890998 21.5917
36.79208400512205 21.5302
36.81554794910557 21.5724
36.83901349217101 21.468000000000004
36.862663978991606 21.410999999999998
36.88613273667352 21.4269
36.90960309738324 21.4405
36.933075062434064 21.3093
36.95673202673572 21.3428
36.98020721697122 21.3023
37.003684015502365 21.2298
37.027162423645365 21.2705
37.050825886711465 21.2176
37.07430753063053 21.1245
37.09779078812467 21.0948
37.121275660513014 21.1261
37.144945643673694 21.0656
37.16843376245278 21.0347
37.19192350009803 21.0311
37.215414857931435 20.9562
37.239091382563885 20.8796
37.262585997426164 20.8266
37.28608223645736 20.8912
37.309763684451696 20.8897
37.33326318851098 20.7781
37.356764320726555 20.7302
37.380267082425526 20.8
37.40395510942588 20.6958
37.42746114683234 20.668000000000003
37.45096881771841 20.6421
37.474478123414166 20.6209
37.49817275092816 20.5472
37.52168534303452 20.5162
37.54519957395567 20.4112
37.568715445024665 20.4704
37.592416694607714 20.4754
37.61593586281424 20.4237
37.63945667518264 20.4958
37.66297913304891 20.3526
37.68668702630454 20.3698
37.710212792059274 20.2703
37.733740207334854 20.2491
37.757269273470364 20.2674
37.780983832050374 20.1252
37.80451621684926 20.1361
37.82805025654007 20.1327
37.851585952464795 20.0365
37.8753071980695 19.9796
37.89884622345676 19.9266
37.92238690911902 19.9792
37.94611318753442 19.8779
37.969657210779765 19.8858
37.99320289834801 19.9072
38.016750251586465 19.8072
38.04048325513017 19.7783
38.06403395679343 19.7779
38.087586328183946 19.6768
38.11114037065203 19.6704
38.13488012115898 19.7405
38.1584375229181 19.7206
38.181996599821 19.6367
38.205557353221124 19.6014
38.229303872575656 19.5207
38.2528679961576 19.5857
38.27643380031219 19.5019
38.30000128639589 19.4778
38.32375459653193 19.4381
38.34732546371299 19.436
38.37089801690786 19.3514
38.39447225747609 19.3871
38.418232380377425 19.2971
38.441810012983396 19.2958
38.46538933705673 19.2564
38.488970353960084 19.1993
38.51273731166058 19.0967
38.536321731567014 19.1252
38.55990784840681 19.1075
38.58367995004091 19.0733
38.60726947812959 19.0306
38.63086070726198 19.0432
38.654453638806274 19.0393
38.678232613930824 18.9772
38.70182896773327 18.9314
38.72542702806741 18.893
38.7490267963045 18.9462
38.77281266709232 18.9454
38.79641586862214 18.8093
38.8200207821842 18.7544
38.843627409152944 18.8418
38.86742019782782 18.7865
38.891030269149255 18.7413
38.914642058016156 18.7271
38.938255565806124 18.7033
38.96205529464307 18.6774
38.98567225787121 18.6453
39.00929094417078 18.6069
39.03291135492255 18.5705
39.05671804624804 18.53
39.080341923549106 18.4584
39.103967529460334 18.415
39.127594865365744 18.4379
39.15140854155791 18.4066
39.17503935514948 18.3348
39.19867190290282 18.3167
39.22249083587951 18.3211
39.24612686969409 18.3832
39.269764641845306 18.2684
39.293404153722804 18.1736
39.317230110864074 18.1791
39.34087311998506 18.1453
39.36451787301696 18.1791
39.388164371352595 18.1512
39.41199737518003 18.0654
39.43564738196752 17.9795
39.45929913825317 18.0122
39.48295264543308 17.9737
39.506792718520884 17.9518
39.530449745387216 17.9017
39.55410852735203 17.8789
39.57776906581474 17.9233
39.60161623079 17.9094
39.625280300200025 17.8507
39.64894613032202 17.7554
39.67261372255866 17.7458
39.6964680021016 17.7762
39.72013913657293 17.7858
39.74381203738292 17.6922
39.76748670593756 17.6642
39.79134812278169 17.7043
39.81502634488497 17.6152
39.83870633896685 17.5511
39.862388106436654 17.5359
39.88625668336918 17.4992
39.90994201572829 17.5171
39.933629125719285 17.4396
39.957503091207826 17.3811
39.9811937746168 17.4107
40.00488623990914 17.3497
40.02858048850006 17.338
40.05246165409549 17.3247
40.076159487492085 17.2412
40.099859108448875 17.2821
40.123560518384345 17.2301
40.1474489070226 17.1891
40.171153913178564 17.1795
40.194860712584955 17.0893
40.2185693066637 17.119
40.242464941335314 17.0898
40.26617714307655 17.052
40.289891143772046 17.0692
40.3136069448471 17.0458
40.33750984859743 16.9642
40.3612292688043 16.9575
40.3849504936829 16.9139
40.40867352466194 16.9508
40.43258372059144 16.8197
40.45631038219906 16.8981
40.48003885420956 16.7754
40.503769138055105 16.8238
40.52768664931955 16.8165
40.55142057531802 16.7798
40.57515631746428 16.7182
40.599079334038514 16.6654
40.62281872700477 16.6114
40.64655994043941 16.6702
40.67030297578061 16.6058
40.69423334835778 16.6009
40.71798004609188 16.5917
40.74172857006355 16.559
40.76547892171441 16.5605
40.7894166736039 16.4809
40.813170699248566 16.4571
40.83692655691388 16.4419
40.86068424804498 16.4256
40.884629402612525 16.3756
40.908390779366385 16.3841
40.932153993938 16.3437
40.95591904777605 16.3238
40.979871628443995 16.3102
41.003640379561936 16.2628
41.02741097430883 16.2274
41.05118341413683 16.2268
41.075143444384416 16.2131
41.098919593177826 16.1613
41.1226975914255 16.1593
41.14647744058318 16.1476
41.170444943946755 15.985999999999999
41.19422851378379 16.105
41.218013938914645 16.0265
41.24198706625173 15.901
41.26577622087193 15.9309
41.289567235177785 15.9358
41.31336011063129 15.8854
41.337340752422875 15.8446
41.361137369129835 15.8557
41.38493585138705 15.9012
41.40873620066004 15.8211
41.43272438060107 15.8155
41.45652848292052 15.741
41.48033445666918 15.7306
41.50414230331616 15.7409
41.528138045159764 15.6622
41.551949656675205 15.6309
41.575763145513235 15.5829
41.59957851314666 15.5708
41.62358184070442 15.5425
41.64740098505737 15.5376
41.6712220126409 15.4716
41.69504492493139 15.4716
41.71905586207357 15.4499
41.74288256296395 15.3995
41.766711153007456 15.3814
41.79054163368412 15.3963
41.814560204340054 15.3838
41.838394485526365 15.3514
41.86223066180303 15.3488
41.88625497706819 15.2621
41.910094962812 15.2558
41.93393684811168 15.2539
41.95778063445365 15.1655
41.981812625263366 15.1736
42.00566023303407 15.1463
42.029509746323676 15.1
42.05336116662236 15.1015
42.077400857069705 15.0701
42.10125611078846 15.0317
42.12511327600405 15.0224
42.14897235421036 14.9856
42.173019768448455 14.9427
42.19688269209613 14.9647
42.22074753323349 14.9289
42.24461429335818 14.9041
42.268669455600495 14.8406
42.292540073217886 14.8327
42.31641261433284 14.8612
42.34028708044675 14.8364
42.36435001496739 14.8105
42.38822835065557 14.7741
42.41210861586426 14.7357
42.4359908120986 14.6931
42.46006154323262 14.6817
42.48394762115317 14.662
42.507835634632315 14.6366
42.531912233047436 14.5726
42.55580413732265 14.5525
42.579697981698 14.545
42.60359376768525 14.5406
42.62767820545945 14.5218
42.65157789440821 14.5217
42.67547952952185 14.4736
42.699383112316 14.4722
42.72347541395347 14.4355
42.74738291190531 14.3603
42.771292362102166 14.366
42.795203766063516 14.3554
42.819303956130405 14.3286
42.843219287476536 14.3062
42.86713657716324 14.2727
42.89105582671383 14.2539
42.91516392983864 14.2467
42.939087119032166 14.1887
42.963012272677304 14.21
42.98693939230129 14.1554
43.01105543317513 14.1146
43.034986504731386 14.0667
43.05891954686589 14.0708
43.08285456110972 14.1104
43.10697856448665 14.0457
43.130917542983475 13.9902
43.15485849820081 14.0517
43.17880143167367 13.9591
43.20293342237094 13.9327
43.226880332449 13.8967
43.25082922540554 13.8944
43.27496722682525 13.8888
43.29892010567796 13.8546
43.32287497204102 13.815999999999999
43.34683182745632 13.7924
43.370977859791836 13.7013
43.39493871351105 13.722000000000001
43.41890156092628 13.7603
43.44286640358341 13.6696
43.46702049182749 13.6498
43.49098934522816 13.6265
43.51496019852649 13.6176
43.5389330532723 13.6193
43.56309522248204 13.584000000000001
43.58707210044314 13.6003
43.61105098451946 13.5277
43.63503187626491 13.4553
43.659202151562134 13.4453
43.68318707902681 13.5004
43.70717401884041 13.4333
43.731162972560874 13.3533
43.75534137913236 13.3587
43.779334381108384 13.4045
43.803329401683186 13.3844
43.82732644241872 13.3196
43.8515130055166 13.2828
43.87551410707659 13.282
43.89951723350145 13.2935
43.923709934595614 13.2786
43.94771713129917 13.2372
43.97172635758096 13.1979
43.99573761501002 13.1519
44.0199385169922 13.1337
44.04395385732619 13.1579
44.067971233533086 13.127
44.09199064718605 13.0643
44.11619977548961 13.0253
44.14022328470671 12.9513
44.16424883610785 13.0395
44.18827643127035 13.0143
44.21249381139513 12.9325
44.236525514814076 12.9166
44.26055926674478 12.94
44.28459506876863 12.9592
44.3088207262813 12.9012
44.33286064928722 12.8053
44.35690262714919 12.814
44.38094666145278 12.7556
44.4051806219871 12.7947
44.42922879003185 12.7015
44.45327901929361 12.7211
44.477331311362136 12.7917
44.501573600619416 12.7155
44.525630039221795 12.6542
44.54968854541895 12.6417
44.573937102200176 12.6384
44.5979997645541 12.5924
44.622064499300315 12.6166
44.64613130803592 12.538
44.67038823869318 12.552
44.69445921643748 12.4892
44.718532272981385 12.4385
44.742607409926194 12.4528
44.76687274034801 12.4536
44.79095205918753 12.4217
44.81503346325094 12.399000000000001
44.839116954143876 12.3669
44.86339071028742 12.3293
44.88747839599524 12.4093
44.91156817336837 12.3402
44.93566004401666 12.3132
44.959942251908146 12.299000000000001
44.984038330325966 12.2484
45.00813650686762 12.2007
45.03223678314731 12.2104
45.05652746888232 12.1662
45.08063196592069 12.1558
45.104738567558705 12.1119
45.128847275414856 12.1521
45.15314646515866 12.0699
45.17725940679741 12.1038
45.20137445952892 12.0795
45.22568004865265 12.0496
45.24979934496396 12.0241
45.27392075725247 11.9771
45.29804428714431 11.9859
45.322358426247604 11.9834
45.346486212804315 11.94
45.370616121861914 11.9187
45.39474815505086 11.8815
45.41907087049246 11.8876
45.4432071734666 11.798
45.46734560548283 11.8599
45.49148616817604 11.8282
45.51581748638564 11.7631
45.5399623320197 11.7784
45.56410931325473 11.722000000000001
45.58825843173002 11.7268
45.61259837920865 11.6805
45.636751793816 11.6621
45.66090735060093 11.6199
45.68506505120716 11.5821
45.7094136545275 11.591
45.73357566449271 11.5865
45.75773982322992 11.6138
45.78190613238733 11.5987
45.806263418194064 11.4581
45.83043404997326 11.5066
45.85460683713677 11.4748
45.87897065658495 11.4862
45.90314777634752 11.4221
45.92732705646868 11.4325
45.9515084986045 11.4507
45.97588104735473 11.3835
46.00006683541565 11.3767
46.02425479047904 11.3553
46.04844491420549 11.3106
46.0728262191024 11.3108
46.09702070211635 11.2862
46.12121735879483 11.3108
46.14541619080294 11.2928
46.169806278764455 11.2618
46.194009483459034 11.224
46.21821486849841 11.2321
46.24242243555223 11.134
46.266821333570014 11.1512
46.29103328674601 11.099
46.31524742696538 11.1261
46.33946375590237 11.1249
46.36387149104216 11.0709
46.38809221957392 11.0049
46.41231514186606 11.0222
46.436540259597464 11.0077
46.460956858999374 10.9559
46.48518638983522 10.9912
46.509418121166966 10.9583
46.533652054678114 10.901
46.55807754555709 10.8731
46.58231590571962 10.8962
46.60655647313217 10.8614
46.630988654873654 10.8082
46.655233659129024 10.8356
46.67948087571551 10.7861
46.70373030632484 10.7449
46.72817142736393 10.8226
46.752425308428684 10.7415
46.77668140861147 10.6927
46.80093972960865 10.6459
46.82538981736788 10.6855
46.849652602470904 10.6756
46.87391761349769 10.6349
46.8981848521493 10.6138
46.9226439341274 10.6026
46.946915650573224 10.5652
46.97118959976749 10.5659
46.99546578341598 10.5388
47.019933887188216 10.5524
47.04421456235744 10.5043
47.06849747711879 10.446
47.09278263318286 10.4324
47.11725978640143 10.4371
47.14154944775105 10.3967
47.165841355555656 10.4237
47.1901355115306 10.3628
47.214621741924994 10.3693
47.23892041698887 10.3203
47.26322134538975 10.3498
47.28771440635075 10.3203
47.31201986422527 10.282
47.33632758061436 10.2595
47.360637557241866 10.2365
47.38513974410611 10.2534
47.40945426407847 10.21
47.43377104948137 10.1978
47.45809010204344 10.1709
47.48260144275502 10.1382
47.506925052572285 10.1118
47.53125093475548 10.1118
47.55557909103813 10.0796
47.58009961361992 10.0714
47.60443234110732 10.0395
47.62876734791564 10.0357
47.65310463578333 9.99987
47.6776343683373 10.0001
47.7019762413987 9.96842
47.72632040075572 9.97743
47.75066684815169 10.0024
47.77520581885936 9.9503
47.799556865477655 9.87113
47.823910205386 9.86624
47.84826584033272 9.880980000000001
47.87281407745551 9.87117
47.89717432569297 9.87844
47.92153687423484 9.834060000000001
47.94609208429692 9.818389999999999
47.97045925671401 9.77375
47.99482873471275 9.766919999999999
48.01920052005013 9.74868
48.04376504619224 9.73666
48.068141469543484 9.70861
48.09252020552573 9.702860000000001
48.11690125590099 9.668989999999999
48.1414751266064 9.6799
48.16586082917454 9.66036
48.19024885144316 9.61985
48.2146391951793 9.59832
48.239222439012764 9.62073
48.26361744916137 9.586910000000001
48.28801478610016 9.6067
48.31241445160131 9.59216
48.337007097209366 9.543660000000001
48.36141144338331 9.50758
48.38581812345755 9.46464
48.41022713920929 9.519639999999999
48.434829215320704 9.47798
48.45924292604658 9.44008
48.48365897780325 9.45728
48.50807737237308 9.40635
48.532688907799276 9.41802
48.55711201168574 9.39361
48.581537463754074 9.34982
48.60615611725119 9.362260000000001
48.63058628942721 9.305719999999999
48.65501881516546 9.31434
48.6794536962573 9.268889999999999
48.70408185970339 9.27623
48.72852147531801 9.271139999999999
48.75296345168211 9.243
48.77740779059232 9.25056
48.80204549302823 9.22762
48.82649458091802 9.17418
48.85094603676547 9.19026
48.87539986237231 9.15807
48.90004713292306 9.138010000000001
48.92450572200832 9.13167
48.94896668628025 9.13538
48.97343002754588 9.07521
48.99808689542115 9.065339999999999
49.02255501470614 9.08725
49.04702551642794 9.01428
49.0714984023988 9.02714
49.096164896893235 8.981689999999999
49.120642575466796 8.96833
49.145122643748394 8.95604
49.16960510355558 8.95454
49.19428125404938 8.96162
49.2187685210852 8.93486
49.243258185121555 8.8884
49.26794160167084 8.84108
49.2924360839405 8.83623
49.31693296869764 8.80003
49.34143225776915 8.8019
49.36612538195438 8.8153
49.39062950396021 8.804739999999999
49.41513603578346 8.79102
49.4396449792564 8.78726
49.46434784069503 8.762880000000001
49.488861631846454 8.719380000000001
49.513377840166804 8.69824
49.537896467493745 8.65512
49.56260909589029 8.65505
49.587132585683285 8.64805
49.611658500018365 8.64781
49.636186840738596 8.61321
49.66090926588511 8.59901
49.685442483902584 8.557139999999999
49.70997813385706 8.54527
49.734516217597076 8.572519999999999
49.75924846937352 8.53031
49.7837914452858 8.524510000000001
49.80833686055187 8.50243
49.83288471702571 8.45908
49.85762682540054 8.45312
49.882179588965734 8.42377
49.9067347993235 8.45726
49.93129245833333 8.442789999999999
49.95604445336378 8.4015
49.98060703442832 8.40948
50.005172069746266 8.3741
50.02993150438364 8.33801
50.05450147301533 8.34539
50.07907390151433 8.31639
50.10364879174981 8.285169999999999
50.12841816587289 8.290510000000001
50.1529980044635 8.264610000000001
50.17758031042124 8.26085
50.20216508562089 8.2579
50.22694442953363 8.21692
50.25153416817468 8.23376
50.27612638170508 8.22392
50.300721072005196 8.15049
50.325510416102105 8.17782
50.350110084975064 8.12078
50.37471223628208 8.16248
50.39931687190919 8.11631
50.424116246675766 8.10092
50.44872587605249 8.10038
50.47333799543065 8.10636
50.49795260670191 8.10154
50.52276204271512 8.02829
50.54738166295838 8.023010000000001
50.57200378079314 8.01943
50.596628398116835 8.00083
50.62144792604559 8.008980000000001
50.646077567609396 7.979089999999999
50.670709714377715 7.96886
50.69553683636198 7.956589999999999
50.72017401885922 7.9396
50.7448137122895 7.914969999999999
50.76945591856022 7.8879399999999995
50.79429318636823 7.89492
50.818940443716784 7.8594
50.84359021965163 7.8617300000000006
50.868242516085964 7.86975
50.893089960641895 7.847060000000001
50.917747323549435 7.777
50.94240721271973 7.79265
50.96706963007175 7.761189999999999
50.99192728239342 7.741860000000001
51.01659478166073 7.75265
51.04126481489051 7.710489999999999
51.06593738400761 7.70033
51.090805275207074 7.7008600000000005
51.11548294172845 7.67317
51.14016314993547 7.660069999999999
51.164845901758845 7.67207
51.18972406304274 7.6356399999999995
51.21441192780656 7.622789999999999
51.23910234200271 7.627510000000001
51.2637953075678 7.57965
51.288683770237945 7.535239999999999
51.31338186432707 7.54375
51.33808251561888 7.54709
51.362978729967345 7.53855
51.387684521509755 7.542680000000001
51.41239287610203 7.54121
51.437103795691165 7.47035
51.46201036644977 7.47348
51.486726441956634 7.429530000000001
51.51144508832545 7.4227
51.536166307509156 7.437469999999999
51.56108326624387 7.4239999999999995
51.58580965706056 7.420610000000001
51.61053862657523 7.400530000000001
51.635270176746864 7.344460000000001
51.66019755512065 7.34503
51.68493429268881 7.332439999999999
51.70967361681515 7.30093
51.73441552946465 7.260910000000001
51.759353359237934 7.275469999999999
51.7841004750961 7.27734
51.80885018539685 7.29068
51.833602492111254 7.240889999999999
51.8585508051424 7.24149
51.883308330926425 7.20673
51.90806845906181 7.172999999999999
51.932831191525715 7.18403
51.95779001977161 7.16513
51.98255798721516 7.16073
52.00732856494335 7.13819
52.03229530577543 7.111280000000001
52.057071130455945 7.10675
52.081849571391054 7.10814
52.106630630568695 7.10065
52.13160794279417 7.076969999999999
52.15639426492067 7.035419999999999
52.18118321127822 7.039389999999999
52.205974783860896 7.01127
52.23096269971011 7.0141
52.255759551287994 7.01155
52.280559035098186 6.97549
52.30536115314103 6.94477
52.33035970494467 6.947260000000001
52.35516711807904 6.93571
52.37997717147198 6.884519999999999
52.40478986713005 6.948810000000001
52.42979908731974 6.917660000000001
52.454617094216 6.88432
52.47943774942214 6.849939999999999
52.50426105495102 6.828860000000001
52.529280976059844 6.79513
52.554109609024096 6.80169
52.57894089837482 6.81168
52.60377484613117 6.81855
52.62880550079408 6.7689699999999995
52.65364479223379 6.78045
52.67848674816189 6.741389999999999
52.70352547971946 6.71497
52.72837279155837 6.77809
52.753222773982785 6.69528
52.778075429022984 6.70717
52.80312495150885 6.66752
52.827982978797436 6.64173
52.85284368481815 6.6415
52.87770707160767 6.621230000000001
52.90276741793998 6.60895
52.92763619336701 6.59572
52.952507655698504 6.55742
52.977381806977576 6.59247
53.00245301017842 6.60032
53.02733256653592 6.57331
53.052214817996074 6.54438
53.077099766608484 6.51944
53.102181859804446 6.51804
53.127072229988265 6.50169
53.15196530349892 6.50139
53.17686108239249 6.45408
53.20195409881522 6.45596
53.22685531582556 6.47016
53.25175924441303 6.418830000000001
53.27666588664027 6.37818
53.30176985962693 6.36753
53.3266819565689 6.37869
53.35159677336455 6.38945
53.376514312083096 6.37574
53.40162927507703 6.365480000000001
53.42655228516116 6.32529
53.45147802340193 6.29389
53.47660125628886 6.2782599999999995
53.50153247842639 6.25284
53.52646643496923 6.2430900000000005
53.55140312799818 6.2923
53.576537409691696 6.2735
53.60147960336152 6.24134
53.626424539786164 6.2506699999999995
53.65137222105307 6.21977
53.67651758529126 6.18912
53.70147078399681 6.14363
53.72642673383343 6.18687
53.75138543689533 6.14445
53.776541917524526 6.1862
53.801506154876755 6.150469999999999
53.826473151763246 6.12101
53.851442910284916 6.11546
53.87661054126026 6.0902
53.9015858509782 6.11915
53.92656392866066 6.02118
53.95154477641532 6.05556
53.976723591801296 6.04617
54.00171000771266 6.05924
54.02669920004598 6.03435
54.051691170915745 5.9875
54.076881204886796 6.01826
54.101878760928514 6.02665
54.12687910187696 5.98108
54.152077577768296 5.946280000000001
54.1770835166946 5.90182
54.20209224691339 5.95271
54.22710377055121 5.9158599999999995
54.25231352511594 5.9024
54.27733066384342 5.85872
54.30235060239643 5.831980000000001
54.32737334290836 5.8289
54.35259441062629 5.785769999999999
54.377622783395324 5.79408
54.40265396455061 5.81208
54.42768795623251 5.80828
54.45292037169559 5.76305
54.477960012857906 5.7552900000000005
54.50300247099511 5.74014
54.52804774825457 5.73195
54.55329154616743 5.65339
54.57834249018678 5.65377
54.6033962597977 5.6376599999999994
54.6284528571545 5.63861
54.653708072335164 5.56726
54.67877035378786 5.62528
54.70383546947698 5.554469999999999
54.72890342156389 5.58742
54.7541700889442 5.55012
54.77924374251975 5.47866
54.8043202390049 5.4501800000000005
54.82959552413022 5.480980000000001
54.8546777351945 5.4513
54.87976279569621 5.41448
54.90485070780914 5.41708
54.930137506558005 5.3695
54.95523115074295 5.3831
54.98032765308844 5.363180000000001
55.005427015775496 5.3109
55.03072536339621 5.30054
55.05583047570572 5.28448
55.080938454927676 5.27308
55.10604930325027 5.23993
55.131359235107396 5.2763599999999995
55.15647585066083 5.19719
55.181595341907496 5.18176
55.20671771104285 5.10056
55.232039262617704 5.14383
55.25716741665048 5.10269
55.28229845518636 5.086880000000001
55.30743238042802 5.04941
55.33276558731939 5.03855
55.357905315183636 5.07758
55.383047936390035 5.02924
55.40819345314859 4.9829
55.433538351073295 4.98571
55.458689688238415 4.93256
55.483843927614096 4.87739
55.509197623043605 4.912669999999999
55.53435769621134 4.89561
55.55952067826466 4.89576
55.5846865714265 4.85237
55.61005202069737 4.81944
55.63522376553902 4.7961800000000006
55.66039842818645 4.72572
55.68557601087004 4.78505
55.7109532500271 4.72136
55.73613670233794 4.76513
