TT I
1.2716486653135266 7.64354
1.2939594142134223 7.062589999999999
1.3162702121660406 6.40271
1.3385810600174564 6.5048699999999995
1.3608919586137629 7.20966
1.383202908801069 6.3861
1.405513911425503 6.30008
1.4278249673332093 5.93751
1.4501343378461518 6.374969999999999
1.4724455028545926 6.57653
1.4947567236847858 6.13687
1.517068001182951 6.6364399999999995
1.5393793361953272 6.04116
1.5616907295681737 6.29387
1.5840021821477681 5.343319999999999
1.60631369478041 5.62576
1.6286252683124185 5.33359
1.6509369035901333 4.8369599999999995
1.6732468618895553 4.82313
1.695558623192809 4.43278
1.7178704487808514 4.92511
1.7401823395001077 4.8463400000000005
1.7625012545597203 4.64708
1.7848028405262486 4.46062
1.8071218901122095 5.06313
1.8294236121921872 4.76946
1.8517427996910911 4.6868
1.8740620574440425 4.777909999999999
1.8963639900671978 4.81712
1.9186833908139995 4.75465
1.9409854680117449 4.40759
1.9633050151394713 5.07967
1.9856246367570705 5.00816
2.0079269371922672 4.30943
2.03024671027244 3.75834
2.0525491637446027 4.25421
2.074869091674931 4.37824
2.097171701569106 4.26561
2.1194917877373847 4.73349
2.141811954326636 5.11653
2.164114805233074 5.471080000000001
2.186435135143035 6.21936
2.208738150935709 12.2086
2.231058647554722 22.4691
2.2533792288321184 17.7611
2.275682498336085 8.47158
2.298003251406138 5.76661
2.3203066942619714 5.66827
2.3426276225136022 5.21764
2.3649486396617507 5.03086
2.387252348930071 5.67794
2.4095735463442893 6.09264
2.4318774374315884 5.87056
2.4541988185014043 6.17425
2.476502894794693 6.7789399999999995
2.498824462909887 6.80995
2.521146125856138 6.59998
2.5434504863470337 7.10805
2.5657723414244717 8.09752
2.588076895590662 7.534389999999999
2.610398946189713 7.52243
2.6327210958598384 7.70763
2.6550259469304716 7.47348
2.6773482972090137 7.65304
2.6996533504259 7.589980000000001
2.7219759047039602 7.29752
2.744298562293959 8.14775
2.7666039251246595 7.99918
2.7889267918020164 7.5267100000000005
2.8112323652516555 8.17955
2.833555444408179 8.23433
2.8558786311183852 8.53084
2.8781845268938557 8.27712
2.9005079311721484 8.65967
2.9228140460410397 9.60399
2.9451376712799635 9.66002
2.967444008632326 9.4234
2.9897678582247247 9.653780000000001
3.0120918213106695 10.208
3.0343984987899373 10.796
3.0567226913198637 11.1094
3.079029599759726 11.5409
3.101354025127254 12.0204
3.123678568232338 12.9796
3.145985829517914 13.3441
3.16831061055229 13.5354
3.1906181112775593 14.1138
3.212943133635653 14.5501
3.2352682779763207 14.7933
3.2575761442691227 15.1
3.2799015350264273 15.8168
3.302209649240067 15.9288
3.3245352898092655 17.028
3.3468436553365257 17.8609
3.369169549113219 17.4305
3.3914955708171384 18.4296
3.413804319727358 18.8078
3.4361305997334863 19.0589
3.4584396084414553 19.6865
3.4807661501462652 20.2638
3.503092824025881 20.8757
3.5254022288463154 21.2731
3.5477291695206588 21.7422
3.5700388426251948 22.4025
3.5923660534916446 23.5004
3.6146934007816114 35.3945
3.637003482731501 74.308
3.6593311053109985 80.2882
3.681641464033634 48.7266
3.7039693653009733 29.3049
3.726297407241705 26.1622
3.7486081875460804 25.9011
3.7709365132734978 26.024
3.793247578841633 26.6474
3.8155761917550093 26.5622
3.8378875459837216 27.23
3.8602164494827234 27.5178
3.882545499606844 28.2569
3.9048572932539183 28.7333
3.9271866390645718 28.9915
3.9494987298666713 29.4438
3.971828374764527 30.3092
3.9941581705403255 31.1299
4.016470713506008 31.5968
4.038800813471445 32.1355
4.061113662089144 32.7768
4.0834440696459176 33.4762
4.105774632334751 33.9641
4.128087945865126 34.4732
4.150418821249301 35.0845
4.172732448931298 36.9385
4.195063640413578 38.2722
4.2173775856475215 41.2306
4.239709096631102 67.1927
4.262040768704612 189.947
4.284355196706267 249.045
4.306687193387355 162.675
4.329001947444346 70.6295
4.35133427213731 47.1751
4.373666762177566 44.4734
4.395982011761091 44.1982
4.418314834921175 45.5165
4.44063041906622 52.3295
4.4629635787515625 60.1717
4.4852969080429785 60.1786
4.5076130004776225 53.1503
4.529946671403969 50.8063
4.552263106909177 50.5425
4.574597122877047 51.5119
4.596931312711224 52.6437
4.619248269273446 53.7927
4.6415828092605835 54.619
4.663900117405352 55.6886
4.686235010953232 56.9884
4.708552674085913 58.8213
4.730887924602802 60.5992
4.753223354952695 61.7656
4.775541557023902 63.3966
4.797877349456786 64.7519
4.820195915032126 66.4733
4.842532072957498 68.3381
4.864868414979744 69.943
4.88718753227192 72.0377
4.909524244902505 74.1841
4.931843734218147 76.3013
4.954180820867835 78.4703
4.976518095879839 81.7395
4.998838149695359 83.9289
5.021175803844231 87.853
5.043496238205739 91.9824
5.065834274903528 96.9543
5.088172504230693 102.605
5.1104935158799565 109.441
5.132832132875765 129.154
5.155153533596801 167.166
5.1774925416746225 210.454
5.199814334878411 418.963
5.2221537374521505 1202.49
5.244493338631803 3128.78
5.266815727034316 8051.8
5.289155727832427 12271.4
5.311478517248165 8593.82
5.333818921080011 3081.82
5.356159527788849 635.295
5.3784829252032536 194.58599999999998
5.400823940070432 147.707
5.423147747031976 130.40200000000002
5.445489173474152 120.264
5.467830807066149 114.57799999999999
5.490155234831516 110.664
5.512497285125229 107.163
5.534822130975162 105.211
5.557164601388673 103.088
5.579489868738879 100.12899999999999
5.601832762690846 99.4981
5.6241758697774475 98.1592
5.646501775867269 96.9966
5.668845311622074 95.9986
5.691171647754637 94.9057
5.713515615597765 94.1522
5.735859800852677 93.0073
5.758186788542988 92.4039
5.780531411018185 93.1408
5.802858837297399 92.4733
5.825203900414495 92.4183
5.8475491852224 92.9358
5.869877275883075 93.6275
5.892223006467101 94.7312
5.914551544266608 96.5781
5.936897724049891 99.6886
5.959244129804903 106.603
5.981573344815301 132.013
6.0039202049061 244.78
6.026249875609095 528.945
6.04859719346037 1086.4
6.070927323278297 2311.99
6.093275102315365 4439.1
6.115623113320588 5598.77
6.137953938319995 3472.15
6.160302415650845 1081.43
6.182633708324452 256.10900000000004
6.2049826554078376 117.344
6.227331838745022 94.2481
6.249663839443684 86.2228
6.27201349767565 83.0277
6.294345974611799 86.8984
6.316696111167083 94.9342
6.339046488263839 90.6533
6.361379686074702 78.5332
6.383730546639482 71.7258
6.406064229255215 69.3617
6.428415576718203 68.6024
6.450749747566656 67.5143
6.47310158535871 66.4923
6.495453669698332 65.5069
6.517788579421056 64.7584
6.540141159237969 64.4806
6.562476565766648 63.3284
6.5848296444934045 63.0382
6.607182974060425 62.6818
6.6295191323281015 62.6789
6.651872965955752 65.223
6.6742096296068985 85.6376
6.6965639707294615 120.676
6.71891856698715 119.76100000000001
6.741255995248479 86.2611
6.763611104154477 66.0051
6.785949046381137 60.1207
6.808304671371482 58.6439
6.8306605557940046 58.4349
6.852999275508618 57.4448
6.875355681171544 57.437
6.897694923437771 57.3393
6.92005185377892 57.0233
6.9423916220322655 56.6647
6.964749080490181 56.101000000000006
6.987106804399774 55.9407
7.009447368180821 55.95
7.031805625367033 55.7157
7.054146723727803 55.3706
7.076505517631004 55.1645
7.098864581288365 55.2303
7.121206488070854 54.8373
7.143566093607822 55.1454
7.165908543567245 55.3675
7.188268694426048 55.0328
7.2106291193438095 55.2496
7.232972390625943 56.5512
7.255333366030969 67.069
7.277677189091925 106.87200000000001
7.300038718428332 143.86
7.322400526130865 123.61399999999999
7.344745183422596 81.4691
7.367107550224791 60.6999
7.389452767901992 56.0602
7.411815697249891 55.3774
7.434161478756298 54.3951
7.456524974096713 54.4716
7.478888753837185 54.5723
7.501235387657368 54.7256
7.523599738562711 54.9101
7.545946944825532 54.9325
7.568311870344528 55.4233
7.5906770845765665 55.6687
7.613025156078678 56.6579
7.635390950099687 58.0488
7.657739602662809 56.935
7.680105979923558 56.0505
7.702472650212829 56.4036
7.724822180948224 56.5342
7.747189439655568 56.6352
7.769539560075357 56.8006
7.791907410653562 57.2368
7.81425812420825 56.9966
7.836626570110925 56.8589
7.858995315087906 57.9803
7.881346924933401 58.3268
7.903716270417482 58.9707
7.926068482028405 59.1363
7.948438431475253 59.5623
7.9708086843180235 60.4662
7.993161805171116 61.0336
8.015532667162402 61.2756
8.037886398416653 62.3697
8.060257873014221 62.8535
8.082629655331942 63.4503
8.104984308787587 64.0051
8.127356708900503 66.9597
8.149711981398308 71.4447
8.172085002766314 73.3035
8.194458336181368 71.2421
8.216814543847752 69.7359
8.23918850371002 69.8856
8.26154533906492 70.6456
8.283919928836452 72.2854
8.306277395339652 73.602
8.328652618483376 74.986
8.351028159736202 76.6929
8.373386579575245 78.9812
8.395762759396959 81.0948
8.418121819038275 85.7612
8.440498640894003 97.1715
8.462875785192262 110.816
8.485235811156207 129.215
8.507613602688501 182.638
8.529974277114228 283.014
8.552352719347912 430.725
8.574731488360351 705.5110000000001
8.59709314210385 1225.86
8.619472567021075 1876.7
8.64183487789147 2208.99
8.664214962183097 1774.68
8.686577933647762 942.444
8.708958680784317 373.87199999999996
8.731339760774953 165.428
8.753703729764451 112.45299999999999
8.77608547780821 100.415
8.798450116065078 96.1221
8.820832535634787 93.34899999999999
8.843215292401656 92.0276
8.865580941199045 90.2074
8.887964374703538 89.0451
8.910330701447199 89.6357
8.932714815164482 91.4311
8.955099270424924 90.3202
8.977466620733543 87.8173
8.999851761421976 85.6364
9.022219798361645 83.9165
9.04460562795561 83.7204
9.066991803441677 83.5315
9.089360876979615 83.2195
9.111747746589993 83.1526
9.13411751544971 82.4752
9.156505082664324 82.3588
9.178875550323522 82.5912
9.20126381862328 83.0351
9.223652438908596 83.3982
9.246023961427412 83.3788
9.26841328802173 82.7682
9.290785518039224 82.6959
9.313175554425882 83.4159
9.335565947154315 83.2357
9.357939245086508 83.3749
9.380330352834827 83.65
9.40270436697103 84.1504
9.425096193225055 83.9085
9.447488380180165 84.8795
9.469863475295412 85.04700000000001
9.492256385987508 84.9056
9.514632206018318 85.9848
9.537025843935714 86.29799999999999
9.559402392368193 87.0548
9.581796761000229 88.279
9.604191496441521 88.8083
9.626569144158516 92.0984
9.648964615551032 95.1803
9.671343000390081 96.6763
9.693739211225699 95.7797
9.716135793237463 94.0444
9.738515290448102 93.9844
9.760912617143402 94.6347
9.783292860202891 95.9411
9.805690935076182 96.7877
9.828089385495742 98.0753
9.850470754023561 100.346
9.872869957865444 107.681
9.89525208097539 119.662
9.917652041736662 130.559
9.940052382417589 134.123
9.962435644102392 150.053
9.984836746950979 195.515
10.007220771957746 266.518
10.029622640473708 374.773
10.052007432299963 558.186
10.074410069984072 847.4989999999999
10.096813093716005 1268.78
10.119199042482517 1712.62
10.141602840636468 1886.13
10.163989564971628 1548.24
10.186394141051062 881.7589999999999
10.208799107559706 384.665
10.231187001965623 184.607
10.253592751657669 125.89200000000001
10.275981430388155 113.75399999999999
10.298387966769793 112.809
10.320794897965431 114.01700000000001
10.343184759907361 113.07
10.36559248305461 108.07
10.387983138083852 105.281
10.410391656691655 110.579
10.432800574501677 124.23100000000001
10.455192425893369 141.57399999999998
10.47760214443012 168.88099999999997
10.499994797678786 213.947
10.522405320453982 292.143
10.54479877906917 408.36
10.567210109595656 515.876
10.5896218454736 561.64
10.612016518879773 496.042
10.634429067781074 337.12199999999996
10.656824555333241 192.112
10.679237920773568 119.616
10.701651695961992 95.5731
10.724048411481384 89.7054
10.746463008485165 86.9629
10.768860546937125 85.3942
10.791275969274796 83.6335
10.81369180576079 82.7754
10.836090585366925 81.5207
10.858507252467449 80.1662
10.88090686379991 79.4751
10.903324365036394 78.816
10.925724811614439 78.3399
10.948143150509463 79.3756
10.970561909719066 78.3151
10.992963615930844 76.8101
11.015383218085756 74.857
11.037785768347074 73.5054
11.06020621697282 72.9034
11.082627090322113 72.6131
11.105030913430326 71.921
11.12745263854165 72.5467
11.149857314510728 74.8213
11.172279894912576 79.4076
11.194702904450653 79.7321
11.217108866490921 76.6235
11.239532736615194 73.2678
11.26193956033512 71.259
11.284364294577085 69.8245
11.306789462371718 68.4316
11.329197585398376 67.4216
11.351623622610898 67.2459
11.37403261614354 66.4685
11.396459526308487 66.3323
11.418869393879497 66.0183
11.441297180532617 65.4764
11.463725406927658 65.35600000000001
11.486136592353875 65.0687
11.508565700543707 65.3014
11.530977768845315 66.5595
11.553407762368774 67.2858
11.575838200059769 67.1028
11.598251599479612 65.5365
11.620682927815501 64.2634
11.64309721895548 63.8393
11.665529441478206 63.5097
11.687962112597958 63.4076
11.710377748130886 63.4273
11.732811318753434 63.3136
11.755227854859067 63.2091
11.777662328529495 63.0724
11.800079768750786 62.7089
11.822515149015453 62.8461
11.844950984084935 63.0116
11.867369787303163 62.7852
11.889806534289491 62.713
11.912226250487029 63.2153
11.934663912939751 63.5105
11.9571020346363 63.5612
11.979523127133968 63.5328
12.001962169624331 64.5123
12.024384183972964 65.9587
12.046824150809913 69.8473
12.069264581333726 75.3395
12.091687985297767 81.5885
12.11412934550045 91.1693
12.136553680195208 105.85
12.158995973632788 128.222
12.181438735204349 155.576
12.20386447284199 184.153
12.226308172985636 202.798
12.24873485024193 199.324
12.271179492516982 160.595
12.293607112949127 121.9
12.316052700916226 91.8674
12.338498763250042 76.2426
12.360927805303868 69.0956
12.383374818673879 66.3412
12.405804812803074 64.7657
12.428252780773262 64.6632
12.45070122756722 64.7312
12.473132656675375 64.3859
12.49558206341869 64.7089
12.518014453510101 64.796
12.540464823770117 64.8999
12.562915677315177 64.9834
12.58534951575545 65.89399999999999
12.607801338171472 67.2602
12.630236146511358 71.0626
12.652688941369085 74.949
12.675124723177234 75.2398
12.697578494048786 72.8256
12.720032754458185 69.5362
12.742470003354093 68.1965
12.764925245138771 67.9613
12.787363476431278 68.6375
12.809819703166806 68.7254
12.83227642391173 69.416
12.854716135692716 70.1251
12.877173846755147 71.4709
12.899614549869717 71.3946
12.9220732548287 72.4191
12.94453245827299 72.7194
12.966974655289818 73.8548
12.989434858002571 74.7739
13.011878055298721 75.322
13.034339260862497 76.3032
13.056800969391883 77.9544
13.079245674017244 80.1959
13.101708390774869 83.3193
13.12415410463411 91.7989
13.146617833206086 104.315
13.169064559883248 116.665
13.191529303857127 132.378
13.213994557076367 156.487
13.236442809902437 194.328
13.258909083908291 247.8
13.28135835851934 307.782
13.30382565690295 374.673
13.326293469022952 425.653
13.348744283242008 428.769
13.371213125129904 353.707
13.39366497011003 257.607
13.416134845360597 170.33599999999998
13.438605238843131 122.081
13.46105863690397 107.601
13.483530069144786 108.97
13.505984506951902 115.243
13.528456981549432 125.141
13.550929978879088 141.264
13.573385983253365 165.363
13.595860028340867 204.06599999999997
13.618317081455832 252.988
13.64079217790333 307.283
13.663250283359057 348.466
13.685726434770173 367.591
13.708203115221277 339.63699999999994
13.730662806148091 255.09599999999998
13.75314054697177 180.84
13.775601299246777 125.954
13.798080104050406 96.3726
13.820559442405358 85.3606
13.843021793671388 82.0847
13.865502201420897 80.4915
13.887965623051947 79.8587
13.910447103807167 78.9347
13.932929122629764 77.7438
13.955394156785959 77.393
13.977877254034569 76.134
14.000343367582113 75.4233
14.022827546871707 74.8299
14.045294743423524 74.3694
14.06778000837062 73.4829
14.090265817715476 73.41
14.112734645763819 72.8536
14.13522154619454 73.0241
14.157691466286913 72.7928
14.180179461423874 72.5233
14.202668005486178 71.8979
14.22513957064374 71.2249
14.247629214846473 70.8768
14.270101881097517 70.6268
14.29259262906496 70.688
14.315083930490205 71.2937
14.337558255389705 71.669
14.360050666019726 71.3592
14.382526101071944 70.3859
14.405019624534942 69.689
14.427513705993134 69.3942
14.449990813291825 69.0371
14.47248601302899 69.264
14.49496423954951 69.3828
14.517460561197822 69.6539
14.539939910570322 68.872
14.562437357763558 69.4527
14.58493536931253 70.5825
14.607416409993311 70.9329
14.62991555254159 71.6625
14.652397725157423 71.6075
14.674898002342799 71.3204
14.697398848433282 71.0289
14.719882725991326 72.0563
14.74238471217934 73.5005
14.764869730765593 77.2732
14.787372860692983 81.1882
14.809876564079925 86.1863
14.83236330125751 91.99799999999999
14.854868153850365 100.87200000000001
14.877356041159485 114.37299999999999
14.899862046604186 133.089
14.922351087688757 156.903
14.944858249632887 184.00400000000002
14.967365991421232 208.047
14.989856770231246 221.271
15.012365673994204 217.982
15.03485761569738 185.637
15.05736768508665 145.714
15.07987833888692 111.257
15.102372032001655 88.6431
15.124883856909658 76.5427
15.14737872204565 72.4992
15.169891721717274 70.8589
15.192405310371893 70.7078
15.214901940621196 70.9616
15.237416709527137 70.8771
15.259914520936249 70.7187
15.282430473753607 70.2688
15.304947020131227 69.1642
15.327446610371178 68.4227
15.349964346154254 67.809
15.372465126703139 67.3504
15.394984055556009 67.0324
15.417486030076159 66.6931
15.44000615566487 66.4758
15.462526881230803 66.4731
15.485030653812652 66.6955
15.507552581617434 66.5335
15.530057557334603 66.4122
15.55258069104857 66.5415
15.575104429329837 66.6604
15.597611216864632 66.5592
15.620136166564563 66.7527
15.6426441664095 68.2764
15.665170331202765 70.7372
15.687697105158826 74.3079
15.710206930593545 77.8455
15.732734925158933 82.2955
15.755245972089478 89.2668
15.77777519094324 98.1451
15.800287463046663 111.516
15.822817909869592 130.379
15.84534897229804 149.601
15.867863089299354 172.368
15.890395385222186 188.855
15.912910736597423 194.667
15.935444269699861 180.63099999999997
15.957978423016485 154.429
15.980495633101265 120.789
16.003031029129367 95.1133
16.02554948280019 75.9215
16.048086125229432 67.4651
16.070623392487107 65.0393
16.09314371869582 64.1709
16.11568223789321 63.5172
16.13820381691126 62.5341
16.160743591742527 61.7374
16.183283996022084 60.8682
16.205807461423195 60.0357
16.228349126881973 59.361000000000004
16.25087385432698 59.2744
16.27341678466365 58.5025
16.29594277784926 58.5172
16.31848697676433 58.806000000000004
16.341031811604868 58.8342
16.36355971058487 58.9511
16.3861058195587 58.6748
16.40863499352978 57.8776
16.431182380342005 56.9809
16.453730407713202 56.5103
16.476261501364792 56.2125
16.498810812136167 55.9105
16.52134319004079 55.9648
16.54389378792203 55.7774
16.566445031001553 55.77
16.588979342490088 55.6309
16.61153187824822 55.4759
16.634067483263312 55.2633
16.656621315414416 55.0703
16.679175797408888 54.8441
16.701713349928728 54.9753
16.72426913389191 55.3876
16.74680798922351 55.3198
16.76936507887444 55.3929
16.791905240734874 55.2191
16.814463639794468 55.0465
16.837022695210294 55.2894
16.859564824093756 55.4559
16.882125194503903 55.8857
16.904668639217885 56.5041
16.927230328348003 56.7749
16.949792678493612 56.7666
16.972338104193863 56.2879
16.994901778652235 55.9934
17.017448529496576 55.9493
17.040013531998152 56.4501
17.06257920018044 56.8607
17.0851279459922 57.7393
17.107694947817667 58.562
17.130245028099072 59.3553
17.15281336730298 60.6656
17.17536478578733 62.5941
17.19793446610687 64.9764
17.220504818648422 67.7007
17.243058251703697 70.7412
17.265629950971032 75.0304
17.288184731571736 78.5958
17.310757781306908 82.4534
17.33333150794385 83.7082
17.355888317140174 81.7618
17.37846339986244 77.6191
17.401021565958885 71.3602
17.42359800851343 65.7799
17.44617513265564 61.9667
17.468735341390783 60.2723
17.491261035594565 59.4408
17.51396340099364 59.1882
17.536490463869136 59.4287
17.559018209820174 59.4369
17.58154663977963 59.6041
17.604251766089718 59.6589
17.626781572227713 60.0059
17.64931206518155 60.2036
17.671843245885103 60.7885
17.69455114821572 60.9186
17.717083712612634 61.2677
17.739616967569667 61.541000000000004
17.762150914021706 61.8521
17.78486160749854 61.781000000000006
17.807396945166804 62.7076
17.829932977143503 64.0719
17.85246970436452 65.7483
17.875183204129467 67.4965
17.897721330097664 69.7707
17.920260154126645 72.1537
17.942799677153296 75.2454
17.9655159983646 79.0412
17.988056927677544 84.5928
18.010598558807683 92.2245
18.033140892692916 101.92399999999999
18.05586005052525 111.824
18.07840379824407 123.27
18.10094825154059 133.999
18.12366954819864 141.076
18.146215420998306 141.71200000000002
18.16876200220057 132.191
18.191309292745153 117.561
18.214033452627167 103.21
18.236582170236648 91.8418
18.259131600016456 87.0671
18.281681742907335 87.6671
18.304408781233683 91.7798
18.32696035875955 96.7498
18.349512652227624 101.272
18.372065662579683 105.605
18.394795594587553 106.569
18.41735004715306 103.236
18.43990521943684 95.4646
18.46246111238171 86.2395
18.485193953325208 77.1062
18.507751296070428 69.9751
18.530309362314178 65.9438
18.552868153000343 63.9965
18.57560391815056 62.7007
18.59816416623245 62.1072
18.620725141597372 61.699
18.643286845190268 61.3129
18.666025549835414 60.916000000000004
18.688588718427933 60.303999999999995
18.711152618092243 60.1137
18.73389353884365 59.8513
18.75645890921984 59.2351
18.77902501351406 58.9819
18.801591852673102 59.0511
18.824335739722738 58.4692
18.846904057212626 58.3029
18.8694731124168 58.2151
18.89204290628315 58.1045
18.914789774966803 57.8839
18.937361054791623 57.7298
18.959933076131318 57.5418
18.982505839934877 57.5169
19.00525570560582 57.6491
19.027829963004184 57.1416
19.05040496572238 57.3478
19.072980714710468 57.4897
19.095733592739563 57.9225
19.11831084296757 58.1245
19.140888842324735 58.288000000000004
19.16346759176222 58.703
19.18622349753803 59.0758
19.208803755869358 60.0002
19.231384767143577 61.4785
19.253966532312948 62.9947
19.276725481241822 64.9286
19.29930876296784 67.4509
19.3218928014549 70.0632
19.34465404436217 73.0393
19.36723960516257 75.7776
19.389825925592426 76.4862
19.412413006605938 75.5466
19.43517731967805 72.1759
19.457765930683355 67.7036
19.48035530514408 63.1987
19.50294544401556 59.4554
19.525712842708348 57.0305
19.54830451925909 55.5353
19.570896963095727 54.6454
19.593490175174704 54.3283
19.616260674962184 54.2384
19.638855432416964 53.8383
19.661450960992624 53.8962
19.68404726164677 53.9694
19.706820878021247 53.6907
19.729418731756834 53.8689
19.752017360452857 53.6564
19.77461676506804 53.9527
19.797393513540218 53.9928
19.819994478951667 54.1878
19.84259622316767 54.9245
19.8651987471481 55.2886
19.887978643247177 55.575
19.91058273574792 56.0095
19.933187610901943 56.973
19.955969879466828 58.0017
19.97857632894404 59.6302
20.00118356396599 60.9471
20.023791585494575 62.952
20.046577028914875 65.6902
20.069186632506966 67.8671
20.091797025500632 69.7838
20.114408208858933 70.355
20.137196842715273 69.8935
20.159809615886765 68.5406
20.18242318232135 65.8435
20.20503754298326 64.0554
20.227829382875154 62.6399
20.250445341109344 62.5568
20.27306209647285 63.2312
20.29567964993108 64.3285
20.31847471147704 65.1547
20.34109387027612 65.9871
20.363713830075454 65.55199999999999
20.386334591841646 64.1753
20.409132890679302 61.7332
20.431755265564437 58.3235
20.454378445325528 55.5702
20.477002430930366 53.6543
20.499803982716553 52.3806
20.522429589228004 51.7249
20.54505600449589 51.1569
20.567683229489194 51.1853
20.590488049900088 50.7552
20.61311690359731 50.4265
20.63574656993626 50.3534
20.658553853717297 50.0226
20.681185154618298 49.7649
20.703817271080066 49.6891
20.72645020407368 49.5501
20.749260783967177 49.4959
20.771895359337133 49.4455
20.794530754161617 49.3589
20.817166969412938 49.288999999999994
20.83998086114876 49.2733
20.86261872660049 49.1507
20.885257415405402 49.1428
20.90789692853701 48.9276
20.930714147864748 48.7548
20.953355319030678 48.836000000000006
20.97599731745334 49.075
20.99864014410749 48.8909
21.021460706796564 48.977
21.044105199328826 49.3656
21.06675052302631 49.513999999999996
21.089396678865015 49.6641
21.112220600704806 50.0022
21.134868430275347 50.2529
21.15751709492456 50.5
21.180166595629693 50.8036
21.202993892429635 51.1552
21.22564507473034 51.4544
21.24829709602816 51.693000000000005
21.27112693608965 51.8941
21.293780644891275 51.6996
21.316435195634053 51.1282
21.339090589297417 50.3562
21.361923832041875 49.9316
21.384580921090404 49.2329
21.407238856007325 48.736999999999995
21.429897637773326 48.6849
21.45273429906592 48.6476
21.475394784108598 48.6763
21.498056118951983 48.6342
21.520718304578022 48.9066
21.543558400304388 49.0469
21.566222297108816 49.39
21.58888704765135 49.4293
21.61155265291521 49.7341
21.63439619898156 50.1617
21.657063523335786 50.3119
21.67973170537063 50.8285
21.7024007460706 51.3593
21.72524775840385 52.3087
21.747918526116475 53.3657
21.770590155457388 54.4345
21.79326264741238 56.1629
21.816113141960237 58.0057
21.838787368860547 59.5075
21.861462461341976 61.3288
21.884315579735777 63.1413
21.90699241312273 64.499
21.92967011506078 65.0157
21.95234868653799 64.7914
21.9752053151131 63.6115
21.997885635446785 61.6034
22.020566828293532 59.825
22.04324889464272 58.0571
22.066109049404666 56.8956
22.088792872571794 56.1875
22.111477572219204 56.2597
22.1341631493376 56.437
22.157026846313123 56.3456
22.179714188221507 55.5296
22.202402410582668 54.3553
22.22509151438863 52.9611
22.24795876962584 51.6673
22.270649646204486 50.806000000000004
22.293341407213727 50.2687
22.316034053646906 49.6166
22.338904883215342 49.3235
22.36159931041458 49.2254
22.38429462602756 49.2887
22.40699083104897 48.9657
22.429865251039757 48.9361
22.452563244831367 49.1985
22.47526213102522 49.1444
22.49813925616515 48.9615
22.520839937143307 48.9929
22.543541513520587 48.8973
22.56624398629403 48.8166
22.589124730075895 48.8483
22.611829005656723 48.9599
22.63453418063466 48.876000000000005
22.657240256008077 49.2253
22.680124634582935 49.437
22.70283252079775 49.7904
22.725541310413075 49.9901
22.74825100442868 50.3978
22.771139033969575 50.7319
22.79385054687155 50.8806
22.81656296718292 51.6012
22.83927629590484 52.4738
22.862167992606945 53.556000000000004
22.88488314827121 54.6829
22.907599215359284 55.5762
22.93031619487366 56.6419
22.953211574954405 57.5429
22.975930389478226 58.0114
22.998650119445763 58.3237
23.02137076586092 57.7128
23.044269845560063 56.2855
23.06699233506288 54.4906
23.089715744034912 52.9907
23.112617610931565 51.1247
23.135342869061212 49.9939
23.158069049684816 49.4535
23.1807961538087 49.1373
23.20370174880544 49.113
23.226430710184808 49.0616
23.249160598093425 49.1167
23.271891413539002 49.1353
23.294800752937697 49.3591
23.31753343374794 49.6098
23.340267045128353 49.5521
23.36300158808808 49.9375
23.38591468821339 50.2305
23.408651104658304 50.7126
23.431388455719986 51.3843
23.454126742409 52.1436
23.4770436196085 53.1022
23.499783787914662 54.3965
23.522524894889884 55.2632
23.54526694154616 56.2062
23.56818761219047 57.3091
23.59093154860734 57.7781
23.613676427751283 58.3496
23.636422250635754 57.2445
23.659346731118656 55.7467
23.68209445191868 53.6819
23.704843119509587 51.5752
23.72759273490623 49.6441
23.750521041644767 48.3722
23.77327256312355 47.4153
23.796025035462787 46.8895
23.818956224555475 46.434
23.841710609113413 46.193000000000005
23.86446594758979 45.9498
23.887222241002014 45.727
23.910157285144578 45.4487
23.932915498962537 45.4811
23.955674670778713 45.4832
23.978434801611975 45.1638
24.001373717286125 44.8436
24.024135776723917 44.8399
24.046898798245582 44.8
24.06966278287146 44.7623
24.092605586582614 44.6653
24.115371508023642 44.4815
24.1381383956401 44.244
24.16090625045381 44.3203
24.183852958731244 44.2482
24.206622758582608 44.138999999999996
24.229393528706886 43.8334
24.252165270127392 43.9557
24.27511589952438 43.9091
24.297889594216997 43.7062
24.32066426328598 43.5676
24.34343990775613 43.6947
24.36639447485003 43.4395
24.38917208083877 43.5042
24.41195066531332 43.4115
24.43490819850244 43.4657
24.457688750692377 43.2058
24.48047028445616 43.159
24.503252800821233 43.3416
24.526214300784112 43.4027
24.548998793132213 43.3224
24.57178427117417 43.1978
24.59457073593893 43.2734
24.617536219319863 43.1142
24.64032466834748 43.133
24.663114107195035 43.0792
24.685904536893013 42.8076
24.708874020360852 42.7187
24.731666442613744 42.6488
24.754459858818787 42.5452
24.777254270007962 42.5642
24.80022777025625 42.3876
24.82302418230472 42.5118
24.845821592443674 42.4628
24.86862000170663 42.4841
24.891597535453727 42.3929
24.914397953892728 42.5721
24.93719937456671 42.5248
24.96000179851076 42.7833
24.98298338249997 42.8489
25.00578782394922 43.0738
25.028593271784167 43.213
25.05157790644186 43.5583
25.07438537804115 43.5018
25.097193859145293 43.8157
25.120003350792075 44.0453
25.142992065061257 44.4145
25.165803588823465 44.7285
25.18861612625217 44.8348
25.211429678386736 44.9962
25.234422489079968 45.0372
25.257238081693636 45.0853
25.280054692141732 45.1681
25.3028723214652 45.1488
25.325869245420463 44.9798
25.348688923599397 45.0196
25.371509623787006 45.0902
25.394331347025812 44.902
25.41733240110666 44.3044
25.440156181590016 43.6985
25.46298098826268 43.1483
25.48580682216873 42.6468
25.50881202326435 42.0078
25.53163992281684 41.6888
25.55446885274561 41.4068
25.577298814096377 41.2236
25.600308179121807 41.0393
25.623140214533745 41.1794
25.64597328451537 41.0117
25.66898578564376 40.7577
25.691820936010206 40.8006
25.714657124097695 40.7843
25.737494350954734 40.7875
25.760511045684957 40.7358
25.783350361364224 40.7894
25.806190718969255 40.616
25.82903211955018 40.8716
25.852053024868923 40.917
25.874896522722523 41.065
25.897741066713106 40.9292
25.920586657892454 40.9218
25.943611790812668 40.9871
25.966459487728237 41.2225
25.989308234998564 41.2956
26.01215803367705 41.5396
26.03518741123814 41.7822
26.05803932412957 41.7907
26.080892291600094 41.9006
26.10374631470478 41.9334
26.12677995397268 41.9749
26.14963609978026 42.0403
26.172493304397875 41.6854
26.19535156888223 41.3536
26.218389486949604 40.9274
26.241249882640123 40.7045
26.26411134137826 40.5447
26.28715248187403 40.5191
26.31001607820869 40.3714
26.3328807407756 40.243
26.35574647063438 40.395
26.37879191991473 40.3521
26.401659795896734 40.3732
26.424528742360263 40.5412
26.447398760366614 40.7022
26.470448535598294 40.8467
26.49332070826805 41.1613
26.516193955675355 41.4077
26.53906827888316 41.5301
26.562122397260108 41.7919
26.584998883685063 41.9772
26.607876449110325 42.2579
26.63075509460056 42.3405
26.65381357334404 42.5356
26.67669439061878 42.4213
26.699576291163382 42.44
26.722459276044212 42.3033
26.745522132402975 41.9692
26.768407297649354 41.6765
26.791293550442003 41.1616
26.814180891848974 40.9661
26.837248143099337 40.6865
26.860137673466657 40.5149
26.88302829566349 40.3891
26.90592001075963 40.2137
26.92899167420566 40.016
26.951885586870763 39.7145
26.974780595655517 39.5157
26.99785558178161 39.3723
27.020752794605112 39.2755
27.043651106772522 39.1038
27.06655051935668 39.0481
27.089629948036183 39.0153
27.112531573292053 38.8952
27.135434302194138 39.0345
27.158338135817015 38.8078
27.181422024430987 38.9427
27.204328079372566 38.705
27.22723524226965 38.673
27.250143514198573 38.8489
27.273231880156334 38.7285
27.296142382065014 38.6397
27.319053996245536 38.6106
27.341966723775965 38.6149
27.365059584515222 38.7749
27.38797455070062 38.8093
27.410890633481237 38.7112
27.433807833936918 38.6362
27.456905206923906 38.8776
27.47982465472398 38.7516
27.502745223449743 38.7703
27.525666914182825 39.0426
27.548768816912457 38.8399
27.571692763693633 38.654
27.59461783573812 38.5334
27.617723149491244 38.435
27.640650484125285 38.3956
27.66357894728264 38.3234
27.686508540048052 38.3694
27.709618414237887 38.2663
27.732550278321757 38.0895
27.755483275279115 38.0652
27.778417406196485 37.9951
27.801531858397514 38.0635
27.824468269376716 38.1244
27.847405817586786 38.0575
27.870344504116094 38.3504
27.893463551932008 38.4123
27.916404527281053 38.5823
27.93934664422563 38.5638
27.962289903855886 38.5597
27.98541356491974 38.8977
28.00835912214229 39.0748
28.03130582533231 39.2342
28.054253675581805 39.3795
28.077381967556104 39.3135
28.100332124185126 39.1585
28.123283431160893 39.1389
28.146235889577238 38.9509
28.169368830154156 38.8045
28.192323603752033 38.6817
28.215279532083304 38.3204
28.238415973016764 38.0982
28.261374223145094 38.0619
28.284333631303806 37.7891
28.307294198589954 37.6927
28.330435319167677 37.3476
28.353398217078915 37.1579
28.376362277420153 37.0332
28.39932750129032 36.7435
28.422473319286713 36.4668
28.44544088262495 36.6066
28.468409612800283 36.5254
28.491379510913497 36.1927
28.51453004413313 36.1372
28.53750229057244 36.0677
28.56047570826344 36.1223
28.583450298308804 36.1026
28.606605564586562 35.8718
28.629582511831156 35.9662
28.65256063474956 35.7434
28.675539934446338 35.85
28.698699951647605 35.8003
28.72168161743193 35.7326
28.74466446331978 35.6994
28.767648490417624 35.7038
28.790813276438353 35.6926
28.813799678527303 35.7131
28.836787265157085 35.6741
28.859955641890075 35.7286
28.882945610203045 35.5903
28.905936766392035 35.5118
28.928929111566863 35.5976
28.952102288520145 35.5082
28.975097024308607 35.3201
28.998092952423807 35.1671
29.021090073977508 35.1635
29.04426806913204 35.1022
29.067267590245258 34.8777
29.090268308143695 34.8089
29.11327022394099 34.6835
29.13645305530891 34.6501
29.159457379627167 34.5247
29.18246290519685 34.4273
29.20546963313352 34.6391
29.22865731875826 34.5527
29.25166646419296 34.6118
29.27467681535305 34.3909
29.29768837335608 34.4976
29.320880931312562 34.5765
29.34389491580634 34.4342
29.366910110507334 34.3395
29.38992651653503 34.484
29.41312396492981 34.4687
29.436142806456754 34.3503
29.45916286268059 34.2348
29.48236399319994 34.1472
29.50538649169417 34.0448
29.528410208259935 33.9372
29.55143514402014 33.7556
29.574641196749695 33.6521
29.597668583816574 33.5362
29.6206971934585 33.3341
29.64372702680042 33.3689
29.666938019934474 33.2482
29.689970313635285 33.1918
29.713003834422636 33.0939
29.73603858342347 33.1748
29.759254535188578 33.1494
29.78229175361658 32.992
29.80533020365064 33.0392
29.82836988641968 33.0733
29.85159081507472 32.9863
29.874632976355343 32.9908
29.89767637376955 32.8868
29.920721008448314 32.7762
29.9439469322847 32.7946
29.96699405457564 32.8554
29.9900424175358 32.8022
30.013092022298157 32.6692
30.03632295963995 32.6131
30.059375061131373 32.6434
30.08242840783577 32.7372
30.105483000888153 32.7937
30.128718970092244 32.6795
30.151776069006917 32.5323
30.17483441768648 32.6368
30.198074175317235 32.6125
30.221135036724256 32.7275
30.24419715131772 32.5833
30.267260520236203 32.3599
30.290505341942243 32.4841
30.313571232750228 32.5375
30.336638381310948 32.5236
30.35970678876503 32.5385
30.38295669299435 32.4612
30.40602763151657 32.3511
30.429099832366074 32.405
30.452173296685572 32.1973
30.47542830191959 32.2481
30.498504306502497 32.3378
30.521581577995562 32.3204
30.544660117543582 32.3615
30.56792024229725 32.4233
30.59100133132069 32.31
30.614083691845494 32.4268
30.637167325018545 32.3996
30.660432587840603 32.5289
30.683518779717886 32.3433
30.70660624769615 32.5098
30.729694992924372 32.4506
30.75296541239743 32.4024
30.77605672557558 32.3401
30.799149319462742 32.2996
30.8224236211637 32.1572
30.845518789950724 32.059
30.868615242910597 32.1128
30.891712981195973 31.8894
30.91499247215866 31.7795
30.938092794619365 31.8337
30.96119440587579 31.6747
30.984297307082752 31.5596
31.00758200598383 31.4894
31.030687500658694 31.4392
31.053794288760695 31.3322
31.076902371446767 31.2425
31.100192296997445 31.2897
31.12330298246119 31.2769
31.14641496599209 31.0733
31.169528248749216 31.1901
31.19282341969534 31.116
31.215939314557186 31.0923
31.239056512134788 31.2561
31.262175013589378 31.11
31.28547544871168 31.1208
31.30859657161541 31.0335
31.331719001892175 30.997
31.35484274070538 31.1449
31.378148458819545 31.0692
31.401274828443725 31.0862
31.424402510106933 31.0664
31.447712205419993 31.1502
31.470842524931633 30.9976
31.493974159989783 31.0864
31.51710711176168 30.9683
31.54042212308802 30.9511
31.563557722100917 30.9333
31.586694641341655 30.8186
31.609832881979628 30.7815
31.63315322823208 30.6216
31.656294125521327 30.5619
31.679436347728515 30.5611
31.70257989602529 30.4255
31.725905596152327 30.4959
31.74905181052835 30.2472
31.772199354521323 30.3431
31.79534822930507 30.419
31.818679302290967 30.2739
31.84183085259981 30.2408
31.864983737233473 30.2904
31.88813795736804 30.3849
31.911474422233013 30.2607
31.934631327356435 30.166
31.9577895715215 30.201999999999998
31.980949155906522 30.1833
32.004291031706956 30.239
32.027453310562606 30.0049
32.05061693318573 29.9459
32.07396288236386 29.9658
32.09712920658542 29.859
32.12029687812702 29.767
32.14346589817093 29.7132
32.166817291729984 29.7276
32.18998902288583 29.5407
32.21316210610336 29.524
32.23633654256711 29.5234
32.259693399663725 29.5676
32.282870556771144 29.3764
32.30604907069099 29.3664
32.329228942610065 29.2641
32.35259128243769 29.0836
32.375773884550505 29.0878
32.398957848235646 29.045
32.422143174682176 29.0344
32.445511016471215 28.964000000000002
32.468699082679954 28.9024
32.49188851523011 28.8428
32.51507931531304 28.783
32.538452678331 28.881
32.56164622776311 28.7785
32.58484114831493 28.6577
32.60803744118015 28.5992
32.631416344731896 28.7242
32.654615396551876 28.6042
32.67781582427913 28.6142
32.701198898634416 28.4705
32.72440209253756 28.4351
32.747606665947124 28.372
32.77081262006088 28.3111
32.79420126883317 28.3193
32.81740999876112 28.3181
32.840620112999424 28.2678
32.86383161274818 28.1445
32.88722585534586 28.2589
32.91044014056596 28.2672
32.933655814909734 28.0732
32.95687287957963 28.1051
32.98027273544904 28.1044
33.00349259526636 28.0364
33.026713849030116 28.0773
33.04993649794511 28.1388
33.073341986570746 28.0242
33.09656744032826 27.9389
33.11979429286444 27.945999999999998
33.14302254538647 27.9572
33.166433686291185 27.8327
33.18966475336992 27.8251
33.212897224069096 27.7693
33.23613109959831 27.7516
33.259547912343415 27.721
33.2827846121627 27.68
33.306022720453775 27.6415
33.32926223842861 27.4503
33.352684742614166 27.4595
33.37592709463173 27.4989
33.399170859982064 27.3598
33.422597648419426 27.3661
33.44584425514446 27.2532
33.46909227885668 27.2823
33.4923417207723 27.1344
33.51577423505344 27.138
33.539026528130385 27.0583
33.56228024307245 27.1012
33.585535381098246 26.9302
33.60897364093058 26.9433
33.63223163992385 26.8663
33.6554910656699 26.8586
33.678751919389796 26.7931
33.702195944520106 26.7899
33.72545966903325 26.7358
33.74872482519663 26.7178
33.771991414233746 26.7204
33.79544122444841 26.5647
33.81871069412428 26.5129
33.84198160035767 26.5855
33.86525394437455 26.6425
33.88870955949969 26.4524
33.911984794020626 26.418000000000003
33.93526147001624 26.3217
33.958539588715006 26.2859
33.98200102861669 26.2815
34.0052820477047 26.2114
34.02856451319451 26.2705
34.05203033759056 26.1088
34.07531571090147 26.0906
34.09860253431845 26.0426
34.121890809074316 26.0021
34.145362493118924 26.0146
34.16865368561615 26.0045
34.191946333164054 25.9429
34.21524043699793 26.0148
34.23871800066799 25.948
34.26201503218366 25.7347
34.28531352370466 25.8776
34.30861347646881 25.6911
34.33209693978188 25.6233
34.3553998301885 25.6671
34.378704185565205 25.636
34.402010007152356 25.6215
34.42549939016683 25.5926
34.44880815937748 25.3978
34.472118398533134 25.406999999999996
34.49543010887669 25.4039
34.51892543169198 25.3
34.54224009966052 25.2917
34.56555624255917 25.2809
34.58887386163339 25.241999999999997
34.61237514439016 25.1885
34.6356957311114 25.122
34.65901779775809 25.1101
34.68252356662995 25.0699
34.705848608458616 25.0264
34.72917513396849 24.9713
34.75250314440949 24.9736
34.77601490857862 24.8237
34.799345904259795 24.788
34.82267838863559 24.7581
34.846012362958525 24.8437
34.869530142679984 24.8269
34.89286711232212 24.8146
34.91620557568269 24.7386
34.93954553401677 24.643
34.9630693495876 24.6163
34.986412313340814 24.6516
35.00975677584668 24.5704
35.033102738362956 24.500999999999998
35.05663261012228 24.5202
35.0799815881786 24.5116
35.10333207003229 24.4886
35.12668405694369 24.5254
35.150220005273056 24.449
35.17357501786656 24.346
35.19693153931268 24.3238
35.220289570874385 24.3166
35.24383161619786 24.3232
35.267192683604904 24.2255
35.290555264930376 24.226999999999997
35.314101899412165 24.281
35.33746752422433 24.2018
35.36083466676374 24.2629
35.38420332829803 24.0635
35.407756095629054 24.1152
35.43112781085063 24.19
35.45450104888391 24.0142
35.477875810999194 24.0719
35.50143473172161 24.0077
35.52481255774625 24.066999999999997
35.54819191167777 23.9404
35.57157279478914 23.9752
35.595137889488406 23.9632
35.61852184675279 23.8074
35.641907337029984 23.81
35.665294361595684 23.7771
35.68886565090076 23.6836
35.7122557598848 23.6502
35.73564740699838 23.6135
35.759040593519934 23.6145
35.78261809810353 23.5718
35.80601437933051 23.44
35.829412203814705 23.5323
35.85281157283719 23.3883
35.876395313415884 23.3246
35.8997977874528 23.2746
35.92320180988546 23.3426
35.946790244133936 23.2921
35.97019737933222 23.3354
35.993606066789866 23.2227
36.01701630779276 23.1741
36.04061101440684 23.1062
36.06402437852291 23.1369
36.08743930005611 23.1015
36.1108557802951 23.1218
36.13445678011326 22.9833
36.15787639383515 22.9757
36.18129757014299 22.9211
36.20472031032821 22.8226
36.22832762423364 22.875
36.25175350829375 22.7933
36.275180960119776 22.7498
36.298609981005924 22.779
36.32222362992669 22.78
36.34565580510207 22.7993
36.36908955323448 22.6951
36.39252487562093 22.5795
36.416144880530226 22.5921
36.43958336764275 22.5997
36.463023432914625 22.5158
36.486465077645676 22.4613
36.51009145956204 22.6329
36.53353627947859 22.5835
36.55698268276811 22.4976
36.58043067073321 22.4
36.60406345072071 22.3153
36.62751462435344 22.4183
36.65096738658405 22.3371
36.67460498210655 22.2579
36.69806093788647 22.2241
36.72151848619297 22.1014
36.744977628333636 22.2874
36.76862165890998 22.1058
36.79208400512205 22.101
36.81554794910557 22.0832
36.83901349217101 21.9641
36.862663978991606 21.9039
36.88613273667352 21.8875
36.90960309738324 21.8538
36.933075062434064 21.9026
36.95673202673572 21.8046
36.98020721697122 21.8305
37.003684015502365 21.7467
37.027162423645365 21.6888
37.050825886711465 21.753
37.07430753063053 21.6002
37.09779078812467 21.6181
37.121275660513014 21.6149
37.144945643673694 21.5462
37.16843376245278 21.5178
37.19192350009803 21.5099
37.215414857931435 21.4876
37.239091382563885 21.3526
37.262585997426164 21.4225
37.28608223645736 21.4533
37.309763684451696 21.3724
37.33326318851098 21.2786
37.356764320726555 21.2393
37.380267082425526 21.2488
37.40395510942588 21.2597
37.42746114683234 21.1043
37.45096881771841 21.0768
37.474478123414166 21.074
37.49817275092816 21.028000000000002
37.52168534303452 21.0706
37.54519957395567 21.0232
37.568715445024665 20.9829
37.592416694607714 20.9175
37.61593586281424 20.8518
37.63945667518264 20.8974
37.66297913304891 20.8393
37.68668702630454 20.8727
37.710212792059274 20.8066
37.733740207334854 20.6767
37.757269273470364 20.6596
37.780983832050374 20.6636
37.80451621684926 20.5887
37.82805025654007 20.5704
37.851585952464795 20.5677
37.8753071980695 20.5321
37.89884622345676 20.5668
37.92238690911902 20.4578
37.94611318753442 20.3586
37.969657210779765 20.3381
37.99320289834801 20.3742
38.016750251586465 20.3287
38.04048325513017 20.2952
38.06403395679343 20.2739
38.087586328183946 20.1981
38.11114037065203 20.2305
38.13488012115898 20.2114
38.1584375229181 20.1535
38.181996599821 20.0673
38.205557353221124 20.0341
38.229303872575656 19.9636
38.2528679961576 19.983
38.27643380031219 19.9887
38.30000128639589 19.9364
38.32375459653193 19.9192
38.34732546371299 19.8932
38.37089801690786 19.8575
38.39447225747609 19.7875
38.418232380377425 19.8584
38.441810012983396 19.8135
38.46538933705673 19.686
38.488970353960084 19.7287
38.51273731166058 19.6367
38.536321731567014 19.5931
38.55990784840681 19.6213
38.58367995004091 19.5175
38.60726947812959 19.4559
38.63086070726198 19.53
38.654453638806274 19.5153
38.678232613930824 19.4215
38.70182896773327 19.3752
38.72542702806741 19.3421
38.7490267963045 19.3847
38.77281266709232 19.3461
38.79641586862214 19.2918
38.8200207821842 19.2526
38.843627409152944 19.2138
38.86742019782782 19.1775
38.891030269149255 19.1985
38.914642058016156 19.1917
38.938255565806124 19.1066
38.96205529464307 19.0532
38.98567225787121 19.1242
39.00929094417078 19.0771
39.03291135492255 19.0153
39.05671804624804 18.9355
39.080341923549106 18.9367
39.103967529460334 18.9157
39.127594865365744 18.8152
39.15140854155791 18.8305
39.17503935514948 18.8079
39.19867190290282 18.7554
39.22249083587951 18.7889
39.24612686969409 18.7652
39.269764641845306 18.7117
39.293404153722804 18.7198
39.317230110864074 18.6318
39.34087311998506 18.59
39.36451787301696 18.5013
39.388164371352595 18.4639
39.41199737518003 18.4694
39.43564738196752 18.4425
39.45929913825317 18.4116
39.48295264543308 18.4175
39.506792718520884 18.3615
39.530449745387216 18.4128
39.55410852735203 18.3238
39.57776906581474 18.3547
39.60161623079 18.2608
39.625280300200025 18.2395
39.64894613032202 18.1986
39.67261372255866 18.2106
39.6964680021016 18.2142
39.72013913657293 18.1568
39.74381203738292 18.0968
39.76748670593756 18.0617
39.79134812278169 18.042
39.81502634488497 17.9776
39.83870633896685 17.9666
39.862388106436654 17.9237
39.88625668336918 17.9307
39.90994201572829 17.9378
39.933629125719285 17.834
39.957503091207826 17.7862
39.9811937746168 17.8419
40.00488623990914 17.8108
40.02858048850006 17.7852
40.05246165409549 17.7244
40.076159487492085 17.6643
40.099859108448875 17.6748
40.123560518384345 17.6552
40.1474489070226 17.5894
40.171153913178564 17.5895
40.194860712584955 17.5925
40.2185693066637 17.5883
40.242464941335314 17.4665
40.26617714307655 17.4644
40.289891143772046 17.413
40.3136069448471 17.4073
40.33750984859743 17.4528
40.3612292688043 17.401
40.3849504936829 17.3893
40.40867352466194 17.2896
40.43258372059144 17.2841
40.45631038219906 17.2935
40.48003885420956 17.2529
40.503769138055105 17.2654
40.52768664931955 17.1904
40.55142057531802 17.1918
40.57515631746428 17.1869
40.599079334038514 17.1102
40.62281872700477 17.0748
40.64655994043941 17.0275
40.67030297578061 16.9816
40.69423334835778 17.0111
40.71798004609188 17.0254
40.74172857006355 16.9332
40.76547892171441 16.914
40.7894166736039 16.8967
40.813170699248566 16.817999999999998
40.83692655691388 16.8483
40.86068424804498 16.8853
40.884629402612525 16.8046
40.908390779366385 16.7631
40.932153993938 16.7493
40.95591904777605 16.6322
40.979871628443995 16.6979
41.003640379561936 16.6277
41.02741097430883 16.5805
41.05118341413683 16.5735
41.075143444384416 16.572
41.098919593177826 16.5538
41.1226975914255 16.529
41.14647744058318 16.4803
41.170444943946755 16.4463
41.19422851378379 16.4904
41.218013938914645 16.4203
41.24198706625173 16.3822
41.26577622087193 16.3593
41.289567235177785 16.3106
41.31336011063129 16.301
41.337340752422875 16.2485
41.361137369129835 16.2443
41.38493585138705 16.2508
41.40873620066004 16.1762
41.43272438060107 16.1376
41.45652848292052 16.0931
41.48033445666918 16.1044
41.50414230331616 16.0172
41.528138045159764 16.0004
41.551949656675205 16.0187
41.575763145513235 15.9631
41.59957851314666 15.9577
41.62358184070442 15.8762
41.64740098505737 15.9411
41.6712220126409 15.9048
41.69504492493139 15.8272
41.71905586207357 15.8286
41.74288256296395 15.7973
41.766711153007456 15.7694
41.79054163368412 15.6804
41.814560204340054 15.7308
41.838394485526365 15.6812
41.86223066180303 15.6318
41.88625497706819 15.6542
41.910094962812 15.6428
41.93393684811168 15.5824
41.95778063445365 15.4984
41.981812625263366 15.4952
42.00566023303407 15.5054
42.029509746323676 15.4332
42.05336116662236 15.4547
42.077400857069705 15.5075
42.10125611078846 15.4381
42.12511327600405 15.369000000000002
42.14897235421036 15.3918
42.173019768448455 15.3386
42.19688269209613 15.3092
42.22074753323349 15.329
42.24461429335818 15.2677
42.268669455600495 15.238
42.292540073217886 15.231
42.31641261433284 15.2096
42.34028708044675 15.1645
42.36435001496739 15.1447
42.38822835065557 15.1588
42.41210861586426 15.1196
42.4359908120986 15.0901
42.46006154323262 15.0162
42.48394762115317 14.9426
42.507835634632315 14.98
42.531912233047436 15.0237
42.55580413732265 14.929
42.579697981698 14.8807
42.60359376768525 14.8552
42.62767820545945 14.7949
42.65157789440821 14.8151
42.67547952952185 14.8023
42.699383112316 14.8
42.72347541395347 14.7418
42.74738291190531 14.6748
42.771292362102166 14.6697
42.795203766063516 14.696
42.819303956130405 14.6926
42.843219287476536 14.5714
42.86713657716324 14.5884
42.89105582671383 14.5899
42.91516392983864 14.5513
42.939087119032166 14.5064
42.963012272677304 14.5208
42.98693939230129 14.5044
43.01105543317513 14.4506
43.034986504731386 14.3836
43.05891954686589 14.3647
43.08285456110972 14.4189
43.10697856448665 14.3411
43.130917542983475 14.2792
43.15485849820081 14.2884
43.17880143167367 14.2217
43.20293342237094 14.2619
43.226880332449 14.244000000000002
43.25082922540554 14.1842
43.27496722682525 14.1909
43.29892010567796 14.1709
43.32287497204102 14.1929
43.34683182745632 14.1009
43.370977859791836 14.0455
43.39493871351105 14.0253
43.41890156092628 14.0512
43.44286640358341 14.0363
43.46702049182749 14.094000000000001
43.49098934522816 14.008
43.51496019852649 13.9011
43.5389330532723 13.8956
43.56309522248204 13.8755
43.58707210044314 13.9076
43.61105098451946 13.8422
43.63503187626491 13.7863
43.659202151562134 13.7749
43.68318707902681 13.7601
43.70717401884041 13.755999999999998
43.731162972560874 13.7097
43.75534137913236 13.6431
43.779334381108384 13.6527
43.803329401683186 13.6437
43.82732644241872 13.6173
43.8515130055166 13.6064
43.87551410707659 13.5972
43.89951723350145 13.5967
43.923709934595614 13.5352
43.94771713129917 13.5197
43.97172635758096 13.4765
43.99573761501002 13.4599
44.0199385169922 13.4153
44.04395385732619 13.4027
44.067971233533086 13.4187
44.09199064718605 13.3931
44.11619977548961 13.3781
44.14022328470671 13.3492
44.16424883610785 13.3159
44.18827643127035 13.2565
44.21249381139513 13.2425
44.236525514814076 13.2195
44.26055926674478 13.1739
44.28459506876863 13.2131
44.3088207262813 13.1551
44.33286064928722 13.1442
44.35690262714919 13.1356
44.38094666145278 13.0765
44.4051806219871 13.0577
44.42922879003185 13.0172
44.45327901929361 12.9727
44.477331311362136 12.9763
44.501573600619416 12.9414
44.525630039221795 12.8959
44.54968854541895 12.9439
44.573937102200176 12.9234
44.5979997645541 12.9186
44.622064499300315 12.8508
44.64613130803592 12.8301
44.67038823869318 12.8468
44.69445921643748 12.7876
44.718532272981385 12.7451
44.742607409926194 12.7763
44.76687274034801 12.708
44.79095205918753 12.7188
44.81503346325094 12.6765
44.839116954143876 12.6928
44.86339071028742 12.679
44.88747839599524 12.5758
44.91156817336837 12.5576
44.93566004401666 12.5794
44.959942251908146 12.5667
44.984038330325966 12.513
45.00813650686762 12.4471
45.03223678314731 12.4777
45.05652746888232 12.468
45.08063196592069 12.4527
45.104738567558705 12.4371
45.128847275414856 12.4009
45.15314646515866 12.3317
45.17725940679741 12.3179
45.20137445952892 12.3413
45.22568004865265 12.3416
45.24979934496396 12.288
45.27392075725247 12.2812
45.29804428714431 12.2631
45.322358426247604 12.2335
45.346486212804315 12.1832
45.370616121861914 12.1807
45.39474815505086 12.1735
45.41907087049246 12.1527
45.4432071734666 12.1307
45.46734560548283 12.1241
45.49148616817604 12.0818
45.51581748638564 12.0305
45.5399623320197 12.0239
45.56410931325473 11.9882
45.58825843173002 12.0111
45.61259837920865 12.0019
45.636751793816 11.964
45.66090735060093 11.9026
45.68506505120716 11.8576
45.7094136545275 11.850999999999999
45.73357566449271 11.8305
45.75773982322992 11.8084
45.78190613238733 11.8234
45.806263418194064 11.7577
45.83043404997326 11.7812
45.85460683713677 11.7691
45.87897065658495 11.8114
45.90314777634752 11.7288
45.92732705646868 11.7071
45.9515084986045 11.6812
45.97588104735473 11.671
46.00006683541565 11.6063
46.02425479047904 11.6413
46.04844491420549 11.6035
46.0728262191024 11.6059
46.09702070211635 11.597999999999999
46.12121735879483 11.5077
46.14541619080294 11.5113
46.169806278764455 11.4982
46.194009483459034 11.4428
46.21821486849841 11.4292
46.24242243555223 11.4223
46.266821333570014 11.4408
46.29103328674601 11.3989
46.31524742696538 11.3804
46.33946375590237 11.321
46.36387149104216 11.312999999999999
46.38809221957392 11.2865
46.41231514186606 11.2732
46.436540259597464 11.2821
46.460956858999374 11.2306
46.48518638983522 11.2015
46.509418121166966 11.1737
46.533652054678114 11.1683
46.55807754555709 11.1341
46.58231590571962 11.1348
46.60655647313217 11.1
46.630988654873654 11.0986
46.655233659129024 11.1243
46.67948087571551 11.0692
46.70373030632484 11.0198
46.72817142736393 11.0334
46.752425308428684 10.9907
46.77668140861147 11.0026
46.80093972960865 10.9857
46.82538981736788 10.9379
46.849652602470904 10.9027
46.87391761349769 10.8895
46.8981848521493 10.8695
46.9226439341274 10.8386
46.946915650573224 10.8037
46.97118959976749 10.8102
46.99546578341598 10.7547
47.019933887188216 10.7771
47.04421456235744 10.7375
47.06849747711879 10.7375
47.09278263318286 10.6921
47.11725978640143 10.7068
47.14154944775105 10.684000000000001
47.165841355555656 10.6313
47.1901355115306 10.6339
47.214621741924994 10.5964
47.23892041698887 10.5926
47.26322134538975 10.5861
47.28771440635075 10.5542
47.31201986422527 10.5376
47.33632758061436 10.4996
47.360637557241866 10.4956
47.38513974410611 10.4685
47.40945426407847 10.4716
47.43377104948137 10.4836
47.45809010204344 10.3971
47.48260144275502 10.3757
47.506925052572285 10.3796
47.53125093475548 10.3805
47.55557909103813 10.3124
47.58009961361992 10.2884
47.60443234110732 10.3052
47.62876734791564 10.3199
47.65310463578333 10.2604
47.6776343683373 10.236
47.7019762413987 10.2117
47.72632040075572 10.2221
47.75066684815169 10.1826
47.77520581885936 10.1616
47.799556865477655 10.1541
47.823910205386 10.1275
47.84826584033272 10.1061
47.87281407745551 10.0606
47.89717432569297 10.0625
47.92153687423484 10.0777
47.94609208429692 10.04
47.97045925671401 10.0268
47.99482873471275 9.97275
48.01920052005013 9.98255
48.04376504619224 9.942639999999999
48.068141469543484 9.98338
48.09252020552573 9.93336
48.11690125590099 9.91211
48.1414751266064 9.89664
48.16586082917454 9.8604
48.19024885144316 9.872110000000001
48.2146391951793 9.8673
48.239222439012764 9.84233
48.26361744916137 9.79425
48.28801478610016 9.7905
48.31241445160131 9.75865
48.337007097209366 9.76341
48.36141144338331 9.74511
48.38581812345755 9.7308
48.41022713920929 9.742460000000001
48.434829215320704 9.68958
48.45924292604658 9.68452
48.48365897780325 9.64127
48.50807737237308 9.673919999999999
48.532688907799276 9.65958
48.55711201168574 9.62476
48.581537463754074 9.58821
48.60615611725119 9.58509
48.63058628942721 9.53477
48.65501881516546 9.53341
48.6794536962573 9.49291
48.70408185970339 9.50292
48.72852147531801 9.49855
48.75296345168211 9.4585
48.77740779059232 9.447569999999999
48.80204549302823 9.45165
48.82649458091802 9.44252
48.85094603676547 9.40874
48.87539986237231 9.36342
48.90004713292306 9.339160000000001
48.92450572200832 9.317680000000001
48.94896668628025 9.30017
48.97343002754588 9.2713
48.99808689542115 9.25859
49.02255501470614 9.24206
49.04702551642794 9.24082
49.0714984023988 9.23409
49.096164896893235 9.208730000000001
49.120642575466796 9.18452
49.145122643748394 9.19768
49.16960510355558 9.16345
49.19428125404938 9.14655
49.2187685210852 9.12696
49.243258185121555 9.11178
49.26794160167084 9.07995
49.2924360839405 9.0577
49.31693296869764 9.0599
49.34143225776915 9.04543
49.36612538195438 9.02438
49.39062950396021 8.987960000000001
49.41513603578346 8.970839999999999
49.4396449792564 8.95715
49.46434784069503 8.96331
49.488861631846454 8.921710000000001
49.513377840166804 8.90762
49.537896467493745 8.89379
49.56260909589029 8.85482
49.587132585683285 8.866530000000001
49.611658500018365 8.88172
49.636186840738596 8.81147
49.66090926588511 8.8359
49.685442483902584 8.76171
49.70997813385706 8.753219999999999
49.734516217597076 8.775260000000001
49.75924846937352 8.742519999999999
49.7837914452858 8.707
49.80833686055187 8.730410000000001
49.83288471702571 8.688880000000001
49.85762682540054 8.671510000000001
49.882179588965734 8.64316
49.9067347993235 8.65751
49.93129245833333 8.65071
49.95604445336378 8.61437
49.98060703442832 8.543339999999999
50.005172069746266 8.556560000000001
50.02993150438364 8.57013
50.05450147301533 8.60811
50.07907390151433 8.535639999999999
50.10364879174981 8.52325
50.12841816587289 8.51657
50.1529980044635 8.48943
50.17758031042124 8.488760000000001
50.20216508562089 8.439919999999999
50.22694442953363 8.40022
50.25153416817468 8.42548
50.27612638170508 8.40199
50.300721072005196 8.36829
50.325510416102105 8.37522
50.350110084975064 8.32165
50.37471223628208 8.34123
50.39931687190919 8.34992
50.424116246675766 8.318710000000001
50.44872587605249 8.26453
50.47333799543065 8.28396
50.49795260670191 8.26571
50.52276204271512 8.222339999999999
50.54738166295838 8.20268
50.57200378079314 8.22184
50.596628398116835 8.1874
50.62144792604559 8.17711
50.646077567609396 8.16583
50.670709714377715 8.11849
50.69553683636198 8.127360000000001
50.72017401885922 8.14545
50.7448137122895 8.07818
50.76945591856022 8.06842
50.79429318636823 8.113430000000001
50.818940443716784 8.058539999999999
50.84359021965163 8.01506
50.868242516085964 8.0199
50.893089960641895 8.013760000000001
50.917747323549435 7.96263
50.94240721271973 7.954969999999999
50.96706963007175 7.94418
50.99192728239342 7.954060000000001
51.01659478166073 7.95362
51.04126481489051 7.91896
51.06593738400761 7.9024600000000005
51.090805275207074 7.82678
51.11548294172845 7.85474
51.14016314993547 7.83633
51.164845901758845 7.83392
51.18972406304274 7.806039999999999
51.21441192780656 7.78532
51.23910234200271 7.7618100000000005
51.2637953075678 7.8002199999999995
51.288683770237945 7.784089999999999
51.31338186432707 7.75122
51.33808251561888 7.70984
51.362978729967345 7.70454
51.387684521509755 7.691660000000001
51.41239287610203 7.699260000000001
51.437103795691165 7.65013
51.46201036644977 7.63938
51.486726441956634 7.6136
51.51144508832545 7.6153
51.536166307509156 7.617310000000001
51.56108326624387 7.59012
51.58580965706056 7.579060000000001
51.61053862657523 7.57092
51.635270176746864 7.5544199999999995
51.66019755512065 7.537560000000001
51.68493429268881 7.49198
51.70967361681515 7.49112
51.73441552946465 7.486039999999999
51.759353359237934 7.44963
51.7841004750961 7.462439999999999
51.80885018539685 7.431660000000001
51.833602492111254 7.409610000000001
51.8585508051424 7.3943
51.883308330926425 7.39261
51.90806845906181 7.3188
51.932831191525715 7.344410000000001
51.95779001977161 7.308389999999999
51.98255798721516 7.31918
52.00732856494335 7.28228
52.03229530577543 7.26664
52.057071130455945 7.253410000000001
52.081849571391054 7.24068
52.106630630568695 7.263730000000001
52.13160794279417 7.194260000000001
52.15639426492067 7.205019999999999
52.18118321127822 7.19002
52.205974783860896 7.171060000000001
52.23096269971011 7.11805
52.255759551287994 7.149439999999999
52.280559035098186 7.1306
52.30536115314103 7.118930000000001
52.33035970494467 7.11193
52.35516711807904 7.110469999999999
52.37997717147198 7.07569
52.40478986713005 7.07684
52.42979908731974 7.065110000000001
52.454617094216 7.0445199999999994
52.47943774942214 7.001010000000001
52.50426105495102 7.0037
52.529280976059844 6.956110000000001
52.554109609024096 6.983910000000001
52.57894089837482 6.953860000000001
52.60377484613117 6.96161
52.62880550079408 6.93173
52.65364479223379 6.935789999999999
52.67848674816189 6.901510000000001
52.70352547971946 6.882460000000001
52.72837279155837 6.89238
52.753222773982785 6.834560000000001
52.778075429022984 6.83988
52.80312495150885 6.83338
52.827982978797436 6.80748
52.85284368481815 6.81009
52.87770707160767 6.782769999999999
52.90276741793998 6.775460000000001
52.92763619336701 6.758310000000001
52.952507655698504 6.72301
52.977381806977576 6.7568399999999995
53.00245301017842 6.72416
53.02733256653592 6.6975
53.052214817996074 6.70136
53.077099766608484 6.68889
53.102181859804446 6.660760000000001
53.127072229988265 6.672910000000001
53.15196530349892 6.66067
53.17686108239249 6.6497399999999995
53.20195409881522 6.615130000000001
53.22685531582556 6.584410000000001
53.25175924441303 6.5641
53.27666588664027 6.55502
53.30176985962693 6.55342
53.3266819565689 6.5439099999999994
53.35159677336455 6.51211
53.376514312083096 6.49049
53.40162927507703 6.51299
53.42655228516116 6.49806
53.45147802340193 6.4382
53.47660125628886 6.42437
53.50153247842639 6.44233
53.52646643496923 6.41614
53.55140312799818 6.39151
53.576537409691696 6.38065
53.60147960336152 6.37528
53.626424539786164 6.33833
53.65137222105307 6.3293800000000005
53.67651758529126 6.33574
53.70147078399681 6.3404300000000005
53.72642673383343 6.35679
53.75138543689533 6.28316
53.776541917524526 6.30934
53.801506154876755 6.26663
53.826473151763246 6.28275
53.851442910284916 6.23524
53.87661054126026 6.20425
53.9015858509782 6.18771
53.92656392866066 6.19796
53.95154477641532 6.187930000000001
53.976723591801296 6.16922
54.00171000771266 6.17019
54.02669920004598 6.11382
54.051691170915745 6.15393
54.076881204886796 6.11876
54.101878760928514 6.10227
54.12687910187696 6.06895
54.152077577768296 6.05645
54.1770835166946 6.01708
54.20209224691339 6.05461
54.22710377055121 6.05534
54.25231352511594 5.999619999999999
54.27733066384342 5.98412
54.30235060239643 5.9852300000000005
54.32737334290836 5.973
54.35259441062629 5.94335
54.377622783395324 5.92875
54.40265396455061 5.9048
54.42768795623251 5.91758
54.45292037169559 5.87275
54.477960012857906 5.88617
54.50300247099511 5.877269999999999
54.52804774825457 5.83645
54.55329154616743 5.80544
54.57834249018678 5.83626
54.6033962597977 5.80132
54.6284528571545 5.74981
54.653708072335164 5.729
54.67877035378786 5.716130000000001
54.70383546947698 5.6764
54.72890342156389 5.62145
54.7541700889442 5.60036
54.77924374251975 5.6151
54.8043202390049 5.62206
54.82959552413022 5.5622
54.8546777351945 5.55428
54.87976279569621 5.5308
54.90485070780914 5.563269999999999
54.930137506558005 5.48384
54.95523115074295 5.566319999999999
54.98032765308844 5.50497
55.005427015775496 5.4626
55.03072536339621 5.43613
55.05583047570572 5.3713
55.080938454927676 5.41818
55.10604930325027 5.365880000000001
55.131359235107396 5.364269999999999
55.15647585066083 5.27067
55.181595341907496 5.280880000000001
55.20671771104285 5.28213
55.232039262617704 5.26409
55.25716741665048 5.21523
55.28229845518636 5.2917
55.30743238042802 5.1775400000000005
55.33276558731939 5.182259999999999
55.357905315183636 5.15568
55.383047936390035 5.1596400000000004
55.40819345314859 5.1371199999999995
55.433538351073295 5.0606599999999995
55.458689688238415 5.09218
55.483843927614096 5.01844
55.509197623043605 4.9871
55.53435769621134 5.00047
55.55952067826466 4.9393400000000005
55.5846865714265 4.967
55.61005202069737 4.89069
55.63522376553902 4.92021
55.66039842818645 4.9330099999999995
55.68557601087004 4.87838
55.7109532500271 4.77961
55.73613670233794 4.7775300000000005
