TT I
1.2716486653135266 7.25507
1.2939594142134223 7.274789999999999
1.3162702121660406 6.81297
1.3385810600174564 6.614669999999999
1.3608919586137629 6.64262
1.383202908801069 6.8357
1.405513911425503 6.4234599999999995
1.4278249673332093 6.10313
1.4501343378461518 5.923109999999999
1.4724455028545926 5.94676
1.4947567236847858 6.108619999999999
1.517068001182951 6.6233699999999995
1.5393793361953272 6.09697
1.5616907295681737 5.31531
1.5840021821477681 5.47708
1.60631369478041 4.82711
1.6286252683124185 5.609369999999999
1.6509369035901333 5.3811599999999995
1.6732468618895553 5.26398
1.695558623192809 5.00289
1.7178704487808514 5.16936
1.7401823395001077 5.27679
1.7625012545597203 5.15448
1.7848028405262486 5.23519
1.8071218901122095 4.91348
1.8294236121921872 4.26539
1.8517427996910911 4.39318
1.8740620574440425 4.97762
1.8963639900671978 4.82014
1.9186833908139995 5.1837800000000005
1.9409854680117449 5.13609
1.9633050151394713 5.18329
1.9856246367570705 4.83976
2.0079269371922672 4.41368
2.03024671027244 4.61695
2.0525491637446027 4.40185
2.074869091674931 4.7535300000000005
2.097171701569106 4.64122
2.1194917877373847 4.81963
2.141811954326636 5.100230000000001
2.164114805233074 4.88336
2.186435135143035 6.02355
2.208738150935709 16.381
2.231058647554722 34.4657
2.2533792288321184 27.1983
2.275682498336085 11.8119
2.298003251406138 6.26932
2.3203066942619714 5.38066
2.3426276225136022 4.9998
2.3649486396617507 5.68162
2.387252348930071 5.942159999999999
2.4095735463442893 5.67336
2.4318774374315884 5.65238
2.4541988185014043 5.50889
2.476502894794693 6.01478
2.498824462909887 6.34883
2.521146125856138 6.4592
2.5434504863470337 6.86521
2.5657723414244717 7.03131
2.588076895590662 6.8849
2.610398946189713 7.24269
2.6327210958598384 7.77715
2.6550259469304716 7.5206
2.6773482972090137 7.41586
2.6996533504259 6.99338
2.7219759047039602 7.24056
2.744298562293959 7.70528
2.7666039251246595 7.2672
2.7889267918020164 8.27937
2.8112323652516555 7.8251800000000005
2.833555444408179 7.43735
2.8558786311183852 7.6167300000000004
2.8781845268938557 8.83768
2.9005079311721484 8.98922
2.9228140460410397 9.259260000000001
2.9451376712799635 9.77045
2.967444008632326 10.1226
2.9897678582247247 9.81381
3.0120918213106695 10.3798
3.0343984987899373 10.5489
3.0567226913198637 10.8003
3.079029599759726 11.9675
3.101354025127254 12.5086
3.123678568232338 12.9202
3.145985829517914 12.8471
3.16831061055229 13.7407
3.1906181112775593 14.1865
3.212943133635653 14.6517
3.2352682779763207 14.9428
3.2575761442691227 15.6868
3.2799015350264273 16.3351
3.302209649240067 16.0679
3.3245352898092655 16.6193
3.3468436553365257 17.49
3.369169549113219 17.8836
3.3914955708171384 19.0283
3.413804319727358 19.1484
3.4361305997334863 19.2414
3.4584396084414553 19.8342
3.4807661501462652 21.1201
3.503092824025881 21.208000000000002
3.5254022288463154 21.4954
3.5477291695206588 22.1324
3.5700388426251948 22.8589
3.5923660534916446 24.8408
3.6146934007816114 42.8711
3.637003482731501 108.74700000000001
3.6593311053109985 123.101
3.681641464033634 67.3519
3.7039693653009733 33.0176
3.726297407241705 27.276
3.7486081875460804 26.4552
3.7709365132734978 26.7127
3.793247578841633 26.9069
3.8155761917550093 27.2167
3.8378875459837216 27.4763
3.8602164494827234 27.9461
3.882545499606844 28.7983
3.9048572932539183 29.0739
3.9271866390645718 29.7016
3.9494987298666713 30.5463
3.971828374764527 30.7828
3.9941581705403255 31.5573
4.016470713506008 31.9291
4.038800813471445 32.8011
4.061113662089144 33.639
4.0834440696459176 34.2058
4.105774632334751 34.4003
4.128087945865126 35.3374
4.150418821249301 36.3619
4.172732448931298 37.6542
4.195063640413578 39.849000000000004
4.2173775856475215 44.0477
4.239709096631102 83.5572
4.262040768704612 293.018
4.284355196706267 403.01599999999996
4.306687193387355 256.872
4.329001947444346 93.4942
4.35133427213731 50.8792
4.373666762177566 45.8513
4.395982011761091 45.1276
4.418314834921175 46.5961
4.44063041906622 56.5215
4.4629635787515625 70.7825
4.4852969080429785 69.9835
4.5076130004776225 56.7989
4.529946671403969 52.0374
4.552263106909177 51.4007
4.574597122877047 52.0207
4.596931312711224 52.9571
4.619248269273446 54.0059
4.6415828092605835 55.4318
4.663900117405352 56.6017
4.686235010953232 57.7182
4.708552674085913 59.2762
4.730887924602802 60.2639
4.753223354952695 61.4557
4.775541557023902 63.157
4.797877349456786 64.4974
4.820195915032126 66.1375
4.842532072957498 67.9753
4.864868414979744 69.6887
4.88718753227192 71.9173
4.909524244902505 74.1652
4.931843734218147 76.2837
4.954180820867835 79.0677
4.976518095879839 81.8716
4.998838149695359 84.9254
5.021175803844231 88.4348
5.043496238205739 91.9488
5.065834274903528 96.9494
5.088172504230693 102.844
5.1104935158799565 110.26799999999999
5.132832132875765 138.534
5.155153533596801 194.19099999999997
5.1774925416746225 236.452
5.199814334878411 415.37
5.2221537374521505 1136.38
5.244493338631803 2949.98
5.266815727034316 6967.42
5.289155727832427 11579.3
5.311478517248165 9106.4
5.333818921080011 3272.63
5.356159527788849 673.097
5.3784829252032536 209.042
5.400823940070432 155.196
5.423147747031976 134.601
5.445489173474152 123.322
5.467830807066149 116.76100000000001
5.490155234831516 112.51
5.512497285125229 108.45700000000001
5.534822130975162 106.345
5.557164601388673 104.10600000000001
5.579489868738879 101.01100000000001
5.601832762690846 100.54700000000001
5.6241758697774475 99.7128
5.646501775867269 98.6355
5.668845311622074 96.4864
5.691171647754637 95.5957
5.713515615597765 94.78399999999999
5.735859800852677 93.5731
5.758186788542988 93.2872
5.780531411018185 93.7082
5.802858837297399 93.0075
5.825203900414495 93.3507
5.8475491852224 93.6599
5.869877275883075 93.8857
5.892223006467101 95.6504
5.914551544266608 97.1105
5.936897724049891 100.01299999999999
5.959244129804903 106.574
5.981573344815301 128.055
6.0039202049061 228.139
6.026249875609095 493.44
6.04859719346037 1018.13
6.070927323278297 2122.94
6.093275102315365 4041.5
6.115623113320588 5127.13
6.137953938319995 3500.74
6.160302415650845 1190.08
6.182633708324452 283.925
6.2049826554078376 124.375
6.227331838745022 98.0581
6.249663839443684 88.5912
6.27201349767565 85.4809
6.294345974611799 93.8553
6.316696111167083 109.948
6.339046488263839 103.25299999999999
6.361379686074702 83.9886
6.383730546639482 73.9632
6.406064229255215 70.6674
6.428415576718203 69.8515
6.450749747566656 68.3926
6.47310158535871 67.5784
6.495453669698332 66.9246
6.517788579421056 66.421
6.540141159237969 65.2846
6.562476565766648 64.7568
6.5848296444934045 64.1171
6.607182974060425 63.9382
6.6295191323281015 64.1214
6.651872965955752 68.4629
6.6742096296068985 101.35700000000001
6.6965639707294615 163.122
6.71891856698715 164.678
6.741255995248479 107.06700000000001
6.763611104154477 71.8759
6.785949046381137 62.1701
6.808304671371482 59.9424
6.8306605557940046 59.7056
6.852999275508618 58.6763
6.875355681171544 58.1987
6.897694923437771 58.1534
6.92005185377892 57.9282
6.9423916220322655 57.7376
6.964749080490181 56.9112
6.987106804399774 56.953
7.009447368180821 57.0869
7.031805625367033 56.8796
7.054146723727803 56.6763
7.076505517631004 56.3814
7.098864581288365 56.5848
7.121206488070854 56.7368
7.143566093607822 56.4396
7.165908543567245 56.8744
7.188268694426048 56.9905
7.2106291193438095 56.8903
7.232972390625943 58.4938
7.255333366030969 74.1503
7.277677189091925 144.537
7.300038718428332 209.503
7.322400526130865 174.465
7.344745183422596 101.571
7.367107550224791 65.2766
7.389452767901992 58.0861
7.411815697249891 56.9447
7.434161478756298 55.6996
7.456524974096713 55.5644
7.478888753837185 55.4786
7.501235387657368 55.7437
7.523599738562711 56.022
7.545946944825532 56.004
7.568311870344528 56.6862
7.5906770845765665 56.9067
7.613025156078678 58.6513
7.635390950099687 60.2084
7.657739602662809 59.1795
7.680105979923558 57.4979
7.702472650212829 57.2754
7.724822180948224 56.8962
7.747189439655568 57.0026
7.769539560075357 57.0263
7.791907410653562 57.4493
7.81425812420825 57.7021
7.836626570110925 57.7198
7.858995315087906 58.6898
7.881346924933401 58.798
7.903716270417482 59.5081
7.926068482028405 59.7599
7.948438431475253 60.5948
7.9708086843180235 61.1573
7.993161805171116 61.4785
8.015532667162402 62.0069
8.037886398416653 63.0255
8.060257873014221 63.0678
8.082629655331942 63.7755
8.104984308787587 65.0028
8.127356708900503 69.0402
8.149711981398308 76.6667
8.172085002766314 79.6222
8.194458336181368 74.8445
8.216814543847752 70.9214
8.23918850371002 70.4676
8.26154533906492 71.1054
8.283919928836452 73.0426
8.306277395339652 74.1001
8.328652618483376 75.3874
8.351028159736202 77.3656
8.373386579575245 79.9587
8.395762759396959 81.78699999999999
8.418121819038275 87.2956
8.440498640894003 104.08
8.462875785192262 122.385
8.485235811156207 134.89600000000002
8.507613602688501 174.722
8.529974277114228 266.682
8.552352719347912 405.689
8.574731488360351 648.117
8.59709314210385 1127.49
8.619472567021075 1757.96
8.64183487789147 2159.53
8.664214962183097 1886.53
8.686577933647762 1058.44
8.708958680784317 414.62800000000004
8.731339760774953 177.94
8.753703729764451 116.795
8.77608547780821 102.70700000000001
8.798450116065078 98.0533
8.820832535634787 94.6562
8.843215292401656 92.7394
8.865580941199045 91.6744
8.887964374703538 90.3848
8.910330701447199 91.7167
8.932714815164482 94.98
8.955099270424924 94.1283
8.977466620733543 89.9095
8.999851761421976 86.9249
9.022219798361645 85.057
9.04460562795561 84.6524
9.066991803441677 84.3082
9.089360876979615 84.1618
9.111747746589993 83.9357
9.13411751544971 82.7677
9.156505082664324 82.975
9.178875550323522 83.4301
9.20126381862328 84.0705
9.223652438908596 84.2136
9.246023961427412 84.1071
9.26841328802173 83.1843
9.290785518039224 82.9973
9.313175554425882 83.87200000000001
9.335565947154315 83.7396
9.357939245086508 84.0617
9.380330352834827 84.1663
9.40270436697103 84.3317
9.425096193225055 83.8371
9.447488380180165 85.135
9.469863475295412 85.3344
9.492256385987508 85.7772
9.514632206018318 86.4385
9.537025843935714 86.8051
9.559402392368193 87.4473
9.581796761000229 88.3312
9.604191496441521 89.459
9.626569144158516 94.1316
9.648964615551032 100.258
9.671343000390081 102.079
9.693739211225699 99.0592
9.716135793237463 95.4658
9.738515290448102 94.6573
9.760912617143402 95.6446
9.783292860202891 96.7799
9.805690935076182 97.602
9.828089385495742 98.9202
9.850470754023561 101.824
9.872869957865444 111.67200000000001
9.89525208097539 130.64700000000002
9.917652041736662 146.77100000000002
9.940052382417589 145.421
9.962435644102392 149.194
9.984836746950979 183.915
10.007220771957746 251.52
10.029622640473708 355.276
10.052007432299963 519.712
10.074410069984072 776.8480000000001
10.096813093716005 1187.45
10.119199042482517 1674.46
10.141602840636468 1941.13
10.163989564971628 1707.3
10.186394141051062 1016.01
10.208799107559706 442.89
10.231187001965623 209.395
10.253592751657669 134.124
10.275981430388155 117.316
10.298387966769793 116.806
10.320794897965431 120.42200000000001
10.343184759907361 119.32700000000001
10.36559248305461 112.46799999999999
10.387983138083852 107.178
10.410391656691655 109.506
10.432800574501677 121.25299999999999
10.455192425893369 138.66899999999998
10.47760214443012 163.54
10.499994797678786 202.68099999999998
10.522405320453982 270.593
10.54479877906917 372.111
10.567210109595656 499.101
10.5896218454736 563.822
10.612016518879773 512.17
10.634429067781074 371.777
10.656824555333241 219.61599999999999
10.679237920773568 130.369
10.701651695961992 99.4305
10.724048411481384 91.6231
10.746463008485165 88.3528
10.768860546937125 86.3343
10.791275969274796 84.9339
10.81369180576079 83.3235
10.836090585366925 82.3456
10.858507252467449 81.0457
10.88090686379991 80.1039
10.903324365036394 79.9503
10.925724811614439 80.1397
10.948143150509463 81.8654
10.970561909719066 80.9896
10.992963615930844 78.751
11.015383218085756 76.426
11.037785768347074 74.67
11.06020621697282 73.9237
11.082627090322113 73.5699
11.105030913430326 73.1291
11.12745263854165 73.7036
11.149857314510728 78.7235
11.172279894912576 86.6757
11.194702904450653 88.0271
11.217108866490921 82.5566
11.239532736615194 77.0744
11.26193956033512 74.2492
11.284364294577085 72.4328
11.306789462371718 70.0267
11.329197585398376 68.6268
11.351623622610898 68.1858
11.37403261614354 67.3336
11.396459526308487 67.4593
11.418869393879497 67.0911
11.441297180532617 66.712
11.463725406927658 66.1231
11.486136592353875 65.8014
11.508565700543707 66.8668
11.530977768845315 69.3725
11.553407762368774 70.6555
11.575838200059769 69.84899999999999
11.598251599479612 66.8918
11.620682927815501 65.1775
11.64309721895548 64.6704
11.665529441478206 64.2757
11.687962112597958 64.0987
11.710377748130886 63.8099
11.732811318753434 64.0066
11.755227854859067 64.1866
11.777662328529495 64.1875
11.800079768750786 63.7739
11.822515149015453 63.6446
11.844950984084935 63.993
11.867369787303163 63.5446
11.889806534289491 63.486999999999995
11.912226250487029 64.1491
11.934663912939751 64.0622
11.9571020346363 64.1189
11.979523127133968 64.2399
12.001962169624331 64.7663
12.024384183972964 66.0611
12.046824150809913 69.175
12.069264581333726 74.6011
12.091687985297767 81.0064
12.11412934550045 89.9279
12.136553680195208 103.336
12.158995973632788 123.84
12.181438735204349 149.232
12.20386447284199 182.604
12.226308172985636 207.623
12.24873485024193 213.49099999999999
12.271179492516982 177.21200000000002
12.293607112949127 137.23
12.316052700916226 103.34299999999999
12.338498763250042 83.4448
12.360927805303868 73.1428
12.383374818673879 68.54
12.405804812803074 66.309
12.428252780773262 65.6695
12.45070122756722 65.4371
12.473132656675375 65.2521
12.49558206341869 65.7838
12.518014453510101 65.6267
12.540464823770117 65.7434
12.562915677315177 65.89399999999999
12.58534951575545 66.7309
12.607801338171472 69.4776
12.630236146511358 76.376
12.652688941369085 82.6376
12.675124723177234 83.0957
12.697578494048786 78.1433
12.720032754458185 72.1988
12.742470003354093 69.586
12.764925245138771 69.0548
12.787363476431278 69.3946
12.809819703166806 69.5304
12.83227642391173 70.2285
12.854716135692716 70.8148
12.877173846755147 72.0249
12.899614549869717 71.9753
12.9220732548287 73.0097
12.94453245827299 73.4767
12.966974655289818 74.4987
12.989434858002571 75.2809
13.011878055298721 75.877
13.034339260862497 77.0332
13.056800969391883 78.2293
13.079245674017244 80.2457
13.101708390774869 82.5703
13.12415410463411 90.0102
13.146617833206086 102.686
13.169064559883248 115.309
13.191529303857127 130.05700000000002
13.213994557076367 150.234
13.236442809902437 182.467
13.258909083908291 229.27900000000002
13.28135835851934 286.892
13.30382565690295 354.333
13.326293469022952 418.01599999999996
13.348744283242008 432.629
13.371213125129904 381.845
13.39366497011003 282.932
13.416134845360597 188.548
13.438605238843131 131.404
13.46105863690397 109.257
13.483530069144786 108.5
13.505984506951902 114.00200000000001
13.528456981549432 123.416
13.550929978879088 137.251
13.573385983253365 157.85
13.595860028340867 190.12400000000002
13.618317081455832 236.34400000000002
13.64079217790333 288.601
13.663250283359057 340.719
13.685726434770173 376.69199999999995
13.708203115221277 359.034
13.730662806148091 283.468
13.75314054697177 204.08700000000002
13.775601299246777 137.32299999999998
13.798080104050406 101.065
13.820559442405358 87.8095
13.843021793671388 83.5337
13.865502201420897 81.9132
13.887965623051947 81.1555
13.910447103807167 79.8351
13.932929122629764 78.6225
13.955394156785959 78.2134
13.977877254034569 77.2194
14.000343367582113 76.3814
14.022827546871707 75.5102
14.045294743423524 74.8069
14.06778000837062 74.2956
14.090265817715476 73.9973
14.112734645763819 73.7495
14.13522154619454 73.9793
14.157691466286913 74.0939
14.180179461423874 73.763
14.202668005486178 72.977
14.22513957064374 72.0573
14.247629214846473 71.6085
14.270101881097517 71.5305
14.29259262906496 72.1211
14.315083930490205 73.0373
14.337558255389705 73.4989
14.360050666019726 73.1741
14.382526101071944 71.7695
14.405019624534942 70.6274
14.427513705993134 70.0281
14.449990813291825 69.9891
14.47248601302899 69.5993
14.49496423954951 69.8732
14.517460561197822 69.8253
14.539939910570322 69.7667
14.562437357763558 70.0136
14.58493536931253 71.6857
14.607416409993311 72.8004
14.62991555254159 74.0658
14.652397725157423 73.6372
14.674898002342799 72.5468
14.697398848433282 71.5693
14.719882725991326 72.0929
14.74238471217934 73.3236
14.764869730765593 76.5497
14.787372860692983 80.2758
14.809876564079925 85.2314
14.83236330125751 90.8241
14.854868153850365 98.7348
14.877356041159485 110.444
14.899862046604186 126.12100000000001
14.922351087688757 148.665
14.944858249632887 175.797
14.967365991421232 202.767
14.989856770231246 225.12900000000002
15.012365673994204 226.23
15.03485761569738 202.90599999999998
15.05736768508665 159.608
15.07987833888692 121.85799999999999
15.102372032001655 96.3521
15.124883856909658 80.0909
15.14737872204565 74.032
15.169891721717274 72.3186
15.192405310371893 71.9995
15.214901940621196 72.5995
15.237416709527137 72.9796
15.259914520936249 73.2777
15.282430473753607 72.25
15.304947020131227 70.7412
15.327446610371178 69.626
15.349964346154254 68.547
15.372465126703139 68.0644
15.394984055556009 67.8209
15.417486030076159 67.749
15.44000615566487 67.1919
15.462526881230803 67.0831
15.485030653812652 67.4932
15.507552581617434 67.7117
15.530057557334603 67.8228
15.55258069104857 67.6948
15.575104429329837 67.3924
15.597611216864632 67.1729
15.620136166564563 67.0188
15.6426441664095 68.0947
15.665170331202765 70.3833
15.687697105158826 73.7956
15.710206930593545 77.2878
15.732734925158933 81.5618
15.755245972089478 87.4302
15.77777519094324 95.6726
15.800287463046663 106.635
15.822817909869592 122.9
15.84534897229804 141.931
15.867863089299354 164.59400000000002
15.890395385222186 184.345
15.912910736597423 196.388
15.935444269699861 189.045
15.957978423016485 163.546
15.980495633101265 130.957
16.003031029129367 100.91
16.02554948280019 79.3673
16.048086125229432 69.8393
16.070623392487107 67.2327
16.09314371869582 66.52600000000001
16.11568223789321 65.8397
16.13820381691126 64.4501
16.160743591742527 63.1043
16.183283996022084 61.8701
16.205807461423195 60.6665
16.228349126881973 60.1864
16.25087385432698 60.1106
16.27341678466365 59.8103
16.29594277784926 59.5593
16.31848697676433 59.9746
16.341031811604868 60.6053
16.36355971058487 60.9392
16.3861058195587 60.7806
16.40863499352978 59.1945
16.431182380342005 58.0904
16.453730407713202 57.3597
16.476261501364792 56.7779
16.498810812136167 56.5105
16.52134319004079 56.6364
16.54389378792203 56.501999999999995
16.566445031001553 56.5301
16.588979342490088 56.3327
16.61153187824822 56.0971
16.634067483263312 55.9907
16.656621315414416 55.8518
16.679175797408888 55.6639
16.701713349928728 55.7426
16.72426913389191 55.9163
16.74680798922351 56.0188
16.76936507887444 56.2321
16.791905240734874 56.169
16.814463639794468 55.9882
16.837022695210294 55.8903
16.859564824093756 56.4799
16.882125194503903 57.4155
16.904668639217885 58.3183
16.927230328348003 58.5452
16.949792678493612 58.4325
16.972338104193863 57.6243
16.994901778652235 56.8348
17.017448529496576 56.881
17.040013531998152 56.8867
17.06257920018044 57.4851
17.0851279459922 57.9902
17.107694947817667 59.136
17.130245028099072 59.9935
17.15281336730298 61.108000000000004
17.17536478578733 62.5521
17.19793446610687 64.5734
17.220504818648422 67.1399
17.243058251703697 69.9887
17.265629950971032 74.0353
17.288184731571736 78.3181
17.310757781306908 82.1277
17.33333150794385 84.8165
17.355888317140174 83.8586
17.37846339986244 79.1634
17.401021565958885 72.9493
17.42359800851343 67.6572
17.44617513265564 63.0965
17.468735341390783 61.0671
17.491261035594565 60.2358
17.51396340099364 60.0131
17.536490463869136 60.1454
17.559018209820174 60.1253
17.58154663977963 60.4224
17.604251766089718 60.4248
17.626781572227713 60.6009
17.64931206518155 61.0382
17.671843245885103 61.7124
17.69455114821572 61.8617
17.717083712612634 62.288999999999994
17.739616967569667 62.2918
17.762150914021706 62.5201
17.78486160749854 62.3126
17.807396945166804 62.9444
17.829932977143503 63.6482
17.85246970436452 65.3462
17.875183204129467 67.333
17.897721330097664 69.7885
17.920260154126645 72.0865
17.942799677153296 75.1117
17.9655159983646 78.4076
17.988056927677544 83.0681
18.010598558807683 89.6148
18.033140892692916 97.8953
18.05586005052525 107.45
18.07840379824407 118.99799999999999
18.10094825154059 130.991
18.12366954819864 141.342
18.146215420998306 143.362
18.16876200220057 136.14600000000002
18.191309292745153 123.11200000000001
18.214033452627167 107.81700000000001
18.236582170236648 94.6879
18.259131600016456 87.7141
18.281681742907335 86.7652
18.304408781233683 90.1597
18.32696035875955 94.6712
18.349512652227624 99.9231
18.372065662579683 105.51700000000001
18.394795594587553 108.36399999999999
18.41735004715306 106.26100000000001
18.43990521943684 99.8168
18.46246111238171 90.9145
18.485193953325208 80.1624
18.507751296070428 72.0751
18.530309362314178 67.4963
18.552868153000343 65.0917
18.57560391815056 63.408
18.59816416623245 62.79600000000001
18.620725141597372 62.3145
18.643286845190268 62.0231
18.666025549835414 61.7451
18.688588718427933 61.1104
18.711152618092243 60.6981
18.73389353884365 60.4425
18.75645890921984 60.0331
18.77902501351406 59.5997
18.801591852673102 59.7637
18.824335739722738 58.9869
18.846904057212626 59.2396
18.8694731124168 58.9316
18.89204290628315 58.77
18.914789774966803 58.6552
18.937361054791623 58.2778
18.959933076131318 58.0634
18.982505839934877 58.3537
19.00525570560582 58.2917
19.027829963004184 58.0533
19.05040496572238 58.1125
19.072980714710468 58.0445
19.095733592739563 58.247
19.11831084296757 58.7853
19.140888842324735 59.165
19.16346759176222 59.4874
19.18622349753803 60.1059
19.208803755869358 60.856
19.231384767143577 61.5127
19.253966532312948 62.6971
19.276725481241822 64.57
19.29930876296784 66.9582
19.3218928014549 69.803
19.34465404436217 73.1102
19.36723960516257 76.2559
19.389825925592426 78.1056
19.412413006605938 77.7575
19.43517731967805 75.0196
19.457765930683355 70.467
19.48035530514408 65.2547
19.50294544401556 60.9568
19.525712842708348 57.9753
19.54830451925909 56.3984
19.570896963095727 55.3395
19.593490175174704 54.806000000000004
19.616260674962184 54.7351
19.638855432416964 54.4522
19.661450960992624 54.6485
19.68404726164677 54.5633
19.706820878021247 54.3333
19.729418731756834 54.4991
19.752017360452857 54.2912
19.77461676506804 54.3954
19.797393513540218 54.288000000000004
19.819994478951667 54.9032
19.84259622316767 55.4674
19.8651987471481 55.9454
19.887978643247177 56.2622
19.91058273574792 56.7873
19.933187610901943 57.3004
19.955969879466828 58.2135
19.97857632894404 59.3769
20.00118356396599 60.5576
20.023791585494575 62.4199
20.046577028914875 65.3942
20.069186632506966 67.5092
20.091797025500632 69.9821
20.114408208858933 71.2108
20.137196842715273 71.3637
20.159809615886765 70.2176
20.18242318232135 67.1025
20.20503754298326 64.7492
20.227829382875154 63.1509
20.250445341109344 62.6175
20.27306209647285 62.9597
20.29567964993108 64.1253
20.31847471147704 65.3708
20.34109387027612 66.8773
20.363713830075454 67.1997
20.386334591841646 65.635
20.409132890679302 63.3883
20.431755265564437 60.174
20.454378445325528 57.216
20.477002430930366 54.9916
20.499803982716553 53.6966
20.522429589228004 52.823
20.54505600449589 52.3669
20.567683229489194 52.2524
20.590488049900088 51.571000000000005
20.61311690359731 51.1834
20.63574656993626 51.0939
20.658553853717297 50.6196
20.681185154618298 50.6633
20.703817271080066 50.4488
20.72645020407368 50.2301
20.749260783967177 50.0994
20.771895359337133 50.0248
20.794530754161617 50.0957
20.817166969412938 49.898
20.83998086114876 49.7105
20.86261872660049 49.5863
20.885257415405402 49.5175
20.90789692853701 49.5631
20.930714147864748 49.4936
20.953355319030678 49.6493
20.97599731745334 49.663999999999994
20.99864014410749 49.4173
21.021460706796564 49.449
21.044105199328826 49.7587
21.06675052302631 49.9478
21.089396678865015 50.211000000000006
21.112220600704806 50.4277
21.134868430275347 50.7042
21.15751709492456 50.7831
21.180166595629693 51.2123
21.202993892429635 51.7055
21.22564507473034 52.0972
21.24829709602816 52.2952
21.27112693608965 52.5
21.293780644891275 52.5054
21.316435195634053 51.9442
21.339090589297417 51.155
21.361923832041875 50.6845
21.384580921090404 49.9703
21.407238856007325 49.4433
21.429897637773326 49.3553
21.45273429906592 49.4533
21.475394784108598 49.3513
21.498056118951983 49.2005
21.520718304578022 49.4381
21.543558400304388 49.4386
21.566222297108816 49.8064
21.58888704765135 49.8252
21.61155265291521 50.1363
21.63439619898156 50.5613
21.657063523335786 50.7758
21.67973170537063 51.3022
21.7024007460706 51.8843
21.72524775840385 52.4332
21.747918526116475 53.4665
21.770590155457388 54.4186
21.79326264741238 55.8527
21.816113141960237 57.7345
21.838787368860547 59.3602
21.861462461341976 61.1596
21.884315579735777 63.2162
21.90699241312273 64.9342
21.92967011506078 65.9411
21.95234868653799 66.0593
21.9752053151131 65.0491
21.997885635446785 63.0851
22.020566828293532 61.0006
22.04324889464272 59.2142
22.066109049404666 57.4061
22.088792872571794 56.8004
22.111477572219204 56.8165
22.1341631493376 57.1407
22.157026846313123 57.3093
22.179714188221507 56.6194
22.202402410582668 55.6866
22.22509151438863 54.1439
22.24795876962584 52.7517
22.270649646204486 51.7905
22.293341407213727 51.0325
22.316034053646906 50.3865
22.338904883215342 50.0318
22.36159931041458 50.0834
22.38429462602756 50.082
22.40699083104897 49.9857
22.429865251039757 49.8759
22.452563244831367 50.0894
22.47526213102522 49.9141
22.49813925616515 49.6397
22.520839937143307 49.5882
22.543541513520587 49.6603
22.56624398629403 49.4338
22.589124730075895 49.5176
22.611829005656723 49.5992
22.63453418063466 49.6928
22.657240256008077 49.7755
22.680124634582935 49.8723
22.70283252079775 50.1661
22.725541310413075 50.4648
22.74825100442868 50.699
22.771139033969575 51.2053
22.79385054687155 51.3057
22.81656296718292 52.0671
22.83927629590484 52.7483
22.862167992606945 53.4623
22.88488314827121 54.5113
22.907599215359284 55.5112
22.93031619487366 56.7009
22.953211574954405 57.5697
22.975930389478226 58.7602
22.998650119445763 59.2986
23.02137076586092 58.8706
23.044269845560063 57.8107
23.06699233506288 56.0875
23.089715744034912 54.3077
23.112617610931565 52.4285
23.135342869061212 51.1435
23.158069049684816 50.3049
23.1807961538087 49.8121
23.20370174880544 49.7386
23.226430710184808 49.7957
23.249160598093425 49.8645
23.271891413539002 50.0934
23.294800752937697 49.6778
23.31753343374794 49.9033
23.340267045128353 50.1558
23.36300158808808 50.4625
23.38591468821339 50.6991
23.408651104658304 50.9544
23.431388455719986 51.4752
23.454126742409 52.2336
23.4770436196085 53.2213
23.499783787914662 54.3702
23.522524894889884 55.2786
23.54526694154616 56.4147
23.56818761219047 57.5906
23.59093154860734 58.4781
23.613676427751283 59.2559
23.636422250635754 58.8118
23.659346731118656 57.3802
23.68209445191868 55.7058
23.704843119509587 53.2859
23.72759273490623 51.2521
23.750521041644767 49.425
23.77327256312355 48.3436
23.796025035462787 47.5934
23.818956224555475 47.0243
23.841710609113413 46.934
23.86446594758979 46.7642
23.887222241002014 46.5499
23.910157285144578 46.2538
23.932915498962537 46.1122
23.955674670778713 45.8631
23.978434801611975 45.7458
24.001373717286125 45.5358
24.024135776723917 45.5061
24.046898798245582 45.4886
24.06966278287146 45.4411
24.092605586582614 45.1957
24.115371508023642 44.9976
24.1381383956401 44.9213
24.16090625045381 44.8976
24.183852958731244 44.7876
24.206622758582608 44.7271
24.229393528706886 44.452
24.252165270127392 44.5983
24.27511589952438 44.5098
24.297889594216997 44.3864
24.32066426328598 44.0551
24.34343990775613 44.1858
24.36639447485003 44.0584
24.38917208083877 43.8738
24.41195066531332 43.919
24.43490819850244 43.9487
24.457688750692377 43.7637
24.48047028445616 43.7139
24.503252800821233 43.7979
24.526214300784112 43.7653
24.548998793132213 43.8397
24.57178427117417 43.8781
24.59457073593893 43.8307
24.617536219319863 43.7022
24.64032466834748 43.8306
24.663114107195035 43.6992
24.685904536893013 43.3618
24.708874020360852 43.4689
24.731666442613744 43.4136
24.754459858818787 43.1945
24.777254270007962 43.2189
24.80022777025625 43.0374
24.82302418230472 43.1041
24.845821592443674 43.0573
24.86862000170663 43.0517
24.891597535453727 42.8994
24.914397953892728 43.196999999999996
24.93719937456671 42.9958
24.96000179851076 43.0387
24.98298338249997 43.2954
25.00578782394922 43.541000000000004
25.028593271784167 43.7188
25.05157790644186 44.1004
25.07438537804115 43.9519
25.097193859145293 44.227
25.120003350792075 44.5853
25.142992065061257 45.0175
25.165803588823465 45.1617
25.18861612625217 45.4074
25.211429678386736 45.4998
25.234422489079968 45.525
25.257238081693636 45.4783
25.280054692141732 45.7617
25.3028723214652 45.7423
25.325869245420463 45.7748
25.348688923599397 45.7857
25.371509623787006 45.757
25.394331347025812 45.6734
25.41733240110666 45.32
25.440156181590016 44.5541
25.46298098826268 44.0718
25.48580682216873 43.4359
25.50881202326435 42.7895
25.53163992281684 42.3513
25.55446885274561 42.1118
25.577298814096377 41.7847
25.600308179121807 41.6884
25.623140214533745 41.7933
25.64597328451537 41.5195
25.66898578564376 41.2271
25.691820936010206 41.3697
25.714657124097695 41.2817
25.737494350954734 41.361000000000004
25.760511045684957 41.2979
25.783350361364224 41.3778
25.806190718969255 41.3386
25.82903211955018 41.4046
25.852053024868923 41.4638
25.874896522722523 41.5116
25.897741066713106 41.2488
25.920586657892454 41.3433
25.943611790812668 41.6404
25.966459487728237 41.6793
25.989308234998564 41.6038
26.01215803367705 42.0087
26.03518741123814 42.1004
26.05803932412957 42.3658
26.080892291600094 42.382
26.10374631470478 42.5635
26.12677995397268 42.6568
26.14963609978026 42.5923
26.172493304397875 42.2985
26.19535156888223 42.1464
26.218389486949604 41.768
26.241249882640123 41.508
26.26411134137826 41.1654
26.28715248187403 41.0046
26.31001607820869 40.8123
26.3328807407756 40.7193
26.35574647063438 41.0103
26.37879191991473 40.8066
26.401659795896734 40.9251
26.424528742360263 41.0815
26.447398760366614 41.1886
26.470448535598294 41.2032
26.49332070826805 41.464
26.516193955675355 41.7592
26.53906827888316 41.8523
26.562122397260108 41.9133
26.584998883685063 42.3761
26.607876449110325 42.6394
26.63075509460056 42.7798
26.65381357334404 43.0661
26.67669439061878 42.9993
26.699576291163382 43.0366
26.722459276044212 42.9249
26.745522132402975 42.5682
26.768407297649354 42.31100000000001
26.791293550442003 41.8128
26.814180891848974 41.5567
26.837248143099337 41.2954
26.860137673466657 41.1082
26.88302829566349 41.0845
26.90592001075963 40.919000000000004
26.92899167420566 40.7106
26.951885586870763 40.2932
26.974780595655517 40.1284
26.99785558178161 39.9766
27.020752794605112 39.784
27.043651106772522 39.5872
27.06655051935668 39.6003
27.089629948036183 39.4749
27.112531573292053 39.382
27.135434302194138 39.5295
27.158338135817015 39.3496
27.181422024430987 39.3033
27.204328079372566 39.21
27.22723524226965 39.2926
27.250143514198573 39.3841
27.273231880156334 39.3078
27.296142382065014 39.1585
27.319053996245536 39.0476
27.341966723775965 39.0464
27.365059584515222 39.2543
27.38797455070062 39.1808
27.410890633481237 39.0132
27.433807833936918 39.091
27.456905206923906 39.3028
27.47982465472398 39.3354
27.502745223449743 39.2313
27.525666914182825 39.3543
27.548768816912457 39.3119
27.571692763693633 39.2991
27.59461783573812 39.1023
27.617723149491244 38.9198
27.640650484125285 38.8544
27.66357894728264 38.8471
27.686508540048052 38.8108
27.709618414237887 38.6832
27.732550278321757 38.5516
27.755483275279115 38.5677
27.778417406196485 38.554
27.801531858397514 38.5992
27.824468269376716 38.6245
27.847405817586786 38.516
27.870344504116094 38.6952
27.893463551932008 38.8108
27.916404527281053 38.9016
27.93934664422563 39.0229
27.962289903855886 39.1589
27.98541356491974 39.2873
28.00835912214229 39.3617
28.03130582533231 39.618
28.054253675581805 39.745
28.077381967556104 39.7782
28.100332124185126 39.8131
28.123283431160893 39.6025
28.146235889577238 39.5863
28.169368830154156 39.408
28.192323603752033 39.2016
28.215279532083304 38.8459
28.238415973016764 38.7085
28.261374223145094 38.5829
28.284333631303806 38.4645
28.307294198589954 38.2976
28.330435319167677 37.9564
28.353398217078915 37.619
28.376362277420153 37.3994
28.39932750129032 37.2593
28.422473319286713 37.2077
28.44544088262495 37.1598
28.468409612800283 37.092
28.491379510913497 36.7559
28.51453004413313 36.6461
28.53750229057244 36.5327
28.56047570826344 36.5137
28.583450298308804 36.675
28.606605564586562 36.4055
28.629582511831156 36.4285
28.65256063474956 36.2972
28.675539934446338 36.2776
28.698699951647605 36.2666
28.72168161743193 36.1502
28.74466446331978 36.2145
28.767648490417624 36.1756
28.790813276438353 36.1933
28.813799678527303 36.1785
28.836787265157085 36.0725
28.859955641890075 36.0875
28.882945610203045 36.1447
28.905936766392035 36.0723
28.928929111566863 36.0132
28.952102288520145 35.9696
28.975097024308607 35.8669
28.998092952423807 35.61
29.021090073977508 35.5691
29.04426806913204 35.5487
29.067267590245258 35.3271
29.090268308143695 35.4244
29.11327022394099 35.3631
29.13645305530891 35.1209
29.159457379627167 35.1012
29.18246290519685 34.9586
29.20546963313352 35.0284
29.22865731875826 35.076
29.25166646419296 34.9203
29.27467681535305 34.9464
29.29768837335608 34.9475
29.320880931312562 35.0166
29.34389491580634 34.9424
29.366910110507334 34.896
29.38992651653503 34.8871
29.41312396492981 34.9374
29.436142806456754 34.8954
29.45916286268059 34.911
29.48236399319994 34.6102
29.50538649169417 34.556999999999995
29.528410208259935 34.4206
29.55143514402014 34.2028
29.574641196749695 34.1077
29.597668583816574 34.0161
29.6206971934585 33.8545
29.64372702680042 33.8559
29.666938019934474 33.6676
29.689970313635285 33.7242
29.713003834422636 33.6618
29.73603858342347 33.6821
29.759254535188578 33.5396
29.78229175361658 33.5359
29.80533020365064 33.6037
29.82836988641968 33.5467
29.85159081507472 33.4185
29.874632976355343 33.3239
29.89767637376955 33.3899
29.920721008448314 33.2463
29.9439469322847 33.291
29.96699405457564 33.1978
29.9900424175358 33.2309
30.013092022298157 33.086
30.03632295963995 33.0469
30.059375061131373 33.186
30.08242840783577 33.1668
30.105483000888153 33.1815
30.128718970092244 33.0991
30.151776069006917 33.0105
30.17483441768648 33.0762
30.198074175317235 33.1335
30.221135036724256 33.0882
30.24419715131772 33.0152
30.267260520236203 32.9753
30.290505341942243 32.944
30.313571232750228 32.961999999999996
30.336638381310948 32.9531
30.35970678876503 32.861999999999995
30.38295669299435 32.9005
30.40602763151657 32.8827
30.429099832366074 32.7985
30.452173296685572 32.6903
30.47542830191959 32.6631
30.498504306502497 32.674
30.521581577995562 32.7466
30.544660117543582 32.6769
30.56792024229725 32.7402
30.59100133132069 32.6878
30.614083691845494 32.7291
30.637167325018545 32.7185
30.660432587840603 32.8887
30.683518779717886 32.8806
30.70660624769615 32.9043
30.729694992924372 32.8388
30.75296541239743 32.8626
30.77605672557558 32.793
30.799149319462742 32.7157
30.8224236211637 32.6564
30.845518789950724 32.5983
30.868615242910597 32.4808
30.891712981195973 32.2652
30.91499247215866 32.2002
30.938092794619365 32.2022
30.96119440587579 32.1248
30.984297307082752 32.0561
31.00758200598383 31.9126
31.030687500658694 31.7253
31.053794288760695 31.7457
31.076902371446767 31.5771
31.100192296997445 31.6447
31.12330298246119 31.7161
31.14641496599209 31.5939
31.169528248749216 31.6398
31.19282341969534 31.5416
31.215939314557186 31.5771
31.239056512134788 31.5702
31.262175013589378 31.5456
31.28547544871168 31.4961
31.30859657161541 31.3774
31.331719001892175 31.3862
31.35484274070538 31.4836
31.378148458819545 31.5411
31.401274828443725 31.5261
31.424402510106933 31.5175
31.447712205419993 31.592
31.470842524931633 31.3527
31.493974159989783 31.4056
31.51710711176168 31.2681
31.54042212308802 31.3863
31.563557722100917 31.3619
31.586694641341655 31.1505
31.609832881979628 31.1251
31.63315322823208 30.9894
31.656294125521327 30.8598
31.679436347728515 30.9052
31.70257989602529 30.9261
31.725905596152327 30.7718
31.74905181052835 30.6774
31.772199354521323 30.741999999999997
31.79534822930507 30.7062
31.818679302290967 30.6921
31.84183085259981 30.6618
31.864983737233473 30.7287
31.88813795736804 30.7827
31.911474422233013 30.6096
31.934631327356435 30.5979
31.9577895715215 30.6528
31.980949155906522 30.5884
32.004291031706956 30.6529
32.027453310562606 30.5582
32.05061693318573 30.3379
32.07396288236386 30.4224
32.09712920658542 30.2869
32.12029687812702 30.2108
32.14346589817093 30.1434
32.166817291729984 30.0618
32.18998902288583 30.0074
32.21316210610336 29.9001
32.23633654256711 29.8209
32.259693399663725 29.8032
32.282870556771144 29.7677
32.30604907069099 29.8061
32.329228942610065 29.7215
32.35259128243769 29.5761
32.375773884550505 29.531
32.398957848235646 29.4408
32.422143174682176 29.4579
32.445511016471215 29.3335
32.468699082679954 29.3051
32.49188851523011 29.3073
32.51507931531304 29.2052
32.538452678331 29.1986
32.56164622776311 29.176
32.58484114831493 29.043000000000003
32.60803744118015 28.9851
32.631416344731896 29.0323
32.654615396551876 29.0293
32.67781582427913 28.9747
32.701198898634416 28.9812
32.72440209253756 28.7786
32.747606665947124 28.8981
32.77081262006088 28.6689
32.79420126883317 28.6922
32.81740999876112 28.7255
32.840620112999424 28.6572
32.86383161274818 28.5847
32.88722585534586 28.5845
32.91044014056596 28.6227
32.933655814909734 28.6184
32.95687287957963 28.5034
32.98027273544904 28.4629
33.00349259526636 28.3156
33.026713849030116 28.4337
33.04993649794511 28.3525
33.073341986570746 28.3506
33.09656744032826 28.3119
33.11979429286444 28.3658
33.14302254538647 28.3211
33.166433686291185 28.3532
33.18966475336992 28.2732
33.212897224069096 28.2298
33.23613109959831 28.1364
33.259547912343415 28.089000000000002
33.2827846121627 28.1859
33.306022720453775 28.0644
33.32926223842861 27.9562
33.352684742614166 27.9945
33.37592709463173 27.9491
33.399170859982064 27.8314
33.422597648419426 27.7225
33.44584425514446 27.6539
33.46909227885668 27.6576
33.4923417207723 27.4971
33.51577423505344 27.5888
33.539026528130385 27.4749
33.56228024307245 27.4654
33.585535381098246 27.315
33.60897364093058 27.2916
33.63223163992385 27.3357
33.6554910656699 27.1672
33.678751919389796 27.2104
33.702195944520106 27.1112
33.72545966903325 27.0987
33.74872482519663 27.0826
33.771991414233746 27.092
33.79544122444841 26.9764
33.81871069412428 26.9091
33.84198160035767 26.8972
33.86525394437455 26.9457
33.88870955949969 26.809
33.911984794020626 26.7797
33.93526147001624 26.7251
33.958539588715006 26.8081
33.98200102861669 26.6924
34.0052820477047 26.5274
34.02856451319451 26.5594
34.05203033759056 26.5022
34.07531571090147 26.4504
34.09860253431845 26.3937
34.121890809074316 26.3781
34.145362493118924 26.3534
34.16865368561615 26.3791
34.191946333164054 26.2349
34.21524043699793 26.2892
34.23871800066799 26.2432
34.26201503218366 26.1232
34.28531352370466 26.1431
34.30861347646881 26.065
34.33209693978188 25.9912
34.3553998301885 25.9999
34.378704185565205 25.8986
34.402010007152356 25.9458
34.42549939016683 25.8434
34.44880815937748 25.7749
34.472118398533134 25.7936
34.49543010887669 25.7672
34.51892543169198 25.6182
34.54224009966052 25.6836
34.56555624255917 25.6347
34.58887386163339 25.5503
34.61237514439016 25.4264
34.6356957311114 25.4494
34.65901779775809 25.4323
34.68252356662995 25.4757
34.705848608458616 25.4785
34.72917513396849 25.3554
34.75250314440949 25.3496
34.77601490857862 25.2573
34.799345904259795 25.166999999999998
34.82267838863559 25.2448
34.846012362958525 25.1741
34.869530142679984 25.1484
34.89286711232212 25.0517
34.91620557568269 25.0844
34.93954553401677 24.984
34.9630693495876 24.8849
34.986412313340814 25.0426
35.00975677584668 24.9913
35.033102738362956 24.8881
35.05663261012228 24.853
35.0799815881786 24.8734
35.10333207003229 24.8528
35.12668405694369 24.7929
35.150220005273056 24.8112
35.17357501786656 24.7161
35.19693153931268 24.7279
35.220289570874385 24.663
35.24383161619786 24.6624
35.267192683604904 24.4672
35.290555264930376 24.5824
35.314101899412165 24.5558
35.33746752422433 24.4634
35.36083466676374 24.4579
35.38420332829803 24.385
35.407756095629054 24.5023
35.43112781085063 24.4074
35.45450104888391 24.3244
35.477875810999194 24.4194
35.50143473172161 24.3208
35.52481255774625 24.3288
35.54819191167777 24.2337
35.57157279478914 24.2478
35.595137889488406 24.2055
35.61852184675279 24.1363
35.641907337029984 24.1169
35.665294361595684 24.1369
35.68886565090076 24.0204
35.7122557598848 23.9964
35.73564740699838 23.9822
35.759040593519934 23.967
35.78261809810353 23.9754
35.80601437933051 23.8281
35.829412203814705 23.7585
35.85281157283719 23.7406
35.876395313415884 23.7819
35.8997977874528 23.648000000000003
35.92320180988546 23.68
35.946790244133936 23.5322
35.97019737933222 23.4903
35.993606066789866 23.5319
36.01701630779276 23.4552
36.04061101440684 23.4144
36.06402437852291 23.5277
36.08743930005611 23.5129
36.1108557802951 23.3317
36.13445678011326 23.2905
36.15787639383515 23.2686
36.18129757014299 23.2763
36.20472031032821 23.2749
36.22832762423364 23.1769
36.25175350829375 23.1821
36.275180960119776 23.0617
36.298609981005924 23.1094
36.32222362992669 23.0384
36.34565580510207 23.0422
36.36908955323448 22.9972
36.39252487562093 22.8625
36.416144880530226 22.862
36.43958336764275 22.8635
36.463023432914625 22.8726
36.486465077645676 22.7435
36.51009145956204 22.8558
36.53353627947859 22.8232
36.55698268276811 22.8197
36.58043067073321 22.7331
36.60406345072071 22.6277
36.62751462435344 22.6412
36.65096738658405 22.6085
36.67460498210655 22.5779
36.69806093788647 22.531
36.72151848619297 22.5658
36.744977628333636 22.5597
36.76862165890998 22.3978
36.79208400512205 22.4386
36.81554794910557 22.3874
36.83901349217101 22.2755
36.862663978991606 22.2824
36.88613273667352 22.2234
36.90960309738324 22.2921
36.933075062434064 22.1268
36.95673202673572 22.0991
36.98020721697122 22.0315
37.003684015502365 21.999000000000002
37.027162423645365 21.9855
37.050825886711465 21.984
37.07430753063053 21.8387
37.09779078812467 21.9373
37.121275660513014 21.9043
37.144945643673694 21.8795
37.16843376245278 21.8322
37.19192350009803 21.825
37.215414857931435 21.7941
37.239091382563885 21.6926
37.262585997426164 21.6638
37.28608223645736 21.6778
37.309763684451696 21.6175
37.33326318851098 21.6144
37.356764320726555 21.5559
37.380267082425526 21.5773
37.40395510942588 21.4979
37.42746114683234 21.3937
37.45096881771841 21.353
37.474478123414166 21.4118
37.49817275092816 21.305999999999997
37.52168534303452 21.3509
37.54519957395567 21.2581
37.568715445024665 21.2823
37.592416694607714 21.1812
37.61593586281424 21.1715
37.63945667518264 21.22
37.66297913304891 21.1883
37.68668702630454 21.1518
37.710212792059274 21.0493
37.733740207334854 20.9941
37.757269273470364 20.9554
37.780983832050374 20.9551
37.80451621684926 20.9558
37.82805025654007 20.9287
37.851585952464795 20.8868
37.8753071980695 20.8401
37.89884622345676 20.7364
37.92238690911902 20.6708
37.94611318753442 20.6739
37.969657210779765 20.644000000000002
37.99320289834801 20.6933
38.016750251586465 20.6248
38.04048325513017 20.5921
38.06403395679343 20.5642
38.087586328183946 20.5074
38.11114037065203 20.4706
38.13488012115898 20.4937
38.1584375229181 20.4239
38.181996599821 20.3401
38.205557353221124 20.4179
38.229303872575656 20.3324
38.2528679961576 20.2963
38.27643380031219 20.2197
38.30000128639589 20.2698
38.32375459653193 20.2141
38.34732546371299 20.24
38.37089801690786 20.1466
38.39447225747609 20.0889
38.418232380377425 20.0397
38.441810012983396 20.0623
38.46538933705673 20.0162
38.488970353960084 20.0347
38.51273731166058 19.9737
38.536321731567014 19.9431
38.55990784840681 19.9114
38.58367995004091 19.805999999999997
38.60726947812959 19.6619
38.63086070726198 19.7107
38.654453638806274 19.7444
38.678232613930824 19.7332
38.70182896773327 19.6396
38.72542702806741 19.6695
38.7490267963045 19.6365
38.77281266709232 19.5767
38.79641586862214 19.565
38.8200207821842 19.4426
38.843627409152944 19.4856
38.86742019782782 19.4215
38.891030269149255 19.4305
38.914642058016156 19.430999999999997
38.938255565806124 19.3752
38.96205529464307 19.3141
38.98567225787121 19.3525
39.00929094417078 19.275
39.03291135492255 19.2179
39.05671804624804 19.2237
39.080341923549106 19.1837
39.103967529460334 19.1701
39.127594865365744 19.1406
39.15140854155791 19.0583
39.17503935514948 19.0945
39.19867190290282 18.9998
39.22249083587951 18.9833
39.24612686969409 19.0291
39.269764641845306 19.0155
39.293404153722804 18.9859
39.317230110864074 18.8751
39.34087311998506 18.8096
39.36451787301696 18.8695
39.388164371352595 18.7997
39.41199737518003 18.7693
39.43564738196752 18.7232
39.45929913825317 18.6718
39.48295264543308 18.6624
39.506792718520884 18.6173
39.530449745387216 18.6155
39.55410852735203 18.5134
39.57776906581474 18.6532
39.60161623079 18.5269
39.625280300200025 18.5374
39.64894613032202 18.410999999999998
39.67261372255866 18.422
39.6964680021016 18.3608
39.72013913657293 18.4429
39.74381203738292 18.4381
39.76748670593756 18.3662
39.79134812278169 18.2994
39.81502634488497 18.279
39.83870633896685 18.2782
39.862388106436654 18.1534
39.88625668336918 18.1681
39.90994201572829 18.2079
39.933629125719285 18.1307
39.957503091207826 18.0995
39.9811937746168 18.1213
40.00488623990914 18.0489
40.02858048850006 17.98
40.05246165409549 17.9906
40.076159487492085 17.9155
40.099859108448875 17.9176
40.123560518384345 17.8922
40.1474489070226 17.8747
40.171153913178564 17.8233
40.194860712584955 17.8307
40.2185693066637 17.7472
40.242464941335314 17.7656
40.26617714307655 17.7545
40.289891143772046 17.7182
40.3136069448471 17.7065
40.33750984859743 17.6147
40.3612292688043 17.5549
40.3849504936829 17.6123
40.40867352466194 17.5574
40.43258372059144 17.5099
40.45631038219906 17.5332
40.48003885420956 17.4574
40.503769138055105 17.4489
40.52768664931955 17.4304
40.55142057531802 17.451
40.57515631746428 17.4073
40.599079334038514 17.3777
40.62281872700477 17.2529
40.64655994043941 17.2474
40.67030297578061 17.2768
40.69423334835778 17.2397
40.71798004609188 17.1951
40.74172857006355 17.1471
40.76547892171441 17.1443
40.7894166736039 17.1359
40.813170699248566 17.0677
40.83692655691388 17.0201
40.86068424804498 17.055999999999997
40.884629402612525 17.039
40.908390779366385 17.0442
40.932153993938 16.9421
40.95591904777605 16.9281
40.979871628443995 16.9543
41.003640379561936 16.941
41.02741097430883 16.8504
41.05118341413683 16.8685
41.075143444384416 16.8949
41.098919593177826 16.772000000000002
41.1226975914255 16.7568
41.14647744058318 16.7341
41.170444943946755 16.6323
41.19422851378379 16.695
41.218013938914645 16.6789
41.24198706625173 16.6154
41.26577622087193 16.6292
41.289567235177785 16.4855
41.31336011063129 16.518
41.337340752422875 16.5144
41.361137369129835 16.4688
41.38493585138705 16.4368
41.40873620066004 16.4227
41.43272438060107 16.3969
41.45652848292052 16.289
41.48033445666918 16.2688
41.50414230331616 16.3245
41.528138045159764 16.2546
41.551949656675205 16.2439
41.575763145513235 16.2121
41.59957851314666 16.1859
41.62358184070442 16.1968
41.64740098505737 16.098
41.6712220126409 16.0652
41.69504492493139 16.0478
41.71905586207357 16.0535
41.74288256296395 16.0185
41.766711153007456 16.0261
41.79054163368412 16.0208
41.814560204340054 16.0137
41.838394485526365 15.9618
41.86223066180303 15.8497
41.88625497706819 15.8317
41.910094962812 15.8349
41.93393684811168 15.8437
41.95778063445365 15.7748
41.981812625263366 15.7253
42.00566023303407 15.8098
42.029509746323676 15.6855
42.05336116662236 15.7121
42.077400857069705 15.6157
42.10125611078846 15.5597
42.12511327600405 15.6658
42.14897235421036 15.5078
42.173019768448455 15.5463
42.19688269209613 15.4823
42.22074753323349 15.4833
42.24461429335818 15.488
42.268669455600495 15.4562
42.292540073217886 15.3768
42.31641261433284 15.4158
42.34028708044675 15.3212
42.36435001496739 15.3339
42.38822835065557 15.3808
42.41210861586426 15.2949
42.4359908120986 15.2815
42.46006154323262 15.2083
42.48394762115317 15.2085
42.507835634632315 15.2426
42.531912233047436 15.1592
42.55580413732265 15.0949
42.579697981698 15.1408
42.60359376768525 15.0658
42.62767820545945 15.0971
42.65157789440821 15.0591
42.67547952952185 15.0038
42.699383112316 14.982000000000001
42.72347541395347 14.9101
42.74738291190531 14.8948
42.771292362102166 14.967
42.795203766063516 14.8654
42.819303956130405 14.8394
42.843219287476536 14.7987
42.86713657716324 14.7946
42.89105582671383 14.7977
42.91516392983864 14.7984
42.939087119032166 14.7471
42.963012272677304 14.7374
42.98693939230129 14.6455
43.01105543317513 14.6187
43.034986504731386 14.6661
43.05891954686589 14.5765
43.08285456110972 14.5458
43.10697856448665 14.5335
43.130917542983475 14.4949
43.15485849820081 14.5327
43.17880143167367 14.4919
43.20293342237094 14.4417
43.226880332449 14.3733
43.25082922540554 14.3807
43.27496722682525 14.3375
43.29892010567796 14.342
43.32287497204102 14.3141
43.34683182745632 14.2995
43.370977859791836 14.2807
43.39493871351105 14.2747
43.41890156092628 14.2676
43.44286640358341 14.214
43.46702049182749 14.162
43.49098934522816 14.1236
43.51496019852649 14.1366
43.5389330532723 14.0835
43.56309522248204 14.0817
43.58707210044314 14.0785
43.61105098451946 14.0253
43.63503187626491 13.9469
43.659202151562134 13.9923
43.68318707902681 13.97
43.70717401884041 13.9361
43.731162972560874 13.9062
43.75534137913236 13.8871
43.779334381108384 13.8507
43.803329401683186 13.8665
43.82732644241872 13.7943
43.8515130055166 13.8039
43.87551410707659 13.7502
43.89951723350145 13.8
43.923709934595614 13.776
43.94771713129917 13.7069
43.97172635758096 13.6794
43.99573761501002 13.6647
44.0199385169922 13.5805
44.04395385732619 13.6171
44.067971233533086 13.5645
44.09199064718605 13.5014
44.11619977548961 13.5253
44.14022328470671 13.4678
44.16424883610785 13.4869
44.18827643127035 13.4608
44.21249381139513 13.4128
44.236525514814076 13.4256
44.26055926674478 13.411
44.28459506876863 13.4209
44.3088207262813 13.3247
44.33286064928722 13.2829
44.35690262714919 13.2955
44.38094666145278 13.2626
44.4051806219871 13.3125
44.42922879003185 13.2203
44.45327901929361 13.1804
44.477331311362136 13.1713
44.501573600619416 13.1233
44.525630039221795 13.0984
44.54968854541895 13.1323
44.573937102200176 13.0261
44.5979997645541 13.0222
44.622064499300315 13.0312
44.64613130803592 13.0141
44.67038823869318 13.0452
44.69445921643748 12.9162
44.718532272981385 12.9099
44.742607409926194 12.955
44.76687274034801 12.9534
44.79095205918753 12.8555
44.81503346325094 12.8798
44.839116954143876 12.8731
44.86339071028742 12.7909
44.88747839599524 12.7539
44.91156817336837 12.7701
44.93566004401666 12.755999999999998
44.959942251908146 12.7215
44.984038330325966 12.7028
45.00813650686762 12.6306
45.03223678314731 12.6681
45.05652746888232 12.6397
45.08063196592069 12.573
45.104738567558705 12.5336
45.128847275414856 12.5709
45.15314646515866 12.5081
45.17725940679741 12.5036
45.20137445952892 12.5044
45.22568004865265 12.4902
45.24979934496396 12.4639
45.27392075725247 12.4447
45.29804428714431 12.3833
45.322358426247604 12.3273
45.346486212804315 12.3632
45.370616121861914 12.3469
45.39474815505086 12.3587
45.41907087049246 12.3638
45.4432071734666 12.2694
45.46734560548283 12.2341
45.49148616817604 12.2552
45.51581748638564 12.2371
45.5399623320197 12.1998
45.56410931325473 12.162
45.58825843173002 12.2012
45.61259837920865 12.0909
45.636751793816 12.1069
45.66090735060093 12.0656
45.68506505120716 12.0962
45.7094136545275 12.0329
45.73357566449271 11.9777
45.75773982322992 12.0169
45.78190613238733 11.9704
45.806263418194064 11.956
45.83043404997326 11.8995
45.85460683713677 11.895
45.87897065658495 11.9206
45.90314777634752 11.8836
45.92732705646868 11.8521
45.9515084986045 11.8346
45.97588104735473 11.8202
46.00006683541565 11.7808
46.02425479047904 11.7542
46.04844491420549 11.7431
46.0728262191024 11.7443
46.09702070211635 11.7255
46.12121735879483 11.6846
46.14541619080294 11.6682
46.169806278764455 11.6553
46.194009483459034 11.6473
46.21821486849841 11.6437
46.24242243555223 11.5634
46.266821333570014 11.5424
46.29103328674601 11.517000000000001
46.31524742696538 11.5321
46.33946375590237 11.5088
46.36387149104216 11.4765
46.38809221957392 11.4546
46.41231514186606 11.4489
46.436540259597464 11.4262
46.460956858999374 11.3723
46.48518638983522 11.3663
46.509418121166966 11.3565
46.533652054678114 11.3188
46.55807754555709 11.2818
46.58231590571962 11.3287
46.60655647313217 11.2689
46.630988654873654 11.2422
46.655233659129024 11.2128
46.67948087571551 11.1406
46.70373030632484 11.1649
46.72817142736393 11.1781
46.752425308428684 11.2068
46.77668140861147 11.1541
46.80093972960865 11.0791
46.82538981736788 11.0595
46.849652602470904 11.056
46.87391761349769 11.0433
46.8981848521493 11.0286
46.9226439341274 11.0194
46.946915650573224 10.9446
46.97118959976749 10.9415
46.99546578341598 10.9248
47.019933887188216 10.9297
47.04421456235744 10.8621
47.06849747711879 10.8513
47.09278263318286 10.8759
47.11725978640143 10.8267
47.14154944775105 10.8066
47.165841355555656 10.7782
47.1901355115306 10.7462
47.214621741924994 10.7533
47.23892041698887 10.743
47.26322134538975 10.7003
47.28771440635075 10.6753
47.31201986422527 10.6991
47.33632758061436 10.6712
47.360637557241866 10.6164
47.38513974410611 10.6115
47.40945426407847 10.6119
47.43377104948137 10.5914
47.45809010204344 10.5628
47.48260144275502 10.5545
47.506925052572285 10.4986
47.53125093475548 10.4616
47.55557909103813 10.493
47.58009961361992 10.4359
47.60443234110732 10.4008
47.62876734791564 10.4032
47.65310463578333 10.4223
47.6776343683373 10.3925
47.7019762413987 10.356
47.72632040075572 10.3287
47.75066684815169 10.2949
47.77520581885936 10.3037
47.799556865477655 10.308
47.823910205386 10.3042
47.84826584033272 10.2948
47.87281407745551 10.2195
47.89717432569297 10.2119
47.92153687423484 10.2272
47.94609208429692 10.1702
47.97045925671401 10.1202
47.99482873471275 10.14
48.01920052005013 10.1087
48.04376504619224 10.0894
48.068141469543484 10.1459
48.09252020552573 10.0692
48.11690125590099 10.0224
48.1414751266064 10.0276
48.16586082917454 10.0128
48.19024885144316 9.98536
48.2146391951793 9.9718
48.239222439012764 9.9759
48.26361744916137 9.93934
48.28801478610016 9.94629
48.31241445160131 9.92057
48.337007097209366 9.876389999999999
48.36141144338331 9.889439999999999
48.38581812345755 9.86102
48.41022713920929 9.81505
48.434829215320704 9.837860000000001
48.45924292604658 9.82705
48.48365897780325 9.80818
48.50807737237308 9.74501
48.532688907799276 9.76582
48.55711201168574 9.7447
48.581537463754074 9.70545
48.60615611725119 9.70534
48.63058628942721 9.69955
48.65501881516546 9.67347
48.6794536962573 9.66662
48.70408185970339 9.62797
48.72852147531801 9.59303
48.75296345168211 9.55488
48.77740779059232 9.539819999999999
48.80204549302823 9.55797
48.82649458091802 9.54143
48.85094603676547 9.52776
48.87539986237231 9.511000000000001
48.90004713292306 9.49497
48.92450572200832 9.4708
48.94896668628025 9.47072
48.97343002754588 9.42583
48.99808689542115 9.4271
49.02255501470614 9.38917
49.04702551642794 9.3528
49.0714984023988 9.360439999999999
49.096164896893235 9.356160000000001
49.120642575466796 9.33383
49.145122643748394 9.33515
49.16960510355558 9.28156
49.19428125404938 9.28923
49.2187685210852 9.27624
49.243258185121555 9.24719
49.26794160167084 9.220889999999999
49.2924360839405 9.19856
49.31693296869764 9.17652
49.34143225776915 9.15145
49.36612538195438 9.13219
49.39062950396021 9.11127
49.41513603578346 9.11652
49.4396449792564 9.08878
49.46434784069503 9.08929
49.488861631846454 9.05282
49.513377840166804 9.03093
49.537896467493745 9.02975
49.56260909589029 8.97983
49.587132585683285 9.0235
49.611658500018365 8.97843
49.636186840738596 8.963519999999999
49.66090926588511 8.94558
49.685442483902584 8.913089999999999
49.70997813385706 8.87597
49.734516217597076 8.91209
49.75924846937352 8.84962
49.7837914452858 8.831760000000001
49.80833686055187 8.8038
49.83288471702571 8.7825
49.85762682540054 8.82221
49.882179588965734 8.76902
49.9067347993235 8.755410000000001
49.93129245833333 8.74693
49.95604445336378 8.74244
49.98060703442832 8.716289999999999
50.005172069746266 8.70856
50.02993150438364 8.65952
50.05450147301533 8.67945
50.07907390151433 8.667760000000001
50.10364879174981 8.612219999999999
50.12841816587289 8.60678
50.1529980044635 8.606760000000001
50.17758031042124 8.57696
50.20216508562089 8.576880000000001
50.22694442953363 8.55012
50.25153416817468 8.5716
50.27612638170508 8.51005
50.300721072005196 8.48437
50.325510416102105 8.49155
50.350110084975064 8.47531
50.37471223628208 8.46797
50.39931687190919 8.4113
50.424116246675766 8.424760000000001
50.44872587605249 8.40766
50.47333799543065 8.39604
50.49795260670191 8.357510000000001
50.52276204271512 8.35337
50.54738166295838 8.34717
50.57200378079314 8.32141
50.596628398116835 8.30787
50.62144792604559 8.30889
50.646077567609396 8.29376
50.670709714377715 8.275739999999999
50.69553683636198 8.27915
50.72017401885922 8.22558
50.7448137122895 8.21725
50.76945591856022 8.20708
50.79429318636823 8.150160000000001
50.818940443716784 8.17131
50.84359021965163 8.122630000000001
50.868242516085964 8.16155
50.893089960641895 8.142710000000001
50.917747323549435 8.08733
50.94240721271973 8.0649
50.96706963007175 8.092310000000001
50.99192728239342 8.053230000000001
51.01659478166073 8.082880000000001
51.04126481489051 8.03083
51.06593738400761 8.02282
51.090805275207074 8.01119
51.11548294172845 7.98981
51.14016314993547 7.959980000000001
51.164845901758845 7.9329
51.18972406304274 7.925330000000001
51.21441192780656 7.91215
51.23910234200271 7.8898600000000005
51.2637953075678 7.847389999999999
51.288683770237945 7.87609
51.31338186432707 7.83241
51.33808251561888 7.810689999999999
51.362978729967345 7.80226
51.387684521509755 7.815989999999999
51.41239287610203 7.77878
51.437103795691165 7.759460000000001
51.46201036644977 7.76616
51.486726441956634 7.746230000000001
51.51144508832545 7.74552
51.536166307509156 7.700019999999999
51.56108326624387 7.638730000000001
51.58580965706056 7.64031
51.61053862657523 7.656389999999999
51.635270176746864 7.61645
51.66019755512065 7.61972
51.68493429268881 7.634189999999999
51.70967361681515 7.572710000000001
51.73441552946465 7.53482
51.759353359237934 7.559
51.7841004750961 7.540610000000001
51.80885018539685 7.55099
51.833602492111254 7.4758
51.8585508051424 7.47127
51.883308330926425 7.48734
51.90806845906181 7.42691
51.932831191525715 7.43773
51.95779001977161 7.4116100000000005
51.98255798721516 7.39752
52.00732856494335 7.381489999999999
52.03229530577543 7.40296
52.057071130455945 7.3868
52.081849571391054 7.35704
52.106630630568695 7.359319999999999
52.13160794279417 7.3356
52.15639426492067 7.2983899999999995
52.18118321127822 7.29588
52.205974783860896 7.282660000000001
52.23096269971011 7.27072
52.255759551287994 7.26302
52.280559035098186 7.238110000000001
52.30536115314103 7.222589999999999
52.33035970494467 7.211710000000001
52.35516711807904 7.198169999999999
52.37997717147198 7.18305
52.40478986713005 7.16356
52.42979908731974 7.17156
52.454617094216 7.129
52.47943774942214 7.10705
52.50426105495102 7.1268199999999995
52.529280976059844 7.04144
52.554109609024096 7.07695
52.57894089837482 7.089919999999999
52.60377484613117 7.03198
52.62880550079408 7.056989999999999
52.65364479223379 7.02434
52.67848674816189 6.96775
52.70352547971946 7.001760000000001
52.72837279155837 6.98111
52.753222773982785 6.96345
52.778075429022984 6.925730000000001
52.80312495150885 6.941660000000001
52.827982978797436 6.91286
52.85284368481815 6.9015
52.87770707160767 6.862310000000001
52.90276741793998 6.8614
52.92763619336701 6.85895
52.952507655698504 6.81858
52.977381806977576 6.850569999999999
53.00245301017842 6.79287
53.02733256653592 6.79928
53.052214817996074 6.79707
53.077099766608484 6.7847100000000005
53.102181859804446 6.74678
53.127072229988265 6.774769999999999
53.15196530349892 6.71771
53.17686108239249 6.6699399999999995
53.20195409881522 6.7062100000000004
53.22685531582556 6.6634199999999995
53.25175924441303 6.64854
53.27666588664027 6.64571
53.30176985962693 6.648160000000001
53.3266819565689 6.6337399999999995
53.35159677336455 6.61895
53.376514312083096 6.61378
53.40162927507703 6.575010000000001
53.42655228516116 6.5624199999999995
53.45147802340193 6.55195
53.47660125628886 6.52379
53.50153247842639 6.51253
53.52646643496923 6.50517
53.55140312799818 6.53449
53.576537409691696 6.48612
53.60147960336152 6.4730300000000005
53.626424539786164 6.4639999999999995
53.65137222105307 6.449
53.67651758529126 6.395519999999999
53.70147078399681 6.41556
53.72642673383343 6.4137900000000005
53.75138543689533 6.37406
53.776541917524526 6.366709999999999
53.801506154876755 6.33561
53.826473151763246 6.346830000000001
53.851442910284916 6.30885
53.87661054126026 6.351030000000001
53.9015858509782 6.3018
53.92656392866066 6.297280000000001
53.95154477641532 6.24201
53.976723591801296 6.2420800000000005
54.00171000771266 6.24115
54.02669920004598 6.2217199999999995
54.051691170915745 6.20491
54.076881204886796 6.18699
54.101878760928514 6.2038400000000005
54.12687910187696 6.15373
54.152077577768296 6.17965
54.1770835166946 6.12715
54.20209224691339 6.09797
54.22710377055121 6.11515
54.25231352511594 6.0831599999999995
54.27733066384342 6.0807199999999995
54.30235060239643 6.11256
54.32737334290836 6.0781
54.35259441062629 5.99693
54.377622783395324 6.05601
54.40265396455061 6.02665
54.42768795623251 6.00186
54.45292037169559 5.9469
54.477960012857906 5.97675
54.50300247099511 5.89922
54.52804774825457 5.891719999999999
54.55329154616743 5.87955
54.57834249018678 5.89015
54.6033962597977 5.84745
54.6284528571545 5.83862
54.653708072335164 5.834919999999999
54.67877035378786 5.8339300000000005
54.70383546947698 5.76745
54.72890342156389 5.74317
54.7541700889442 5.67011
54.77924374251975 5.7134599999999995
54.8043202390049 5.70386
54.82959552413022 5.64686
54.8546777351945 5.67086
54.87976279569621 5.6471800000000005
54.90485070780914 5.6548
54.930137506558005 5.57604
54.95523115074295 5.6339999999999995
54.98032765308844 5.59912
55.005427015775496 5.56348
55.03072536339621 5.5923099999999994
55.05583047570572 5.48344
55.080938454927676 5.4669
55.10604930325027 5.42082
55.131359235107396 5.43391
55.15647585066083 5.39931
55.181595341907496 5.41715
55.20671771104285 5.35727
55.232039262617704 5.37831
55.25716741665048 5.35237
55.28229845518636 5.349419999999999
55.30743238042802 5.31205
55.33276558731939 5.27602
55.357905315183636 5.2207300000000005
55.383047936390035 5.22446
55.40819345314859 5.17673
55.433538351073295 5.17489
55.458689688238415 5.1559
55.483843927614096 5.16603
55.509197623043605 5.17384
55.53435769621134 5.0732800000000005
55.55952067826466 5.105180000000001
55.5846865714265 5.04782
55.61005202069737 4.98682
55.63522376553902 5.00708
55.66039842818645 4.98043
55.68557601087004 4.96286
55.7109532500271 4.9198
55.73613670233794 4.92785
