TT I
1.2716486653135266 7.035
1.2939594142134223 6.82821
1.3162702121660406 6.5772
1.3385810600174564 6.80778
1.3608919586137629 5.95279
1.383202908801069 6.02262
1.405513911425503 5.90301
1.4278249673332093 5.7247699999999995
1.4501343378461518 5.875
1.4724455028545926 5.69578
1.4947567236847858 6.1129999999999995
1.517068001182951 6.26516
1.5393793361953272 5.68232
1.5616907295681737 5.60721
1.5840021821477681 4.8505199999999995
1.60631369478041 5.04406
1.6286252683124185 5.52389
1.6509369035901333 5.04531
1.6732468618895553 5.29991
1.695558623192809 4.77148
1.7178704487808514 4.5817
1.7401823395001077 4.6943
1.7625012545597203 4.7274199999999995
1.7848028405262486 4.4518
1.8071218901122095 4.78798
1.8294236121921872 4.19119
1.8517427996910911 4.59009
1.8740620574440425 4.58836
1.8963639900671978 5.07914
1.9186833908139995 4.499969999999999
1.9409854680117449 4.6616
1.9633050151394713 4.83269
1.9856246367570705 4.730659999999999
2.0079269371922672 4.547680000000001
2.03024671027244 4.33411
2.0525491637446027 4.2434
2.074869091674931 4.2321
2.097171701569106 4.10918
2.1194917877373847 5.06197
2.141811954326636 5.00284
2.164114805233074 5.1494800000000005
2.186435135143035 4.821680000000001
2.208738150935709 7.637580000000001
2.231058647554722 13.9698
2.2533792288321184 10.3017
2.275682498336085 7.16534
2.298003251406138 5.61465
2.3203066942619714 5.44005
2.3426276225136022 5.472090000000001
2.3649486396617507 5.51755
2.387252348930071 5.75875
2.4095735463442893 5.89037
2.4318774374315884 6.5366599999999995
2.4541988185014043 6.72593
2.476502894794693 6.970219999999999
2.498824462909887 7.1395100000000005
2.521146125856138 7.2273
2.5434504863470337 6.9483
2.5657723414244717 7.58202
2.588076895590662 7.95062
2.610398946189713 8.97697
2.6327210958598384 8.29985
2.6550259469304716 7.4988399999999995
2.6773482972090137 8.23817
2.6996533504259 8.53619
2.7219759047039602 8.753
2.744298562293959 8.70031
2.7666039251246595 8.67174
2.7889267918020164 8.38526
2.8112323652516555 8.64092
2.833555444408179 8.388910000000001
2.8558786311183852 8.3671
2.8781845268938557 9.027289999999999
2.9005079311721484 8.75496
2.9228140460410397 9.17525
2.9451376712799635 9.19304
2.967444008632326 10.2235
2.9897678582247247 10.3671
3.0120918213106695 10.1197
3.0343984987899373 10.5776
3.0567226913198637 11.1802
3.079029599759726 12.0331
3.101354025127254 12.6668
3.123678568232338 12.9022
3.145985829517914 12.7068
3.16831061055229 13.4894
3.1906181112775593 14.4019
3.212943133635653 14.8502
3.2352682779763207 15.1556
3.2575761442691227 14.8029
3.2799015350264273 15.6514
3.302209649240067 16.4865
3.3245352898092655 16.1575
3.3468436553365257 16.8057
3.369169549113219 17.33
3.3914955708171384 18.215999999999998
3.413804319727358 18.4915
3.4361305997334863 18.52
3.4584396084414553 19.2328
3.4807661501462652 20.288
3.503092824025881 20.3318
3.5254022288463154 20.8606
3.5477291695206588 21.4299
3.5700388426251948 21.4924
3.5923660534916446 22.4058
3.6146934007816114 29.166
3.637003482731501 46.8044
3.6593311053109985 49.7162
3.681641464033634 35.3148
3.7039693653009733 26.1694
3.726297407241705 25.1876
3.7486081875460804 25.1413
3.7709365132734978 25.6104
3.793247578841633 26.2309
3.8155761917550093 26.2151
3.8378875459837216 26.6942
3.8602164494827234 26.9341
3.882545499606844 27.7929
3.9048572932539183 28.605
3.9271866390645718 28.8236
3.9494987298666713 29.3436
3.971828374764527 29.8918
3.9941581705403255 30.4114
4.016470713506008 30.7384
4.038800813471445 31.7185
4.061113662089144 32.1977
4.0834440696459176 32.8784
4.105774632334751 33.0842
4.128087945865126 33.7582
4.150418821249301 34.8407
4.172732448931298 35.8922
4.195063640413578 36.8325
4.2173775856475215 38.6938
4.239709096631102 52.8366
4.262040768704612 112.447
4.284355196706267 140.903
4.306687193387355 99.0162
4.329001947444346 55.2949
4.35133427213731 43.9659
4.373666762177566 42.6194
4.395982011761091 43.3136
4.418314834921175 44.6577
4.44063041906622 47.9283
4.4629635787515625 51.872
4.4852969080429785 53.0027
4.5076130004776225 52.6349
4.529946671403969 57.6126
4.552263106909177 61.8563
4.574597122877047 58.4748
4.596931312711224 54.9863
4.619248269273446 53.8189
4.6415828092605835 54.0573
4.663900117405352 54.9348
4.686235010953232 56.4406
4.708552674085913 57.9225
4.730887924602802 59.3857
4.753223354952695 61.6137
4.775541557023902 65.4131
4.797877349456786 68.7225
4.820195915032126 68.8861
4.842532072957498 68.3158
4.864868414979744 70.8891
4.88718753227192 75.0774
4.909524244902505 77.1705
4.931843734218147 76.7809
4.954180820867835 77.8614
4.976518095879839 80.5578
4.998838149695359 83.6346
5.021175803844231 86.6603
5.043496238205739 90.1972
5.065834274903528 94.2836
5.088172504230693 99.1322
5.1104935158799565 105.764
5.132832132875765 125.50399999999999
5.155153533596801 155.55700000000002
5.1774925416746225 197.206
5.199814334878411 403.001
5.2221537374521505 1024.31
5.244493338631803 2877.15
5.266815727034316 7957.46
5.289155727832427 12358.2
5.311478517248165 8156.45
5.333818921080011 2456.48
5.356159527788849 478.115
5.3784829252032536 193.32
5.400823940070432 153.053
5.423147747031976 129.942
5.445489173474152 119.516
5.467830807066149 119.199
5.490155234831516 120.13799999999999
5.512497285125229 113.038
5.534822130975162 105.895
5.557164601388673 101.759
5.579489868738879 98.2641
5.601832762690846 96.9392
5.6241758697774475 96.3527
5.646501775867269 95.2938
5.668845311622074 94.7564
5.691171647754637 93.7188
5.713515615597765 93.0473
5.735859800852677 92.4595
5.758186788542988 94.3204
5.780531411018185 98.2543
5.802858837297399 98.6785
5.825203900414495 98.8496
5.8475491852224 102.244
5.869877275883075 101.459
5.892223006467101 96.8842
5.914551544266608 94.7334
5.936897724049891 96.6034
5.959244129804903 103.661
5.981573344815301 132.315
6.0039202049061 241.72
6.026249875609095 476.029
6.04859719346037 967.7660000000001
6.070927323278297 2284.1
6.093275102315365 4570.51
6.115623113320588 5261.97
6.137953938319995 3009.68
6.160302415650845 848.847
6.182633708324452 202.354
6.2049826554078376 106.667
6.227331838745022 89.0797
6.249663839443684 82.8333
6.27201349767565 79.5283
6.294345974611799 80.1552
6.316696111167083 82.921
6.339046488263839 79.7922
6.361379686074702 73.5037
6.383730546639482 70.4373
6.406064229255215 69.6198
6.428415576718203 71.1448
6.450749747566656 69.6835
6.47310158535871 66.5633
6.495453669698332 64.6508
6.517788579421056 63.9084
6.540141159237969 62.7175
6.562476565766648 62.5555
6.5848296444934045 62.532
6.607182974060425 62.9541
6.6295191323281015 62.5989
6.651872965955752 62.9845
6.6742096296068985 71.6197
6.6965639707294615 87.2474
6.71891856698715 85.6545
6.741255995248479 70.7098
6.763611104154477 61.2611
6.785949046381137 58.4242
6.808304671371482 59.0368
6.8306605557940046 60.7227
6.852999275508618 59.8345
6.875355681171544 57.8411
6.897694923437771 56.3214
6.92005185377892 55.7442
6.9423916220322655 55.6174
6.964749080490181 54.9422
6.987106804399774 55.1141
7.009447368180821 55.2283
7.031805625367033 55.0764
7.054146723727803 54.6288
7.076505517631004 54.195
7.098864581288365 54.2754
7.121206488070854 54.0385
7.143566093607822 55.0106
7.165908543567245 56.2498
7.188268694426048 56.2418
7.2106291193438095 54.8428
7.232972390625943 54.9353
7.255333366030969 59.3918
7.277677189091925 77.6506
7.300038718428332 94.4887
7.322400526130865 85.0618
7.344745183422596 65.6366
7.367107550224791 56.1011
7.389452767901992 54.4498
7.411815697249891 53.7736
7.434161478756298 53.2321
7.456524974096713 53.3244
7.478888753837185 53.0352
7.501235387657368 53.7846
7.523599738562711 53.6154
7.545946944825532 53.8541
7.568311870344528 54.5261
7.5906770845765665 54.2462
7.613025156078678 54.9486
7.635390950099687 55.5206
7.657739602662809 55.5718
7.680105979923558 56.0407
7.702472650212829 56.7111
7.724822180948224 56.5479
7.747189439655568 55.8368
7.769539560075357 55.4671
7.791907410653562 55.8092
7.81425812420825 55.8272
7.836626570110925 56.1312
7.858995315087906 56.9421
7.881346924933401 57.2693
7.903716270417482 57.5505
7.926068482028405 58.0941
7.948438431475253 58.7253
7.9708086843180235 59.0863
7.993161805171116 59.9052
8.015532667162402 60.2204
8.037886398416653 61.8214
8.060257873014221 62.3276
8.082629655331942 62.9938
8.104984308787587 63.9699
8.127356708900503 66.0386
8.149711981398308 71.2385
8.172085002766314 72.9942
8.194458336181368 70.4101
8.216814543847752 68.5831
8.23918850371002 68.8365
8.26154533906492 69.6436
8.283919928836452 71.6463
8.306277395339652 71.9787
8.328652618483376 73.4842
8.351028159736202 75.6651
8.373386579575245 77.8221
8.395762759396959 79.6306
8.418121819038275 82.9893
8.440498640894003 89.7934
8.462875785192262 101.506
8.485235811156207 127.118
8.507613602688501 178.678
8.529974277114228 259.268
8.552352719347912 384.287
8.574731488360351 661.258
8.59709314210385 1224.34
8.619472567021075 1951.48
8.64183487789147 2222.26
8.664214962183097 1736.07
8.686577933647762 835.43
8.708958680784317 313.039
8.731339760774953 147.045
8.753703729764451 106.292
8.77608547780821 96.8325
8.798450116065078 93.4275
8.820832535634787 91.4214
8.843215292401656 91.8656
8.865580941199045 92.6233
8.887964374703538 91.9272
8.910330701447199 92.0379
8.932714815164482 91.6567
8.955099270424924 89.0776
8.977466620733543 86.6537
8.999851761421976 84.5557
9.022219798361645 83.7009
9.04460562795561 83.4694
9.066991803441677 83.0774
9.089360876979615 83.7511
9.111747746589993 83.9917
9.13411751544971 82.7368
9.156505082664324 81.733
9.178875550323522 81.6584
9.20126381862328 81.5936
9.223652438908596 81.8438
9.246023961427412 81.4624
9.26841328802173 81.2316
9.290785518039224 82.2171
9.313175554425882 84.8701
9.335565947154315 86.6593
9.357939245086508 86.9424
9.380330352834827 86.1185
9.40270436697103 86.1898
9.425096193225055 85.1328
9.447488380180165 85.103
9.469863475295412 84.2183
9.492256385987508 84.2077
9.514632206018318 84.7023
9.537025843935714 85.0557
9.559402392368193 86.6872
9.581796761000229 89.03200000000001
9.604191496441521 91.43299999999999
9.626569144158516 94.5237
9.648964615551032 95.4249
9.671343000390081 94.9168
9.693739211225699 93.375
9.716135793237463 91.9014
9.738515290448102 92.7868
9.760912617143402 94.3132
9.783292860202891 96.695
9.805690935076182 99.2485
9.828089385495742 100.191
9.850470754023561 100.929
9.872869957865444 104.369
9.89525208097539 110.86
9.917652041736662 117.488
9.940052382417589 126.04700000000001
9.962435644102392 151.584
9.984836746950979 190.75799999999998
10.007220771957746 246.94400000000002
10.029622640473708 345.874
10.052007432299963 524.9490000000001
10.074410069984072 840.398
10.096813093716005 1319.39
10.119199042482517 1828.91
10.141602840636468 1969.53
10.163989564971628 1504.04
10.186394141051062 808.23
10.208799107559706 349.319
10.231187001965623 169.76
10.253592751657669 120.20299999999999
10.275981430388155 110.23100000000001
10.298387966769793 107.97
10.320794897965431 108.20100000000001
10.343184759907361 107.056
10.36559248305461 104.413
10.387983138083852 104.589
10.410391656691655 110.76299999999999
10.432800574501677 121.56700000000001
10.455192425893369 136.315
10.47760214443012 162.741
10.499994797678786 209.795
10.522405320453982 295.818
10.54479877906917 430.227
10.567210109595656 539.45
10.5896218454736 584.755
10.612016518879773 493.01800000000003
10.634429067781074 321.255
10.656824555333241 184.09400000000002
10.679237920773568 115.855
10.701651695961992 93.5484
10.724048411481384 88.0261
10.746463008485165 85.4253
10.768860546937125 84.1395
10.791275969274796 82.4261
10.81369180576079 81.4162
10.836090585366925 80.2332
10.858507252467449 78.8218
10.88090686379991 77.7522
10.903324365036394 77.8626
10.925724811614439 77.3185
10.948143150509463 77.916
10.970561909719066 77.4112
10.992963615930844 76.5784
11.015383218085756 74.7696
11.037785768347074 73.2075
11.06020621697282 72.2146
11.082627090322113 71.6471
11.105030913430326 70.7234
11.12745263854165 70.5395
11.149857314510728 71.2842
11.172279894912576 73.4095
11.194702904450653 72.9471
11.217108866490921 71.0855
11.239532736615194 69.2082
11.26193956033512 68.3888
11.284364294577085 67.858
11.306789462371718 66.8558
11.329197585398376 66.2287
11.351623622610898 66.457
11.37403261614354 65.4603
11.396459526308487 65.5172
11.418869393879497 64.8301
11.441297180532617 64.551
11.463725406927658 64.0391
11.486136592353875 64.0131
11.508565700543707 64.1681
11.530977768845315 64.8615
11.553407762368774 64.8201
11.575838200059769 64.4206
11.598251599479612 63.3715
11.620682927815501 63.013000000000005
11.64309721895548 62.7823
11.665529441478206 62.3213
11.687962112597958 62.3284
11.710377748130886 62.2493
11.732811318753434 62.0041
11.755227854859067 61.934
11.777662328529495 62.2428
11.800079768750786 62.1212
11.822515149015453 62.1496
11.844950984084935 62.6427
11.867369787303163 62.1066
11.889806534289491 61.7138
11.912226250487029 62.1796
11.934663912939751 62.1599
11.9571020346363 62.4646
11.979523127133968 62.5246
12.001962169624331 63.8914
12.024384183972964 65.5319
12.046824150809913 68.4675
12.069264581333726 72.5438
12.091687985297767 78.1574
12.11412934550045 87.2021
12.136553680195208 103.334
12.158995973632788 128.891
12.181438735204349 161.332
12.20386447284199 195.25599999999997
12.226308172985636 215.438
12.24873485024193 202.308
12.271179492516982 162.44
12.293607112949127 116.948
12.316052700916226 86.3357
12.338498763250042 71.688
12.360927805303868 66.3867
12.383374818673879 64.1079
12.405804812803074 63.2792
12.428252780773262 63.2318
12.45070122756722 63.6362
12.473132656675375 63.5521
12.49558206341869 64.1816
12.518014453510101 64.3641
12.540464823770117 64.5005
12.562915677315177 64.3522
12.58534951575545 64.7867
12.607801338171472 65.2227
12.630236146511358 67.5648
12.652688941369085 69.5195
12.675124723177234 69.9151
12.697578494048786 68.8543
12.720032754458185 67.415
12.742470003354093 67.0376
12.764925245138771 67.0353
12.787363476431278 67.3069
12.809819703166806 67.7587
12.83227642391173 68.779
12.854716135692716 69.3579
12.877173846755147 70.4649
12.899614549869717 70.8684
12.9220732548287 71.8804
12.94453245827299 72.5566
12.966974655289818 73.6039
12.989434858002571 74.1392
13.011878055298721 74.4393
13.034339260862497 75.6138
13.056800969391883 77.1038
13.079245674017244 80.1417
13.101708390774869 84.2951
13.12415410463411 92.1864
13.146617833206086 101.443
13.169064559883248 111.318
13.191529303857127 125.82
13.213994557076367 149.559
13.236442809902437 189.33
13.258909083908291 249.458
13.28135835851934 315.124
13.30382565690295 392.917
13.326293469022952 425.76199999999994
13.348744283242008 412.67400000000004
13.371213125129904 330.62300000000005
13.39366497011003 233.43400000000003
13.416134845360597 156.249
13.438605238843131 117.415
13.46105863690397 105.43
13.483530069144786 105.87899999999999
13.505984506951902 110.184
13.528456981549432 120.471
13.550929978879088 135.691
13.573385983253365 161.60399999999998
13.595860028340867 201.829
13.618317081455832 259.17900000000003
13.64079217790333 318.115
13.663250283359057 366.25699999999995
13.685726434770173 377.48900000000003
13.708203115221277 327.765
13.730662806148091 245.984
13.75314054697177 168.93400000000003
13.775601299246777 118.238
13.798080104050406 93.2944
13.820559442405358 83.7753
13.843021793671388 80.8059
13.865502201420897 79.4229
13.887965623051947 78.8795
13.910447103807167 77.8556
13.932929122629764 76.6586
13.955394156785959 76.1549
13.977877254034569 75.3042
14.000343367582113 74.2491
14.022827546871707 73.7748
14.045294743423524 72.8401
14.06778000837062 72.3575
14.090265817715476 72.3191
14.112734645763819 71.7186
14.13522154619454 71.2052
14.157691466286913 71.1834
14.180179461423874 71.1483
14.202668005486178 70.7463
14.22513957064374 70.1516
14.247629214846473 69.8614
14.270101881097517 69.60300000000001
14.29259262906496 69.5017
14.315083930490205 69.6765
14.337558255389705 69.4767
14.360050666019726 69.4493
14.382526101071944 68.9843
14.405019624534942 68.7602
14.427513705993134 68.4422
14.449990813291825 68.1568
14.47248601302899 68.1177
14.49496423954951 68.2456
14.517460561197822 68.1249
14.539939910570322 68.0403
14.562437357763558 68.2501
14.58493536931253 68.9149
14.607416409993311 69.2715
14.62991555254159 69.7846
14.652397725157423 69.7402
14.674898002342799 70.0963
14.697398848433282 70.1561
14.719882725991326 71.4711
14.74238471217934 73.4426
14.764869730765593 76.7811
14.787372860692983 79.2464
14.809876564079925 83.0135
14.83236330125751 88.6954
14.854868153850365 97.4947
14.877356041159485 111.975
14.899862046604186 132.745
14.922351087688757 160.151
14.944858249632887 190.512
14.967365991421232 218.354
14.989856770231246 228.937
15.012365673994204 218.979
15.03485761569738 186.635
15.05736768508665 139.616
15.07987833888692 106.92399999999999
15.102372032001655 85.5936
15.124883856909658 74.5759
15.14737872204565 71.0715
15.169891721717274 69.9531
15.192405310371893 69.667
15.214901940621196 69.4565
15.237416709527137 68.9318
15.259914520936249 68.6421
15.282430473753607 67.9451
15.304947020131227 67.2887
15.327446610371178 66.8696
15.349964346154254 66.1448
15.372465126703139 65.8805
15.394984055556009 65.9124
15.417486030076159 65.76100000000001
15.44000615566487 65.3231
15.462526881230803 65.3184
15.485030653812652 65.301
15.507552581617434 65.2648
15.530057557334603 65.2601
15.55258069104857 65.3037
15.575104429329837 65.2941
15.597611216864632 65.4176
15.620136166564563 66.1418
15.6426441664095 67.6609
15.665170331202765 70.2
15.687697105158826 72.6908
15.710206930593545 75.4303
15.732734925158933 79.4893
15.755245972089478 86.0754
15.77777519094324 95.2675
15.800287463046663 109.69200000000001
15.822817909869592 130.274
15.84534897229804 153.588
15.867863089299354 177.63
15.890395385222186 194.666
15.912910736597423 197.179
15.935444269699861 179.084
15.957978423016485 146.59
15.980495633101265 113.04799999999999
16.003031029129367 88.7761
16.02554948280019 72.4242
16.048086125229432 65.3434
16.070623392487107 63.2135
16.09314371869582 62.0118
16.11568223789321 61.4802
16.13820381691126 60.6837
16.160743591742527 60.2407
16.183283996022084 59.4736
16.205807461423195 58.7925
16.228349126881973 58.1878
16.25087385432698 58.3557
16.27341678466365 57.6289
16.29594277784926 57.4674
16.31848697676433 57.2337
16.341031811604868 57.0742
16.36355971058487 57.0262
16.3861058195587 56.9824
16.40863499352978 56.065
16.431182380342005 55.8039
16.453730407713202 55.5191
16.476261501364792 55.074
16.498810812136167 54.6693
16.52134319004079 54.9422
16.54389378792203 54.9339
16.566445031001553 54.5415
16.588979342490088 54.4456
16.61153187824822 54.4201
16.634067483263312 54.3512
16.656621315414416 54.0819
16.679175797408888 53.725
16.701713349928728 54.023999999999994
16.72426913389191 54.0439
16.74680798922351 54.1114
16.76936507887444 54.1658
16.791905240734874 54.145
16.814463639794468 54.0573
16.837022695210294 54.1747
16.859564824093756 54.418
16.882125194503903 54.7159
16.904668639217885 54.8801
16.927230328348003 54.8501
16.949792678493612 55.2526
16.972338104193863 55.0959
16.994901778652235 54.7822
17.017448529496576 55.2316
17.040013531998152 55.5669
17.06257920018044 55.9865
17.0851279459922 56.6071
17.107694947817667 57.5398
17.130245028099072 58.1807
17.15281336730298 59.2463
17.17536478578733 61.1804
17.19793446610687 63.5552
17.220504818648422 66.8246
17.243058251703697 70.4178
17.265629950971032 75.1654
17.288184731571736 80.2965
17.310757781306908 83.7399
17.33333150794385 83.6654
17.355888317140174 80.76100000000001
17.37846339986244 74.9556
17.401021565958885 68.3707
17.42359800851343 63.4295
17.44617513265564 60.6736
17.468735341390783 59.2293
17.491261035594565 58.6285
17.51396340099364 58.4292
17.536490463869136 58.7534
17.559018209820174 58.6004
17.58154663977963 58.7689
17.604251766089718 58.9234
17.626781572227713 58.9763
17.64931206518155 59.2535
17.671843245885103 59.7109
17.69455114821572 59.8557
17.717083712612634 60.0823
17.739616967569667 60.3538
17.762150914021706 60.9439
17.78486160749854 60.8372
17.807396945166804 61.891999999999996
17.829932977143503 63.251999999999995
17.85246970436452 64.8076
17.875183204129467 66.1732
17.897721330097664 68.027
17.920260154126645 70.0777
17.942799677153296 73.1346
17.9655159983646 77.2349
17.988056927677544 82.9557
18.010598558807683 91.5419
18.033140892692916 101.91799999999999
18.05586005052525 113.852
18.07840379824407 125.803
18.10094825154059 136.17
18.12366954819864 141.958
18.146215420998306 137.726
18.16876200220057 127.021
18.191309292745153 111.79799999999999
18.214033452627167 98.742
18.236582170236648 88.6452
18.259131600016456 84.87100000000001
18.281681742907335 86.0081
18.304408781233683 91.3718
18.32696035875955 96.9743
18.349512652227624 102.185
18.372065662579683 105.26700000000001
18.394795594587553 105.0
18.41735004715306 100.03
18.43990521943684 91.7267
18.46246111238171 82.5909
18.485193953325208 73.9698
18.507751296070428 67.5785
18.530309362314178 64.2274
18.552868153000343 62.428000000000004
18.57560391815056 61.4289
18.59816416623245 60.8016
18.620725141597372 60.5389
18.643286845190268 60.0334
18.666025549835414 59.7534
18.688588718427933 58.8861
18.711152618092243 58.8361
18.73389353884365 58.5037
18.75645890921984 58.4119
18.77902501351406 58.0488
18.801591852673102 57.9011
18.824335739722738 57.5232
18.846904057212626 57.5202
18.8694731124168 57.1308
18.89204290628315 57.1074
18.914789774966803 57.0699
18.937361054791623 56.8113
18.959933076131318 56.6381
18.982505839934877 56.3729
19.00525570560582 56.3796
19.027829963004184 56.1251
19.05040496572238 56.3495
19.072980714710468 56.4458
19.095733592739563 56.6512
19.11831084296757 56.7071
19.140888842324735 56.8583
19.16346759176222 57.0394
19.18622349753803 57.6538
19.208803755869358 58.7457
19.231384767143577 59.9409
19.253966532312948 61.6077
19.276725481241822 64.0852
19.29930876296784 66.645
19.3218928014549 69.6241
19.34465404436217 72.4305
19.36723960516257 75.1678
19.389825925592426 75.6971
19.412413006605938 73.9897
19.43517731967805 69.5744
19.457765930683355 65.1813
19.48035530514408 60.8801
19.50294544401556 57.7256
19.525712842708348 55.4721
19.54830451925909 54.2499
19.570896963095727 53.4804
19.593490175174704 53.2663
19.616260674962184 53.2659
19.638855432416964 53.0925
19.661450960992624 53.2615
19.68404726164677 53.0201
19.706820878021247 52.7357
19.729418731756834 52.9289
19.752017360452857 52.7596
19.77461676506804 53.0571
19.797393513540218 53.2415
19.819994478951667 53.4447
19.84259622316767 53.8464
19.8651987471481 54.1737
19.887978643247177 54.2212
19.91058273574792 54.8371
19.933187610901943 55.9133
19.955969879466828 57.1722
19.97857632894404 58.6086
20.00118356396599 60.4015
20.023791585494575 62.7113
20.046577028914875 65.6231
20.069186632506966 67.8025
20.091797025500632 69.3579
20.114408208858933 69.6318
20.137196842715273 69.2002
20.159809615886765 66.9653
20.18242318232135 64.2847
20.20503754298326 62.4441
20.227829382875154 61.6538
20.250445341109344 61.91
20.27306209647285 62.5927
20.29567964993108 64.1216
20.31847471147704 64.9713
20.34109387027612 65.247
20.363713830075454 64.5177
20.386334591841646 62.4517
20.409132890679302 59.7896
20.431755265564437 56.4874
20.454378445325528 54.0816
20.477002430930366 52.397
20.499803982716553 51.2394
20.522429589228004 50.5478
20.54505600449589 50.1245
20.567683229489194 50.0705
20.590488049900088 49.8235
20.61311690359731 49.4962
20.63574656993626 49.3951
20.658553853717297 49.0523
20.681185154618298 49.2368
20.703817271080066 49.0158
20.72645020407368 48.4838
20.749260783967177 48.6476
20.771895359337133 48.4082
20.794530754161617 48.4639
20.817166969412938 48.4013
20.83998086114876 48.4482
20.86261872660049 48.2551
20.885257415405402 48.2764
20.90789692853701 48.2729
20.930714147864748 48.001000000000005
20.953355319030678 48.0401
20.97599731745334 48.3158
20.99864014410749 47.9988
21.021460706796564 48.0181
21.044105199328826 48.3013
21.06675052302631 48.5617
21.089396678865015 48.7286
21.112220600704806 48.9334
21.134868430275347 49.3789
21.15751709492456 49.7394
21.180166595629693 49.9068
21.202993892429635 50.5157
21.22564507473034 50.7512
21.24829709602816 50.9917
21.27112693608965 51.0245
21.293780644891275 50.798
21.316435195634053 50.0486
21.339090589297417 49.2185
21.361923832041875 48.7819
21.384580921090404 48.3383
21.407238856007325 48.0676
21.429897637773326 47.9373
21.45273429906592 47.9073
21.475394784108598 47.8291
21.498056118951983 47.8876
21.520718304578022 48.0969
21.543558400304388 48.3849
21.566222297108816 48.5627
21.58888704765135 48.6215
21.61155265291521 48.9631
21.63439619898156 49.3484
21.657063523335786 49.6491
21.67973170537063 50.103
21.7024007460706 50.5174
21.72524775840385 51.2129
21.747918526116475 52.2616
21.770590155457388 53.6832
21.79326264741238 55.3734
21.816113141960237 57.1842
21.838787368860547 59.0625
21.861462461341976 61.0056
21.884315579735777 63.0351
21.90699241312273 63.8009
21.92967011506078 64.1413
21.95234868653799 63.3749
21.9752053151131 61.7798
21.997885635446785 59.7896
22.020566828293532 57.9585
22.04324889464272 56.4189
22.066109049404666 55.5941
22.088792872571794 55.5522
22.111477572219204 55.723
22.1341631493376 55.7428
22.157026846313123 55.2338
22.179714188221507 54.4287
22.202402410582668 53.2009
22.22509151438863 51.6954
22.24795876962584 50.4324
22.270649646204486 49.7068
22.293341407213727 48.9692
22.316034053646906 48.6818
22.338904883215342 48.4211
22.36159931041458 48.4588
22.38429462602756 48.3251
22.40699083104897 48.0174
22.429865251039757 48.12
22.452563244831367 48.1335
22.47526213102522 48.1588
22.49813925616515 48.1465
22.520839937143307 48.1386
22.543541513520587 48.0891
22.56624398629403 47.8342
22.589124730075895 48.0297
22.611829005656723 48.1792
22.63453418063466 48.2414
22.657240256008077 48.6104
22.680124634582935 48.6237
22.70283252079775 48.8234
22.725541310413075 48.9852
22.74825100442868 49.2354
22.771139033969575 49.6659
22.79385054687155 50.0296
22.81656296718292 50.7116
22.83927629590484 51.6272
22.862167992606945 52.7673
22.88488314827121 53.9052
22.907599215359284 55.1215
22.93031619487366 56.3241
22.953211574954405 57.0494
22.975930389478226 57.5823
22.998650119445763 57.3894
23.02137076586092 56.3239
23.044269845560063 54.8397
23.06699233506288 53.3539
23.089715744034912 51.6174
23.112617610931565 50.0665
23.135342869061212 49.2298
23.158069049684816 48.6104
23.1807961538087 48.3017
23.20370174880544 48.375
23.226430710184808 48.3881
23.249160598093425 48.3797
23.271891413539002 48.2309
23.294800752937697 48.3922
23.31753343374794 48.6032
23.340267045128353 48.5014
23.36300158808808 48.81399999999999
23.38591468821339 49.3048
23.408651104658304 49.818000000000005
23.431388455719986 50.6706
23.454126742409 51.4818
23.4770436196085 52.4718
23.499783787914662 53.908
23.522524894889884 54.9236
23.54526694154616 56.0303
23.56818761219047 57.1349
23.59093154860734 57.3796
23.613676427751283 57.5583
23.636422250635754 56.276
23.659346731118656 54.3362
23.68209445191868 52.3585
23.704843119509587 50.1874
23.72759273490623 48.5029
23.750521041644767 47.2952
23.77327256312355 46.5383
23.796025035462787 45.8055
23.818956224555475 45.5493
23.841710609113413 45.5192
23.86446594758979 45.1617
23.887222241002014 44.9953
23.910157285144578 44.7189
23.932915498962537 44.7306
23.955674670778713 44.6135
23.978434801611975 44.3969
24.001373717286125 44.2918
24.024135776723917 44.1622
24.046898798245582 44.126999999999995
24.06966278287146 44.0057
24.092605586582614 43.6597
24.115371508023642 43.5947
24.1381383956401 43.5079
24.16090625045381 43.4705
24.183852958731244 43.5571
24.206622758582608 43.3479
24.229393528706886 43.0955
24.252165270127392 43.2572
24.27511589952438 43.1477
24.297889594216997 43.0485
24.32066426328598 42.7741
24.34343990775613 42.7029
24.36639447485003 42.7787
24.38917208083877 42.6808
24.41195066531332 42.5282
24.43490819850244 42.5755
24.457688750692377 42.4355
24.48047028445616 42.46
24.503252800821233 42.6966
24.526214300784112 42.7548
24.548998793132213 42.623000000000005
24.57178427117417 42.4783
24.59457073593893 42.4838
24.617536219319863 42.4919
24.64032466834748 42.3576
24.663114107195035 42.3584
24.685904536893013 42.1216
24.708874020360852 42.1037
24.731666442613744 42.0502
24.754459858818787 41.9655
24.777254270007962 41.753
24.80022777025625 41.8028
24.82302418230472 41.7579
24.845821592443674 41.7187
24.86862000170663 41.6918
24.891597535453727 41.6808
24.914397953892728 41.8643
24.93719937456671 41.7091
24.96000179851076 41.9135
24.98298338249997 42.0859
25.00578782394922 42.2815
25.028593271784167 42.4688
25.05157790644186 42.7859
25.07438537804115 43.0202
25.097193859145293 43.2108
25.120003350792075 43.3082
25.142992065061257 43.8133
25.165803588823465 44.0129
25.18861612625217 44.1613
25.211429678386736 44.262
25.234422489079968 44.2965
25.257238081693636 44.1929
25.280054692141732 44.4507
25.3028723214652 44.4571
25.325869245420463 44.4154
25.348688923599397 44.4283
25.371509623787006 44.4911
25.394331347025812 44.048
25.41733240110666 43.4801
25.440156181590016 42.7607
25.46298098826268 42.2872
25.48580682216873 41.8014
25.50881202326435 41.3119
25.53163992281684 40.8612
25.55446885274561 40.6278
25.577298814096377 40.3065
25.600308179121807 40.4524
25.623140214533745 40.3924
25.64597328451537 40.3157
25.66898578564376 40.1059
25.691820936010206 40.1029
25.714657124097695 40.0919
25.737494350954734 40.2099
25.760511045684957 39.9537
25.783350361364224 39.9584
25.806190718969255 39.8962
25.82903211955018 40.0073
25.852053024868923 40.1523
25.874896522722523 40.2471
25.897741066713106 40.1787
25.920586657892454 40.2458
25.943611790812668 40.4286
25.966459487728237 40.7009
25.989308234998564 40.6898
26.01215803367705 40.9551
26.03518741123814 41.1521
26.05803932412957 41.3439
26.080892291600094 41.2216
26.10374631470478 41.2168
26.12677995397268 41.2603
26.14963609978026 41.2133
26.172493304397875 40.8204
26.19535156888223 40.6246
26.218389486949604 40.2815
26.241249882640123 40.1498
26.26411134137826 39.7888
26.28715248187403 39.842
26.31001607820869 39.7782
26.3328807407756 39.5258
26.35574647063438 39.7856
26.37879191991473 39.7716
26.401659795896734 39.738
26.424528742360263 39.7747
26.447398760366614 39.9719
26.470448535598294 40.2564
26.49332070826805 40.3188
26.516193955675355 40.442
26.53906827888316 40.8101
26.562122397260108 41.0348
26.584998883685063 41.2681
26.607876449110325 41.6283
26.63075509460056 41.6818
26.65381357334404 41.8066
26.67669439061878 41.7536
26.699576291163382 41.7188
26.722459276044212 41.5597
26.745522132402975 41.0904
26.768407297649354 40.7532
26.791293550442003 40.5605
26.814180891848974 40.3723
26.837248143099337 40.0596
26.860137673466657 40.0128
26.88302829566349 39.687
26.90592001075963 39.6128
26.92899167420566 39.4566
26.951885586870763 39.125
26.974780595655517 38.8597
26.99785558178161 38.7307
27.020752794605112 38.7277
27.043651106772522 38.4836
27.06655051935668 38.3217
27.089629948036183 38.2085
27.112531573292053 38.3377
27.135434302194138 38.4302
27.158338135817015 38.1418
27.181422024430987 38.2404
27.204328079372566 38.054
27.22723524226965 38.0571
27.250143514198573 38.1899
27.273231880156334 38.1324
27.296142382065014 37.9396
27.319053996245536 37.9959
27.341966723775965 37.9474
27.365059584515222 38.105
27.38797455070062 38.1587
27.410890633481237 38.0456
27.433807833936918 38.0684
27.456905206923906 38.2883
27.47982465472398 38.0523
27.502745223449743 38.3074
27.525666914182825 38.2827
27.548768816912457 38.1634
27.571692763693633 38.0008
27.59461783573812 37.9292
27.617723149491244 37.8301
27.640650484125285 37.6623
27.66357894728264 37.629
27.686508540048052 37.5854
27.709618414237887 37.6577
27.732550278321757 37.4915
27.755483275279115 37.4423
27.778417406196485 37.4361
27.801531858397514 37.4673
27.824468269376716 37.3753
27.847405817586786 37.4716
27.870344504116094 37.6036
27.893463551932008 37.6101
27.916404527281053 37.8704
27.93934664422563 38.0443
27.962289903855886 38.1229
27.98541356491974 38.2678
28.00835912214229 38.382
28.03130582533231 38.6666
28.054253675581805 38.9267
28.077381967556104 38.714
28.100332124185126 38.6553
28.123283431160893 38.6685
28.146235889577238 38.3525
28.169368830154156 38.2335
28.192323603752033 37.9261
28.215279532083304 37.6231
28.238415973016764 37.542
28.261374223145094 37.4033
28.284333631303806 37.1121
28.307294198589954 37.0413
28.330435319167677 36.6412
28.353398217078915 36.4951
28.376362277420153 36.2577
28.39932750129032 36.1977
28.422473319286713 35.9786
28.44544088262495 35.8948
28.468409612800283 35.7908
28.491379510913497 35.676
28.51453004413313 35.5745
28.53750229057244 35.4924
28.56047570826344 35.3866
28.583450298308804 35.5355
28.606605564586562 35.2173
28.629582511831156 35.4548
28.65256063474956 35.3753
28.675539934446338 35.2845
28.698699951647605 35.2701
28.72168161743193 35.0714
28.74466446331978 35.1104
28.767648490417624 35.1124
28.790813276438353 35.012
28.813799678527303 35.0429
28.836787265157085 35.0981
28.859955641890075 35.036
28.882945610203045 35.0389
28.905936766392035 35.0254
28.928929111566863 35.0076
28.952102288520145 34.9374
28.975097024308607 34.8076
28.998092952423807 34.6001
29.021090073977508 34.472
29.04426806913204 34.3993
29.067267590245258 34.1507
29.090268308143695 34.1828
29.11327022394099 34.2025
29.13645305530891 34.0726
29.159457379627167 34.1142
29.18246290519685 34.0167
29.20546963313352 33.9678
29.22865731875826 33.9861
29.25166646419296 33.8831
29.27467681535305 33.9259
29.29768837335608 33.9623
29.320880931312562 33.8816
29.34389491580634 33.9495
29.366910110507334 33.8607
29.38992651653503 33.922
29.41312396492981 33.8807
29.436142806456754 33.7962
29.45916286268059 33.6189
29.48236399319994 33.5934
29.50538649169417 33.3839
29.528410208259935 33.236999999999995
29.55143514402014 33.0739
29.574641196749695 32.9755
29.597668583816574 32.8756
29.6206971934585 32.7517
29.64372702680042 32.7951
29.666938019934474 32.6988
29.689970313635285 32.6846
29.713003834422636 32.5688
29.73603858342347 32.5301
29.759254535188578 32.4558
29.78229175361658 32.4327
29.80533020365064 32.4582
29.82836988641968 32.5401
29.85159081507472 32.4712
29.874632976355343 32.3234
29.89767637376955 32.4543
29.920721008448314 32.332
29.9439469322847 32.3574
29.96699405457564 32.2714
29.9900424175358 32.2878
30.013092022298157 32.1557
30.03632295963995 32.0834
30.059375061131373 32.2216
30.08242840783577 32.1949
30.105483000888153 32.1529
30.128718970092244 32.0628
30.151776069006917 32.08
30.17483441768648 32.1003
30.198074175317235 31.9813
30.221135036724256 32.0323
30.24419715131772 32.0149
30.267260520236203 31.9923
30.290505341942243 32.0021
30.313571232750228 31.9441
30.336638381310948 31.9772
30.35970678876503 31.8717
30.38295669299435 31.9236
30.40602763151657 31.8802
30.429099832366074 31.7459
30.452173296685572 31.7457
30.47542830191959 31.7676
30.498504306502497 31.9009
30.521581577995562 31.8971
30.544660117543582 31.9342
30.56792024229725 31.9893
30.59100133132069 31.8256
30.614083691845494 31.7502
30.637167325018545 31.9325
30.660432587840603 31.9788
30.683518779717886 31.8864
30.70660624769615 32.0095
30.729694992924372 31.8707
30.75296541239743 31.8291
30.77605672557558 31.7474
30.799149319462742 31.7546
30.8224236211637 31.6187
30.845518789950724 31.4934
30.868615242910597 31.4427
30.891712981195973 31.3348
30.91499247215866 31.2368
30.938092794619365 31.166
30.96119440587579 31.1335
30.984297307082752 31.0187
31.00758200598383 30.9499
31.030687500658694 30.8744
31.053794288760695 30.8387
31.076902371446767 30.8377
31.100192296997445 30.8034
31.12330298246119 30.7193
31.14641496599209 30.6103
31.169528248749216 30.6605
31.19282341969534 30.5878
31.215939314557186 30.6865
31.239056512134788 30.5626
31.262175013589378 30.5324
31.28547544871168 30.4811
31.30859657161541 30.4605
31.331719001892175 30.5681
31.35484274070538 30.5728
31.378148458819545 30.6751
31.401274828443725 30.4979
31.424402510106933 30.5874
31.447712205419993 30.6361
31.470842524931633 30.5009
31.493974159989783 30.4702
31.51710711176168 30.5365
31.54042212308802 30.4675
31.563557722100917 30.4702
31.586694641341655 30.2443
31.609832881979628 30.2336
31.63315322823208 30.1313
31.656294125521327 30.0163
31.679436347728515 30.0142
31.70257989602529 29.9684
31.725905596152327 29.9349
31.74905181052835 29.8265
31.772199354521323 29.8027
31.79534822930507 29.8279
31.818679302290967 29.8793
31.84183085259981 29.9011
31.864983737233473 29.8224
31.88813795736804 29.8446
31.911474422233013 29.701999999999998
31.934631327356435 29.7411
31.9577895715215 29.7609
31.980949155906522 29.6799
32.004291031706956 29.6778
32.027453310562606 29.5295
32.05061693318573 29.4425
32.07396288236386 29.4851
32.09712920658542 29.4341
32.12029687812702 29.2366
32.14346589817093 29.2308
32.166817291729984 29.2065
32.18998902288583 29.1354
32.21316210610336 29.0383
32.23633654256711 28.9694
32.259693399663725 28.9732
32.282870556771144 28.8847
32.30604907069099 28.8872
32.329228942610065 28.7495
32.35259128243769 28.5661
32.375773884550505 28.6244
32.398957848235646 28.5912
32.422143174682176 28.5151
32.445511016471215 28.5497
32.468699082679954 28.3348
32.49188851523011 28.4032
32.51507931531304 28.3172
32.538452678331 28.3592
32.56164622776311 28.2296
32.58484114831493 28.1671
32.60803744118015 28.1438
32.631416344731896 28.1744
32.654615396551876 28.1794
32.67781582427913 28.1199
32.701198898634416 28.0334
32.72440209253756 28.0184
32.747606665947124 27.9525
32.77081262006088 27.8098
32.79420126883317 27.9102
32.81740999876112 27.8997
32.840620112999424 27.7918
32.86383161274818 27.6297
32.88722585534586 27.7454
32.91044014056596 27.82
32.933655814909734 27.7189
32.95687287957963 27.7365
32.98027273544904 27.677
33.00349259526636 27.6021
33.026713849030116 27.6072
33.04993649794511 27.5512
33.073341986570746 27.438000000000002
33.09656744032826 27.5244
33.11979429286444 27.5533
33.14302254538647 27.5089
33.166433686291185 27.4707
33.18966475336992 27.389
33.212897224069096 27.2397
33.23613109959831 27.3
33.259547912343415 27.2058
33.2827846121627 27.166
33.306022720453775 27.1283
33.32926223842861 26.9839
33.352684742614166 27.1292
33.37592709463173 27.0368
33.399170859982064 27.0058
33.422597648419426 26.9679
33.44584425514446 26.8208
33.46909227885668 26.8436
33.4923417207723 26.6446
33.51577423505344 26.689
33.539026528130385 26.6551
33.56228024307245 26.6122
33.585535381098246 26.5186
33.60897364093058 26.4874
33.63223163992385 26.4479
33.6554910656699 26.3944
33.678751919389796 26.3839
33.702195944520106 26.2526
33.72545966903325 26.3718
33.74872482519663 26.2075
33.771991414233746 26.2373
33.79544122444841 26.2383
33.81871069412428 26.1231
33.84198160035767 26.1002
33.86525394437455 26.1326
33.88870955949969 26.0554
33.911984794020626 26.0409
33.93526147001624 26.0086
33.958539588715006 25.9358
33.98200102861669 25.861
34.0052820477047 25.8214
34.02856451319451 25.7474
34.05203033759056 25.6764
34.07531571090147 25.774
34.09860253431845 25.641
34.121890809074316 25.5743
34.145362493118924 25.6134
34.16865368561615 25.5534
34.191946333164054 25.6064
34.21524043699793 25.5523
34.23871800066799 25.4802
34.26201503218366 25.3764
34.28531352370466 25.319000000000003
34.30861347646881 25.3302
34.33209693978188 25.3227
34.3553998301885 25.2711
34.378704185565205 25.1672
34.402010007152356 25.0349
34.42549939016683 25.0955
34.44880815937748 25.0898
34.472118398533134 24.9976
34.49543010887669 24.9538
34.51892543169198 24.8561
34.54224009966052 24.9064
34.56555624255917 24.8871
34.58887386163339 24.7867
34.61237514439016 24.6848
34.6356957311114 24.6921
34.65901779775809 24.6746
34.68252356662995 24.6493
34.705848608458616 24.6388
34.72917513396849 24.6039
34.75250314440949 24.5137
34.77601490857862 24.5248
34.799345904259795 24.4503
34.82267838863559 24.4184
34.846012362958525 24.4783
34.869530142679984 24.4084
34.89286711232212 24.3398
34.91620557568269 24.3295
34.93954553401677 24.3041
34.9630693495876 24.2042
34.986412313340814 24.1989
35.00975677584668 24.2394
35.033102738362956 24.1982
35.05663261012228 24.11
35.0799815881786 24.1277
35.10333207003229 24.0201
35.12668405694369 24.1068
35.150220005273056 24.0671
35.17357501786656 23.9944
35.19693153931268 23.9677
35.220289570874385 23.9238
35.24383161619786 23.8722
35.267192683604904 23.9204
35.290555264930376 23.8456
35.314101899412165 23.7616
35.33746752422433 23.7992
35.36083466676374 23.7386
35.38420332829803 23.66
35.407756095629054 23.715999999999998
35.43112781085063 23.7738
35.45450104888391 23.6961
35.477875810999194 23.7294
35.50143473172161 23.6767
35.52481255774625 23.6641
35.54819191167777 23.5762
35.57157279478914 23.5861
35.595137889488406 23.4783
35.61852184675279 23.534000000000002
35.641907337029984 23.3499
35.665294361595684 23.3576
35.68886565090076 23.2812
35.7122557598848 23.2824
35.73564740699838 23.3096
35.759040593519934 23.2456
35.78261809810353 23.1484
35.80601437933051 23.1697
35.829412203814705 23.0619
35.85281157283719 22.9697
35.876395313415884 23.0789
35.8997977874528 22.979
35.92320180988546 22.919
35.946790244133936 22.8676
35.97019737933222 22.9155
35.993606066789866 22.9382
36.01701630779276 22.7813
36.04061101440684 22.6654
36.06402437852291 22.73
36.08743930005611 22.7583
36.1108557802951 22.5817
36.13445678011326 22.6592
36.15787639383515 22.6556
36.18129757014299 22.6208
36.20472031032821 22.5264
36.22832762423364 22.4612
36.25175350829375 22.5151
36.275180960119776 22.3733
36.298609981005924 22.3202
36.32222362992669 22.3313
36.34565580510207 22.3235
36.36908955323448 22.3243
36.39252487562093 22.1931
36.416144880530226 22.1542
36.43958336764275 22.1393
36.463023432914625 22.1815
36.486465077645676 22.1657
36.51009145956204 22.204
36.53353627947859 22.2012
36.55698268276811 22.0617
36.58043067073321 22.0447
36.60406345072071 22.0118
36.62751462435344 21.9453
36.65096738658405 21.9489
36.67460498210655 21.7874
36.69806093788647 21.774
36.72151848619297 21.7824
36.744977628333636 21.8151
36.76862165890998 21.7439
36.79208400512205 21.7198
36.81554794910557 21.6843
36.83901349217101 21.6222
36.862663978991606 21.6035
36.88613273667352 21.5339
36.90960309738324 21.5452
36.933075062434064 21.5699
36.95673202673572 21.4579
36.98020721697122 21.3556
37.003684015502365 21.4261
37.027162423645365 21.311999999999998
37.050825886711465 21.3389
37.07430753063053 21.2345
37.09779078812467 21.1672
37.121275660513014 21.2535
37.144945643673694 21.1968
37.16843376245278 21.2196
37.19192350009803 21.1793
37.215414857931435 21.1576
37.239091382563885 21.052
37.262585997426164 21.0762
37.28608223645736 21.076
37.309763684451696 20.9461
37.33326318851098 20.9155
37.356764320726555 20.9173
37.380267082425526 20.9285
37.40395510942588 20.8578
37.42746114683234 20.7953
37.45096881771841 20.7878
37.474478123414166 20.7569
37.49817275092816 20.7756
37.52168534303452 20.6813
37.54519957395567 20.5954
37.568715445024665 20.6139
37.592416694607714 20.613000000000003
37.61593586281424 20.6224
37.63945667518264 20.6484
37.66297913304891 20.4927
37.68668702630454 20.5018
37.710212792059274 20.3927
37.733740207334854 20.3469
37.757269273470364 20.3473
37.780983832050374 20.2799
37.80451621684926 20.2969
37.82805025654007 20.2274
37.851585952464795 20.1712
37.8753071980695 20.203
37.89884622345676 20.1622
37.92238690911902 20.1636
37.94611318753442 20.0149
37.969657210779765 20.0679
37.99320289834801 20.0766
38.016750251586465 19.982
38.04048325513017 19.9823
38.06403395679343 19.9341
38.087586328183946 19.8802
38.11114037065203 19.9469
38.13488012115898 19.9133
38.1584375229181 19.7958
38.181996599821 19.7747
38.205557353221124 19.7348
38.229303872575656 19.6712
38.2528679961576 19.6446
38.27643380031219 19.6619
38.30000128639589 19.6653
38.32375459653193 19.6092
38.34732546371299 19.5788
38.37089801690786 19.475
38.39447225747609 19.428
38.418232380377425 19.4821
38.441810012983396 19.477999999999998
38.46538933705673 19.3702
38.488970353960084 19.4165
38.51273731166058 19.3662
38.536321731567014 19.3251
38.55990784840681 19.2903
38.58367995004091 19.2516
38.60726947812959 19.1422
38.63086070726198 19.1867
38.654453638806274 19.1462
38.678232613930824 19.0952
38.70182896773327 19.088
38.72542702806741 19.0439
38.7490267963045 19.1069
38.77281266709232 19.0489
38.79641586862214 18.9366
38.8200207821842 18.9316
38.843627409152944 18.8986
38.86742019782782 18.898
38.891030269149255 18.8899
38.914642058016156 18.8516
38.938255565806124 18.8279
38.96205529464307 18.7198
38.98567225787121 18.8165
39.00929094417078 18.771
39.03291135492255 18.6782
39.05671804624804 18.6609
39.080341923549106 18.6534
39.103967529460334 18.6674
39.127594865365744 18.5177
39.15140854155791 18.4502
39.17503935514948 18.4819
39.19867190290282 18.4318
39.22249083587951 18.455
39.24612686969409 18.4588
39.269764641845306 18.3767
39.293404153722804 18.3601
39.317230110864074 18.2959
39.34087311998506 18.3019
39.36451787301696 18.316
39.388164371352595 18.2113
39.41199737518003 18.1917
39.43564738196752 18.2103
39.45929913825317 18.1581
39.48295264543308 18.1149
39.506792718520884 18.0739
39.530449745387216 17.9867
39.55410852735203 18.0016
39.57776906581474 18.0329
39.60161623079 17.9693
39.625280300200025 17.993
39.64894613032202 17.945999999999998
39.67261372255866 17.9438
39.6964680021016 17.8758
39.72013913657293 17.8618
39.74381203738292 17.7959
39.76748670593756 17.8104
39.79134812278169 17.7902
39.81502634488497 17.7073
39.83870633896685 17.6859
39.862388106436654 17.6412
39.88625668336918 17.6394
39.90994201572829 17.6621
39.933629125719285 17.5854
39.957503091207826 17.5289
39.9811937746168 17.5657
40.00488623990914 17.4963
40.02858048850006 17.4115
40.05246165409549 17.4018
40.076159487492085 17.3765
40.099859108448875 17.3641
40.123560518384345 17.3559
40.1474489070226 17.3882
40.171153913178564 17.2907
40.194860712584955 17.2337
40.2185693066637 17.2404
40.242464941335314 17.1803
40.26617714307655 17.1803
40.289891143772046 17.1818
40.3136069448471 17.1001
40.33750984859743 17.1021
40.3612292688043 17.0954
40.3849504936829 17.0618
40.40867352466194 17.0475
40.43258372059144 16.9991
40.45631038219906 17.0165
40.48003885420956 16.9217
40.503769138055105 16.8448
40.52768664931955 16.8994
40.55142057531802 16.9301
40.57515631746428 16.8414
40.599079334038514 16.7831
40.62281872700477 16.8033
40.64655994043941 16.761
40.67030297578061 16.6611
40.69423334835778 16.7154
40.71798004609188 16.6565
40.74172857006355 16.6869
40.76547892171441 16.6469
40.7894166736039 16.6045
40.813170699248566 16.6081
40.83692655691388 16.5419
40.86068424804498 16.5116
40.884629402612525 16.4757
40.908390779366385 16.449
40.932153993938 16.4018
40.95591904777605 16.4176
40.979871628443995 16.412
41.003640379561936 16.3603
41.02741097430883 16.3887
41.05118341413683 16.3211
41.075143444384416 16.2762
41.098919593177826 16.272000000000002
41.1226975914255 16.2682
41.14647744058318 16.2268
41.170444943946755 16.1397
41.19422851378379 16.1959
41.218013938914645 16.1354
41.24198706625173 16.0641
41.26577622087193 16.0483
41.289567235177785 15.9878
41.31336011063129 16.0174
41.337340752422875 15.9681
41.361137369129835 15.9852
41.38493585138705 15.9588
41.40873620066004 15.9497
41.43272438060107 15.8791
41.45652848292052 15.8524
41.48033445666918 15.7879
41.50414230331616 15.7349
41.528138045159764 15.7272
41.551949656675205 15.7294
41.575763145513235 15.7304
41.59957851314666 15.659
41.62358184070442 15.6757
41.64740098505737 15.6271
41.6712220126409 15.6093
41.69504492493139 15.5873
41.71905586207357 15.6065
41.74288256296395 15.5372
41.766711153007456 15.5226
41.79054163368412 15.5312
41.814560204340054 15.5045
41.838394485526365 15.4732
41.86223066180303 15.4282
41.88625497706819 15.3337
41.910094962812 15.3591
41.93393684811168 15.3694
41.95778063445365 15.325999999999999
41.981812625263366 15.3295
42.00566023303407 15.2677
42.029509746323676 15.2152
42.05336116662236 15.2047
42.077400857069705 15.1863
42.10125611078846 15.2089
42.12511327600405 15.1713
42.14897235421036 15.1493
42.173019768448455 15.1026
42.19688269209613 15.0376
42.22074753323349 15.0028
42.24461429335818 15.0054
42.268669455600495 14.9889
42.292540073217886 14.9367
42.31641261433284 14.9755
42.34028708044675 14.9145
42.36435001496739 14.8831
42.38822835065557 14.8904
42.41210861586426 14.8266
42.4359908120986 14.8154
42.46006154323262 14.7561
42.48394762115317 14.7086
42.507835634632315 14.7499
42.531912233047436 14.7422
42.55580413732265 14.7522
42.579697981698 14.6509
42.60359376768525 14.5969
42.62767820545945 14.6394
42.65157789440821 14.5443
42.67547952952185 14.6097
42.699383112316 14.5595
42.72347541395347 14.4905
42.74738291190531 14.4819
42.771292362102166 14.502
42.795203766063516 14.4203
42.819303956130405 14.4029
42.843219287476536 14.3592
42.86713657716324 14.3936
42.89105582671383 14.3434
42.91516392983864 14.3159
42.939087119032166 14.3174
42.963012272677304 14.2538
42.98693939230129 14.2579
43.01105543317513 14.2293
43.034986504731386 14.1879
43.05891954686589 14.1719
43.08285456110972 14.1837
43.10697856448665 14.0912
43.130917542983475 14.0836
43.15485849820081 14.097999999999999
43.17880143167367 14.0197
43.20293342237094 14.0041
43.226880332449 14.0133
43.25082922540554 13.9664
43.27496722682525 13.9688
43.29892010567796 13.8983
43.32287497204102 13.9016
43.34683182745632 13.859000000000002
43.370977859791836 13.8094
43.39493871351105 13.8009
43.41890156092628 13.7904
43.44286640358341 13.7812
43.46702049182749 13.7601
43.49098934522816 13.7466
43.51496019852649 13.7554
43.5389330532723 13.6942
43.56309522248204 13.6507
43.58707210044314 13.6638
43.61105098451946 13.5895
43.63503187626491 13.6135
43.659202151562134 13.6081
43.68318707902681 13.5462
43.70717401884041 13.5012
43.731162972560874 13.4516
43.75534137913236 13.4645
43.779334381108384 13.4525
43.803329401683186 13.4038
43.82732644241872 13.377
43.8515130055166 13.3918
43.87551410707659 13.3395
43.89951723350145 13.3529
43.923709934595614 13.2982
43.94771713129917 13.3033
43.97172635758096 13.2822
43.99573761501002 13.2555
44.0199385169922 13.222000000000001
44.04395385732619 13.1783
44.067971233533086 13.1612
44.09199064718605 13.1187
44.11619977548961 13.1185
44.14022328470671 13.120999999999999
44.16424883610785 13.0953
44.18827643127035 13.082
44.21249381139513 13.0469
44.236525514814076 13.0603
44.26055926674478 13.0032
44.28459506876863 12.9989
44.3088207262813 12.927
44.33286064928722 12.9156
44.35690262714919 12.9133
44.38094666145278 12.8735
44.4051806219871 12.8358
44.42922879003185 12.8049
44.45327901929361 12.7744
44.477331311362136 12.7943
44.501573600619416 12.7311
44.525630039221795 12.7399
44.54968854541895 12.7423
44.573937102200176 12.6951
44.5979997645541 12.6712
44.622064499300315 12.7035
44.64613130803592 12.614
44.67038823869318 12.6702
44.69445921643748 12.5784
44.718532272981385 12.5479
44.742607409926194 12.5308
44.76687274034801 12.5271
44.79095205918753 12.4722
44.81503346325094 12.4859
44.839116954143876 12.481
44.86339071028742 12.4795
44.88747839599524 12.4424
44.91156817336837 12.3677
44.93566004401666 12.3711
44.959942251908146 12.338
44.984038330325966 12.3453
45.00813650686762 12.2856
45.03223678314731 12.2985
45.05652746888232 12.2356
45.08063196592069 12.2473
45.104738567558705 12.2246
45.128847275414856 12.1824
45.15314646515866 12.139000000000001
45.17725940679741 12.1286
45.20137445952892 12.1225
45.22568004865265 12.0917
45.24979934496396 12.0983
45.27392075725247 12.0699
45.29804428714431 12.0724
45.322358426247604 12.017000000000001
45.346486212804315 11.9791
45.370616121861914 11.99
45.39474815505086 11.9101
45.41907087049246 11.934000000000001
45.4432071734666 11.9168
45.46734560548283 11.8954
45.49148616817604 11.8742
45.51581748638564 11.8835
45.5399623320197 11.8565
45.56410931325473 11.7483
45.58825843173002 11.798
45.61259837920865 11.7499
45.636751793816 11.7449
45.66090735060093 11.7218
45.68506505120716 11.7006
45.7094136545275 11.6734
45.73357566449271 11.6467
45.75773982322992 11.6651
45.78190613238733 11.6703
45.806263418194064 11.6036
45.83043404997326 11.6237
45.85460683713677 11.5945
45.87897065658495 11.537
45.90314777634752 11.527999999999999
45.92732705646868 11.5131
45.9515084986045 11.4705
45.97588104735473 11.4834
46.00006683541565 11.4634
46.02425479047904 11.4191
46.04844491420549 11.3986
46.0728262191024 11.3693
46.09702070211635 11.3896
46.12121735879483 11.3681
46.14541619080294 11.3154
46.169806278764455 11.3076
46.194009483459034 11.2967
46.21821486849841 11.2584
46.24242243555223 11.2331
46.266821333570014 11.2473
46.29103328674601 11.2189
46.31524742696538 11.1557
46.33946375590237 11.1411
46.36387149104216 11.0903
46.38809221957392 11.0778
46.41231514186606 11.0949
46.436540259597464 11.0769
46.460956858999374 11.0349
46.48518638983522 11.0576
46.509418121166966 10.982000000000001
46.533652054678114 10.9997
46.55807754555709 10.994000000000002
46.58231590571962 11.0341
46.60655647313217 10.8705
46.630988654873654 10.909
46.655233659129024 10.8557
46.67948087571551 10.8807
46.70373030632484 10.8574
46.72817142736393 10.8675
46.752425308428684 10.8452
46.77668140861147 10.7887
46.80093972960865 10.7622
46.82538981736788 10.7176
46.849652602470904 10.7182
46.87391761349769 10.717
46.8981848521493 10.6981
46.9226439341274 10.6799
46.946915650573224 10.6682
46.97118959976749 10.6454
46.99546578341598 10.6186
47.019933887188216 10.5583
47.04421456235744 10.56
47.06849747711879 10.5617
47.09278263318286 10.5323
47.11725978640143 10.4945
47.14154944775105 10.4668
47.165841355555656 10.4378
47.1901355115306 10.4133
47.214621741924994 10.4237
47.23892041698887 10.408
47.26322134538975 10.3701
47.28771440635075 10.37
47.31201986422527 10.3725
47.33632758061436 10.3343
47.360637557241866 10.297
47.38513974410611 10.3009
47.40945426407847 10.2446
47.43377104948137 10.2803
47.45809010204344 10.2443
47.48260144275502 10.2046
47.506925052572285 10.2062
47.53125093475548 10.1883
47.55557909103813 10.177999999999999
47.58009961361992 10.1508
47.60443234110732 10.084
47.62876734791564 10.0699
47.65310463578333 10.0893
47.6776343683373 10.1
47.7019762413987 10.0277
47.72632040075572 10.0379
47.75066684815169 10.0209
47.77520581885936 10.0046
47.799556865477655 9.97841
47.823910205386 9.97569
47.84826584033272 9.95761
47.87281407745551 9.898019999999999
47.89717432569297 9.937389999999999
47.92153687423484 9.88931
47.94609208429692 9.88836
47.97045925671401 9.80371
47.99482873471275 9.82892
48.01920052005013 9.85356
48.04376504619224 9.77413
48.068141469543484 9.799660000000001
48.09252020552573 9.767439999999999
48.11690125590099 9.72676
48.1414751266064 9.74185
48.16586082917454 9.72488
48.19024885144316 9.69059
48.2146391951793 9.67751
48.239222439012764 9.678410000000001
48.26361744916137 9.65617
48.28801478610016 9.647260000000001
48.31241445160131 9.60491
48.337007097209366 9.583260000000001
48.36141144338331 9.59276
48.38581812345755 9.56323
48.41022713920929 9.56882
48.434829215320704 9.544089999999999
48.45924292604658 9.487260000000001
48.48365897780325 9.48143
48.50807737237308 9.486369999999999
48.532688907799276 9.48132
48.55711201168574 9.41788
48.581537463754074 9.36035
48.60615611725119 9.44074
48.63058628942721 9.40512
48.65501881516546 9.36624
48.6794536962573 9.3301
48.70408185970339 9.366489999999999
48.72852147531801 9.35234
48.75296345168211 9.30438
48.77740779059232 9.29381
48.80204549302823 9.30635
48.82649458091802 9.26683
48.85094603676547 9.22919
48.87539986237231 9.22392
48.90004713292306 9.1845
48.92450572200832 9.14875
48.94896668628025 9.1525
48.97343002754588 9.1707
48.99808689542115 9.16499
49.02255501470614 9.11145
49.04702551642794 9.0608
49.0714984023988 9.06269
49.096164896893235 9.052660000000001
49.120642575466796 9.08113
49.145122643748394 9.02824
49.16960510355558 9.02696
49.19428125404938 8.9904
49.2187685210852 8.963510000000001
49.243258185121555 8.970880000000001
49.26794160167084 8.95398
49.2924360839405 8.916080000000001
49.31693296869764 8.89851
49.34143225776915 8.87771
49.36612538195438 8.86003
49.39062950396021 8.85045
49.41513603578346 8.81506
49.4396449792564 8.82591
49.46434784069503 8.79238
49.488861631846454 8.7414
49.513377840166804 8.7707
49.537896467493745 8.78509
49.56260909589029 8.73926
49.587132585683285 8.691419999999999
49.611658500018365 8.73599
49.636186840738596 8.71092
49.66090926588511 8.72172
49.685442483902584 8.63642
49.70997813385706 8.62303
49.734516217597076 8.63223
49.75924846937352 8.6075
49.7837914452858 8.58262
49.80833686055187 8.538310000000001
49.83288471702571 8.52275
49.85762682540054 8.52411
49.882179588965734 8.510539999999999
49.9067347993235 8.484589999999999
49.93129245833333 8.47635
49.95604445336378 8.46907
49.98060703442832 8.44328
50.005172069746266 8.42047
50.02993150438364 8.40364
50.05450147301533 8.41307
50.07907390151433 8.405
50.10364879174981 8.3984
50.12841816587289 8.4199
50.1529980044635 8.36111
50.17758031042124 8.33638
50.20216508562089 8.34965
50.22694442953363 8.27313
50.25153416817468 8.2836
50.27612638170508 8.24952
50.300721072005196 8.238430000000001
50.325510416102105 8.25544
50.350110084975064 8.22087
50.37471223628208 8.18905
50.39931687190919 8.17642
50.424116246675766 8.159980000000001
50.44872587605249 8.11812
50.47333799543065 8.12613
50.49795260670191 8.15132
50.52276204271512 8.11812
50.54738166295838 8.07138
50.57200378079314 8.0831
50.596628398116835 8.031939999999999
50.62144792604559 8.01834
50.646077567609396 8.00625
50.670709714377715 8.0093
50.69553683636198 8.01488
50.72017401885922 7.99418
50.7448137122895 7.96685
50.76945591856022 7.9343699999999995
50.79429318636823 7.92173
50.818940443716784 7.91985
50.84359021965163 7.88316
50.868242516085964 7.878819999999999
50.893089960641895 7.872610000000001
50.917747323549435 7.85683
50.94240721271973 7.85038
50.96706963007175 7.866810000000001
50.99192728239342 7.8051699999999995
51.01659478166073 7.80757
51.04126481489051 7.78844
51.06593738400761 7.7687
51.090805275207074 7.7877
51.11548294172845 7.71984
51.14016314993547 7.70662
51.164845901758845 7.71632
51.18972406304274 7.648569999999999
51.21441192780656 7.697210000000001
51.23910234200271 7.66436
51.2637953075678 7.63782
51.288683770237945 7.62564
51.31338186432707 7.600410000000001
51.33808251561888 7.549360000000001
51.362978729967345 7.563860000000001
51.387684521509755 7.54925
51.41239287610203 7.56888
51.437103795691165 7.529039999999999
51.46201036644977 7.5041
51.486726441956634 7.45725
51.51144508832545 7.4882
51.536166307509156 7.45293
51.56108326624387 7.4413100000000005
51.58580965706056 7.43082
51.61053862657523 7.422839999999999
51.635270176746864 7.40964
51.66019755512065 7.4073
51.68493429268881 7.37258
51.70967361681515 7.393260000000001
51.73441552946465 7.34854
51.759353359237934 7.321039999999999
51.7841004750961 7.34599
51.80885018539685 7.29673
51.833602492111254 7.2586
51.8585508051424 7.25748
51.883308330926425 7.253539999999999
51.90806845906181 7.2359
51.932831191525715 7.225960000000001
51.95779001977161 7.21402
51.98255798721516 7.19429
52.00732856494335 7.16247
52.03229530577543 7.1702699999999995
52.057071130455945 7.18122
52.081849571391054 7.167739999999999
52.106630630568695 7.137519999999999
52.13160794279417 7.073169999999999
52.15639426492067 7.08815
52.18118321127822 7.1222199999999996
52.205974783860896 7.051139999999999
52.23096269971011 7.0335600000000005
52.255759551287994 7.0164800000000005
52.280559035098186 7.0134
52.30536115314103 7.03333
52.33035970494467 6.9953199999999995
52.35516711807904 6.959230000000001
52.37997717147198 6.95822
52.40478986713005 6.92374
52.42979908731974 6.90523
52.454617094216 6.90523
52.47943774942214 6.89882
52.50426105495102 6.881480000000001
52.529280976059844 6.865539999999999
52.554109609024096 6.83825
52.57894089837482 6.86596
52.60377484613117 6.86037
52.62880550079408 6.839510000000001
52.65364479223379 6.7899
52.67848674816189 6.769769999999999
52.70352547971946 6.799869999999999
52.72837279155837 6.78068
52.753222773982785 6.7596300000000005
52.778075429022984 6.726889999999999
52.80312495150885 6.69724
52.827982978797436 6.71548
52.85284368481815 6.70719
52.87770707160767 6.66688
52.90276741793998 6.63655
52.92763619336701 6.668019999999999
52.952507655698504 6.61707
52.977381806977576 6.627210000000001
53.00245301017842 6.6091
53.02733256653592 6.5719
53.052214817996074 6.59974
53.077099766608484 6.590310000000001
53.102181859804446 6.54933
53.127072229988265 6.539630000000001
53.15196530349892 6.52574
53.17686108239249 6.51636
53.20195409881522 6.4644
53.22685531582556 6.50055
53.25175924441303 6.45174
53.27666588664027 6.44247
53.30176985962693 6.42702
53.3266819565689 6.40222
53.35159677336455 6.41411
53.376514312083096 6.42208
53.40162927507703 6.406569999999999
53.42655228516116 6.39481
53.45147802340193 6.34936
53.47660125628886 6.37062
53.50153247842639 6.3219199999999995
53.52646643496923 6.31189
53.55140312799818 6.29726
53.576537409691696 6.29939
53.60147960336152 6.30149
53.626424539786164 6.2675
53.65137222105307 6.23693
53.67651758529126 6.23337
53.70147078399681 6.22436
53.72642673383343 6.1544300000000005
53.75138543689533 6.187869999999999
53.776541917524526 6.16406
53.801506154876755 6.159
53.826473151763246 6.145630000000001
53.851442910284916 6.13501
53.87661054126026 6.13702
53.9015858509782 6.0938099999999995
53.92656392866066 6.06861
53.95154477641532 6.071940000000001
53.976723591801296 6.062119999999999
54.00171000771266 6.06188
54.02669920004598 6.03749
54.051691170915745 6.05486
54.076881204886796 6.01053
54.101878760928514 6.00315
54.12687910187696 6.00044
54.152077577768296 6.01044
54.1770835166946 5.92137
54.20209224691339 5.95135
54.22710377055121 5.93636
54.25231352511594 5.93814
54.27733066384342 5.87437
54.30235060239643 5.91765
54.32737334290836 5.84375
54.35259441062629 5.83936
54.377622783395324 5.83419
54.40265396455061 5.83033
54.42768795623251 5.82355
54.45292037169559 5.78641
54.477960012857906 5.7641800000000005
54.50300247099511 5.71011
54.52804774825457 5.73221
54.55329154616743 5.67546
54.57834249018678 5.64518
54.6033962597977 5.643759999999999
54.6284528571545 5.67922
54.653708072335164 5.58253
54.67877035378786 5.640619999999999
54.70383546947698 5.58586
54.72890342156389 5.5820300000000005
54.7541700889442 5.54175
54.77924374251975 5.54225
54.8043202390049 5.52206
54.82959552413022 5.44106
54.8546777351945 5.48744
54.87976279569621 5.43865
54.90485070780914 5.46548
54.930137506558005 5.44344
54.95523115074295 5.40341
54.98032765308844 5.36264
55.005427015775496 5.35875
55.03072536339621 5.3539900000000005
55.05583047570572 5.3246400000000005
55.080938454927676 5.33716
55.10604930325027 5.33705
55.131359235107396 5.33601
55.15647585066083 5.24831
55.181595341907496 5.221509999999999
55.20671771104285 5.187869999999999
55.232039262617704 5.15457
55.25716741665048 5.152340000000001
55.28229845518636 5.1570599999999995
55.30743238042802 5.10529
55.33276558731939 5.09226
55.357905315183636 5.13419
55.383047936390035 5.05071
55.40819345314859 5.02766
55.433538351073295 5.0301599999999995
55.458689688238415 4.99498
55.483843927614096 4.89808
55.509197623043605 4.94762
55.53435769621134 4.91319
55.55952067826466 4.88676
55.5846865714265 4.85072
55.61005202069737 4.78136
55.63522376553902 4.85441
55.66039842818645 4.84501
55.68557601087004 4.84358
55.7109532500271 4.7627
55.73613670233794 4.73227
