TT I
1.2716486653135266 8.108369999999999
1.2939594142134223 7.50869
1.3162702121660406 7.02503
1.3385810600174564 7.31226
1.3608919586137629 7.47388
1.383202908801069 7.1863399999999995
1.405513911425503 7.59365
1.4278249673332093 7.07903
1.4501343378461518 7.09554
1.4724455028545926 6.74569
1.4947567236847858 7.427339999999999
1.517068001182951 6.86493
1.5393793361953272 6.3021400000000005
1.5616907295681737 5.997669999999999
1.5840021821477681 6.4586
1.60631369478041 6.09997
1.6286252683124185 6.28465
1.6509369035901333 5.48231
1.6732468618895553 5.8637
1.695558623192809 5.630319999999999
1.7178704487808514 5.82943
1.7401823395001077 5.329680000000001
1.7625012545597203 5.39088
1.7848028405262486 5.89197
1.8071218901122095 5.63091
1.8294236121921872 5.616569999999999
1.8517427996910911 5.50891
1.8740620574440425 5.35515
1.8963639900671978 5.54716
1.9186833908139995 4.60755
1.9409854680117449 5.51844
1.9633050151394713 5.71888
1.9856246367570705 5.53949
2.0079269371922672 4.97628
2.03024671027244 4.8696
2.0525491637446027 4.8015
2.074869091674931 4.6929300000000005
2.097171701569106 5.06652
2.1194917877373847 5.27775
2.141811954326636 5.231240000000001
2.164114805233074 4.5564800000000005
2.186435135143035 4.60553
2.208738150935709 4.70519
2.231058647554722 4.83383
2.2533792288321184 4.184419999999999
2.275682498336085 4.61793
2.298003251406138 4.86011
2.3203066942619714 4.76047
2.3426276225136022 4.51241
2.3649486396617507 5.27284
2.387252348930071 4.63668
2.4095735463442893 4.04255
2.4318774374315884 4.2473
2.4541988185014043 4.90571
2.476502894794693 5.29672
2.498824462909887 4.65546
2.521146125856138 4.968459999999999
2.5434504863470337 4.80938
2.5657723414244717 5.4291599999999995
2.588076895590662 5.39919
2.610398946189713 5.85511
2.6327210958598384 6.09502
2.6550259469304716 5.29303
2.6773482972090137 5.608630000000001
2.6996533504259 6.09929
2.7219759047039602 5.87334
2.744298562293959 6.69168
2.7666039251246595 6.49403
2.7889267918020164 6.751760000000001
2.8112323652516555 6.84778
2.833555444408179 6.69245
2.8558786311183852 7.73295
2.8781845268938557 8.12089
2.9005079311721484 8.43057
2.9228140460410397 8.31353
2.9451376712799635 8.88616
2.967444008632326 9.685310000000001
2.9897678582247247 9.87327
3.0120918213106695 10.347000000000001
3.0343984987899373 10.7676
3.0567226913198637 10.8082
3.079029599759726 12.062999999999999
3.101354025127254 12.134
3.123678568232338 12.2815
3.145985829517914 12.9409
3.16831061055229 13.4378
3.1906181112775593 14.1057
3.212943133635653 14.6002
3.2352682779763207 14.829
3.2575761442691227 15.7822
3.2799015350264273 16.009
3.302209649240067 16.7225
3.3245352898092655 17.087
3.3468436553365257 17.3676
3.369169549113219 18.135
3.3914955708171384 18.8418
3.413804319727358 19.2269
3.4361305997334863 19.2323
3.4584396084414553 19.6598
3.4807661501462652 19.9212
3.503092824025881 20.5301
3.5254022288463154 20.7303
3.5477291695206588 21.6073
3.5700388426251948 21.8946
3.5923660534916446 22.0126
3.6146934007816114 23.17
3.637003482731501 23.2493
3.6593311053109985 23.5636
3.681641464033634 24.0357
3.7039693653009733 24.3145
3.726297407241705 25.3608
3.7486081875460804 25.1794
3.7709365132734978 25.9863
3.793247578841633 26.8632
3.8155761917550093 27.1896
3.8378875459837216 27.5952
3.8602164494827234 27.5024
3.882545499606844 28.3606
3.9048572932539183 28.8322
3.9271866390645718 29.6311
3.9494987298666713 30.4184
3.971828374764527 30.9325
3.9941581705403255 31.3802
4.016470713506008 31.8202
4.038800813471445 32.4625
4.061113662089144 33.1945
4.0834440696459176 33.6965
4.105774632334751 34.5988
4.128087945865126 35.21
4.150418821249301 36.0406
4.172732448931298 36.3093
4.195063640413578 36.7622
4.2173775856475215 38.0563
4.239709096631102 38.5734
4.262040768704612 39.271
4.284355196706267 40.0552
4.306687193387355 41.0305
4.329001947444346 42.3741
4.35133427213731 43.0251
4.373666762177566 43.8056
4.395982011761091 44.4939
4.418314834921175 45.746
4.44063041906622 46.8675
4.4629635787515625 47.4338
4.4852969080429785 48.4842
4.5076130004776225 50.5974
4.529946671403969 52.4161
4.552263106909177 53.0106
4.574597122877047 54.1207
4.596931312711224 54.9359
4.619248269273446 55.5568
4.6415828092605835 56.9049
4.663900117405352 58.2489
4.686235010953232 60.1852
4.708552674085913 61.4193
4.730887924602802 63.1551
4.753223354952695 64.7005
4.775541557023902 66.3558
4.797877349456786 68.0494
4.820195915032126 70.4029
4.842532072957498 71.8729
4.864868414979744 74.255
4.88718753227192 76.9006
4.909524244902505 79.1071
4.931843734218147 82.1454
4.954180820867835 85.0734
4.976518095879839 88.9017
4.998838149695359 93.0108
5.021175803844231 97.5497
5.043496238205739 102.09100000000001
5.065834274903528 108.07700000000001
5.088172504230693 116.355
5.1104935158799565 125.7
5.132832132875765 141.643
5.155153533596801 170.243
5.1774925416746225 282.985
5.199814334878411 888.6619999999999
5.2221537374521505 2258.75
5.244493338631803 3976.02
5.266815727034316 6590.54
5.289155727832427 10373.1
5.311478517248165 9454.23
5.333818921080011 4342.24
5.356159527788849 1050.72
5.3784829252032536 287.879
5.400823940070432 187.675
5.423147747031976 155.845
5.445489173474152 139.661
5.467830807066149 130.886
5.490155234831516 124.22
5.512497285125229 118.913
5.534822130975162 116.447
5.557164601388673 112.64399999999999
5.579489868738879 109.75299999999999
5.601832762690846 107.63600000000001
5.6241758697774475 106.191
5.646501775867269 105.677
5.668845311622074 104.152
5.691171647754637 103.72
5.713515615597765 102.70299999999999
5.735859800852677 102.439
5.758186788542988 101.44
5.780531411018185 102.492
5.802858837297399 101.85
5.825203900414495 102.152
5.8475491852224 103.822
5.869877275883075 105.411
5.892223006467101 107.531
5.914551544266608 111.79700000000001
5.936897724049891 118.90299999999999
5.959244129804903 135.246
5.981573344815301 196.695
6.0039202049061 444.406
6.026249875609095 914.2410000000001
6.04859719346037 1437.82
6.070927323278297 2183.49
6.093275102315365 3592.59
6.115623113320588 4565.13
6.137953938319995 3814.3
6.160302415650845 1512.99
6.182633708324452 392.827
6.2049826554078376 154.841
6.227331838745022 111.958
6.249663839443684 97.7601
6.27201349767565 90.1082
6.294345974611799 85.5134
6.316696111167083 81.8312
6.339046488263839 79.221
6.361379686074702 77.1528
6.383730546639482 75.1745
6.406064229255215 72.9347
6.428415576718203 72.5412
6.450749747566656 71.0498
6.47310158535871 69.6118
6.495453669698332 69.0279
6.517788579421056 68.3384
6.540141159237969 66.9831
6.562476565766648 66.306
6.5848296444934045 65.8712
6.607182974060425 64.8497
6.6295191323281015 64.4845
6.651872965955752 63.5951
6.6742096296068985 62.9985
6.6965639707294615 63.0151
6.71891856698715 61.9284
6.741255995248479 61.2799
6.763611104154477 60.8308
6.785949046381137 60.7428
6.808304671371482 60.2723
6.8306605557940046 60.0446
6.852999275508618 59.5933
6.875355681171544 59.2521
6.897694923437771 58.8282
6.92005185377892 58.6114
6.9423916220322655 58.5019
6.964749080490181 57.8582
6.987106804399774 57.5466
7.009447368180821 57.5556
7.031805625367033 57.066
7.054146723727803 56.8365
7.076505517631004 56.6312
7.098864581288365 57.1119
7.121206488070854 56.4974
7.143566093607822 56.2414
7.165908543567245 56.4827
7.188268694426048 56.5483
7.2106291193438095 55.9381
7.232972390625943 55.9504
7.255333366030969 55.9613
7.277677189091925 55.565
7.300038718428332 55.7971
7.322400526130865 55.568999999999996
7.344745183422596 56.0548
7.367107550224791 56.318000000000005
7.389452767901992 56.6365
7.411815697249891 56.3391
7.434161478756298 55.7099
7.456524974096713 55.8138
7.478888753837185 55.7601
7.501235387657368 56.3851
7.523599738562711 57.0078
7.545946944825532 58.1609
7.568311870344528 58.5266
7.5906770845765665 57.9618
7.613025156078678 57.6848
7.635390950099687 57.7877
7.657739602662809 57.4471
7.680105979923558 57.8476
7.702472650212829 58.1886
7.724822180948224 58.3072
7.747189439655568 58.8547
7.769539560075357 58.6165
7.791907410653562 59.0794
7.81425812420825 58.9774
7.836626570110925 59.5851
7.858995315087906 60.3442
7.881346924933401 60.7325
7.903716270417482 61.3075
7.926068482028405 61.6323
7.948438431475253 62.5155
7.9708086843180235 63.1111
7.993161805171116 63.7816
8.015532667162402 64.0671
8.037886398416653 65.1688
8.060257873014221 65.6692
8.082629655331942 66.1547
8.104984308787587 66.8682
8.127356708900503 68.1762
8.149711981398308 68.9907
8.172085002766314 69.8779
8.194458336181368 71.2862
8.216814543847752 72.3129
8.23918850371002 73.7878
8.26154533906492 74.6532
8.283919928836452 77.1406
8.306277395339652 78.0171
8.328652618483376 79.9643
8.351028159736202 82.1391
8.373386579575245 84.98100000000001
8.395762759396959 86.8629
8.418121819038275 90.978
8.440498640894003 97.2666
8.462875785192262 110.306
8.485235811156207 158.82
8.507613602688501 290.553
8.529974277114228 463.034
8.552352719347912 598.151
8.574731488360351 757.255
8.59709314210385 1051.71
8.619472567021075 1482.97
8.64183487789147 1941.99
8.664214962183097 1935.33
8.686577933647762 1246.65
8.708958680784317 557.131
8.731339760774953 233.243
8.753703729764451 135.172
8.77608547780821 112.32700000000001
8.798450116065078 105.179
8.820832535634787 100.70700000000001
8.843215292401656 98.5509
8.865580941199045 96.6321
8.887964374703538 94.24799999999999
8.910330701447199 93.3122
8.932714815164482 92.5735
8.955099270424924 91.1887
8.977466620733543 90.5968
8.999851761421976 90.0957
9.022219798361645 89.2454
9.04460562795561 88.9738
9.066991803441677 88.458
9.089360876979615 88.3793
9.111747746589993 88.2209
9.13411751544971 87.0862
9.156505082664324 87.2365
9.178875550323522 87.0673
9.20126381862328 87.2458
9.223652438908596 88.3006
9.246023961427412 89.3305
9.26841328802173 89.0467
9.290785518039224 88.4368
9.313175554425882 88.6217
9.335565947154315 88.1088
9.357939245086508 88.2542
9.380330352834827 88.5663
9.40270436697103 88.6815
9.425096193225055 88.4344
9.447488380180165 89.7468
9.469863475295412 90.0253
9.492256385987508 90.2218
9.514632206018318 90.5932
9.537025843935714 91.0639
9.559402392368193 91.7654
9.581796761000229 93.3934
9.604191496441521 93.7156
9.626569144158516 94.0591
9.648964615551032 95.0273
9.671343000390081 96.1172
9.693739211225699 96.8856
9.716135793237463 98.7854
9.738515290448102 99.2034
9.760912617143402 100.484
9.783292860202891 101.45700000000001
9.805690935076182 103.715
9.828089385495742 104.82600000000001
9.850470754023561 107.053
9.872869957865444 110.006
9.89525208097539 113.805
9.917652041736662 119.10600000000001
9.940052382417589 134.766
9.962435644102392 193.6
9.984836746950979 302.765
10.007220771957746 428.147
10.029622640473708 528.741
10.052007432299963 634.406
10.074410069984072 789.209
10.096813093716005 1045.29
10.119199042482517 1422.58
10.141602840636468 1751.66
10.163989564971628 1716.63
10.186394141051062 1203.54
10.208799107559706 591.047
10.231187001965623 265.715
10.253592751657669 152.987
10.275981430388155 126.186
10.298387966769793 118.764
10.320794897965431 115.994
10.343184759907361 113.95299999999999
10.36559248305461 112.321
10.387983138083852 114.919
10.410391656691655 130.145
10.432800574501677 159.506
10.455192425893369 190.59
10.47760214443012 215.322
10.499994797678786 238.791
10.522405320453982 280.388
10.54479877906917 347.12800000000004
10.567210109595656 432.085
10.5896218454736 520.1659999999999
10.612016518879773 531.276
10.634429067781074 422.958
10.656824555333241 264.931
10.679237920773568 155.048
10.701651695961992 109.991
10.724048411481384 97.1188
10.746463008485165 92.8788
10.768860546937125 90.9517
10.791275969274796 88.758
10.81369180576079 87.3083
10.836090585366925 85.9448
10.858507252467449 84.6855
10.88090686379991 83.3843
10.903324365036394 82.3086
10.925724811614439 81.0592
10.948143150509463 80.8045
10.970561909719066 79.8554
10.992963615930844 79.0159
11.015383218085756 78.0775
11.037785768347074 76.9254
11.06020621697282 76.2534
11.082627090322113 76.1215
11.105030913430326 75.5584
11.12745263854165 74.602
11.149857314510728 73.8797
11.172279894912576 73.6259
11.194702904450653 72.5501
11.217108866490921 71.6814
11.239532736615194 71.5391
11.26193956033512 71.5146
11.284364294577085 71.0314
11.306789462371718 70.5214
11.329197585398376 70.4619
11.351623622610898 70.3998
11.37403261614354 69.2701
11.396459526308487 69.3851
11.418869393879497 68.7497
11.441297180532617 68.4527
11.463725406927658 68.1544
11.486136592353875 67.5009
11.508565700543707 67.257
11.530977768845315 67.3798
11.553407762368774 66.851
11.575838200059769 66.8956
11.598251599479612 66.6135
11.620682927815501 66.6313
11.64309721895548 66.8096
11.665529441478206 66.2207
11.687962112597958 65.9692
11.710377748130886 66.1051
11.732811318753434 66.1396
11.755227854859067 65.8922
11.777662328529495 65.8942
11.800079768750786 65.5932
11.822515149015453 65.5376
11.844950984084935 66.0904
11.867369787303163 65.6685
11.889806534289491 65.6726
11.912226250487029 66.4439
11.934663912939751 67.1163
11.9571020346363 67.1007
11.979523127133968 67.21300000000001
12.001962169624331 69.062
12.024384183972964 72.4648
12.046824150809913 80.2633
12.069264581333726 88.8926
12.091687985297767 96.0597
12.11412934550045 100.934
12.136553680195208 108.41799999999999
12.158995973632788 121.24799999999999
12.181438735204349 137.364
12.20386447284199 161.415
12.226308172985636 187.998
12.24873485024193 203.343
12.271179492516982 185.743
12.293607112949127 144.373
12.316052700916226 104.98
12.338498763250042 80.1928
12.360927805303868 71.021
12.383374818673879 68.5225
12.405804812803074 67.6485
12.428252780773262 67.61399999999999
12.45070122756722 67.515
12.473132656675375 67.6117
12.49558206341869 67.7901
12.518014453510101 67.67399999999999
12.540464823770117 67.5336
12.562915677315177 67.6094
12.58534951575545 68.1033
12.607801338171472 68.1315
12.630236146511358 68.6144
12.652688941369085 68.8881
12.675124723177234 69.2134
12.697578494048786 69.9427
12.720032754458185 69.735
12.742470003354093 70.4123
12.764925245138771 71.1524
12.787363476431278 71.5759
12.809819703166806 72.0632
12.83227642391173 72.6743
12.854716135692716 73.4071
12.877173846755147 74.8111
12.899614549869717 74.9902
12.9220732548287 76.2777
12.94453245827299 76.7156
12.966974655289818 77.9499
12.989434858002571 78.7837
13.011878055298721 79.7727
13.034339260862497 81.2112
13.056800969391883 82.6186
13.079245674017244 86.1549
13.101708390774869 93.0885
13.12415410463411 110.03
13.146617833206086 132.531
13.169064559883248 149.774
13.191529303857127 162.886
13.213994557076367 176.357
13.236442809902437 195.791
13.258909083908291 225.753
13.28135835851934 262.285
13.30382565690295 312.077
13.326293469022952 373.22900000000004
13.348744283242008 413.091
13.371213125129904 392.023
13.39366497011003 316.327
13.416134845360597 219.263
13.438605238843131 153.25799999999998
13.46105863690397 130.624
13.483530069144786 134.965
13.505984506951902 145.52
13.528456981549432 155.878
13.550929978879088 163.031
13.573385983253365 174.02599999999998
13.595860028340867 193.263
13.618317081455832 221.699
13.64079217790333 258.337
13.663250283359057 304.512
13.685726434770173 348.36800000000005
13.708203115221277 365.536
13.730662806148091 316.54900000000004
13.75314054697177 238.97299999999998
13.775601299246777 164.49
13.798080104050406 115.30799999999999
13.820559442405358 94.0529
13.843021793671388 87.6158
13.865502201420897 85.3073
13.887965623051947 84.6564
13.910447103807167 83.0863
13.932929122629764 82.0611
13.955394156785959 81.4663
13.977877254034569 80.2024
14.000343367582113 79.361
14.022827546871707 78.7208
14.045294743423524 77.9195
14.06778000837062 77.3335
14.090265817715476 77.163
14.112734645763819 76.6923
14.13522154619454 76.27199999999999
14.157691466286913 75.8529
14.180179461423874 75.6304
14.202668005486178 75.1335
14.22513957064374 74.8368
14.247629214846473 74.6099
14.270101881097517 73.95100000000001
14.29259262906496 73.8892
14.315083930490205 73.8778
14.337558255389705 73.4742
14.360050666019726 73.4686
14.382526101071944 73.0834
14.405019624534942 72.8392
14.427513705993134 72.6067
14.449990813291825 72.77199999999999
14.47248601302899 72.7615
14.49496423954951 72.9152
14.517460561197822 72.6407
14.539939910570322 72.389
14.562437357763558 72.8043
14.58493536931253 73.1789
14.607416409993311 73.2328
14.62991555254159 73.4277
14.652397725157423 73.8922
14.674898002342799 74.4382
14.697398848433282 74.8816
14.719882725991326 76.6787
14.74238471217934 80.5039
14.764869730765593 88.4834
14.787372860692983 96.0061
14.809876564079925 102.984
14.83236330125751 108.089
14.854868153850365 112.331
14.877356041159485 119.387
14.899862046604186 129.281
14.922351087688757 142.984
14.944858249632887 160.208
14.967365991421232 182.393
14.989856770231246 204.985
15.012365673994204 221.81599999999997
15.03485761569738 210.80900000000003
15.05736768508665 177.456
15.07987833888692 137.80200000000002
15.102372032001655 105.594
15.124883856909658 85.7622
15.14737872204565 77.9358
15.169891721717274 75.0455
15.192405310371893 74.1857
15.214901940621196 73.5083
15.237416709527137 72.7198
15.259914520936249 72.5821
15.282430473753607 71.7134
15.304947020131227 71.2688
15.327446610371178 71.0573
15.349964346154254 70.6786
15.372465126703139 70.3502
15.394984055556009 70.2851
15.417486030076159 70.3152
15.44000615566487 69.7856
15.462526881230803 69.722
15.485030653812652 69.7586
15.507552581617434 69.5614
15.530057557334603 69.563
15.55258069104857 69.6434
15.575104429329837 70.219
15.597611216864632 70.1488
15.620136166564563 71.2298
15.6426441664095 74.5089
15.665170331202765 80.5368
15.687697105158826 86.9981
15.710206930593545 92.4452
15.732734925158933 96.0714
15.755245972089478 99.1361
15.77777519094324 103.874
15.800287463046663 110.559
15.822817909869592 120.76700000000001
15.84534897229804 133.255
15.867863089299354 150.563
15.890395385222186 168.644
15.912910736597423 186.81099999999998
15.935444269699861 191.68200000000002
15.957978423016485 176.908
15.980495633101265 147.827
16.003031029129367 115.609
16.02554948280019 88.5058
16.048086125229432 74.5135
16.070623392487107 68.6699
16.09314371869582 66.2003
16.11568223789321 64.9076
16.13820381691126 64.1453
16.160743591742527 63.8247
16.183283996022084 63.4514
16.205807461423195 62.6483
16.228349126881973 62.0525
16.25087385432698 62.0489
16.27341678466365 61.3962
16.29594277784926 61.0558
16.31848697676433 60.6675
16.341031811604868 59.8994
16.36355971058487 59.8769
16.3861058195587 59.5784
16.40863499352978 59.1081
16.431182380342005 58.9401
16.453730407713202 58.573
16.476261501364792 58.5164
16.498810812136167 58.1977
16.52134319004079 58.2328
16.54389378792203 58.1823
16.566445031001553 57.9947
16.588979342490088 58.0193
16.61153187824822 57.826
16.634067483263312 57.525
16.656621315414416 57.5942
16.679175797408888 57.0136
16.701713349928728 57.256
16.72426913389191 57.6903
16.74680798922351 57.6413
16.76936507887444 57.424
16.791905240734874 57.5456
16.814463639794468 57.3564
16.837022695210294 57.3786
16.859564824093756 57.4391
16.882125194503903 57.6574
16.904668639217885 57.8343
16.927230328348003 57.6714
16.949792678493612 58.0761
16.972338104193863 57.9912
16.994901778652235 58.1167
17.017448529496576 58.5714
17.040013531998152 59.367
17.06257920018044 60.6827
17.0851279459922 62.2456
17.107694947817667 63.4024
17.130245028099072 64.2974
17.15281336730298 64.9255
17.17536478578733 65.7809
17.19793446610687 67.061
17.220504818648422 69.108
17.243058251703697 70.7304
17.265629950971032 73.6635
17.288184731571736 76.8462
17.310757781306908 81.3177
17.33333150794385 84.4781
17.355888317140174 85.2178
17.37846339986244 83.6829
17.401021565958885 78.2119
17.42359800851343 72.6713
17.44617513265564 67.4832
17.468735341390783 64.4514
17.491261035594565 62.831
17.51396340099364 62.2777
17.536490463869136 62.263000000000005
17.559018209820174 62.338
17.58154663977963 62.4134
17.604251766089718 62.4446
17.626781572227713 62.8625
17.64931206518155 62.8816
17.671843245885103 63.373000000000005
17.69455114821572 63.5327
17.717083712612634 63.7954
17.739616967569667 64.1833
17.762150914021706 64.8643
17.78486160749854 65.2582
17.807396945166804 66.4526
17.829932977143503 68.6403
17.85246970436452 72.2153
17.875183204129467 75.7367
17.897721330097664 78.9202
17.920260154126645 81.3201
17.942799677153296 83.4301
17.9655159983646 85.1208
17.988056927677544 87.9504
18.010598558807683 92.7859
18.033140892692916 98.7372
18.05586005052525 104.751
18.07840379824407 113.527
18.10094825154059 125.069
18.12366954819864 136.84
18.146215420998306 145.18
18.16876200220057 145.046
18.191309292745153 135.651
18.214033452627167 121.264
18.236582170236648 105.662
18.259131600016456 94.8732
18.281681742907335 89.8768
18.304408781233683 89.969
18.32696035875955 92.2442
18.349512652227624 96.0953
18.372065662579683 101.432
18.394795594587553 105.993
18.41735004715306 107.071
18.43990521943684 102.992
18.46246111238171 95.1359
18.485193953325208 85.0117
18.507751296070428 76.5388
18.530309362314178 70.9463
18.552868153000343 67.6612
18.57560391815056 65.9046
18.59816416623245 65.2378
18.620725141597372 64.7739
18.643286845190268 64.1367
18.666025549835414 63.5948
18.688588718427933 62.7523
18.711152618092243 62.8644
18.73389353884365 62.6057
18.75645890921984 62.0989
18.77902501351406 62.0204
18.801591852673102 61.9572
18.824335739722738 61.1632
18.846904057212626 61.1958
18.8694731124168 60.6811
18.89204290628315 60.6744
18.914789774966803 60.6038
18.937361054791623 60.1935
18.959933076131318 60.13399999999999
18.982505839934877 60.1375
19.00525570560582 60.0232
19.027829963004184 59.8644
19.05040496572238 60.0007
19.072980714710468 60.5945
19.095733592739563 61.0313
19.11831084296757 61.6091
19.140888842324735 62.105
19.16346759176222 62.3897
19.18622349753803 62.6806
19.208803755869358 62.9455
19.231384767143577 63.7378
19.253966532312948 64.6637
19.276725481241822 66.0189
19.29930876296784 67.2076
19.3218928014549 68.9598
19.34465404436217 71.0936
19.36723960516257 73.8673
19.389825925592426 76.1129
19.412413006605938 77.4572
19.43517731967805 76.6863
19.457765930683355 73.4979
19.48035530514408 69.2553
19.50294544401556 64.6696
19.525712842708348 60.8212
19.54830451925909 58.9061
19.570896963095727 57.3961
19.593490175174704 56.9118
19.616260674962184 56.8141
19.638855432416964 56.4554
19.661450960992624 56.7376
19.68404726164677 56.4279
19.706820878021247 56.1373
19.729418731756834 56.6366
19.752017360452857 56.3192
19.77461676506804 56.7705
19.797393513540218 56.9903
19.819994478951667 57.6778
19.84259622316767 58.3899
19.8651987471481 58.9155
19.887978643247177 59.0915
19.91058273574792 59.2423
19.933187610901943 59.6613
19.955969879466828 60.5443
19.97857632894404 61.4835
20.00118356396599 62.2781
20.023791585494575 63.6946
20.046577028914875 66.0021
20.069186632506966 68.2788
20.091797025500632 70.60300000000001
20.114408208858933 72.3327
20.137196842715273 73.8233
20.159809615886765 73.4444
20.18242318232135 71.1141
20.20503754298326 68.4645
20.227829382875154 65.9423
20.250445341109344 64.615
20.27306209647285 63.8092
20.29567964993108 64.1557
20.31847471147704 65.1702
20.34109387027612 66.5824
20.363713830075454 67.4547
20.386334591841646 67.6163
20.409132890679302 65.8203
20.431755265564437 62.9383
20.454378445325528 59.8352
20.477002430930366 57.3359
20.499803982716553 55.2415
20.522429589228004 53.9367
20.54505600449589 53.3012
20.567683229489194 53.1271
20.590488049900088 53.0965
20.61311690359731 52.9064
20.63574656993626 52.5884
20.658553853717297 52.3702
20.681185154618298 52.4917
20.703817271080066 52.2258
20.72645020407368 51.7502
20.749260783967177 51.4978
20.771895359337133 51.553000000000004
20.794530754161617 51.5906
20.817166969412938 51.5978
20.83998086114876 51.5687
20.86261872660049 51.1948
20.885257415405402 51.3291
20.90789692853701 51.4574
20.930714147864748 51.4297
20.953355319030678 51.3603
20.97599731745334 51.5808
20.99864014410749 51.3302
21.021460706796564 51.5301
21.044105199328826 51.7685
21.06675052302631 51.9683
21.089396678865015 51.806999999999995
21.112220600704806 51.9796
21.134868430275347 52.2763
21.15751709492456 52.078
21.180166595629693 52.3005
21.202993892429635 52.6052
21.22564507473034 53.0139
21.24829709602816 53.3118
21.27112693608965 53.7484
21.293780644891275 54.1545
21.316435195634053 53.6327
21.339090589297417 53.1951
21.361923832041875 52.6475
21.384580921090404 51.8679
21.407238856007325 51.2502
21.429897637773326 51.2287
21.45273429906592 51.0583
21.475394784108598 51.0675
21.498056118951983 51.0064
21.520718304578022 51.239
21.543558400304388 51.4517
21.566222297108816 51.9194
21.58888704765135 52.4276
21.61155265291521 52.955
21.63439619898156 53.4777
21.657063523335786 53.7524
21.67973170537063 54.3229
21.7024007460706 54.4563
21.72524775840385 55.0014
21.747918526116475 55.6097
21.770590155457388 56.4262
21.79326264741238 57.5717
21.816113141960237 58.8482
21.838787368860547 59.993
21.861462461341976 61.4846
21.884315579735777 63.0544
21.90699241312273 64.8651
21.92967011506078 66.5447
21.95234868653799 67.5941
21.9752053151131 67.1148
21.997885635446785 65.6907
22.020566828293532 63.6257
22.04324889464272 61.2382
22.066109049404666 59.2397
22.088792872571794 58.0182
22.111477572219204 57.6848
22.1341631493376 58.0731
22.157026846313123 58.3179
22.179714188221507 58.443999999999996
22.202402410582668 57.7297
22.22509151438863 56.4518
22.24795876962584 54.8968
22.270649646204486 53.7555
22.293341407213727 52.78
22.316034053646906 52.0601
22.338904883215342 51.6025
22.36159931041458 51.4283
22.38429462602756 51.4027
22.40699083104897 51.1754
22.429865251039757 51.2027
22.452563244831367 51.0415
22.47526213102522 51.1301
22.49813925616515 51.1434
22.520839937143307 51.1966
22.543541513520587 51.24100000000001
22.56624398629403 51.1188
22.589124730075895 51.0752
22.611829005656723 51.4017
22.63453418063466 51.8686
22.657240256008077 52.1356
22.680124634582935 52.3707
22.70283252079775 52.7521
22.725541310413075 53.1458
22.74825100442868 53.1018
22.771139033969575 53.4605
22.79385054687155 53.3004
22.81656296718292 53.7777
22.83927629590484 54.3368
22.862167992606945 54.9014
22.88488314827121 55.6341
22.907599215359284 56.168
22.93031619487366 56.9555
22.953211574954405 57.7403
22.975930389478226 59.1404
22.998650119445763 59.9506
23.02137076586092 59.9225
23.044269845560063 59.5516
23.06699233506288 58.3747
23.089715744034912 56.4757
23.112617610931565 54.8159
23.135342869061212 53.4139
23.158069049684816 52.1998
23.1807961538087 51.5723
23.20370174880544 51.5285
23.226430710184808 51.6383
23.249160598093425 51.9797
23.271891413539002 52.0529
23.294800752937697 52.1804
23.31753343374794 52.5074
23.340267045128353 52.4603
23.36300158808808 52.6506
23.38591468821339 52.6736
23.408651104658304 52.8805
23.431388455719986 53.2413
23.454126742409 53.7067
23.4770436196085 54.3467
23.499783787914662 55.196000000000005
23.522524894889884 55.4948
23.54526694154616 56.2329
23.56818761219047 57.394
23.59093154860734 58.2484
23.613676427751283 59.4529
23.636422250635754 59.589
23.659346731118656 58.8011
23.68209445191868 57.5232
23.704843119509587 55.5255
23.72759273490623 53.3984
23.750521041644767 51.5916
23.77327256312355 50.2174
23.796025035462787 49.4875
23.818956224555475 48.8006
23.841710609113413 48.4601
23.86446594758979 48.2388
23.887222241002014 47.9841
23.910157285144578 47.6214
23.932915498962537 47.7099
23.955674670778713 47.3444
23.978434801611975 47.1552
24.001373717286125 47.1051
24.024135776723917 46.8163
24.046898798245582 46.8927
24.06966278287146 46.8446
24.092605586582614 46.5446
24.115371508023642 46.2449
24.1381383956401 46.2072
24.16090625045381 46.1865
24.183852958731244 45.9606
24.206622758582608 46.0194
24.229393528706886 45.7688
24.252165270127392 45.9012
24.27511589952438 45.7667
24.297889594216997 45.6315
24.32066426328598 45.4905
24.34343990775613 45.5082
24.36639447485003 45.3442
24.38917208083877 45.2098
24.41195066531332 45.2261
24.43490819850244 45.4402
24.457688750692377 45.1186
24.48047028445616 45.0487
24.503252800821233 45.1337
24.526214300784112 45.125
24.548998793132213 45.1333
24.57178427117417 45.0089
24.59457073593893 45.0496
24.617536219319863 45.0876
24.64032466834748 45.2134
24.663114107195035 45.028
24.685904536893013 44.8461
24.708874020360852 44.8346
24.731666442613744 44.8053
24.754459858818787 44.708999999999996
24.777254270007962 44.5838
24.80022777025625 44.4983
24.82302418230472 44.5171
24.845821592443674 44.5682
24.86862000170663 44.4437
24.891597535453727 44.3325
24.914397953892728 44.5324
24.93719937456671 44.486999999999995
24.96000179851076 44.692
24.98298338249997 44.9054
25.00578782394922 45.1427
25.028593271784167 45.201
25.05157790644186 45.4701
25.07438537804115 45.5824
25.097193859145293 45.6333
25.120003350792075 45.6159
25.142992065061257 45.9856
25.165803588823465 46.3213
25.18861612625217 46.4664
25.211429678386736 46.5596
25.234422489079968 46.6407
25.257238081693636 46.6653
25.280054692141732 46.5986
25.3028723214652 46.5096
25.325869245420463 46.5444
25.348688923599397 46.5599
25.371509623787006 46.7805
25.394331347025812 46.7931
25.41733240110666 46.5349
25.440156181590016 46.059
25.46298098826268 45.6792
25.48580682216873 44.9882
25.50881202326435 44.3227
25.53163992281684 43.7376
25.55446885274561 43.3426
25.577298814096377 43.0723
25.600308179121807 43.0999
25.623140214533745 43.17100000000001
25.64597328451537 43.0162
25.66898578564376 42.7307
25.691820936010206 42.6703
25.714657124097695 42.6824
25.737494350954734 42.6347
25.760511045684957 42.6981
25.783350361364224 42.6753
25.806190718969255 42.7143
25.82903211955018 42.7944
25.852053024868923 42.7136
25.874896522722523 42.7463
25.897741066713106 42.6533
25.920586657892454 42.6494
25.943611790812668 42.79600000000001
25.966459487728237 42.8849
25.989308234998564 42.7364
26.01215803367705 43.0761
26.03518741123814 43.2015
26.05803932412957 43.3022
26.080892291600094 43.3851
26.10374631470478 43.4331
26.12677995397268 43.6494
26.14963609978026 43.6791
26.172493304397875 43.5075
26.19535156888223 43.5359
26.218389486949604 43.1917
26.241249882640123 43.00899999999999
26.26411134137826 42.6083
26.28715248187403 42.5458
26.31001607820869 42.4514
26.3328807407756 42.1396
26.35574647063438 42.358000000000004
26.37879191991473 42.1668
26.401659795896734 42.2858
26.424528742360263 42.3306
26.447398760366614 42.3421
26.470448535598294 42.5164
26.49332070826805 42.6467
26.516193955675355 42.8381
26.53906827888316 42.9152
26.562122397260108 43.0696
26.584998883685063 43.3599
26.607876449110325 43.4996
26.63075509460056 43.6861
26.65381357334404 43.8014
26.67669439061878 43.9214
26.699576291163382 43.9726
26.722459276044212 44.1196
26.745522132402975 43.9341
26.768407297649354 43.5748
26.791293550442003 43.0902
26.814180891848974 42.7776
26.837248143099337 42.6085
26.860137673466657 42.5049
26.88302829566349 42.2803
26.90592001075963 42.0491
26.92899167420566 41.9762
26.951885586870763 41.676
26.974780595655517 41.3383
26.99785558178161 41.2155
27.020752794605112 41.1401
27.043651106772522 40.882
27.06655051935668 40.8004
27.089629948036183 40.7839
27.112531573292053 40.6744
27.135434302194138 40.8336
27.158338135817015 40.6341
27.181422024430987 40.6024
27.204328079372566 40.4979
27.22723524226965 40.5207
27.250143514198573 40.4799
27.273231880156334 40.5594
27.296142382065014 40.2943
27.319053996245536 40.1378
27.341966723775965 40.3485
27.365059584515222 40.2505
27.38797455070062 40.3986
27.410890633481237 40.3775
27.433807833936918 40.2805
27.456905206923906 40.361
27.47982465472398 40.1833
27.502745223449743 40.3305
27.525666914182825 40.5453
27.548768816912457 40.4478
27.571692763693633 40.3682
27.59461783573812 40.3269
27.617723149491244 40.1423
27.640650484125285 40.1764
27.66357894728264 40.208
27.686508540048052 40.139
27.709618414237887 40.1943
27.732550278321757 39.9431
27.755483275279115 39.8744
27.778417406196485 39.9053
27.801531858397514 39.8135
27.824468269376716 39.6546
27.847405817586786 39.6968
27.870344504116094 39.9265
27.893463551932008 39.8644
27.916404527281053 40.0527
27.93934664422563 40.1458
27.962289903855886 40.1259
27.98541356491974 40.2176
28.00835912214229 40.2827
28.03130582533231 40.534
28.054253675581805 40.6603
28.077381967556104 40.7165
28.100332124185126 40.8013
28.123283431160893 40.6118
28.146235889577238 40.6392
28.169368830154156 40.67
28.192323603752033 40.3456
28.215279532083304 40.0376
28.238415973016764 39.9036
28.261374223145094 39.7269
28.284333631303806 39.527
28.307294198589954 39.4965
28.330435319167677 39.1851
28.353398217078915 38.9446
28.376362277420153 38.6055
28.39932750129032 38.4543
28.422473319286713 38.2677
28.44544088262495 38.3726
28.468409612800283 38.1389
28.491379510913497 37.9088
28.51453004413313 37.6838
28.53750229057244 37.6742
28.56047570826344 37.6574
28.583450298308804 37.7103
28.606605564586562 37.4999
28.629582511831156 37.5918
28.65256063474956 37.4145
28.675539934446338 37.4549
28.698699951647605 37.2781
28.72168161743193 37.2058
28.74466446331978 37.1609
28.767648490417624 37.1537
28.790813276438353 37.1193
28.813799678527303 37.2095
28.836787265157085 37.0466
28.859955641890075 37.0597
28.882945610203045 36.9046
28.905936766392035 37.0039
28.928929111566863 36.982
28.952102288520145 36.9209
28.975097024308607 36.8938
28.998092952423807 36.6834
29.021090073977508 36.7307
29.04426806913204 36.6266
29.067267590245258 36.431999999999995
29.090268308143695 36.4802
29.11327022394099 36.3532
29.13645305530891 36.2119
29.159457379627167 36.1563
29.18246290519685 36.0562
29.20546963313352 36.0413
29.22865731875826 35.9464
29.25166646419296 36.0136
29.27467681535305 35.8359
29.29768837335608 35.8312
29.320880931312562 35.7916
29.34389491580634 35.7959
29.366910110507334 35.8722
29.38992651653503 35.7605
29.41312396492981 35.8051
29.436142806456754 35.7454
29.45916286268059 35.7042
29.48236399319994 35.6537
29.50538649169417 35.5099
29.528410208259935 35.4828
29.55143514402014 35.2201
29.574641196749695 35.0724
29.597668583816574 35.0491
29.6206971934585 34.8137
29.64372702680042 34.833
29.666938019934474 34.6223
29.689970313635285 34.5821
29.713003834422636 34.6727
29.73603858342347 34.5756
29.759254535188578 34.4544
29.78229175361658 34.4518
29.80533020365064 34.4876
29.82836988641968 34.4652
29.85159081507472 34.4389
29.874632976355343 34.4554
29.89767637376955 34.4232
29.920721008448314 34.1325
29.9439469322847 34.2743
29.96699405457564 34.111
29.9900424175358 34.0919
30.013092022298157 34.1862
30.03632295963995 34.0851
30.059375061131373 34.1624
30.08242840783577 34.1609
30.105483000888153 34.0076
30.128718970092244 33.9357
30.151776069006917 33.9118
30.17483441768648 33.9186
30.198074175317235 33.9868
30.221135036724256 34.0667
30.24419715131772 33.9361
30.267260520236203 33.9049
30.290505341942243 33.9735
30.313571232750228 33.98
30.336638381310948 33.9207
30.35970678876503 33.8277
30.38295669299435 33.8006
30.40602763151657 33.8696
30.429099832366074 33.7419
30.452173296685572 33.6895
30.47542830191959 33.7498
30.498504306502497 33.7137
30.521581577995562 33.7177
30.544660117543582 33.7066
30.56792024229725 33.7105
30.59100133132069 33.6445
30.614083691845494 33.6642
30.637167325018545 33.6466
30.660432587840603 33.698
30.683518779717886 33.6397
30.70660624769615 33.6623
30.729694992924372 33.726
30.75296541239743 33.803000000000004
30.77605672557558 33.7752
30.799149319462742 33.738
30.8224236211637 33.5203
30.845518789950724 33.3919
30.868615242910597 33.5107
30.891712981195973 33.274
30.91499247215866 33.1688
30.938092794619365 33.2684
30.96119440587579 33.1145
30.984297307082752 32.9543
31.00758200598383 32.9103
31.030687500658694 32.8548
31.053794288760695 32.6962
31.076902371446767 32.6202
31.100192296997445 32.7724
31.12330298246119 32.6709
31.14641496599209 32.4097
31.169528248749216 32.4559
31.19282341969534 32.4104
31.215939314557186 32.542
31.239056512134788 32.5645
31.262175013589378 32.4665
31.28547544871168 32.3542
31.30859657161541 32.2368
31.331719001892175 32.3132
31.35484274070538 32.469
31.378148458819545 32.3452
31.401274828443725 32.3488
31.424402510106933 32.3957
31.447712205419993 32.4647
31.470842524931633 32.2326
31.493974159989783 32.2719
31.51710711176168 32.2715
31.54042212308802 32.2345
31.563557722100917 32.3748
31.586694641341655 32.1898
31.609832881979628 32.1044
31.63315322823208 32.0385
31.656294125521327 31.8454
31.679436347728515 31.9166
31.70257989602529 31.7373
31.725905596152327 31.6939
31.74905181052835 31.6086
31.772199354521323 31.7165
31.79534822930507 31.6981
31.818679302290967 31.6377
31.84183085259981 31.6221
31.864983737233473 31.5618
31.88813795736804 31.5891
31.911474422233013 31.4223
31.934631327356435 31.4871
31.9577895715215 31.4436
31.980949155906522 31.4484
32.004291031706956 31.4623
32.027453310562606 31.4389
32.05061693318573 31.3355
32.07396288236386 31.345
32.09712920658542 31.235
32.12029687812702 31.1166
32.14346589817093 31.0566
32.166817291729984 31.0136
32.18998902288583 30.8911
32.21316210610336 30.8177
32.23633654256711 30.7973
32.259693399663725 30.7573
32.282870556771144 30.6252
32.30604907069099 30.5766
32.329228942610065 30.549
32.35259128243769 30.366999999999997
32.375773884550505 30.4033
32.398957848235646 30.3907
32.422143174682176 30.2564
32.445511016471215 30.1987
32.468699082679954 30.0471
32.49188851523011 30.1482
32.51507931531304 30.0748
32.538452678331 30.0672
32.56164622776311 30.0196
32.58484114831493 29.9834
32.60803744118015 29.9723
32.631416344731896 29.8624
32.654615396551876 29.8221
32.67781582427913 29.8016
32.701198898634416 29.7689
32.72440209253756 29.6891
32.747606665947124 29.6043
32.77081262006088 29.4652
32.79420126883317 29.5308
32.81740999876112 29.5576
32.840620112999424 29.4723
32.86383161274818 29.3758
32.88722585534586 29.4357
32.91044014056596 29.5358
32.933655814909734 29.3554
32.95687287957963 29.3254
32.98027273544904 29.2923
33.00349259526636 29.2099
33.026713849030116 29.2073
33.04993649794511 29.2097
33.073341986570746 29.1131
33.09656744032826 29.1076
33.11979429286444 29.0673
33.14302254538647 29.0232
33.166433686291185 28.9852
33.18966475336992 28.9557
33.212897224069096 28.855999999999998
33.23613109959831 28.9294
33.259547912343415 28.8124
33.2827846121627 28.8814
33.306022720453775 28.9001
33.32926223842861 28.804000000000002
33.352684742614166 28.7508
33.37592709463173 28.7229
33.399170859982064 28.7017
33.422597648419426 28.5689
33.44584425514446 28.4491
33.46909227885668 28.4501
33.4923417207723 28.3971
33.51577423505344 28.3649
33.539026528130385 28.2862
33.56228024307245 28.2529
33.585535381098246 28.1282
33.60897364093058 28.0849
33.63223163992385 28.0529
33.6554910656699 27.9695
33.678751919389796 27.8928
33.702195944520106 27.9082
33.72545966903325 27.8861
33.74872482519663 27.8093
33.771991414233746 27.8539
33.79544122444841 27.7881
33.81871069412428 27.6315
33.84198160035767 27.6494
33.86525394437455 27.739
33.88870955949969 27.6059
33.911984794020626 27.7135
33.93526147001624 27.5849
33.958539588715006 27.5269
33.98200102861669 27.4362
34.0052820477047 27.4059
34.02856451319451 27.3791
34.05203033759056 27.2309
34.07531571090147 27.3209
34.09860253431845 27.2741
34.121890809074316 27.1592
34.145362493118924 27.2332
34.16865368561615 27.0703
34.191946333164054 27.0701
34.21524043699793 27.0383
34.23871800066799 27.0203
34.26201503218366 26.9767
34.28531352370466 26.8475
34.30861347646881 26.8155
34.33209693978188 26.7414
34.3553998301885 26.7479
34.378704185565205 26.7429
34.402010007152356 26.6408
34.42549939016683 26.6253
34.44880815937748 26.5901
34.472118398533134 26.526
34.49543010887669 26.4399
34.51892543169198 26.4139
34.54224009966052 26.3992
34.56555624255917 26.4081
34.58887386163339 26.2517
34.61237514439016 26.2789
34.6356957311114 26.2497
34.65901779775809 26.1559
34.68252356662995 26.12
34.705848608458616 26.1956
34.72917513396849 26.0245
34.75250314440949 25.9881
34.77601490857862 25.9178
34.799345904259795 25.8224
34.82267838863559 25.8507
34.846012362958525 25.9092
34.869530142679984 25.7755
34.89286711232212 25.833000000000002
34.91620557568269 25.7185
34.93954553401677 25.682
34.9630693495876 25.6805
34.986412313340814 25.7031
35.00975677584668 25.6096
35.033102738362956 25.5907
35.05663261012228 25.4333
35.0799815881786 25.5065
35.10333207003229 25.4893
35.12668405694369 25.5705
35.150220005273056 25.4576
35.17357501786656 25.3685
35.19693153931268 25.3172
35.220289570874385 25.2415
35.24383161619786 25.2865
35.267192683604904 25.4113
35.290555264930376 25.2724
35.314101899412165 25.2431
35.33746752422433 25.2443
35.36083466676374 25.2195
35.38420332829803 25.1213
35.407756095629054 25.1567
35.43112781085063 25.1117
35.45450104888391 25.0544
35.477875810999194 25.02
35.50143473172161 24.9961
35.52481255774625 25.0604
35.54819191167777 24.9456
35.57157279478914 24.8241
35.595137889488406 24.8384
35.61852184675279 24.8292
35.641907337029984 24.7511
35.665294361595684 24.7263
35.68886565090076 24.6877
35.7122557598848 24.5759
35.73564740699838 24.6673
35.759040593519934 24.6356
35.78261809810353 24.555999999999997
35.80601437933051 24.454
35.829412203814705 24.3946
35.85281157283719 24.3188
35.876395313415884 24.3729
35.8997977874528 24.3602
35.92320180988546 24.333000000000002
35.946790244133936 24.2396
35.97019737933222 24.3115
35.993606066789866 24.2112
36.01701630779276 24.1788
36.04061101440684 24.0556
36.06402437852291 24.1199
36.08743930005611 24.1182
36.1108557802951 24.03
36.13445678011326 24.0327
36.15787639383515 23.9631
36.18129757014299 23.9392
36.20472031032821 23.9138
36.22832762423364 23.8177
36.25175350829375 23.7863
36.275180960119776 23.6897
36.298609981005924 23.7538
36.32222362992669 23.7287
36.34565580510207 23.7284
36.36908955323448 23.7128
36.39252487562093 23.5001
36.416144880530226 23.5122
36.43958336764275 23.5612
36.463023432914625 23.4989
36.486465077645676 23.4952
36.51009145956204 23.5927
36.53353627947859 23.4994
36.55698268276811 23.4413
36.58043067073321 23.3415
36.60406345072071 23.2017
36.62751462435344 23.2036
36.65096738658405 23.2405
36.67460498210655 23.2569
36.69806093788647 23.2026
36.72151848619297 23.1137
36.744977628333636 23.1458
36.76862165890998 23.0699
36.79208400512205 23.0154
36.81554794910557 22.9908
36.83901349217101 22.9091
36.862663978991606 22.9053
36.88613273667352 22.8999
36.90960309738324 22.8757
36.933075062434064 22.7724
36.95673202673572 22.7676
36.98020721697122 22.7048
37.003684015502365 22.6268
37.027162423645365 22.7358
37.050825886711465 22.5845
37.07430753063053 22.5413
37.09779078812467 22.4959
37.121275660513014 22.5145
37.144945643673694 22.4891
37.16843376245278 22.4073
37.19192350009803 22.4942
37.215414857931435 22.3968
37.239091382563885 22.3635
37.262585997426164 22.271
37.28608223645736 22.2578
37.309763684451696 22.2881
37.33326318851098 22.209
37.356764320726555 22.1607
37.380267082425526 22.1824
37.40395510942588 22.118000000000002
37.42746114683234 22.0651
37.45096881771841 21.9983
37.474478123414166 21.9769
37.49817275092816 21.9097
37.52168534303452 21.9287
37.54519957395567 21.8584
37.568715445024665 21.8076
37.592416694607714 21.7188
37.61593586281424 21.8105
37.63945667518264 21.8585
37.66297913304891 21.7335
37.68668702630454 21.7249
37.710212792059274 21.6229
37.733740207334854 21.660999999999998
37.757269273470364 21.5816
37.780983832050374 21.5694
37.80451621684926 21.4778
37.82805025654007 21.5019
37.851585952464795 21.4825
37.8753071980695 21.3995
37.89884622345676 21.278000000000002
37.92238690911902 21.2668
37.94611318753442 21.2639
37.969657210779765 21.2451
37.99320289834801 21.2157
38.016750251586465 21.213
38.04048325513017 21.2103
38.06403395679343 21.0861
38.087586328183946 21.031
38.11114037065203 21.0904
38.13488012115898 21.0818
38.1584375229181 21.0001
38.181996599821 20.9008
38.205557353221124 20.9322
38.229303872575656 20.8812
38.2528679961576 20.9287
38.27643380031219 20.8059
38.30000128639589 20.745
38.32375459653193 20.820999999999998
38.34732546371299 20.7958
38.37089801690786 20.7021
38.39447225747609 20.6223
38.418232380377425 20.6018
38.441810012983396 20.6071
38.46538933705673 20.5909
38.488970353960084 20.511999999999997
38.51273731166058 20.4864
38.536321731567014 20.447
38.55990784840681 20.4585
38.58367995004091 20.415
38.60726947812959 20.3416
38.63086070726198 20.365
38.654453638806274 20.3151
38.678232613930824 20.2977
38.70182896773327 20.1984
38.72542702806741 20.1963
38.7490267963045 20.1026
38.77281266709232 20.1602
38.79641586862214 20.1439
38.8200207821842 20.0778
38.843627409152944 20.116
38.86742019782782 20.0262
38.891030269149255 20.0222
38.914642058016156 20.0102
38.938255565806124 19.9924
38.96205529464307 19.8671
38.98567225787121 19.8415
39.00929094417078 19.8143
39.03291135492255 19.7687
39.05671804624804 19.7732
39.080341923549106 19.7798
39.103967529460334 19.7248
39.127594865365744 19.6648
39.15140854155791 19.6058
39.17503935514948 19.6112
39.19867190290282 19.6123
39.22249083587951 19.6058
39.24612686969409 19.5386
39.269764641845306 19.4965
39.293404153722804 19.4399
39.317230110864074 19.3899
39.34087311998506 19.3526
39.36451787301696 19.3701
39.388164371352595 19.3207
39.41199737518003 19.2739
39.43564738196752 19.2367
39.45929913825317 19.2046
39.48295264543308 19.2007
39.506792718520884 19.1524
39.530449745387216 19.1788
39.55410852735203 19.1626
39.57776906581474 19.1936
39.60161623079 19.0598
39.625280300200025 19.008
39.64894613032202 19.0385
39.67261372255866 19.0342
39.6964680021016 19.0046
39.72013913657293 18.9658
39.74381203738292 18.9038
39.76748670593756 18.9296
39.79134812278169 18.7681
39.81502634488497 18.8004
39.83870633896685 18.781
39.862388106436654 18.6079
39.88625668336918 18.653
39.90994201572829 18.6375
39.933629125719285 18.5583
39.957503091207826 18.5216
39.9811937746168 18.6297
40.00488623990914 18.4989
40.02858048850006 18.498
40.05246165409549 18.4673
40.076159487492085 18.3921
40.099859108448875 18.4615
40.123560518384345 18.3812
40.1474489070226 18.3919
40.171153913178564 18.2742
40.194860712584955 18.2699
40.2185693066637 18.3251
40.242464941335314 18.253
40.26617714307655 18.215
40.289891143772046 18.175
40.3136069448471 18.1633
40.33750984859743 18.1819
40.3612292688043 18.1563
40.3849504936829 18.0595
40.40867352466194 18.0386
40.43258372059144 17.9786
40.45631038219906 18.044
40.48003885420956 17.9452
40.503769138055105 17.9994
40.52768664931955 17.9614
40.55142057531802 17.9218
40.57515631746428 17.8526
40.599079334038514 17.7616
40.62281872700477 17.7535
40.64655994043941 17.7554
40.67030297578061 17.7109
40.69423334835778 17.6639
40.71798004609188 17.7123
40.74172857006355 17.6405
40.76547892171441 17.6096
40.7894166736039 17.6264
40.813170699248566 17.5706
40.83692655691388 17.5171
40.86068424804498 17.5287
40.884629402612525 17.5248
40.908390779366385 17.5357
40.932153993938 17.4605
40.95591904777605 17.4572
40.979871628443995 17.4255
41.003640379561936 17.3852
41.02741097430883 17.3685
41.05118341413683 17.3538
41.075143444384416 17.2341
41.098919593177826 17.2496
41.1226975914255 17.2414
41.14647744058318 17.1491
41.170444943946755 17.1718
41.19422851378379 17.1802
41.218013938914645 17.0979
41.24198706625173 17.0754
41.26577622087193 17.0297
41.289567235177785 17.0168
41.31336011063129 16.9941
41.337340752422875 16.9492
41.361137369129835 16.9517
41.38493585138705 16.9547
41.40873620066004 16.8493
41.43272438060107 16.8357
41.45652848292052 16.8067
41.48033445666918 16.7508
41.50414230331616 16.7516
41.528138045159764 16.754
41.551949656675205 16.6994
41.575763145513235 16.6491
41.59957851314666 16.5889
41.62358184070442 16.6049
41.64740098505737 16.5678
41.6712220126409 16.5021
41.69504492493139 16.5043
41.71905586207357 16.4868
41.74288256296395 16.4618
41.766711153007456 16.4617
41.79054163368412 16.375999999999998
41.814560204340054 16.4016
41.838394485526365 16.3839
41.86223066180303 16.3658
41.88625497706819 16.2992
41.910094962812 16.2796
41.93393684811168 16.2178
41.95778063445365 16.2246
41.981812625263366 16.1839
42.00566023303407 16.2013
42.029509746323676 16.1804
42.05336116662236 16.0779
42.077400857069705 16.1275
42.10125611078846 16.1185
42.12511327600405 16.098
42.14897235421036 16.0365
42.173019768448455 16.0195
42.19688269209613 15.9426
42.22074753323349 15.8832
42.24461429335818 15.8854
42.268669455600495 15.8787
42.292540073217886 15.8183
42.31641261433284 15.841
42.34028708044675 15.8075
42.36435001496739 15.7405
42.38822835065557 15.7735
42.41210861586426 15.7504
42.4359908120986 15.6581
42.46006154323262 15.6349
42.48394762115317 15.5852
42.507835634632315 15.6011
42.531912233047436 15.5869
42.55580413732265 15.5277
42.579697981698 15.4977
42.60359376768525 15.4984
42.62767820545945 15.4398
42.65157789440821 15.4734
42.67547952952185 15.4426
42.699383112316 15.4267
42.72347541395347 15.3541
42.74738291190531 15.295
42.771292362102166 15.2849
42.795203766063516 15.2952
42.819303956130405 15.2732
42.843219287476536 15.2788
42.86713657716324 15.2105
42.89105582671383 15.1692
42.91516392983864 15.1688
42.939087119032166 15.1275
42.963012272677304 15.1142
42.98693939230129 15.1138
43.01105543317513 15.0683
43.034986504731386 15.0583
43.05891954686589 15.033
43.08285456110972 14.9819
43.10697856448665 14.8896
43.130917542983475 14.8885
43.15485849820081 14.9387
43.17880143167367 14.8783
43.20293342237094 14.8772
43.226880332449 14.8058
43.25082922540554 14.8035
43.27496722682525 14.7581
43.29892010567796 14.675
43.32287497204102 14.718
43.34683182745632 14.6386
43.370977859791836 14.5729
43.39493871351105 14.6407
43.41890156092628 14.6356
43.44286640358341 14.6074
43.46702049182749 14.575999999999999
43.49098934522816 14.5121
43.51496019852649 14.5474
43.5389330532723 14.5261
43.56309522248204 14.4084
43.58707210044314 14.4149
43.61105098451946 14.3782
43.63503187626491 14.4173
43.659202151562134 14.3546
43.68318707902681 14.372
43.70717401884041 14.312000000000001
43.731162972560874 14.2779
43.75534137913236 14.2359
43.779334381108384 14.2693
43.803329401683186 14.2359
43.82732644241872 14.1625
43.8515130055166 14.2317
43.87551410707659 14.1625
43.89951723350145 14.1273
43.923709934595614 14.0901
43.94771713129917 14.0953
43.97172635758096 14.0164
43.99573761501002 13.9934
44.0199385169922 13.9824
44.04395385732619 13.9888
44.067971233533086 13.9336
44.09199064718605 13.8835
44.11619977548961 13.8822
44.14022328470671 13.8465
44.16424883610785 13.8149
44.18827643127035 13.811
44.21249381139513 13.8247
44.236525514814076 13.7643
44.26055926674478 13.7596
44.28459506876863 13.763
44.3088207262813 13.7133
44.33286064928722 13.6406
44.35690262714919 13.6631
44.38094666145278 13.6392
44.4051806219871 13.6236
44.42922879003185 13.5975
44.45327901929361 13.5853
44.477331311362136 13.5102
44.501573600619416 13.4976
44.525630039221795 13.4505
44.54968854541895 13.4939
44.573937102200176 13.4253
44.5979997645541 13.4061
44.622064499300315 13.4038
44.64613130803592 13.3581
44.67038823869318 13.3105
44.69445921643748 13.2737
44.718532272981385 13.2351
44.742607409926194 13.3225
44.76687274034801 13.3054
44.79095205918753 13.2322
44.81503346325094 13.1821
44.839116954143876 13.1814
44.86339071028742 13.183
44.88747839599524 13.15
44.91156817336837 13.1292
44.93566004401666 13.0736
44.959942251908146 13.0792
44.984038330325966 13.0824
45.00813650686762 12.9862
45.03223678314731 12.9827
45.05652746888232 12.9365
45.08063196592069 12.9684
45.104738567558705 12.9405
45.128847275414856 12.9072
45.15314646515866 12.8349
45.17725940679741 12.8493
45.20137445952892 12.822000000000001
45.22568004865265 12.8469
45.24979934496396 12.8382
45.27392075725247 12.8063
45.29804428714431 12.7812
45.322358426247604 12.7142
45.346486212804315 12.7229
45.370616121861914 12.6336
45.39474815505086 12.6436
45.41907087049246 12.5753
45.4432071734666 12.5911
45.46734560548283 12.6163
45.49148616817604 12.6081
45.51581748638564 12.5857
45.5399623320197 12.5544
45.56410931325473 12.5179
45.58825843173002 12.4928
45.61259837920865 12.4932
45.636751793816 12.5226
45.66090735060093 12.4174
45.68506505120716 12.3722
45.7094136545275 12.3501
45.73357566449271 12.3496
45.75773982322992 12.3347
45.78190613238733 12.3026
45.806263418194064 12.264000000000001
45.83043404997326 12.2678
45.85460683713677 12.2435
45.87897065658495 12.2081
45.90314777634752 12.1779
45.92732705646868 12.2006
45.9515084986045 12.1593
45.97588104735473 12.1277
46.00006683541565 12.1251
46.02425479047904 12.095
46.04844491420549 12.0612
46.0728262191024 12.0241
46.09702070211635 12.0308
46.12121735879483 11.9795
46.14541619080294 11.9936
46.169806278764455 11.9833
46.194009483459034 11.937000000000001
46.21821486849841 11.91
46.24242243555223 11.9087
46.266821333570014 11.8367
46.29103328674601 11.8041
46.31524742696538 11.8824
46.33946375590237 11.7762
46.36387149104216 11.7747
46.38809221957392 11.7034
46.41231514186606 11.7615
46.436540259597464 11.7197
46.460956858999374 11.7006
46.48518638983522 11.6977
46.509418121166966 11.6628
46.533652054678114 11.647
46.55807754555709 11.6074
46.58231590571962 11.6022
46.60655647313217 11.5376
46.630988654873654 11.5224
46.655233659129024 11.4785
46.67948087571551 11.4835
46.70373030632484 11.4308
46.72817142736393 11.4594
46.752425308428684 11.4557
46.77668140861147 11.401
46.80093972960865 11.3448
46.82538981736788 11.3452
46.849652602470904 11.3793
46.87391761349769 11.3505
46.8981848521493 11.2784
46.9226439341274 11.2701
46.946915650573224 11.2737
46.97118959976749 11.2527
46.99546578341598 11.1712
47.019933887188216 11.1822
47.04421456235744 11.1377
47.06849747711879 11.1318
47.09278263318286 11.1548
47.11725978640143 11.1499
47.14154944775105 11.0895
47.165841355555656 11.0814
47.1901355115306 11.032
47.214621741924994 11.0626
47.23892041698887 11.0469
47.26322134538975 10.9779
47.28771440635075 10.997
47.31201986422527 10.9937
47.33632758061436 10.9312
47.360637557241866 10.9176
47.38513974410611 10.8866
47.40945426407847 10.8706
47.43377104948137 10.866
47.45809010204344 10.8438
47.48260144275502 10.837
47.506925052572285 10.7884
47.53125093475548 10.762
47.55557909103813 10.7261
47.58009961361992 10.6791
47.60443234110732 10.6605
47.62876734791564 10.6814
47.65310463578333 10.6793
47.6776343683373 10.672
47.7019762413987 10.6562
47.72632040075572 10.6044
47.75066684815169 10.5517
47.77520581885936 10.5526
47.799556865477655 10.5476
47.823910205386 10.54
47.84826584033272 10.5227
47.87281407745551 10.4803
47.89717432569297 10.4506
47.92153687423484 10.4723
47.94609208429692 10.4698
47.97045925671401 10.4064
47.99482873471275 10.4067
48.01920052005013 10.3811
48.04376504619224 10.3321
48.068141469543484 10.3629
48.09252020552573 10.3293
48.11690125590099 10.2762
48.1414751266064 10.2708
48.16586082917454 10.2393
48.19024885144316 10.2248
48.2146391951793 10.2555
48.239222439012764 10.2714
48.26361744916137 10.1979
48.28801478610016 10.1962
48.31241445160131 10.1659
48.337007097209366 10.1551
48.36141144338331 10.1356
48.38581812345755 10.1007
48.41022713920929 10.0952
48.434829215320704 10.0809
48.45924292604658 10.0194
48.48365897780325 10.0295
48.50807737237308 10.0274
48.532688907799276 9.99216
48.55711201168574 9.975389999999999
48.581537463754074 9.95498
48.60615611725119 9.948310000000001
48.63058628942721 9.912519999999999
48.65501881516546 9.91342
48.6794536962573 9.883230000000001
48.70408185970339 9.86683
48.72852147531801 9.83661
48.75296345168211 9.83567
48.77740779059232 9.82072
48.80204549302823 9.81272
48.82649458091802 9.80592
48.85094603676547 9.77064
48.87539986237231 9.724910000000001
48.90004713292306 9.735
48.92450572200832 9.73443
48.94896668628025 9.697980000000001
48.97343002754588 9.70245
48.99808689542115 9.624889999999999
49.02255501470614 9.64335
49.04702551642794 9.59463
49.0714984023988 9.58737
49.096164896893235 9.54655
49.120642575466796 9.58822
49.145122643748394 9.51815
49.16960510355558 9.48899
49.19428125404938 9.501669999999999
49.2187685210852 9.49806
49.243258185121555 9.46205
49.26794160167084 9.48677
49.2924360839405 9.4361
49.31693296869764 9.404919999999999
49.34143225776915 9.4037
49.36612538195438 9.37274
49.39062950396021 9.348310000000001
49.41513603578346 9.35144
49.4396449792564 9.319980000000001
49.46434784069503 9.34169
49.488861631846454 9.311860000000001
49.513377840166804 9.278210000000001
49.537896467493745 9.23814
49.56260909589029 9.22078
49.587132585683285 9.23219
49.611658500018365 9.20678
49.636186840738596 9.16382
49.66090926588511 9.21061
49.685442483902584 9.171380000000001
49.70997813385706 9.143289999999999
49.734516217597076 9.14748
49.75924846937352 9.11705
49.7837914452858 9.07695
49.80833686055187 9.0469
49.83288471702571 9.06264
49.85762682540054 9.04525
49.882179588965734 9.03627
49.9067347993235 8.96407
49.93129245833333 8.94525
49.95604445336378 8.96468
49.98060703442832 8.954889999999999
50.005172069746266 8.916160000000001
50.02993150438364 8.93634
50.05450147301533 8.911760000000001
50.07907390151433 8.84849
50.10364879174981 8.8623
50.12841816587289 8.81757
50.1529980044635 8.844
50.17758031042124 8.806569999999999
50.20216508562089 8.79555
50.22694442953363 8.75582
50.25153416817468 8.77368
50.27612638170508 8.75377
50.300721072005196 8.71374
50.325510416102105 8.696010000000001
50.350110084975064 8.70388
50.37471223628208 8.690719999999999
50.39931687190919 8.660110000000001
50.424116246675766 8.6097
50.44872587605249 8.59245
50.47333799543065 8.59957
50.49795260670191 8.60084
50.52276204271512 8.55145
50.54738166295838 8.53572
50.57200378079314 8.56415
50.596628398116835 8.527999999999999
50.62144792604559 8.50335
50.646077567609396 8.51667
50.670709714377715 8.47366
50.69553683636198 8.46391
50.72017401885922 8.46761
50.7448137122895 8.442110000000001
50.76945591856022 8.39818
50.79429318636823 8.40152
50.818940443716784 8.37809
50.84359021965163 8.37831
50.868242516085964 8.36806
50.893089960641895 8.28772
50.917747323549435 8.27217
50.94240721271973 8.32644
50.96706963007175 8.2823
50.99192728239342 8.26662
51.01659478166073 8.25404
51.04126481489051 8.24639
51.06593738400761 8.24076
51.090805275207074 8.201089999999999
51.11548294172845 8.16138
51.14016314993547 8.182030000000001
51.164845901758845 8.16562
51.18972406304274 8.12916
51.21441192780656 8.14638
51.23910234200271 8.0797
51.2637953075678 8.05392
51.288683770237945 8.07554
51.31338186432707 8.02791
51.33808251561888 8.025210000000001
51.362978729967345 8.02802
51.387684521509755 8.01562
51.41239287610203 7.9996100000000006
51.437103795691165 7.947439999999999
51.46201036644977 7.946510000000001
51.486726441956634 7.9391
51.51144508832545 7.92488
51.536166307509156 7.88502
51.56108326624387 7.90809
51.58580965706056 7.8888300000000005
51.61053862657523 7.875539999999999
51.635270176746864 7.8094399999999995
51.66019755512065 7.824730000000001
51.68493429268881 7.785769999999999
51.70967361681515 7.824110000000001
51.73441552946465 7.78125
51.759353359237934 7.765610000000001
51.7841004750961 7.741969999999999
51.80885018539685 7.716410000000001
51.833602492111254 7.7149399999999995
51.8585508051424 7.6502300000000005
51.883308330926425 7.70079
51.90806845906181 7.63667
51.932831191525715 7.63532
51.95779001977161 7.60405
51.98255798721516 7.61998
52.00732856494335 7.61298
52.03229530577543 7.61423
52.057071130455945 7.56535
52.081849571391054 7.553210000000001
52.106630630568695 7.563339999999999
52.13160794279417 7.4956
52.15639426492067 7.4692300000000005
52.18118321127822 7.4924
52.205974783860896 7.45896
52.23096269971011 7.459160000000001
52.255759551287994 7.42392
52.280559035098186 7.417669999999999
52.30536115314103 7.45825
52.33035970494467 7.37317
52.35516711807904 7.40689
52.37997717147198 7.38524
52.40478986713005 7.34244
52.42979908731974 7.26784
52.454617094216 7.27968
52.47943774942214 7.29709
52.50426105495102 7.30668
52.529280976059844 7.24794
52.554109609024096 7.231319999999999
52.57894089837482 7.25966
52.60377484613117 7.24637
52.62880550079408 7.215910000000001
52.65364479223379 7.20029
52.67848674816189 7.1769300000000005
52.70352547971946 7.13806
52.72837279155837 7.16339
52.753222773982785 7.13599
52.778075429022984 7.13085
52.80312495150885 7.10054
52.827982978797436 7.11676
52.85284368481815 7.07861
52.87770707160767 7.063689999999999
52.90276741793998 7.04738
52.92763619336701 7.03592
52.952507655698504 7.0521899999999995
52.977381806977576 7.01731
53.00245301017842 7.01655
53.02733256653592 6.992310000000001
53.052214817996074 6.96707
53.077099766608484 6.9311300000000005
53.102181859804446 6.928839999999999
53.127072229988265 6.945710000000001
53.15196530349892 6.9168199999999995
53.17686108239249 6.893619999999999
53.20195409881522 6.86265
53.22685531582556 6.849660000000001
53.25175924441303 6.78575
53.27666588664027 6.82672
53.30176985962693 6.8034
53.3266819565689 6.79569
53.35159677336455 6.765639999999999
53.376514312083096 6.79139
53.40162927507703 6.75616
53.42655228516116 6.72127
53.45147802340193 6.6919699999999995
53.47660125628886 6.68242
53.50153247842639 6.656219999999999
53.52646643496923 6.66058
53.55140312799818 6.63882
53.576537409691696 6.6618
53.60147960336152 6.638160000000001
53.626424539786164 6.6120600000000005
53.65137222105307 6.57441
53.67651758529126 6.60035
53.70147078399681 6.56267
53.72642673383343 6.5686800000000005
53.75138543689533 6.55961
53.776541917524526 6.54179
53.801506154876755 6.531680000000001
53.826473151763246 6.50646
53.851442910284916 6.47008
53.87661054126026 6.455430000000001
53.9015858509782 6.45493
53.92656392866066 6.449269999999999
53.95154477641532 6.4336400000000005
53.976723591801296 6.41581
54.00171000771266 6.41164
54.02669920004598 6.41489
54.051691170915745 6.3631
54.076881204886796 6.34054
54.101878760928514 6.31555
54.12687910187696 6.30619
54.152077577768296 6.28611
54.1770835166946 6.26469
54.20209224691339 6.2666
54.22710377055121 6.26428
54.25231352511594 6.22396
54.27733066384342 6.18792
54.30235060239643 6.169630000000001
54.32737334290836 6.1874199999999995
54.35259441062629 6.12019
54.377622783395324 6.112080000000001
54.40265396455061 6.13542
54.42768795623251 6.14035
54.45292037169559 6.039540000000001
54.477960012857906 6.100619999999999
54.50300247099511 6.06934
54.52804774825457 6.05246
54.55329154616743 6.00296
54.57834249018678 6.013330000000001
54.6033962597977 5.97392
54.6284528571545 5.93314
54.653708072335164 5.90801
54.67877035378786 5.89124
54.70383546947698 5.85005
54.72890342156389 5.85965
54.7541700889442 5.79598
54.77924374251975 5.77917
54.8043202390049 5.766780000000001
54.82959552413022 5.74631
54.8546777351945 5.72242
54.87976279569621 5.66933
54.90485070780914 5.6579
54.930137506558005 5.65468
54.95523115074295 5.6898
54.98032765308844 5.62765
55.005427015775496 5.6205099999999995
55.03072536339621 5.63625
55.05583047570572 5.58167
55.080938454927676 5.55879
55.10604930325027 5.50465
55.131359235107396 5.50479
55.15647585066083 5.47211
55.181595341907496 5.45947
55.20671771104285 5.42305
55.232039262617704 5.4054199999999994
55.25716741665048 5.3810199999999995
55.28229845518636 5.379169999999999
55.30743238042802 5.3394699999999995
55.33276558731939 5.31177
55.357905315183636 5.33942
55.383047936390035 5.26879
55.40819345314859 5.22245
55.433538351073295 5.19848
55.458689688238415 5.22345
55.483843927614096 5.1192
55.509197623043605 5.15338
55.53435769621134 5.14445
55.55952067826466 5.08244
55.5846865714265 5.08501
55.61005202069737 5.03106
55.63522376553902 5.06663
55.66039842818645 5.0246699999999995
55.68557601087004 5.06203
55.7109532500271 4.9526
55.73613670233794 5.00885
