TT I
1.2716486653135266 8.2003
1.2939594142134223 7.24971
1.3162702121660406 7.01053
1.3385810600174564 7.182739999999999
1.3608919586137629 7.536760000000001
1.383202908801069 6.76368
1.405513911425503 6.19568
1.4278249673332093 7.31663
1.4501343378461518 6.96565
1.4724455028545926 6.1374699999999995
1.4947567236847858 6.53137
1.517068001182951 6.1979
1.5393793361953272 6.62983
1.5616907295681737 6.6691199999999995
1.5840021821477681 5.55401
1.60631369478041 5.69696
1.6286252683124185 6.03304
1.6509369035901333 5.3991
1.6732468618895553 5.48896
1.695558623192809 5.13813
1.7178704487808514 5.09398
1.7401823395001077 5.0077
1.7625012545597203 5.05347
1.7848028405262486 5.24625
1.8071218901122095 4.871519999999999
1.8294236121921872 5.23931
1.8517427996910911 5.27644
1.8740620574440425 4.97346
1.8963639900671978 5.03241
1.9186833908139995 5.30171
1.9409854680117449 4.89912
1.9633050151394713 5.09927
1.9856246367570705 5.43026
2.0079269371922672 4.81307
2.03024671027244 4.83747
2.0525491637446027 4.7557599999999995
2.074869091674931 4.68466
2.097171701569106 5.43494
2.1194917877373847 5.520980000000001
2.141811954326636 4.6799800000000005
2.164114805233074 4.619759999999999
2.186435135143035 4.76163
2.208738150935709 4.98191
2.231058647554722 4.77551
2.2533792288321184 4.73492
2.275682498336085 4.688269999999999
2.298003251406138 4.33473
2.3203066942619714 4.733219999999999
2.3426276225136022 4.89572
2.3649486396617507 4.00893
2.387252348930071 4.0239199999999995
2.4095735463442893 3.93715
2.4318774374315884 3.9119
2.4541988185014043 4.66412
2.476502894794693 5.2557
2.498824462909887 5.5813
2.521146125856138 4.3024
2.5434504863470337 4.87775
2.5657723414244717 4.91055
2.588076895590662 5.33416
2.610398946189713 5.53366
2.6327210958598384 5.56113
2.6550259469304716 4.93658
2.6773482972090137 5.0111099999999995
2.6996533504259 5.59923
2.7219759047039602 6.3236099999999995
2.744298562293959 6.28848
2.7666039251246595 6.59254
2.7889267918020164 6.75121
2.8112323652516555 7.0627699999999995
2.833555444408179 7.80925
2.8558786311183852 7.8845600000000005
2.8781845268938557 8.166839999999999
2.9005079311721484 8.35642
2.9228140460410397 8.89932
2.9451376712799635 9.05591
2.967444008632326 9.25067
2.9897678582247247 9.71945
3.0120918213106695 10.5855
3.0343984987899373 11.1807
3.0567226913198637 11.1622
3.079029599759726 11.6236
3.101354025127254 12.4602
3.123678568232338 12.5518
3.145985829517914 13.117
3.16831061055229 13.7588
3.1906181112775593 14.447000000000001
3.212943133635653 14.6801
3.2352682779763207 15.3026
3.2575761442691227 15.0945
3.2799015350264273 16.086
3.302209649240067 15.7625
3.3245352898092655 16.8891
3.3468436553365257 17.2814
3.369169549113219 17.8456
3.3914955708171384 18.5385
3.413804319727358 18.7315
3.4361305997334863 19.026
3.4584396084414553 19.2514
3.4807661501462652 20.0304
3.503092824025881 20.4964
3.5254022288463154 20.627
3.5477291695206588 21.3819
3.5700388426251948 21.9407
3.5923660534916446 22.1261
3.6146934007816114 22.016
3.637003482731501 22.7582
3.6593311053109985 23.3167
3.681641464033634 23.5386
3.7039693653009733 23.6404
3.726297407241705 24.1961
3.7486081875460804 24.5017
3.7709365132734978 25.2738
3.793247578841633 25.4536
3.8155761917550093 26.0149
3.8378875459837216 26.331999999999997
3.8602164494827234 26.4074
3.882545499606844 27.4276
3.9048572932539183 27.9523
3.9271866390645718 28.0777
3.9494987298666713 28.7871
3.971828374764527 28.8823
3.9941581705403255 29.4518
4.016470713506008 30.2834
4.038800813471445 31.1945
4.061113662089144 31.2218
4.0834440696459176 32.0306
4.105774632334751 32.1959
4.128087945865126 32.9535
4.150418821249301 33.5216
4.172732448931298 34.0375
4.195063640413578 35.2153
4.2173775856475215 35.8273
4.239709096631102 36.0212
4.262040768704612 36.1307
4.284355196706267 37.1942
4.306687193387355 38.193000000000005
4.329001947444346 38.9501
4.35133427213731 39.8936
4.373666762177566 40.7875
4.395982011761091 41.6685
4.418314834921175 42.4433
4.44063041906622 43.0931
4.4629635787515625 43.7275
4.4852969080429785 44.7491
4.5076130004776225 46.2544
4.529946671403969 47.2182
4.552263106909177 47.81100000000001
4.574597122877047 49.1811
4.596931312711224 50.6781
4.619248269273446 51.3665
4.6415828092605835 52.5483
4.663900117405352 53.636
4.686235010953232 55.0453
4.708552674085913 56.6065
4.730887924602802 58.1
4.753223354952695 59.8936
4.775541557023902 60.7882
4.797877349456786 62.3639
4.820195915032126 64.9328
4.842532072957498 66.3144
4.864868414979744 68.1348
4.88718753227192 70.6527
4.909524244902505 72.7713
4.931843734218147 75.7175
4.954180820867835 78.8342
4.976518095879839 82.5681
4.998838149695359 86.5113
5.021175803844231 90.5978
5.043496238205739 95.3182
5.065834274903528 100.78
5.088172504230693 108.684
5.1104935158799565 117.78399999999999
5.132832132875765 131.377
5.155153533596801 154.727
5.1774925416746225 208.817
5.199814334878411 546.01
5.2221537374521505 1933.46
5.244493338631803 3768.72
5.266815727034316 5427.93
5.289155727832427 8331.22
5.311478517248165 9557.69
5.333818921080011 6300.95
5.356159527788849 1945.41
5.3784829252032536 445.207
5.400823940070432 210.794
5.423147747031976 162.582
5.445489173474152 139.28
5.467830807066149 127.605
5.490155234831516 119.664
5.512497285125229 113.71600000000001
5.534822130975162 110.814
5.557164601388673 107.823
5.579489868738879 103.95
5.601832762690846 101.845
5.6241758697774475 99.8351
5.646501775867269 98.6255
5.668845311622074 98.0329
5.691171647754637 97.3695
5.713515615597765 96.6719
5.735859800852677 95.8335
5.758186788542988 95.2966
5.780531411018185 95.5942
5.802858837297399 95.1541
5.825203900414495 95.6114
5.8475491852224 96.6638
5.869877275883075 98.6428
5.892223006467101 101.60799999999999
5.914551544266608 105.334
5.936897724049891 111.75200000000001
5.959244129804903 123.805
5.981573344815301 154.774
6.0039202049061 287.16700000000003
6.026249875609095 747.319
6.04859719346037 1385.47
6.070927323278297 1926.12
6.093275102315365 2738.99
6.115623113320588 3862.72
6.137953938319995 4026.9
6.160302415650845 2233.42
6.182633708324452 705.005
6.2049826554078376 215.063
6.227331838745022 121.226
6.249663839443684 99.2755
6.27201349767565 88.9972
6.294345974611799 83.1742
6.316696111167083 78.3918
6.339046488263839 75.3412
6.361379686074702 72.7672
6.383730546639482 70.7905
6.406064229255215 68.6254
6.428415576718203 67.783
6.450749747566656 66.4961
6.47310158535871 65.4055
6.495453669698332 64.1275
6.517788579421056 63.6047
6.540141159237969 62.2956
6.562476565766648 61.2861
6.5848296444934045 60.9066
6.607182974060425 60.3513
6.6295191323281015 59.6364
6.651872965955752 59.1577
6.6742096296068985 58.7102
6.6965639707294615 58.2309
6.71891856698715 57.7087
6.741255995248479 57.3421
6.763611104154477 56.4877
6.785949046381137 56.0884
6.808304671371482 55.196999999999996
6.8306605557940046 55.5491
6.852999275508618 54.8832
6.875355681171544 54.5679
6.897694923437771 54.5908
6.92005185377892 54.2328
6.9423916220322655 54.03
6.964749080490181 53.4419
6.987106804399774 53.1882
7.009447368180821 53.4447
7.031805625367033 53.1819
7.054146723727803 52.8355
7.076505517631004 53.1592
7.098864581288365 52.7791
7.121206488070854 52.5291
7.143566093607822 51.8827
7.165908543567245 52.465
7.188268694426048 52.3581
7.2106291193438095 52.3298
7.232972390625943 52.3269
7.255333366030969 52.0335
7.277677189091925 51.6437
7.300038718428332 52.1117
7.322400526130865 51.7235
7.344745183422596 51.8411
7.367107550224791 51.8996
7.389452767901992 52.0736
7.411815697249891 52.1995
7.434161478756298 51.978
7.456524974096713 52.2715
7.478888753837185 52.0158
7.501235387657368 53.0259
7.523599738562711 56.1162
7.545946944825532 61.7623
7.568311870344528 62.7234
7.5906770845765665 59.1577
7.613025156078678 54.9566
7.635390950099687 53.9415
7.657739602662809 53.5695
7.680105979923558 53.3519
7.702472650212829 53.9344
7.724822180948224 54.2879
7.747189439655568 54.3467
7.769539560075357 54.39
7.791907410653562 54.8916
7.81425812420825 54.7576
7.836626570110925 54.9018
7.858995315087906 56.0269
7.881346924933401 56.4299
7.903716270417482 56.7248
7.926068482028405 56.9405
7.948438431475253 57.5689
7.9708086843180235 58.0749
7.993161805171116 58.81399999999999
8.015532667162402 59.2269
8.037886398416653 60.5092
8.060257873014221 60.726000000000006
8.082629655331942 61.168
8.104984308787587 61.893
8.127356708900503 62.8471
8.149711981398308 63.6043
8.172085002766314 64.5663
8.194458336181368 65.3856
8.216814543847752 66.2916
8.23918850371002 67.5423
8.26154533906492 68.7127
8.283919928836452 70.6731
8.306277395339652 71.6942
8.328652618483376 73.4463
8.351028159736202 75.7688
8.373386579575245 78.0891
8.395762759396959 80.3019
8.418121819038275 83.3929
8.440498640894003 88.2154
8.462875785192262 95.5768
8.485235811156207 110.213
8.507613602688501 173.02200000000002
8.529974277114228 367.55699999999996
8.552352719347912 601.1709999999999
8.574731488360351 772.2189999999999
8.59709314210385 892.6519999999999
8.619472567021075 1110.7
8.64183487789147 1498.74
8.664214962183097 1848.47
8.686577933647762 1613.33
8.708958680784317 921.9739999999999
8.731339760774953 389.77
8.753703729764451 171.572
8.77608547780821 115.824
8.798450116065078 103.44200000000001
8.820832535634787 97.2085
8.843215292401656 93.4887
8.865580941199045 90.8097
8.887964374703538 88.9939
8.910330701447199 87.9878
8.932714815164482 86.9619
8.955099270424924 85.4749
8.977466620733543 84.6524
8.999851761421976 83.9626
9.022219798361645 83.5255
9.04460562795561 83.006
9.066991803441677 82.2748
9.089360876979615 82.0517
9.111747746589993 81.8417
9.13411751544971 81.4915
9.156505082664324 81.5417
9.178875550323522 81.567
9.20126381862328 82.3552
9.223652438908596 87.098
9.246023961427412 95.3135
9.26841328802173 96.4153
9.290785518039224 91.435
9.313175554425882 85.9892
9.335565947154315 83.0337
9.357939245086508 82.4159
9.380330352834827 82.01299999999999
9.40270436697103 82.404
9.425096193225055 82.0624
9.447488380180165 83.1509
9.469863475295412 83.1635
9.492256385987508 83.7073
9.514632206018318 84.0858
9.537025843935714 84.3872
9.559402392368193 84.9453
9.581796761000229 86.0324
9.604191496441521 86.4194
9.626569144158516 87.1295
9.648964615551032 87.8626
9.671343000390081 88.4594
9.693739211225699 89.5492
9.716135793237463 90.4156
9.738515290448102 91.5169
9.760912617143402 93.0185
9.783292860202891 94.0489
9.805690935076182 95.6666
9.828089385495742 96.7625
9.850470754023561 98.6793
9.872869957865444 100.971
9.89525208097539 103.88600000000001
9.917652041736662 107.439
9.940052382417589 114.038
9.962435644102392 130.424
9.984836746950979 185.764
10.007220771957746 342.365
10.029622640473708 544.464
10.052007432299963 675.403
10.074410069984072 738.2080000000001
10.096813093716005 833.573
10.119199042482517 1042.8
10.141602840636468 1393.8
10.163989564971628 1662.3
10.186394141051062 1539.59
10.208799107559706 974.2710000000001
10.231187001965623 476.02
10.253592751657669 214.169
10.275981430388155 133.968
10.298387966769793 116.194
10.320794897965431 111.566
10.343184759907361 107.913
10.36559248305461 105.24
10.387983138083852 104.291
10.410391656691655 106.624
10.432800574501677 121.585
10.455192425893369 164.013
10.47760214443012 214.91299999999998
10.499994797678786 247.80599999999998
10.522405320453982 262.724
10.54479877906917 285.895
10.567210109595656 331.827
10.5896218454736 407.773
10.612016518879773 488.12
10.634429067781074 485.208
10.656824555333241 364.034
10.679237920773568 223.898
10.701651695961992 132.715
10.724048411481384 100.226
10.746463008485165 90.2837
10.768860546937125 86.42
10.791275969274796 83.6415
10.81369180576079 82.1985
10.836090585366925 80.5532
10.858507252467449 79.1411
10.88090686379991 78.0787
10.903324365036394 77.4086
10.925724811614439 75.7422
10.948143150509463 75.7089
10.970561909719066 74.8639
10.992963615930844 73.8659
11.015383218085756 72.8212
11.037785768347074 71.8288
11.06020621697282 71.2483
11.082627090322113 70.9507
11.105030913430326 70.3601
11.12745263854165 69.6185
11.149857314510728 68.6613
11.172279894912576 68.8517
11.194702904450653 67.8185
11.217108866490921 66.9975
11.239532736615194 66.4368
11.26193956033512 66.553
11.284364294577085 66.1345
11.306789462371718 65.3814
11.329197585398376 65.2315
11.351623622610898 65.219
11.37403261614354 64.4416
11.396459526308487 64.5315
11.418869393879497 64.3039
11.441297180532617 63.867
11.463725406927658 63.5101
11.486136592353875 63.0428
11.508565700543707 62.7489
11.530977768845315 62.7172
11.553407762368774 62.5725
11.575838200059769 62.3596
11.598251599479612 62.2144
11.620682927815501 62.1109
11.64309721895548 61.9891
11.665529441478206 61.8386
11.687962112597958 61.6489
11.710377748130886 61.5919
11.732811318753434 61.4676
11.755227854859067 61.3406
11.777662328529495 61.321000000000005
11.800079768750786 61.1308
11.822515149015453 61.0884
11.844950984084935 61.5912
11.867369787303163 60.8963
11.889806534289491 61.2343
11.912226250487029 62.5711
11.934663912939751 64.4184
11.9571020346363 65.7864
11.979523127133968 65.8502
12.001962169624331 65.2408
12.024384183972964 64.9487
12.046824150809913 67.6511
12.069264581333726 77.46600000000001
12.091687985297767 90.6555
12.11412934550045 101.70700000000001
12.136553680195208 108.272
12.158995973632788 112.322
12.181438735204349 118.271
12.20386447284199 130.708
12.226308172985636 151.893
12.24873485024193 177.058
12.271179492516982 192.611
12.293607112949127 177.77900000000002
12.316052700916226 137.89600000000002
12.338498763250042 98.6698
12.360927805303868 74.9085
12.383374818673879 66.5372
12.405804812803074 64.0024
12.428252780773262 63.4071
12.45070122756722 63.4576
12.473132656675375 63.0465
12.49558206341869 63.3352
12.518014453510101 62.8896
12.540464823770117 62.8605
12.562915677315177 63.2524
12.58534951575545 63.3912
12.607801338171472 63.4968
12.630236146511358 64.0544
12.652688941369085 64.331
12.675124723177234 64.4878
12.697578494048786 64.80199999999999
12.720032754458185 65.1664
12.742470003354093 65.7046
12.764925245138771 66.3325
12.787363476431278 66.6868
12.809819703166806 66.9318
12.83227642391173 67.4492
12.854716135692716 68.168
12.877173846755147 69.4064
12.899614549869717 69.7336
12.9220732548287 70.5282
12.94453245827299 71.2692
12.966974655289818 72.1881
12.989434858002571 72.9981
13.011878055298721 74.1136
13.034339260862497 75.0664
13.056800969391883 76.6582
13.079245674017244 79.0956
13.101708390774869 81.1564
13.12415410463411 86.3525
13.146617833206086 102.81299999999999
13.169064559883248 132.835
13.191529303857127 163.90099999999998
13.213994557076367 186.231
13.236442809902437 197.053
13.258909083908291 205.25400000000002
13.28135835851934 219.03
13.30382565690295 246.22099999999998
13.326293469022952 292.67
13.348744283242008 351.162
13.371213125129904 394.746
13.39366497011003 381.05
13.416134845360597 305.685
13.438605238843131 209.62900000000002
13.46105863690397 142.5
13.483530069144786 119.111
13.505984506951902 129.836
13.528456981549432 154.13
13.550929978879088 172.36599999999999
13.573385983253365 182.025
13.595860028340867 185.321
13.618317081455832 192.975
13.64079217790333 210.625
13.663250283359057 239.843
13.685726434770173 283.57
13.708203115221277 333.14300000000003
13.730662806148091 344.79400000000004
13.75314054697177 304.813
13.775601299246777 230.706
13.798080104050406 154.018
13.820559442405358 106.271
13.843021793671388 88.4356
13.865502201420897 82.5322
13.887965623051947 80.6203
13.910447103807167 79.1677
13.932929122629764 77.7927
13.955394156785959 76.9294
13.977877254034569 75.9818
14.000343367582113 75.1163
14.022827546871707 74.4864
14.045294743423524 73.4763
14.06778000837062 72.9453
14.090265817715476 72.6694
14.112734645763819 72.8588
14.13522154619454 73.3605
14.157691466286913 74.1155
14.180179461423874 73.6174
14.202668005486178 72.4857
14.22513957064374 71.1884
14.247629214846473 70.3613
14.270101881097517 70.0225
14.29259262906496 69.3295
14.315083930490205 69.2146
14.337558255389705 68.9746
14.360050666019726 68.7193
14.382526101071944 68.5849
14.405019624534942 68.4922
14.427513705993134 68.3323
14.449990813291825 68.169
14.47248601302899 68.0426
14.49496423954951 68.1628
14.517460561197822 68.1843
14.539939910570322 68.1628
14.562437357763558 68.1824
14.58493536931253 68.6324
14.607416409993311 68.7104
14.62991555254159 68.9049
14.652397725157423 69.0674
14.674898002342799 69.4671
14.697398848433282 69.8183
14.719882725991326 70.8651
14.74238471217934 71.2837
14.764869730765593 73.9638
14.787372860692983 80.5876
14.809876564079925 93.2169
14.83236330125751 106.809
14.854868153850365 116.171
14.877356041159485 121.059
14.899862046604186 123.087
14.922351087688757 127.089
14.944858249632887 135.28799999999998
14.967365991421232 149.209
14.989856770231246 167.317
15.012365673994204 192.304
15.03485761569738 209.49400000000003
15.05736768508665 203.143
15.07987833888692 175.65200000000002
15.102372032001655 138.591
15.124883856909658 102.262
15.14737872204565 82.3737
15.169891721717274 73.7754
15.192405310371893 71.2586
15.214901940621196 70.3049
15.237416709527137 69.1358
15.259914520936249 68.6683
15.282430473753607 67.7916
15.304947020131227 67.3975
15.327446610371178 66.9779
15.349964346154254 66.6097
15.372465126703139 66.3267
15.394984055556009 66.2271
15.417486030076159 66.2697
15.44000615566487 65.8246
15.462526881230803 65.6638
15.485030653812652 65.5758
15.507552581617434 65.4605
15.530057557334603 65.4526
15.55258069104857 65.5038
15.575104429329837 65.6777
15.597611216864632 65.6996
15.620136166564563 65.7078
15.6426441664095 66.3367
15.665170331202765 68.2005
15.687697105158826 73.669
15.710206930593545 83.9888
15.732734925158933 94.8287
15.755245972089478 102.77
15.77777519094324 107.219
15.800287463046663 108.881
15.822817909869592 111.23100000000001
15.84534897229804 115.48899999999999
15.867863089299354 125.007
15.890395385222186 137.601
15.912910736597423 155.616
15.935444269699861 174.988
15.957978423016485 184.86
15.980495633101265 175.46200000000002
16.003031029129367 150.167
16.02554948280019 114.604
16.048086125229432 87.2421
16.070623392487107 72.5524
16.09314371869582 66.0644
16.11568223789321 63.1365
16.13820381691126 61.6442
16.160743591742527 61.0888
16.183283996022084 60.3297
16.205807461423195 59.2354
16.228349126881973 58.6564
16.25087385432698 58.5893
16.27341678466365 57.9069
16.29594277784926 57.6982
16.31848697676433 57.0825
16.341031811604868 56.6019
16.36355971058487 56.4933
16.3861058195587 56.6092
16.40863499352978 55.7896
16.431182380342005 55.6637
16.453730407713202 55.4359
16.476261501364792 55.2201
16.498810812136167 54.9132
16.52134319004079 55.0801
16.54389378792203 54.9757
16.566445031001553 54.7692
16.588979342490088 54.6258
16.61153187824822 54.6864
16.634067483263312 54.5197
16.656621315414416 54.3328
16.679175797408888 53.8524
16.701713349928728 53.9421
16.72426913389191 53.9864
16.74680798922351 54.1553
16.76936507887444 54.1646
16.791905240734874 54.1649
16.814463639794468 54.1707
16.837022695210294 54.0186
16.859564824093756 54.0366
16.882125194503903 54.4581
16.904668639217885 54.773999999999994
16.927230328348003 54.6835
16.949792678493612 54.9245
16.972338104193863 54.9299
16.994901778652235 54.9347
17.017448529496576 55.1728
17.040013531998152 55.2648
17.06257920018044 55.6394
17.0851279459922 56.3752
17.107694947817667 58.6588
17.130245028099072 60.7794
17.15281336730298 62.9988
17.17536478578733 64.281
17.19793446610687 64.6865
17.220504818648422 65.3417
17.243058251703697 65.8403
17.265629950971032 67.2085
17.288184731571736 69.2149
17.310757781306908 72.4597
17.33333150794385 75.7659
17.355888317140174 79.0928
17.37846339986244 82.0833
17.401021565958885 80.9037
17.42359800851343 76.69800000000001
17.44617513265564 70.9765
17.468735341390783 65.4847
17.491261035594565 61.4393
17.51396340099364 59.6274
17.536490463869136 59.1518
17.559018209820174 59.0216
17.58154663977963 58.9435
17.604251766089718 59.1826
17.626781572227713 59.3992
17.64931206518155 59.4073
17.671843245885103 59.8649
17.69455114821572 60.0181
17.717083712612634 60.2114
17.739616967569667 60.6935
17.762150914021706 61.3621
17.78486160749854 61.4743
17.807396945166804 62.1972
17.829932977143503 62.5921
17.85246970436452 63.722
17.875183204129467 66.4757
17.897721330097664 71.8789
17.920260154126645 78.3338
17.942799677153296 83.4562
17.9655159983646 86.8158
17.988056927677544 88.4565
18.010598558807683 89.3622
18.033140892692916 91.1231
18.05586005052525 93.7316
18.07840379824407 98.2715
18.10094825154059 105.25399999999999
18.12366954819864 115.445
18.146215420998306 127.773
18.16876200220057 141.067
18.191309292745153 146.097
18.214033452627167 141.30200000000002
18.236582170236648 127.656
18.259131600016456 110.339
18.281681742907335 95.8014
18.304408781233683 88.0094
18.32696035875955 85.68
18.349512652227624 86.8823
18.372065662579683 90.555
18.394795594587553 95.2719
18.41735004715306 100.76899999999999
18.43990521943684 103.723
18.46246111238171 101.631
18.485193953325208 94.7804
18.507751296070428 85.2061
18.530309362314178 75.9001
18.552868153000343 68.8725
18.57560391815056 64.8348
18.59816416623245 63.2211
18.620725141597372 62.1724
18.643286845190268 61.3117
18.666025549835414 60.772
18.688588718427933 59.9795
18.711152618092243 59.9712
18.73389353884365 59.6924
18.75645890921984 59.1887
18.77902501351406 58.8709
18.801591852673102 58.7722
18.824335739722738 57.9878
18.846904057212626 58.0607
18.8694731124168 57.7859
18.89204290628315 57.9056
18.914789774966803 57.6556
18.937361054791623 57.3037
18.959933076131318 57.1072
18.982505839934877 57.0544
19.00525570560582 56.8433
19.027829963004184 56.6818
19.05040496572238 56.7767
19.072980714710468 56.733999999999995
19.095733592739563 56.8334
19.11831084296757 57.1681
19.140888842324735 58.3136
19.16346759176222 59.5223
19.18622349753803 60.6073
19.208803755869358 61.6877
19.231384767143577 62.1968
19.253966532312948 62.6264
19.276725481241822 62.6464
19.29930876296784 62.9682
19.3218928014549 64.143
19.34465404436217 65.2675
19.36723960516257 67.0439
19.389825925592426 69.1587
19.412413006605938 71.5611
19.43517731967805 73.6899
19.457765930683355 74.265
19.48035530514408 72.3638
19.50294544401556 68.5477
19.525712842708348 63.638000000000005
19.54830451925909 59.5434
19.570896963095727 56.2579
19.593490175174704 54.7341
19.616260674962184 54.2437
19.638855432416964 53.708
19.661450960992624 53.8178
19.68404726164677 53.4587
19.706820878021247 53.2905
19.729418731756834 53.6829
19.752017360452857 53.1391
19.77461676506804 53.4474
19.797393513540218 53.52
19.819994478951667 53.8198
19.84259622316767 54.8102
19.8651987471481 55.9887
19.887978643247177 56.8226
19.91058273574792 57.6906
19.933187610901943 57.9685
19.955969879466828 58.5551
19.97857632894404 58.7735
20.00118356396599 58.7551
20.023791585494575 59.1609
20.046577028914875 60.4009
20.069186632506966 61.9126
20.091797025500632 64.4177
20.114408208858933 67.0749
20.137196842715273 69.9704
20.159809615886765 72.3097
20.18242318232135 72.2682
20.20503754298326 70.7246
20.227829382875154 68.0293
20.250445341109344 65.1756
20.27306209647285 62.5658
20.29567964993108 61.0694
20.31847471147704 60.5708
20.34109387027612 61.6444
20.363713830075454 63.107
20.386334591841646 64.6959
20.409132890679302 65.3118
20.431755265564437 64.0623
20.454378445325528 61.7442
20.477002430930366 58.7295
20.499803982716553 55.8159
20.522429589228004 53.0519
20.54505600449589 51.5131
20.567683229489194 51.0054
20.590488049900088 50.43899999999999
20.61311690359731 50.2795
20.63574656993626 50.0167
20.658553853717297 49.7383
20.681185154618298 49.7133
20.703817271080066 49.6451
20.72645020407368 49.29600000000001
20.749260783967177 49.3693
20.771895359337133 49.3221
20.794530754161617 49.1684
20.817166969412938 49.0836
20.83998086114876 48.8999
20.86261872660049 48.8629
20.885257415405402 48.6513
20.90789692853701 48.6718
20.930714147864748 48.4735
20.953355319030678 48.4656
20.97599731745334 48.8627
20.99864014410749 48.8085
21.021460706796564 48.7991
21.044105199328826 49.3167
21.06675052302631 49.3681
21.089396678865015 49.3255
21.112220600704806 49.4368
21.134868430275347 49.571000000000005
21.15751709492456 49.5591
21.180166595629693 49.3339
21.202993892429635 49.6155
21.22564507473034 49.9941
21.24829709602816 50.321000000000005
21.27112693608965 50.9295
21.293780644891275 51.5327
21.316435195634053 51.5594
21.339090589297417 51.358000000000004
21.361923832041875 51.1277
21.384580921090404 50.3374
21.407238856007325 49.5835
21.429897637773326 49.1431
21.45273429906592 48.835
21.475394784108598 48.7326
21.498056118951983 48.6152
21.520718304578022 48.7286
21.543558400304388 48.7732
21.566222297108816 48.9129
21.58888704765135 48.9086
21.61155265291521 49.35
21.63439619898156 50.2232
21.657063523335786 51.1443
21.67973170537063 52.1241
21.7024007460706 53.0172
21.72524775840385 53.5613
21.747918526116475 54.0447
21.770590155457388 54.0893
21.79326264741238 54.3741
21.816113141960237 55.0129
21.838787368860547 55.9443
21.861462461341976 57.0236
21.884315579735777 58.6976
21.90699241312273 60.2421
21.92967011506078 62.1553
21.95234868653799 64.176
21.9752053151131 65.8283
21.997885635446785 66.2042
22.020566828293532 65.5225
22.04324889464272 63.282
22.066109049404666 60.4872
22.088792872571794 57.7874
22.111477572219204 56.4062
22.1341631493376 55.6116
22.157026846313123 55.7204
22.179714188221507 56.1296
22.202402410582668 56.4522
22.22509151438863 55.9991
22.24795876962584 54.9972
22.270649646204486 53.817
22.293341407213727 52.4559
22.316034053646906 50.961999999999996
22.338904883215342 50.0794
22.36159931041458 49.5288
22.38429462602756 49.1688
22.40699083104897 49.0582
22.429865251039757 48.8641
22.452563244831367 48.8438
22.47526213102522 48.912
22.49813925616515 48.7799
22.520839937143307 48.7864
22.543541513520587 48.9946
22.56624398629403 48.7495
22.589124730075895 48.5564
22.611829005656723 48.8616
22.63453418063466 48.8142
22.657240256008077 48.9992
22.680124634582935 49.4564
22.70283252079775 50.1832
22.725541310413075 51.0345
22.74825100442868 51.4639
22.771139033969575 52.0886
22.79385054687155 51.7254
22.81656296718292 52.0353
22.83927629590484 52.0489
22.862167992606945 52.2334
22.88488314827121 52.7275
22.907599215359284 52.8551
22.93031619487366 53.2735
22.953211574954405 53.9871
22.975930389478226 55.05
22.998650119445763 56.1272
23.02137076586092 57.1795
23.044269845560063 58.0741
23.06699233506288 58.1988
23.089715744034912 57.2807
23.112617610931565 55.7802
23.135342869061212 54.0149
23.158069049684816 51.9869
23.1807961538087 50.5462
23.20370174880544 49.7164
23.226430710184808 49.4634
23.249160598093425 49.3038
23.271891413539002 49.3511
23.294800752937697 49.7355
23.31753343374794 50.5272
23.340267045128353 50.8839
23.36300158808808 51.4648
23.38591468821339 51.7157
23.408651104658304 51.9528
23.431388455719986 51.7515
23.454126742409 51.7786
23.4770436196085 51.9162
23.499783787914662 52.3452
23.522524894889884 52.443000000000005
23.54526694154616 52.7927
23.56818761219047 53.6429
23.59093154860734 54.59
23.613676427751283 56.0605
23.636422250635754 56.9265
23.659346731118656 57.857
23.68209445191868 58.0909
23.704843119509587 57.2778
23.72759273490623 55.3338
23.750521041644767 53.2013
23.77327256312355 51.0284
23.796025035462787 49.0168
23.818956224555475 47.4592
23.841710609113413 46.8623
23.86446594758979 46.3269
23.887222241002014 46.0077
23.910157285144578 45.5385
23.932915498962537 45.644
23.955674670778713 45.4933
23.978434801611975 45.3142
24.001373717286125 45.059
24.024135776723917 45.1209
24.046898798245582 44.8901
24.06966278287146 44.8108
24.092605586582614 44.5687
24.115371508023642 44.3106
24.1381383956401 44.1571
24.16090625045381 44.0829
24.183852958731244 44.1508
24.206622758582608 44.0605
24.229393528706886 43.7347
24.252165270127392 43.7853
24.27511589952438 43.855
24.297889594216997 43.7011
24.32066426328598 43.7268
24.34343990775613 43.5706
24.36639447485003 43.4555
24.38917208083877 43.2639
24.41195066531332 43.2934
24.43490819850244 43.332
24.457688750692377 43.0635
24.48047028445616 42.9674
24.503252800821233 43.0231
24.526214300784112 43.1027
24.548998793132213 43.1539
24.57178427117417 42.8736
24.59457073593893 43.0578
24.617536219319863 43.0394
24.64032466834748 43.1733
24.663114107195035 43.2174
24.685904536893013 42.9256
24.708874020360852 42.9597
24.731666442613744 42.9892
24.754459858818787 42.8402
24.777254270007962 42.7256
24.80022777025625 42.4586
24.82302418230472 42.3305
24.845821592443674 42.3983
24.86862000170663 42.6195
24.891597535453727 42.6071
24.914397953892728 42.8741
24.93719937456671 42.8104
24.96000179851076 42.8193
24.98298338249997 42.806000000000004
25.00578782394922 43.0286
25.028593271784167 42.9584
25.05157790644186 43.2862
25.07438537804115 43.6289
25.097193859145293 43.7663
25.120003350792075 43.8708
25.142992065061257 44.1113
25.165803588823465 44.263999999999996
25.18861612625217 44.53
25.211429678386736 44.6973
25.234422489079968 45.0013
25.257238081693636 44.9935
25.280054692141732 45.2091
25.3028723214652 44.8757
25.325869245420463 44.9025
25.348688923599397 44.7432
25.371509623787006 44.7197
25.394331347025812 44.8627
25.41733240110666 45.0182
25.440156181590016 45.0225
25.46298098826268 44.9482
25.48580682216873 44.5372
25.50881202326435 43.7862
25.53163992281684 43.1605
25.55446885274561 42.4608
25.577298814096377 41.7046
25.600308179121807 41.3227
25.623140214533745 41.3323
25.64597328451537 41.0484
25.66898578564376 40.8065
25.691820936010206 40.9848
25.714657124097695 40.9696
25.737494350954734 40.9465
25.760511045684957 40.7513
25.783350361364224 40.787
25.806190718969255 40.882
25.82903211955018 40.986999999999995
25.852053024868923 41.1733
25.874896522722523 41.1632
25.897741066713106 41.0779
25.920586657892454 40.9094
25.943611790812668 41.1213
25.966459487728237 41.0777
25.989308234998564 40.9191
26.01215803367705 41.1531
26.03518741123814 41.1
26.05803932412957 41.2885
26.080892291600094 41.317
26.10374631470478 41.2667
26.12677995397268 41.6274
26.14963609978026 41.9209
26.172493304397875 41.9755
26.19535156888223 42.0653
26.218389486949604 42.0008
26.241249882640123 41.7084
26.26411134137826 41.3332
26.28715248187403 41.2473
26.31001607820869 40.9819
26.3328807407756 40.7296
26.35574647063438 40.715
26.37879191991473 40.8225
26.401659795896734 40.917
26.424528742360263 40.8608
26.447398760366614 40.914
26.470448535598294 40.8483
26.49332070826805 41.0369
26.516193955675355 41.2147
26.53906827888316 41.2618
26.562122397260108 41.2293
26.584998883685063 41.3563
26.607876449110325 41.5515
26.63075509460056 42.0001
26.65381357334404 41.9442
26.67669439061878 42.004
26.699576291163382 42.2686
26.722459276044212 42.6492
26.745522132402975 42.8429
26.768407297649354 42.7381
26.791293550442003 42.3669
26.814180891848974 41.9136
26.837248143099337 41.6013
26.860137673466657 41.3179
26.88302829566349 40.873000000000005
26.90592001075963 40.8731
26.92899167420566 40.8347
26.951885586870763 40.3769
26.974780595655517 40.2548
26.99785558178161 40.0681
27.020752794605112 39.7644
27.043651106772522 39.5272
27.06655051935668 39.3401
27.089629948036183 39.1285
27.112531573292053 39.0491
27.135434302194138 39.1884
27.158338135817015 38.9101
27.181422024430987 38.8657
27.204328079372566 38.9356
27.22723524226965 38.9126
27.250143514198573 38.9092
27.273231880156334 38.9708
27.296142382065014 38.8647
27.319053996245536 38.5647
27.341966723775965 38.6711
27.365059584515222 38.7401
27.38797455070062 38.6988
27.410890633481237 38.7127
27.433807833936918 38.7057
27.456905206923906 38.5794
27.47982465472398 38.5046
27.502745223449743 38.650999999999996
27.525666914182825 38.8184
27.548768816912457 38.7587
27.571692763693633 38.7541
27.59461783573812 38.6668
27.617723149491244 38.7191
27.640650484125285 38.928000000000004
27.66357894728264 38.8299
27.686508540048052 38.7616
27.709618414237887 38.6526
27.732550278321757 38.5618
27.755483275279115 38.4714
27.778417406196485 38.4297
27.801531858397514 38.4354
27.824468269376716 38.323
27.847405817586786 38.1837
27.870344504116094 38.3404
27.893463551932008 38.4214
27.916404527281053 38.5942
27.93934664422563 38.5751
27.962289903855886 38.5159
27.98541356491974 38.6933
28.00835912214229 38.7211
28.03130582533231 38.8511
28.054253675581805 39.1172
28.077381967556104 39.0929
28.100332124185126 39.2201
28.123283431160893 39.2719
28.146235889577238 39.3511
28.169368830154156 39.4889
28.192323603752033 39.3265
28.215279532083304 38.983000000000004
28.238415973016764 38.8203
28.261374223145094 38.715
28.284333631303806 38.3997
28.307294198589954 38.349000000000004
28.330435319167677 38.0022
28.353398217078915 37.7994
28.376362277420153 37.5196
28.39932750129032 37.3961
28.422473319286713 37.153
28.44544088262495 36.9302
28.468409612800283 36.7364
28.491379510913497 36.4464
28.51453004413313 36.3032
28.53750229057244 36.2895
28.56047570826344 36.2352
28.583450298308804 36.2399
28.606605564586562 36.1047
28.629582511831156 36.1837
28.65256063474956 35.9518
28.675539934446338 35.9116
28.698699951647605 35.8858
28.72168161743193 35.7892
28.74466446331978 35.7148
28.767648490417624 35.7244
28.790813276438353 35.5978
28.813799678527303 35.6753
28.836787265157085 35.5138
28.859955641890075 35.579
28.882945610203045 35.4321
28.905936766392035 35.449
28.928929111566863 35.4369
28.952102288520145 35.4731
28.975097024308607 35.3827
28.998092952423807 35.4561
29.021090073977508 35.4467
29.04426806913204 35.2991
29.067267590245258 35.1488
29.090268308143695 35.085
29.11327022394099 35.1459
29.13645305530891 34.8778
29.159457379627167 34.7163
29.18246290519685 34.6405
29.20546963313352 34.5315
29.22865731875826 34.5254
29.25166646419296 34.5035
29.27467681535305 34.417
29.29768837335608 34.3991
29.320880931312562 34.2969
29.34389491580634 34.3401
29.366910110507334 34.2417
29.38992651653503 34.2756
29.41312396492981 34.2413
29.436142806456754 34.2108
29.45916286268059 34.293
29.48236399319994 34.327
29.50538649169417 34.2696
29.528410208259935 34.1603
29.55143514402014 34.0477
29.574641196749695 34.0642
29.597668583816574 33.8254
29.6206971934585 33.4933
29.64372702680042 33.5371
29.666938019934474 33.4227
29.689970313635285 33.3819
29.713003834422636 33.181999999999995
29.73603858342347 33.2286
29.759254535188578 33.0501
29.78229175361658 33.0289
29.80533020365064 33.0746
29.82836988641968 33.111999999999995
29.85159081507472 32.9378
29.874632976355343 32.9195
29.89767637376955 32.9644
29.920721008448314 32.9206
29.9439469322847 32.8114
29.96699405457564 32.7247
29.9900424175358 32.816
30.013092022298157 32.7514
30.03632295963995 32.6222
30.059375061131373 32.7183
30.08242840783577 32.6822
30.105483000888153 32.6744
30.128718970092244 32.525
30.151776069006917 32.6296
30.17483441768648 32.6272
30.198074175317235 32.5926
30.221135036724256 32.5725
30.24419715131772 32.5095
30.267260520236203 32.5302
30.290505341942243 32.5211
30.313571232750228 32.6252
30.336638381310948 32.5567
30.35970678876503 32.6566
30.38295669299435 32.5825
30.40602763151657 32.6089
30.429099832366074 32.5649
30.452173296685572 32.4359
30.47542830191959 32.3834
30.498504306502497 32.4309
30.521581577995562 32.4514
30.544660117543582 32.4496
30.56792024229725 32.368
30.59100133132069 32.3714
30.614083691845494 32.3465
30.637167325018545 32.4075
30.660432587840603 32.4463
30.683518779717886 32.2563
30.70660624769615 32.4223
30.729694992924372 32.347
30.75296541239743 32.53
30.77605672557558 32.3695
30.799149319462742 32.4372
30.8224236211637 32.3973
30.845518789950724 32.3945
30.868615242910597 32.3255
30.891712981195973 32.2034
30.91499247215866 32.0987
30.938092794619365 32.0332
30.96119440587579 32.0032
30.984297307082752 31.8717
31.00758200598383 31.6709
31.030687500658694 31.6754
31.053794288760695 31.5234
31.076902371446767 31.4563
31.100192296997445 31.4143
31.12330298246119 31.4009
31.14641496599209 31.2763
31.169528248749216 31.4065
31.19282341969534 31.1926
31.215939314557186 31.2839
31.239056512134788 31.3249
31.262175013589378 31.2686
31.28547544871168 31.1927
31.30859657161541 31.1515
31.331719001892175 31.1784
31.35484274070538 31.2657
31.378148458819545 31.1426
31.401274828443725 31.1343
31.424402510106933 31.1666
31.447712205419993 31.1891
31.470842524931633 30.9874
31.493974159989783 30.9533
31.51710711176168 30.9225
31.54042212308802 31.0689
31.563557722100917 31.1728
31.586694641341655 31.0432
31.609832881979628 30.996
31.63315322823208 31.0457
31.656294125521327 30.8956
31.679436347728515 30.8159
31.70257989602529 30.7119
31.725905596152327 30.6247
31.74905181052835 30.5517
31.772199354521323 30.5402
31.79534822930507 30.4453
31.818679302290967 30.4838
31.84183085259981 30.3584
31.864983737233473 30.2951
31.88813795736804 30.3435
31.911474422233013 30.2559
31.934631327356435 30.3592
31.9577895715215 30.2307
31.980949155906522 30.2044
32.004291031706956 30.1966
32.027453310562606 30.2654
32.05061693318573 30.2243
32.07396288236386 30.171999999999997
32.09712920658542 30.1746
32.12029687812702 30.037
32.14346589817093 29.9367
32.166817291729984 29.9227
32.18998902288583 29.9037
32.21316210610336 29.8116
32.23633654256711 29.686999999999998
32.259693399663725 29.576999999999998
32.282870556771144 29.4511
32.30604907069099 29.5148
32.329228942610065 29.3566
32.35259128243769 29.2739
32.375773884550505 29.1909
32.398957848235646 29.1738
32.422143174682176 29.1519
32.445511016471215 29.0355
32.468699082679954 28.9755
32.49188851523011 28.8633
32.51507931531304 28.9203
32.538452678331 28.8398
32.56164622776311 28.7266
32.58484114831493 28.7545
32.60803744118015 28.6572
32.631416344731896 28.7676
32.654615396551876 28.6554
32.67781582427913 28.6503
32.701198898634416 28.5066
32.72440209253756 28.5985
32.747606665947124 28.5612
32.77081262006088 28.3171
32.79420126883317 28.419
32.81740999876112 28.3549
32.840620112999424 28.2484
32.86383161274818 28.2461
32.88722585534586 28.2348
32.91044014056596 28.3343
32.933655814909734 28.2013
32.95687287957963 28.176
32.98027273544904 28.1799
33.00349259526636 28.0484
33.026713849030116 28.1138
33.04993649794511 28.0402
33.073341986570746 28.0524
33.09656744032826 28.0681
33.11979429286444 28.0578
33.14302254538647 27.9223
33.166433686291185 27.8503
33.18966475336992 27.7853
33.212897224069096 27.7534
33.23613109959831 27.7931
33.259547912343415 27.7691
33.2827846121627 27.8058
33.306022720453775 27.7549
33.32926223842861 27.6258
33.352684742614166 27.7163
33.37592709463173 27.6814
33.399170859982064 27.6226
33.422597648419426 27.5608
33.44584425514446 27.5091
33.46909227885668 27.4113
33.4923417207723 27.2939
33.51577423505344 27.4288
33.539026528130385 27.2888
33.56228024307245 27.2159
33.585535381098246 27.0944
33.60897364093058 26.9112
33.63223163992385 26.9099
33.6554910656699 26.910999999999998
33.678751919389796 26.8927
33.702195944520106 26.8659
33.72545966903325 26.8136
33.74872482519663 26.7002
33.771991414233746 26.756999999999998
33.79544122444841 26.6612
33.81871069412428 26.619
33.84198160035767 26.5669
33.86525394437455 26.6113
33.88870955949969 26.5362
33.911984794020626 26.5808
33.93526147001624 26.4614
33.958539588715006 26.4892
33.98200102861669 26.4507
34.0052820477047 26.3467
34.02856451319451 26.2992
34.05203033759056 26.2869
34.07531571090147 26.2545
34.09860253431845 26.1066
34.121890809074316 26.1264
34.145362493118924 26.1326
34.16865368561615 26.0474
34.191946333164054 25.9632
34.21524043699793 25.9901
34.23871800066799 25.9261
34.26201503218366 25.8312
34.28531352370466 25.8344
34.30861347646881 25.7698
34.33209693978188 25.6643
34.3553998301885 25.686
34.378704185565205 25.5325
34.402010007152356 25.568
34.42549939016683 25.5532
34.44880815937748 25.5081
34.472118398533134 25.39
34.49543010887669 25.4031
34.51892543169198 25.2943
34.54224009966052 25.3915
34.56555624255917 25.3632
34.58887386163339 25.2789
34.61237514439016 25.1563
34.6356957311114 25.1329
34.65901779775809 25.1559
34.68252356662995 25.1143
34.705848608458616 25.0454
34.72917513396849 25.0118
34.75250314440949 24.9111
34.77601490857862 24.8844
34.799345904259795 24.8811
34.82267838863559 24.9072
34.846012362958525 24.8064
34.869530142679984 24.773000000000003
34.89286711232212 24.783
34.91620557568269 24.7392
34.93954553401677 24.6905
34.9630693495876 24.611
34.986412313340814 24.6675
35.00975677584668 24.6249
35.033102738362956 24.6534
35.05663261012228 24.5834
35.0799815881786 24.5694
35.10333207003229 24.559
35.12668405694369 24.4559
35.150220005273056 24.4204
35.17357501786656 24.4474
35.19693153931268 24.4549
35.220289570874385 24.3591
35.24383161619786 24.2633
35.267192683604904 24.3384
35.290555264930376 24.2585
35.314101899412165 24.2277
35.33746752422433 24.2208
35.36083466676374 24.2335
35.38420332829803 24.1788
35.407756095629054 24.1852
35.43112781085063 24.0652
35.45450104888391 24.1162
35.477875810999194 24.0373
35.50143473172161 24.0071
35.52481255774625 24.004
35.54819191167777 23.8909
35.57157279478914 23.9786
35.595137889488406 23.9618
35.61852184675279 23.8913
35.641907337029984 23.883000000000003
35.665294361595684 23.8252
35.68886565090076 23.723000000000003
35.7122557598848 23.7292
35.73564740699838 23.7226
35.759040593519934 23.6642
35.78261809810353 23.6739
35.80601437933051 23.5122
35.829412203814705 23.4859
35.85281157283719 23.4565
35.876395313415884 23.5213
35.8997977874528 23.4172
35.92320180988546 23.4109
35.946790244133936 23.2676
35.97019737933222 23.3011
35.993606066789866 23.2321
36.01701630779276 23.1947
36.04061101440684 23.219
36.06402437852291 23.1446
36.08743930005611 23.1117
36.1108557802951 23.0553
36.13445678011326 23.0157
36.15787639383515 23.0269
36.18129757014299 23.0637
36.20472031032821 22.9611
36.22832762423364 22.9427
36.25175350829375 22.9108
36.275180960119776 22.8625
36.298609981005924 22.8391
36.32222362992669 22.8477
36.34565580510207 22.8393
36.36908955323448 22.7834
36.39252487562093 22.6641
36.416144880530226 22.6234
36.43958336764275 22.5578
36.463023432914625 22.5811
36.486465077645676 22.4515
36.51009145956204 22.5373
36.53353627947859 22.5293
36.55698268276811 22.4623
36.58043067073321 22.4871
36.60406345072071 22.3646
36.62751462435344 22.3561
36.65096738658405 22.3825
36.67460498210655 22.3935
36.69806093788647 22.3243
36.72151848619297 22.295
36.744977628333636 22.3062
36.76862165890998 22.1844
36.79208400512205 22.1929
36.81554794910557 22.1324
36.83901349217101 22.0978
36.862663978991606 22.0433
36.88613273667352 21.9395
36.90960309738324 21.9894
36.933075062434064 21.9408
36.95673202673572 21.8861
36.98020721697122 21.8672
37.003684015502365 21.7836
37.027162423645365 21.7953
37.050825886711465 21.7506
37.07430753063053 21.5798
37.09779078812467 21.6019
37.121275660513014 21.6453
37.144945643673694 21.6141
37.16843376245278 21.5927
37.19192350009803 21.59
37.215414857931435 21.5203
37.239091382563885 21.4012
37.262585997426164 21.4375
37.28608223645736 21.386
37.309763684451696 21.358
37.33326318851098 21.3395
37.356764320726555 21.3126
37.380267082425526 21.3114
37.40395510942588 21.2424
37.42746114683234 21.2015
37.45096881771841 21.1743
37.474478123414166 21.2051
37.49817275092816 21.1274
37.52168534303452 21.0815
37.54519957395567 21.0345
37.568715445024665 21.0178
37.592416694607714 20.8975
37.61593586281424 20.8854
37.63945667518264 20.9759
37.66297913304891 20.8952
37.68668702630454 20.9319
37.710212792059274 20.7868
37.733740207334854 20.7941
37.757269273470364 20.7678
37.780983832050374 20.7137
37.80451621684926 20.6927
37.82805025654007 20.6668
37.851585952464795 20.6306
37.8753071980695 20.5121
37.89884622345676 20.4639
37.92238690911902 20.4443
37.94611318753442 20.4468
37.969657210779765 20.4339
37.99320289834801 20.4006
38.016750251586465 20.4374
38.04048325513017 20.3382
38.06403395679343 20.2537
38.087586328183946 20.245
38.11114037065203 20.2841
38.13488012115898 20.292
38.1584375229181 20.199
38.181996599821 20.1563
38.205557353221124 20.1296
38.229303872575656 20.0959
38.2528679961576 20.089000000000002
38.27643380031219 20.0435
38.30000128639589 20.0179
38.32375459653193 20.0067
38.34732546371299 20.004
38.37089801690786 19.9095
38.39447225747609 19.8154
38.418232380377425 19.8471
38.441810012983396 19.8872
38.46538933705673 19.778
38.488970353960084 19.7472
38.51273731166058 19.7094
38.536321731567014 19.7145
38.55990784840681 19.6794
38.58367995004091 19.5921
38.60726947812959 19.5051
38.63086070726198 19.5238
38.654453638806274 19.5239
38.678232613930824 19.4805
38.70182896773327 19.3798
38.72542702806741 19.4324
38.7490267963045 19.4105
38.77281266709232 19.3726
38.79641586862214 19.2765
38.8200207821842 19.2851
38.843627409152944 19.309
38.86742019782782 19.2132
38.891030269149255 19.157
38.914642058016156 19.1962
38.938255565806124 19.1496
38.96205529464307 19.1113
38.98567225787121 19.1548
39.00929094417078 19.0308
39.03291135492255 19.0365
39.05671804624804 18.9997
39.080341923549106 18.9108
39.103967529460334 18.9661
39.127594865365744 18.8703
39.15140854155791 18.7856
39.17503935514948 18.8093
39.19867190290282 18.7835
39.22249083587951 18.7865
39.24612686969409 18.6933
39.269764641845306 18.7596
39.293404153722804 18.7364
39.317230110864074 18.649
39.34087311998506 18.609
39.36451787301696 18.636
39.388164371352595 18.535
39.41199737518003 18.4621
39.43564738196752 18.4695
39.45929913825317 18.4826
39.48295264543308 18.5088
39.506792718520884 18.3979
39.530449745387216 18.41
39.55410852735203 18.3436
39.57776906581474 18.3576
39.60161623079 18.3061
39.625280300200025 18.2587
39.64894613032202 18.1842
39.67261372255866 18.1844
39.6964680021016 18.1734
39.72013913657293 18.1855
39.74381203738292 18.1748
39.76748670593756 18.145
39.79134812278169 18.1267
39.81502634488497 18.1012
39.83870633896685 18.0719
39.862388106436654 17.9588
39.88625668336918 18.0038
39.90994201572829 17.9642
39.933629125719285 17.9344
39.957503091207826 17.8454
39.9811937746168 17.9313
40.00488623990914 17.8977
40.02858048850006 17.7672
40.05246165409549 17.7594
40.076159487492085 17.6802
40.099859108448875 17.7051
40.123560518384345 17.627
40.1474489070226 17.7052
40.171153913178564 17.5988
40.194860712584955 17.6022
40.2185693066637 17.5955
40.242464941335314 17.5449
40.26617714307655 17.518
40.289891143772046 17.4973
40.3136069448471 17.4998
40.33750984859743 17.4788
40.3612292688043 17.3602
40.3849504936829 17.3141
40.40867352466194 17.3273
40.43258372059144 17.3477
40.45631038219906 17.2646
40.48003885420956 17.2787
40.503769138055105 17.2672
40.52768664931955 17.2461
40.55142057531802 17.2137
40.57515631746428 17.182000000000002
40.599079334038514 17.1092
40.62281872700477 17.0935
40.64655994043941 17.0389
40.67030297578061 16.9887
40.69423334835778 17.0154
40.71798004609188 16.9503
40.74172857006355 16.94
40.76547892171441 16.9176
40.7894166736039 16.9643
40.813170699248566 16.9166
40.83692655691388 16.9249
40.86068424804498 16.9003
40.884629402612525 16.8335
40.908390779366385 16.8108
40.932153993938 16.7752
40.95591904777605 16.7458
40.979871628443995 16.737000000000002
41.003640379561936 16.6981
41.02741097430883 16.6214
41.05118341413683 16.6372
41.075143444384416 16.5999
41.098919593177826 16.5973
41.1226975914255 16.5422
41.14647744058318 16.4803
41.170444943946755 16.4352
41.19422851378379 16.4233
41.218013938914645 16.4214
41.24198706625173 16.3819
41.26577622087193 16.3868
41.289567235177785 16.3137
41.31336011063129 16.3025
41.337340752422875 16.2615
41.361137369129835 16.2507
41.38493585138705 16.2799
41.40873620066004 16.1582
41.43272438060107 16.1654
41.45652848292052 16.146
41.48033445666918 16.1501
41.50414230331616 16.0997
41.528138045159764 16.0951
41.551949656675205 16.017
41.575763145513235 16.0012
41.59957851314666 16.0429
41.62358184070442 15.9563
41.64740098505737 15.9539
41.6712220126409 15.9259
41.69504492493139 15.8345
41.71905586207357 15.8109
41.74288256296395 15.8146
41.766711153007456 15.8207
41.79054163368412 15.8004
41.814560204340054 15.7781
41.838394485526365 15.6939
41.86223066180303 15.7319
41.88625497706819 15.6613
41.910094962812 15.6726
41.93393684811168 15.5869
41.95778063445365 15.5512
41.981812625263366 15.5439
42.00566023303407 15.5493
42.029509746323676 15.4995
42.05336116662236 15.4658
42.077400857069705 15.4886
42.10125611078846 15.4855
42.12511327600405 15.3962
42.14897235421036 15.3598
42.173019768448455 15.3456
42.19688269209613 15.3026
42.22074753323349 15.2636
42.24461429335818 15.2652
42.268669455600495 15.1994
42.292540073217886 15.2142
42.31641261433284 15.2469
42.34028708044675 15.2166
42.36435001496739 15.1672
42.38822835065557 15.1497
42.41210861586426 15.1335
42.4359908120986 15.1146
42.46006154323262 15.0501
42.48394762115317 15.0129
42.507835634632315 15.0458
42.531912233047436 15.0138
42.55580413732265 14.9936
42.579697981698 14.9267
42.60359376768525 14.9032
42.62767820545945 14.8616
42.65157789440821 14.9126
42.67547952952185 14.8728
42.699383112316 14.8279
42.72347541395347 14.7473
42.74738291190531 14.7186
42.771292362102166 14.7458
42.795203766063516 14.7355
42.819303956130405 14.6931
42.843219287476536 14.6585
42.86713657716324 14.6691
42.89105582671383 14.6231
42.91516392983864 14.6264
42.939087119032166 14.5322
42.963012272677304 14.5175
42.98693939230129 14.474
43.01105543317513 14.5105
43.034986504731386 14.4703
43.05891954686589 14.4594
43.08285456110972 14.3628
43.10697856448665 14.3781
43.130917542983475 14.3826
43.15485849820081 14.3432
43.17880143167367 14.3027
43.20293342237094 14.2791
43.226880332449 14.2459
43.25082922540554 14.2426
43.27496722682525 14.2432
43.29892010567796 14.2036
43.32287497204102 14.1717
43.34683182745632 14.11
43.370977859791836 14.0836
43.39493871351105 14.0601
43.41890156092628 14.0666
43.44286640358341 14.0489
43.46702049182749 13.9613
43.49098934522816 13.9386
43.51496019852649 13.9223
43.5389330532723 13.9033
43.56309522248204 13.8893
43.58707210044314 13.924000000000001
43.61105098451946 13.9017
43.63503187626491 13.8398
43.659202151562134 13.7996
43.68318707902681 13.7505
43.70717401884041 13.7331
43.731162972560874 13.7141
43.75534137913236 13.7413
43.779334381108384 13.7054
43.803329401683186 13.6625
43.82732644241872 13.6854
43.8515130055166 13.6698
43.87551410707659 13.5782
43.89951723350145 13.6125
43.923709934595614 13.5556
43.94771713129917 13.5487
43.97172635758096 13.5287
43.99573761501002 13.5186
44.0199385169922 13.4697
44.04395385732619 13.4285
44.067971233533086 13.425999999999998
44.09199064718605 13.4035
44.11619977548961 13.368
44.14022328470671 13.3294
44.16424883610785 13.3383
44.18827643127035 13.3053
44.21249381139513 13.2699
44.236525514814076 13.2875
44.26055926674478 13.2362
44.28459506876863 13.2621
44.3088207262813 13.1513
44.33286064928722 13.1475
44.35690262714919 13.1273
44.38094666145278 13.1169
44.4051806219871 13.1101
44.42922879003185 13.1105
44.45327901929361 13.056
44.477331311362136 13.0656
44.501573600619416 12.9781
44.525630039221795 13.0005
44.54968854541895 12.9163
44.573937102200176 12.9178
44.5979997645541 12.9259
44.622064499300315 12.8456
44.64613130803592 12.8727
44.67038823869318 12.8664
44.69445921643748 12.7967
44.718532272981385 12.7308
44.742607409926194 12.7912
44.76687274034801 12.7551
44.79095205918753 12.6871
44.81503346325094 12.7072
44.839116954143876 12.7026
44.86339071028742 12.6913
44.88747839599524 12.6481
44.91156817336837 12.6068
44.93566004401666 12.6298
44.959942251908146 12.5803
44.984038330325966 12.5618
45.00813650686762 12.5066
45.03223678314731 12.5129
45.05652746888232 12.463
45.08063196592069 12.4744
45.104738567558705 12.4075
45.128847275414856 12.4197
45.15314646515866 12.3495
45.17725940679741 12.3926
45.20137445952892 12.3484
45.22568004865265 12.3179
45.24979934496396 12.3416
45.27392075725247 12.2997
45.29804428714431 12.2721
45.322358426247604 12.2497
45.346486212804315 12.2201
45.370616121861914 12.1986
45.39474815505086 12.1921
45.41907087049246 12.1053
45.4432071734666 12.1284
45.46734560548283 12.0857
45.49148616817604 12.1356
45.51581748638564 12.0745
45.5399623320197 12.054
45.56410931325473 12.0254
45.58825843173002 12.0152
45.61259837920865 12.0204
45.636751793816 11.9778
45.66090735060093 11.9481
45.68506505120716 11.905
45.7094136545275 11.876
45.73357566449271 11.8183
45.75773982322992 11.8314
45.78190613238733 11.8434
45.806263418194064 11.7772
45.83043404997326 11.8053
45.85460683713677 11.7625
45.87897065658495 11.7313
45.90314777634752 11.7328
45.92732705646868 11.7193
45.9515084986045 11.6829
45.97588104735473 11.6846
46.00006683541565 11.6427
46.02425479047904 11.602
46.04844491420549 11.5983
46.0728262191024 11.6069
46.09702070211635 11.6114
46.12121735879483 11.5796
46.14541619080294 11.4865
46.169806278764455 11.4841
46.194009483459034 11.5041
46.21821486849841 11.4877
46.24242243555223 11.4456
46.266821333570014 11.4287
46.29103328674601 11.3796
46.31524742696538 11.3901
46.33946375590237 11.3314
46.36387149104216 11.3269
46.38809221957392 11.2855
46.41231514186606 11.3231
46.436540259597464 11.2865
46.460956858999374 11.2471
46.48518638983522 11.2403
46.509418121166966 11.1971
46.533652054678114 11.1932
46.55807754555709 11.1787
46.58231590571962 11.165
46.60655647313217 11.1158
46.630988654873654 11.1379
46.655233659129024 11.0697
46.67948087571551 11.0679
46.70373030632484 11.0275
46.72817142736393 11.0387
46.752425308428684 10.9892
46.77668140861147 10.9721
46.80093972960865 10.9329
46.82538981736788 10.9018
46.849652602470904 10.9369
46.87391761349769 10.929
46.8981848521493 10.8877
46.9226439341274 10.8821
46.946915650573224 10.8604
46.97118959976749 10.8156
46.99546578341598 10.7915
47.019933887188216 10.7547
47.04421456235744 10.7337
47.06849747711879 10.6984
47.09278263318286 10.7189
47.11725978640143 10.6901
47.14154944775105 10.6566
47.165841355555656 10.6342
47.1901355115306 10.6389
47.214621741924994 10.6166
47.23892041698887 10.6403
47.26322134538975 10.5552
47.28771440635075 10.5308
47.31201986422527 10.5111
47.33632758061436 10.529000000000002
47.360637557241866 10.5287
47.38513974410611 10.4813
47.40945426407847 10.4403
47.43377104948137 10.4556
47.45809010204344 10.4482
47.48260144275502 10.3935
47.506925052572285 10.3799
47.53125093475548 10.3212
47.55557909103813 10.3213
47.58009961361992 10.2948
47.60443234110732 10.2734
47.62876734791564 10.277999999999999
47.65310463578333 10.2591
47.6776343683373 10.2681
47.7019762413987 10.2129
47.72632040075572 10.255
47.75066684815169 10.2378
47.77520581885936 10.1624
47.799556865477655 10.1576
47.823910205386 10.1645
47.84826584033272 10.0735
47.87281407745551 10.0856
47.89717432569297 10.1299
47.92153687423484 10.0451
47.94609208429692 10.0429
47.97045925671401 10.0432
47.99482873471275 9.9988
48.01920052005013 9.99487
48.04376504619224 9.96979
48.068141469543484 9.96583
48.09252020552573 9.94266
48.11690125590099 9.94505
48.1414751266064 9.9609
48.16586082917454 9.923060000000001
48.19024885144316 9.858189999999999
48.2146391951793 9.86421
48.239222439012764 9.85304
48.26361744916137 9.819289999999999
48.28801478610016 9.78909
48.31241445160131 9.76413
48.337007097209366 9.74966
48.36141144338331 9.787339999999999
48.38581812345755 9.77781
48.41022713920929 9.71912
48.434829215320704 9.6767
48.45924292604658 9.70232
48.48365897780325 9.67169
48.50807737237308 9.63524
48.532688907799276 9.65535
48.55711201168574 9.6145
48.581537463754074 9.616
48.60615611725119 9.57978
48.63058628942721 9.598930000000001
48.65501881516546 9.55103
48.6794536962573 9.55458
48.70408185970339 9.477260000000001
48.72852147531801 9.4696
48.75296345168211 9.45589
48.77740779059232 9.46913
48.80204549302823 9.43945
48.82649458091802 9.44387
48.85094603676547 9.390830000000001
48.87539986237231 9.366610000000001
48.90004713292306 9.36802
48.92450572200832 9.333739999999999
48.94896668628025 9.30975
48.97343002754588 9.29011
48.99808689542115 9.34713
49.02255501470614 9.299760000000001
49.04702551642794 9.264289999999999
49.0714984023988 9.282789999999999
49.096164896893235 9.248619999999999
49.120642575466796 9.18213
49.145122643748394 9.21278
49.16960510355558 9.1566
49.19428125404938 9.1145
49.2187685210852 9.15859
49.243258185121555 9.13082
49.26794160167084 9.09353
49.2924360839405 9.05772
49.31693296869764 9.07952
49.34143225776915 9.06199
49.36612538195438 9.04225
49.39062950396021 9.020430000000001
49.41513603578346 9.02299
49.4396449792564 8.98144
49.46434784069503 8.9453
49.488861631846454 8.923680000000001
49.513377840166804 8.917869999999999
49.537896467493745 8.89448
49.56260909589029 8.8744
49.587132585683285 8.91474
49.611658500018365 8.89072
49.636186840738596 8.82806
49.66090926588511 8.82397
49.685442483902584 8.79712
49.70997813385706 8.78047
49.734516217597076 8.76891
49.75924846937352 8.79543
49.7837914452858 8.75843
49.80833686055187 8.7368
49.83288471702571 8.72434
49.85762682540054 8.661
49.882179588965734 8.674380000000001
49.9067347993235 8.62827
49.93129245833333 8.66265
49.95604445336378 8.6107
49.98060703442832 8.596960000000001
50.005172069746266 8.60113
50.02993150438364 8.55938
50.05450147301533 8.549539999999999
50.07907390151433 8.58077
50.10364879174981 8.56945
50.12841816587289 8.50378
50.1529980044635 8.4962
50.17758031042124 8.49618
50.20216508562089 8.46556
50.22694442953363 8.45668
50.25153416817468 8.44485
50.27612638170508 8.39676
50.300721072005196 8.377880000000001
50.325510416102105 8.385539999999999
50.350110084975064 8.34297
50.37471223628208 8.35303
50.39931687190919 8.33884
50.424116246675766 8.31975
50.44872587605249 8.30068
50.47333799543065 8.32575
50.49795260670191 8.311819999999999
50.52276204271512 8.26092
50.54738166295838 8.2586
50.57200378079314 8.24035
50.596628398116835 8.23325
50.62144792604559 8.179860000000001
50.646077567609396 8.183810000000001
50.670709714377715 8.170169999999999
50.69553683636198 8.16697
50.72017401885922 8.15144
50.7448137122895 8.10588
50.76945591856022 8.064210000000001
50.79429318636823 8.11267
50.818940443716784 8.0849
50.84359021965163 8.04772
50.868242516085964 8.0547
50.893089960641895 8.00181
50.917747323549435 7.9999199999999995
50.94240721271973 7.96665
50.96706963007175 7.960780000000001
50.99192728239342 7.92356
51.01659478166073 7.9401
51.04126481489051 7.956360000000001
51.06593738400761 7.926819999999999
51.090805275207074 7.906739999999999
51.11548294172845 7.875189999999999
51.14016314993547 7.851380000000001
51.164845901758845 7.862419999999999
51.18972406304274 7.842860000000001
51.21441192780656 7.80421
51.23910234200271 7.82747
51.2637953075678 7.79953
51.288683770237945 7.76907
51.31338186432707 7.7558
51.33808251561888 7.751469999999999
51.362978729967345 7.72918
51.387684521509755 7.725510000000001
51.41239287610203 7.736269999999999
51.437103795691165 7.6732
51.46201036644977 7.6433800000000005
51.486726441956634 7.6458699999999995
51.51144508832545 7.64622
51.536166307509156 7.607539999999999
51.56108326624387 7.574660000000001
51.58580965706056 7.559489999999999
51.61053862657523 7.5795
51.635270176746864 7.5521
51.66019755512065 7.544110000000001
51.68493429268881 7.50992
51.70967361681515 7.50771
51.73441552946465 7.46932
51.759353359237934 7.48915
51.7841004750961 7.496010000000001
51.80885018539685 7.4526
51.833602492111254 7.417660000000001
51.8585508051424 7.41118
51.883308330926425 7.4002
51.90806845906181 7.36077
51.932831191525715 7.364339999999999
51.95779001977161 7.32255
51.98255798721516 7.30023
52.00732856494335 7.32935
52.03229530577543 7.3136399999999995
52.057071130455945 7.28867
52.081849571391054 7.27955
52.106630630568695 7.253239999999999
52.13160794279417 7.238510000000001
52.15639426492067 7.272639999999999
52.18118321127822 7.208139999999999
52.205974783860896 7.18765
52.23096269971011 7.174589999999999
52.255759551287994 7.20856
52.280559035098186 7.15107
52.30536115314103 7.1237
52.33035970494467 7.179530000000001
52.35516711807904 7.12754
52.37997717147198 7.0620899999999995
52.40478986713005 7.063839999999999
52.42979908731974 7.04051
52.454617094216 7.068630000000001
52.47943774942214 7.06272
52.50426105495102 7.0096
52.529280976059844 6.971019999999999
52.554109609024096 6.99263
52.57894089837482 6.98765
52.60377484613117 7.0165
52.62880550079408 6.96675
52.65364479223379 6.93761
52.67848674816189 6.91735
52.70352547971946 6.941039999999999
52.72837279155837 6.926880000000001
52.753222773982785 6.8699699999999995
52.778075429022984 6.8799399999999995
52.80312495150885 6.861860000000001
52.827982978797436 6.85535
52.85284368481815 6.802160000000001
52.87770707160767 6.806939999999999
52.90276741793998 6.812710000000001
52.92763619336701 6.78178
52.952507655698504 6.769430000000001
52.977381806977576 6.751180000000001
53.00245301017842 6.7385
53.02733256653592 6.710189999999999
53.052214817996074 6.7028300000000005
53.077099766608484 6.68928
53.102181859804446 6.69625
53.127072229988265 6.6967
53.15196530349892 6.652660000000001
53.17686108239249 6.6252699999999995
53.20195409881522 6.611160000000001
53.22685531582556 6.621410000000001
53.25175924441303 6.57039
53.27666588664027 6.568010000000001
53.30176985962693 6.54882
53.3266819565689 6.57017
53.35159677336455 6.521719999999999
53.376514312083096 6.46007
53.40162927507703 6.48709
53.42655228516116 6.48984
53.45147802340193 6.48412
53.47660125628886 6.46689
53.50153247842639 6.46318
53.52646643496923 6.44465
53.55140312799818 6.41466
53.576537409691696 6.41527
53.60147960336152 6.40653
53.626424539786164 6.3983099999999995
53.65137222105307 6.37235
53.67651758529126 6.35585
53.70147078399681 6.36306
53.72642673383343 6.34962
53.75138543689533 6.33896
53.776541917524526 6.28186
53.801506154876755 6.27025
53.826473151763246 6.26047
53.851442910284916 6.22159
53.87661054126026 6.2310300000000005
53.9015858509782 6.23845
53.92656392866066 6.1820900000000005
53.95154477641532 6.2139999999999995
53.976723591801296 6.17467
54.00171000771266 6.18668
54.02669920004598 6.16648
54.051691170915745 6.1073699999999995
54.076881204886796 6.12402
54.101878760928514 6.12283
54.12687910187696 6.08804
54.152077577768296 6.14813
54.1770835166946 6.08104
54.20209224691339 6.02139
54.22710377055121 6.01866
54.25231352511594 6.05843
54.27733066384342 5.98118
54.30235060239643 5.96004
54.32737334290836 5.93325
54.35259441062629 5.941409999999999
54.377622783395324 5.96725
54.40265396455061 5.92882
54.42768795623251 5.85728
54.45292037169559 5.85098
54.477960012857906 5.86983
54.50300247099511 5.79943
54.52804774825457 5.80857
54.55329154616743 5.72882
54.57834249018678 5.7224
54.6033962597977 5.74
54.6284528571545 5.6775199999999995
54.653708072335164 5.65039
54.67877035378786 5.66779
54.70383546947698 5.66481
54.72890342156389 5.59955
54.7541700889442 5.55319
54.77924374251975 5.59851
54.8043202390049 5.56134
54.82959552413022 5.5366599999999995
54.8546777351945 5.52037
54.87976279569621 5.48919
54.90485070780914 5.51844
54.930137506558005 5.4760599999999995
54.95523115074295 5.49446
54.98032765308844 5.47291
55.005427015775496 5.42853
55.03072536339621 5.41635
55.05583047570572 5.33024
55.080938454927676 5.34211
55.10604930325027 5.29244
55.131359235107396 5.32958
55.15647585066083 5.24464
55.181595341907496 5.28302
55.20671771104285 5.1883
55.232039262617704 5.2009099999999995
55.25716741665048 5.13261
55.28229845518636 5.15212
55.30743238042802 5.08551
55.33276558731939 5.0995800000000004
55.357905315183636 5.10459
55.383047936390035 5.05896
55.40819345314859 5.03528
55.433538351073295 5.0118599999999995
55.458689688238415 4.97428
55.483843927614096 4.9855
55.509197623043605 4.9646
55.53435769621134 4.8753400000000005
55.55952067826466 4.86103
55.5846865714265 4.83291
55.61005202069737 4.85337
55.63522376553902 4.8303
55.66039842818645 4.82227
55.68557601087004 4.84071
55.7109532500271 4.73916
55.73613670233794 4.809830000000001
