TT I
1.2716486653135266 6.867610000000001
1.2939594142134223 6.91173
1.3162702121660406 6.934189999999999
1.3385810600174564 7.27283
1.3608919586137629 6.80214
1.383202908801069 6.992380000000001
1.405513911425503 6.03775
1.4278249673332093 6.19463
1.4501343378461518 6.1643099999999995
1.4724455028545926 5.1677800000000005
1.4947567236847858 6.38416
1.517068001182951 6.24972
1.5393793361953272 5.72816
1.5616907295681737 5.83369
1.5840021821477681 5.1452
1.60631369478041 5.30511
1.6286252683124185 5.07534
1.6509369035901333 4.40225
1.6732468618895553 4.9093599999999995
1.695558623192809 4.8303400000000005
1.7178704487808514 4.86448
1.7401823395001077 4.85306
1.7625012545597203 4.4446900000000005
1.7848028405262486 5.06682
1.8071218901122095 5.06653
1.8294236121921872 4.39965
1.8517427996910911 4.58528
1.8740620574440425 4.81719
1.8963639900671978 4.85977
1.9186833908139995 5.00298
1.9409854680117449 4.98646
1.9633050151394713 4.85048
1.9856246367570705 4.60542
2.0079269371922672 4.59762
2.03024671027244 4.55012
2.0525491637446027 4.80835
2.074869091674931 4.59244
2.097171701569106 4.28828
2.1194917877373847 4.5262400000000005
2.141811954326636 4.81071
2.164114805233074 5.27992
2.186435135143035 6.0655
2.208738150935709 10.2259
2.231058647554722 18.7417
2.2533792288321184 14.5253
2.275682498336085 7.83447
2.298003251406138 5.4393199999999995
2.3203066942619714 5.78604
2.3426276225136022 5.6751
2.3649486396617507 6.0889
2.387252348930071 6.09959
2.4095735463442893 6.10314
2.4318774374315884 6.20768
2.4541988185014043 6.25641
2.476502894794693 7.2321100000000005
2.498824462909887 7.112430000000001
2.521146125856138 7.58763
2.5434504863470337 7.37415
2.5657723414244717 7.49633
2.588076895590662 8.070110000000001
2.610398946189713 8.394910000000001
2.6327210958598384 8.387830000000001
2.6550259469304716 8.09464
2.6773482972090137 8.031989999999999
2.6996533504259 8.4273
2.7219759047039602 8.557160000000001
2.744298562293959 8.63317
2.7666039251246595 8.17239
2.7889267918020164 8.40674
2.8112323652516555 8.73066
2.833555444408179 8.657919999999999
2.8558786311183852 8.89691
2.8781845268938557 8.87071
2.9005079311721484 9.393939999999999
2.9228140460410397 9.25415
2.9451376712799635 9.534310000000001
2.967444008632326 9.37528
2.9897678582247247 9.81359
3.0120918213106695 10.1416
3.0343984987899373 10.8251
3.0567226913198637 11.3083
3.079029599759726 11.719000000000001
3.101354025127254 12.3982
3.123678568232338 12.9899
3.145985829517914 12.6225
3.16831061055229 13.0861
3.1906181112775593 14.1505
3.212943133635653 14.489
3.2352682779763207 14.9898
3.2575761442691227 15.6807
3.2799015350264273 15.6259
3.302209649240067 16.4436
3.3245352898092655 17.043
3.3468436553365257 17.2752
3.369169549113219 17.2663
3.3914955708171384 18.0169
3.413804319727358 18.4178
3.4361305997334863 19.1428
3.4584396084414553 19.6881
3.4807661501462652 20.3829
3.503092824025881 20.6002
3.5254022288463154 20.8379
3.5477291695206588 21.5757
3.5700388426251948 22.229
3.5923660534916446 23.1008
3.6146934007816114 32.6641
3.637003482731501 62.1876
3.6593311053109985 67.8814
3.681641464033634 42.9844
3.7039693653009733 27.5421
3.726297407241705 25.5633
3.7486081875460804 25.6331
3.7709365132734978 25.94
3.793247578841633 26.378
3.8155761917550093 26.4288
3.8378875459837216 27.0844
3.8602164494827234 27.2934
3.882545499606844 27.7551
3.9048572932539183 28.5886
3.9271866390645718 28.7984
3.9494987298666713 29.6294
3.971828374764527 30.1784
3.9941581705403255 30.3402
4.016470713506008 31.1073
4.038800813471445 31.8753
4.061113662089144 32.4501
4.0834440696459176 33.5997
4.105774632334751 33.2137
4.128087945865126 34.2181
4.150418821249301 34.6263
4.172732448931298 35.5618
4.195063640413578 37.3319
4.2173775856475215 39.6701
4.239709096631102 60.0178
4.262040768704612 157.846
4.284355196706267 206.108
4.306687193387355 136.144
4.329001947444346 63.9967
4.35133427213731 45.0306
4.373666762177566 43.1185
4.395982011761091 43.2411
4.418314834921175 44.5803
4.44063041906622 49.5329
4.4629635787515625 56.4109
4.4852969080429785 57.4
4.5076130004776225 52.7728
4.529946671403969 53.1082
4.552263106909177 54.214
4.574597122877047 53.5547
4.596931312711224 53.2912
4.619248269273446 53.2896
4.6415828092605835 53.7307
4.663900117405352 55.0655
4.686235010953232 56.5478
4.708552674085913 57.7627
4.730887924602802 59.3381
4.753223354952695 60.8033
4.775541557023902 63.2438
4.797877349456786 65.0943
4.820195915032126 66.6687
4.842532072957498 67.3298
4.864868414979744 69.777
4.88718753227192 72.8116
4.909524244902505 74.646
4.931843734218147 75.4558
4.954180820867835 77.8224
4.976518095879839 80.1557
4.998838149695359 83.133
5.021175803844231 86.7855
5.043496238205739 89.6274
5.065834274903528 94.225
5.088172504230693 99.2251
5.1104935158799565 104.601
5.132832132875765 125.243
5.155153533596801 158.237
5.1774925416746225 194.46200000000002
5.199814334878411 373.48900000000003
5.2221537374521505 1012.73
5.244493338631803 2817.06
5.266815727034316 7857.54
5.289155727832427 12287.5
5.311478517248165 8217.98
5.333818921080011 2507.88
5.356159527788849 477.61
5.3784829252032536 180.12599999999998
5.400823940070432 144.27
5.423147747031976 126.65100000000001
5.445489173474152 117.04
5.467830807066149 114.302
5.490155234831516 112.432
5.512497285125229 107.501
5.534822130975162 103.66799999999999
5.557164601388673 100.475
5.579489868738879 97.6195
5.601832762690846 97.2405
5.6241758697774475 96.3551
5.646501775867269 95.5908
5.668845311622074 94.4186
5.691171647754637 93.3358
5.713515615597765 92.0893
5.735859800852677 91.6215
5.758186788542988 91.9563
5.780531411018185 93.6037
5.802858837297399 93.3291
5.825203900414495 93.1927
5.8475491852224 95.2516
5.869877275883075 95.1763
5.892223006467101 94.0148
5.914551544266608 94.0761
5.936897724049891 96.9352
5.959244129804903 103.25
5.981573344815301 126.266
6.0039202049061 227.31799999999998
6.026249875609095 473.35900000000004
6.04859719346037 967.063
6.070927323278297 2227.32
6.093275102315365 4576.29
6.115623113320588 5223.79
6.137953938319995 3114.67
6.160302415650845 867.207
6.182633708324452 202.28900000000002
6.2049826554078376 107.62299999999999
6.227331838745022 89.7079
6.249663839443684 83.2462
6.27201349767565 80.4066
6.294345974611799 83.0267
6.316696111167083 88.8174
6.339046488263839 84.9312
6.361379686074702 75.6007
6.383730546639482 70.5305
6.406064229255215 68.4439
6.428415576718203 68.6894
6.450749747566656 67.2452
6.47310158535871 65.6508
6.495453669698332 64.345
6.517788579421056 63.687
6.540141159237969 62.8145
6.562476565766648 62.4229
6.5848296444934045 62.1143
6.607182974060425 62.0044
6.6295191323281015 62.0206
6.651872965955752 64.0374
6.6742096296068985 78.8056
6.6965639707294615 106.04299999999999
6.71891856698715 105.685
6.741255995248479 79.943
6.763611104154477 63.8551
6.785949046381137 59.1177
6.808304671371482 58.239
6.8306605557940046 58.8028
6.852999275508618 57.925
6.875355681171544 57.2717
6.897694923437771 56.2811
6.92005185377892 56.0383
6.9423916220322655 55.5508
6.964749080490181 55.1783
6.987106804399774 55.1779
7.009447368180821 55.3904
7.031805625367033 54.7505
7.054146723727803 54.6634
7.076505517631004 54.5289
7.098864581288365 54.2938
7.121206488070854 54.3108
7.143566093607822 54.4463
7.165908543567245 55.218999999999994
7.188268694426048 55.2255
7.2106291193438095 54.8453
7.232972390625943 55.5192
7.255333366030969 63.53
7.277677189091925 95.7429
7.300038718428332 123.675
7.322400526130865 107.556
7.344745183422596 74.3546
7.367107550224791 58.4402
7.389452767901992 54.9734
7.411815697249891 54.0361
7.434161478756298 53.0729
7.456524974096713 53.5485
7.478888753837185 53.7793
7.501235387657368 53.8991
7.523599738562711 54.0459
7.545946944825532 54.287
7.568311870344528 54.4653
7.5906770845765665 54.5671
7.613025156078678 55.4851
7.635390950099687 56.6581
7.657739602662809 55.8897
7.680105979923558 55.4368
7.702472650212829 55.7429
7.724822180948224 55.8124
7.747189439655568 55.6871
7.769539560075357 55.604
7.791907410653562 56.0597
7.81425812420825 56.0255
7.836626570110925 56.3509
7.858995315087906 56.8308
7.881346924933401 57.3136
7.903716270417482 57.8319
7.926068482028405 58.0641
7.948438431475253 58.4486
7.9708086843180235 59.2022
7.993161805171116 59.9366
8.015532667162402 60.3647
8.037886398416653 61.7054
8.060257873014221 62.0941
8.082629655331942 62.5206
8.104984308787587 63.386
8.127356708900503 66.0462
8.149711981398308 70.7041
8.172085002766314 72.3001
8.194458336181368 70.523
8.216814543847752 68.8494
8.23918850371002 68.7984
8.26154533906492 69.6338
8.283919928836452 71.1306
8.306277395339652 72.2867
8.328652618483376 73.5064
8.351028159736202 75.6771
8.373386579575245 77.6227
8.395762759396959 79.2312
8.418121819038275 83.6788
8.440498640894003 93.4553
8.462875785192262 105.485
8.485235811156207 124.756
8.507613602688501 173.894
8.529974277114228 259.204
8.552352719347912 383.43199999999996
8.574731488360351 659.677
8.59709314210385 1210.94
8.619472567021075 1946.82
8.64183487789147 2196.66
8.664214962183097 1720.5
8.686577933647762 848.118
8.708958680784317 312.572
8.731339760774953 146.984
8.753703729764451 106.654
8.77608547780821 97.036
8.798450116065078 93.7431
8.820832535634787 91.5196
8.843215292401656 90.7067
8.865580941199045 90.0121
8.887964374703538 89.0534
8.910330701447199 89.8317
8.932714815164482 90.3832
8.955099270424924 88.814
8.977466620733543 86.3205
8.999851761421976 84.7681
9.022219798361645 83.1536
9.04460562795561 82.7761
9.066991803441677 82.62
9.089360876979615 82.5218
9.111747746589993 82.4829
9.13411751544971 81.7279
9.156505082664324 81.7838
9.178875550323522 81.4856
9.20126381862328 81.4787
9.223652438908596 81.7832
9.246023961427412 81.7033
9.26841328802173 81.59100000000001
9.290785518039224 81.4106
9.313175554425882 82.9531
9.335565947154315 83.3551
9.357939245086508 83.7868
9.380330352834827 83.4005
9.40270436697103 83.8467
9.425096193225055 83.5771
9.447488380180165 83.9029
9.469863475295412 83.6398
9.492256385987508 84.1287
9.514632206018318 84.65
9.537025843935714 84.8599
9.559402392368193 86.085
9.581796761000229 87.7134
9.604191496441521 88.8689
9.626569144158516 91.7698
9.648964615551032 94.2426
9.671343000390081 94.5999
9.693739211225699 93.5627
9.716135793237463 92.2449
9.738515290448102 92.3186
9.760912617143402 93.6723
9.783292860202891 95.2731
9.805690935076182 97.4044
9.828089385495742 97.9836
9.850470754023561 99.8422
9.872869957865444 105.16
9.89525208097539 115.073
9.917652041736662 123.96799999999999
9.940052382417589 128.47799999999998
9.962435644102392 146.042
9.984836746950979 185.65900000000002
10.007220771957746 245.699
10.029622640473708 344.86699999999996
10.052007432299963 519.3580000000001
10.074410069984072 830.82
10.096813093716005 1291.01
10.119199042482517 1798.43
10.141602840636468 1985.89
10.163989564971628 1515.63
10.186394141051062 806.64
10.208799107559706 341.779
10.231187001965623 167.085
10.253592751657669 119.87799999999999
10.275981430388155 110.32
10.298387966769793 109.616
10.320794897965431 110.40799999999999
10.343184759907361 109.575
10.36559248305461 105.51700000000001
10.387983138083852 103.78200000000001
10.410391656691655 108.76799999999999
10.432800574501677 120.397
10.455192425893369 136.296
10.47760214443012 161.273
10.499994797678786 206.708
10.522405320453982 290.404
10.54479877906917 420.88699999999994
10.567210109595656 542.944
10.5896218454736 583.8
10.612016518879773 488.69199999999995
10.634429067781074 325.64099999999996
10.656824555333241 184.771
10.679237920773568 115.041
10.701651695961992 93.7929
10.724048411481384 88.0143
10.746463008485165 85.4494
10.768860546937125 84.1161
10.791275969274796 82.3472
10.81369180576079 81.4467
10.836090585366925 80.2154
10.858507252467449 79.0729
10.88090686379991 78.1935
10.903324365036394 77.9317
10.925724811614439 77.3526
10.948143150509463 78.1879
10.970561909719066 77.3361
10.992963615930844 76.2075
11.015383218085756 74.3236
11.037785768347074 72.6636
11.06020621697282 72.0297
11.082627090322113 71.4942
11.105030913430326 70.8441
11.12745263854165 71.0217
11.149857314510728 72.6872
11.172279894912576 76.2393
11.194702904450653 76.4001
11.217108866490921 73.6643
11.239532736615194 70.8923
11.26193956033512 69.4747
11.284364294577085 68.5225
11.306789462371718 66.9897
11.329197585398376 66.143
11.351623622610898 66.4222
11.37403261614354 65.5968
11.396459526308487 65.4005
11.418869393879497 64.8732
11.441297180532617 64.524
11.463725406927658 64.2155
11.486136592353875 63.848
11.508565700543707 64.0356
11.530977768845315 65.3135
11.553407762368774 65.4161
11.575838200059769 65.1384
11.598251599479612 64.0931
11.620682927815501 62.9692
11.64309721895548 62.8272
11.665529441478206 62.4742
11.687962112597958 62.1946
11.710377748130886 62.4907
11.732811318753434 62.19
11.755227854859067 62.3569
11.777662328529495 62.1625
11.800079768750786 61.883
11.822515149015453 61.7952
11.844950984084935 62.15
11.867369787303163 61.9578
11.889806534289491 62.1046
11.912226250487029 62.2767
11.934663912939751 62.2288
11.9571020346363 62.3702
11.979523127133968 62.7046
12.001962169624331 63.6029
12.024384183972964 65.0205
12.046824150809913 68.2998
12.069264581333726 72.5597
12.091687985297767 78.0687
12.11412934550045 87.1037
12.136553680195208 102.836
12.158995973632788 126.48899999999999
12.181438735204349 157.796
12.20386447284199 192.305
12.226308172985636 213.98
12.24873485024193 203.959
12.271179492516982 165.166
12.293607112949127 117.09899999999999
12.316052700916226 87.5719
12.338498763250042 73.3658
12.360927805303868 67.0481
12.383374818673879 64.8725
12.405804812803074 63.4014
12.428252780773262 63.5243
12.45070122756722 63.5881
12.473132656675375 63.4215
12.49558206341869 63.6094
12.518014453510101 63.7556
12.540464823770117 64.0055
12.562915677315177 64.2539
12.58534951575545 64.6485
12.607801338171472 65.6663
12.630236146511358 69.1122
12.652688941369085 71.9313
12.675124723177234 72.1428
12.697578494048786 70.1754
12.720032754458185 67.9482
12.742470003354093 67.0246
12.764925245138771 67.2513
12.787363476431278 67.2372
12.809819703166806 67.8462
12.83227642391173 68.4511
12.854716135692716 68.9014
12.877173846755147 70.1006
12.899614549869717 70.3728
12.9220732548287 71.4849
12.94453245827299 71.8265
12.966974655289818 72.8135
12.989434858002571 73.8924
13.011878055298721 74.4835
13.034339260862497 75.4909
13.056800969391883 76.7707
13.079245674017244 79.3873
13.101708390774869 82.206
13.12415410463411 90.3877
13.146617833206086 100.666
13.169064559883248 111.34899999999999
13.191529303857127 125.792
13.213994557076367 148.559
13.236442809902437 188.21599999999998
13.258909083908291 247.729
13.28135835851934 315.53700000000003
13.30382565690295 388.72
13.326293469022952 436.01599999999996
13.348744283242008 419.995
13.371213125129904 341.50199999999995
13.39366497011003 240.285
13.416134845360597 158.463
13.438605238843131 116.98899999999999
13.46105863690397 104.118
13.483530069144786 105.595
13.505984506951902 110.463
13.528456981549432 119.85600000000001
13.550929978879088 134.632
13.573385983253365 159.329
13.595860028340867 200.09
13.618317081455832 256.67900000000003
13.64079217790333 315.529
13.663250283359057 363.79699999999997
13.685726434770173 378.49199999999996
13.708203115221277 324.85400000000004
13.730662806148091 244.842
13.75314054697177 167.32299999999998
13.775601299246777 117.272
13.798080104050406 92.4323
13.820559442405358 83.3611
13.843021793671388 80.5691
13.865502201420897 79.2747
13.887965623051947 78.7877
13.910447103807167 77.6739
13.932929122629764 76.3241
13.955394156785959 75.9884
13.977877254034569 75.0816
14.000343367582113 74.2206
14.022827546871707 73.6177
14.045294743423524 72.9831
14.06778000837062 72.0319
14.090265817715476 71.7261
14.112734645763819 71.8561
14.13522154619454 71.3868
14.157691466286913 71.273
14.180179461423874 71.1522
14.202668005486178 70.7361
14.22513957064374 70.0586
14.247629214846473 69.7658
14.270101881097517 69.4078
14.29259262906496 69.6116
14.315083930490205 70.0518
14.337558255389705 69.8048
14.360050666019726 69.8824
14.382526101071944 69.0101
14.405019624534942 68.4905
14.427513705993134 68.2165
14.449990813291825 68.2882
14.47248601302899 68.1121
14.49496423954951 68.2493
14.517460561197822 68.1139
14.539939910570322 67.7395
14.562437357763558 68.2718
14.58493536931253 69.0991
14.607416409993311 69.7703
14.62991555254159 70.2079
14.652397725157423 70.0951
14.674898002342799 69.8763
14.697398848433282 69.9272
14.719882725991326 71.0042
14.74238471217934 72.2573
14.764869730765593 75.9278
14.787372860692983 79.2364
14.809876564079925 83.0462
14.83236330125751 88.5634
14.854868153850365 97.1869
14.877356041159485 111.23299999999999
14.899862046604186 131.10299999999998
14.922351087688757 158.594
14.944858249632887 187.95
14.967365991421232 216.03900000000002
14.989856770231246 228.36900000000003
15.012365673994204 219.692
15.03485761569738 185.521
15.05736768508665 140.844
15.07987833888692 106.78
15.102372032001655 85.9415
15.124883856909658 74.7203
15.14737872204565 71.0324
15.169891721717274 69.8067
15.192405310371893 69.4814
15.214901940621196 69.4175
15.237416709527137 69.1918
15.259914520936249 69.5169
15.282430473753607 68.69
15.304947020131227 67.5996
15.327446610371178 66.9502
15.349964346154254 66.4273
15.372465126703139 66.1363
15.394984055556009 65.7477
15.417486030076159 65.5881
15.44000615566487 65.4502
15.462526881230803 65.3086
15.485030653812652 65.4391
15.507552581617434 65.2095
15.530057557334603 65.3302
15.55258069104857 65.3261
15.575104429329837 65.5032
15.597611216864632 65.3116
15.620136166564563 65.7309
15.6426441664095 67.0608
15.665170331202765 69.62100000000001
15.687697105158826 72.3558
15.710206930593545 75.5961
15.732734925158933 79.2868
15.755245972089478 85.446
15.77777519094324 94.8097
15.800287463046663 108.876
15.822817909869592 129.464
15.84534897229804 152.174
15.867863089299354 177.59799999999998
15.890395385222186 194.65099999999998
15.912910736597423 196.166
15.935444269699861 179.65099999999998
15.957978423016485 146.033
15.980495633101265 113.58
16.003031029129367 89.7054
16.02554948280019 72.7185
16.048086125229432 65.9266
16.070623392487107 63.7145
16.09314371869582 62.9424
16.11568223789321 61.8954
16.13820381691126 60.8917
16.160743591742527 60.2981
16.183283996022084 59.8481
16.205807461423195 58.7657
16.228349126881973 58.2911
16.25087385432698 58.2106
16.27341678466365 57.4117
16.29594277784926 57.3679
16.31848697676433 57.5174
16.341031811604868 57.5776
16.36355971058487 57.6007
16.3861058195587 57.4153
16.40863499352978 56.5795
16.431182380342005 55.958999999999996
16.453730407713202 55.4719
16.476261501364792 55.0835
16.498810812136167 54.7566
16.52134319004079 54.922
16.54389378792203 54.8176
16.566445031001553 54.6049
16.588979342490088 54.6002
16.61153187824822 54.3637
16.634067483263312 54.1861
16.656621315414416 54.2878
16.679175797408888 53.7448
16.701713349928728 53.9782
16.72426913389191 54.3431
16.74680798922351 54.2643
16.76936507887444 54.3075
16.791905240734874 54.1884
16.814463639794468 54.1934
16.837022695210294 54.2109
16.859564824093756 54.4305
16.882125194503903 54.9012
16.904668639217885 55.1244
16.927230328348003 55.4952
16.949792678493612 55.5032
16.972338104193863 55.1719
16.994901778652235 54.9929
17.017448529496576 55.1684
17.040013531998152 55.4898
17.06257920018044 56.0011
17.0851279459922 56.6068
17.107694947817667 57.558
17.130245028099072 58.217
17.15281336730298 59.3784
17.17536478578733 61.3063
17.19793446610687 63.4887
17.220504818648422 66.7814
17.243058251703697 70.1553
17.265629950971032 75.3127
17.288184731571736 80.1266
17.310757781306908 83.2941
17.33333150794385 83.5479
17.355888317140174 81.1627
17.37846339986244 75.4156
17.401021565958885 68.7934
17.42359800851343 63.4282
17.44617513265564 60.6617
17.468735341390783 59.1562
17.491261035594565 58.3998
17.51396340099364 58.2227
17.536490463869136 58.5128
17.559018209820174 58.379
17.58154663977963 58.5793
17.604251766089718 58.7502
17.626781572227713 58.9187
17.64931206518155 59.297
17.671843245885103 59.6652
17.69455114821572 59.9237
17.717083712612634 60.1633
17.739616967569667 60.3799
17.762150914021706 60.7265
17.78486160749854 60.8215
17.807396945166804 61.6201
17.829932977143503 62.6872
17.85246970436452 64.4756
17.875183204129467 66.3423
17.897721330097664 68.0345
17.920260154126645 70.1834
17.942799677153296 73.1471
17.9655159983646 76.8882
17.988056927677544 82.6233
18.010598558807683 90.8325
18.033140892692916 101.568
18.05586005052525 113.486
18.07840379824407 125.33
18.10094825154059 135.374
18.12366954819864 141.641
18.146215420998306 137.63299999999998
18.16876200220057 127.074
18.191309292745153 112.56700000000001
18.214033452627167 98.7663
18.236582170236648 88.7608
18.259131600016456 84.6147
18.281681742907335 85.9569
18.304408781233683 91.2721
18.32696035875955 96.9825
18.349512652227624 101.74600000000001
18.372065662579683 105.584
18.394795594587553 105.465
18.41735004715306 100.512
18.43990521943684 92.4204
18.46246111238171 82.6494
18.485193953325208 74.0289
18.507751296070428 67.6665
18.530309362314178 64.2286
18.552868153000343 62.4651
18.57560391815056 61.3585
18.59816416623245 61.003
18.620725141597372 60.6215
18.643286845190268 60.1234
18.666025549835414 59.6039
18.688588718427933 58.988
18.711152618092243 59.0075
18.73389353884365 58.9428
18.75645890921984 58.2124
18.77902501351406 58.0864
18.801591852673102 57.9758
18.824335739722738 57.5138
18.846904057212626 57.6115
18.8694731124168 57.193000000000005
18.89204290628315 57.1317
18.914789774966803 56.9021
18.937361054791623 56.5762
18.959933076131318 56.3494
18.982505839934877 56.3416
19.00525570560582 56.5236
19.027829963004184 56.2697
19.05040496572238 56.4507
19.072980714710468 56.443000000000005
19.095733592739563 56.59
19.11831084296757 56.7705
19.140888842324735 57.1628
19.16346759176222 57.2487
19.18622349753803 57.95
19.208803755869358 58.7541
19.231384767143577 59.9758
19.253966532312948 61.7081
19.276725481241822 63.9291
19.29930876296784 66.4142
19.3218928014549 69.7051
19.34465404436217 72.6417
19.36723960516257 74.9029
19.389825925592426 75.7733
19.412413006605938 74.3124
19.43517731967805 70.2701
19.457765930683355 65.6933
19.48035530514408 61.1502
19.50294544401556 57.9003
19.525712842708348 55.4449
19.54830451925909 54.2333
19.570896963095727 53.6018
19.593490175174704 53.3408
19.616260674962184 53.4465
19.638855432416964 53.1154
19.661450960992624 52.9749
19.68404726164677 52.9946
19.706820878021247 52.7635
19.729418731756834 53.0068
19.752017360452857 52.736000000000004
19.77461676506804 52.9283
19.797393513540218 53.0536
19.819994478951667 53.3545
19.84259622316767 53.6862
19.8651987471481 54.2583
19.887978643247177 54.5751
19.91058273574792 54.9391
19.933187610901943 55.7024
19.955969879466828 56.6754
19.97857632894404 58.5494
20.00118356396599 60.431000000000004
20.023791585494575 62.732
20.046577028914875 65.7285
20.069186632506966 67.9702
20.091797025500632 69.4068
20.114408208858933 69.6792
20.137196842715273 68.8094
20.159809615886765 66.939
20.18242318232135 64.1682
20.20503754298326 62.4369
20.227829382875154 61.6922
20.250445341109344 61.8366
20.27306209647285 62.7829
20.29567964993108 64.1252
20.31847471147704 65.0368
20.34109387027612 65.5001
20.363713830075454 64.4493
20.386334591841646 62.8762
20.409132890679302 60.0246
20.431755265564437 56.8162
20.454378445325528 54.1631
20.477002430930366 52.2104
20.499803982716553 51.3575
20.522429589228004 50.7423
20.54505600449589 50.1937
20.567683229489194 50.2101
20.590488049900088 49.9266
20.61311690359731 49.621
20.63574656993626 49.5701
20.658553853717297 49.0502
20.681185154618298 49.1215
20.703817271080066 48.8539
20.72645020407368 48.6083
20.749260783967177 48.5343
20.771895359337133 48.4651
20.794530754161617 48.5071
20.817166969412938 48.3947
20.83998086114876 48.2631
20.86261872660049 48.1523
20.885257415405402 48.1494
20.90789692853701 48.0174
20.930714147864748 47.8823
20.953355319030678 48.199
20.97599731745334 48.3019
20.99864014410749 48.0819
21.021460706796564 48.1026
21.044105199328826 48.3534
21.06675052302631 48.4429
21.089396678865015 48.7286
21.112220600704806 49.1247
21.134868430275347 49.3621
21.15751709492456 49.4679
21.180166595629693 49.8606
21.202993892429635 50.5338
21.22564507473034 50.806000000000004
21.24829709602816 50.9402
21.27112693608965 50.9686
21.293780644891275 50.8292
21.316435195634053 50.0988
21.339090589297417 49.3609
21.361923832041875 48.933
21.384580921090404 48.3333
21.407238856007325 47.8754
21.429897637773326 47.8505
21.45273429906592 47.9384
21.475394784108598 47.9047
21.498056118951983 47.8985
21.520718304578022 48.1078
21.543558400304388 48.3128
21.566222297108816 48.5035
21.58888704765135 48.6355
21.61155265291521 48.9142
21.63439619898156 49.3302
21.657063523335786 49.4315
21.67973170537063 49.8981
21.7024007460706 50.4154
21.72524775840385 51.1784
21.747918526116475 52.2929
21.770590155457388 53.5659
21.79326264741238 55.1162
21.816113141960237 57.0946
21.838787368860547 59.1321
21.861462461341976 61.0563
21.884315579735777 63.0135
21.90699241312273 64.06
21.92967011506078 64.2361
21.95234868653799 63.3789
21.9752053151131 62.0595
21.997885635446785 59.6661
22.020566828293532 58.0942
22.04324889464272 56.9291
22.066109049404666 55.9125
22.088792872571794 55.6738
22.111477572219204 55.795
22.1341631493376 55.6772
22.157026846313123 55.3214
22.179714188221507 54.4701
22.202402410582668 53.1472
22.22509151438863 51.6542
22.24795876962584 50.4439
22.270649646204486 49.6229
22.293341407213727 49.1153
22.316034053646906 48.7296
22.338904883215342 48.5298
22.36159931041458 48.4782
22.38429462602756 48.3817
22.40699083104897 48.4091
22.429865251039757 48.2427
22.452563244831367 48.4136
22.47526213102522 48.246
22.49813925616515 48.0968
22.520839937143307 48.0077
22.543541513520587 48.3537
22.56624398629403 47.9808
22.589124730075895 47.9894
22.611829005656723 48.3565
22.63453418063466 48.3004
22.657240256008077 48.4035
22.680124634582935 48.5428
22.70283252079775 48.6969
22.725541310413075 49.0142
22.74825100442868 49.163999999999994
22.771139033969575 49.6641
22.79385054687155 50.1035
22.81656296718292 50.6362
22.83927629590484 51.578
22.862167992606945 52.732
22.88488314827121 54.1218
22.907599215359284 55.0374
22.93031619487366 56.1865
22.953211574954405 57.0214
22.975930389478226 57.6157
22.998650119445763 57.4766
23.02137076586092 56.6183
23.044269845560063 55.1836
23.06699233506288 53.522
23.089715744034912 51.7358
23.112617610931565 50.1995
23.135342869061212 49.0598
23.158069049684816 48.4188
23.1807961538087 48.2383
23.20370174880544 48.3159
23.226430710184808 48.4883
23.249160598093425 48.5652
23.271891413539002 48.2757
23.294800752937697 48.3128
23.31753343374794 48.5121
23.340267045128353 48.6186
23.36300158808808 49.0514
23.38591468821339 49.3656
23.408651104658304 49.821999999999996
23.431388455719986 50.3956
23.454126742409 51.3504
23.4770436196085 52.4112
23.499783787914662 53.7691
23.522524894889884 54.8496
23.54526694154616 55.9501
23.56818761219047 56.9902
23.59093154860734 57.4205
23.613676427751283 57.5322
23.636422250635754 56.3796
23.659346731118656 54.4101
23.68209445191868 52.3718
23.704843119509587 50.3906
23.72759273490623 48.6432
23.750521041644767 47.3337
23.77327256312355 46.5934
23.796025035462787 45.8967
23.818956224555475 45.4791
23.841710609113413 45.4842
23.86446594758979 45.3859
23.887222241002014 44.9952
23.910157285144578 44.766999999999996
23.932915498962537 44.7298
23.955674670778713 44.5866
23.978434801611975 44.4122
24.001373717286125 44.2849
24.024135776723917 44.1959
24.046898798245582 44.1193
24.06966278287146 43.99100000000001
24.092605586582614 43.6544
24.115371508023642 43.6182
24.1381383956401 43.4025
24.16090625045381 43.309
24.183852958731244 43.5315
24.206622758582608 43.4525
24.229393528706886 43.0977
24.252165270127392 43.402
24.27511589952438 43.0649
24.297889594216997 42.9787
24.32066426328598 42.7069
24.34343990775613 42.6205
24.36639447485003 42.7259
24.38917208083877 42.7081
24.41195066531332 42.5176
24.43490819850244 42.6425
24.457688750692377 42.4941
24.48047028445616 42.495
24.503252800821233 42.6388
24.526214300784112 42.6214
24.548998793132213 42.5084
24.57178427117417 42.5319
24.59457073593893 42.6111
24.617536219319863 42.4117
24.64032466834748 42.4262
24.663114107195035 42.5245
24.685904536893013 42.1469
24.708874020360852 42.1184
24.731666442613744 42.1309
24.754459858818787 42.012
24.777254270007962 42.0059
24.80022777025625 41.873999999999995
24.82302418230472 41.857
24.845821592443674 41.8948
24.86862000170663 41.7668
24.891597535453727 41.6179
24.914397953892728 41.8426
24.93719937456671 41.733000000000004
24.96000179851076 41.9518
24.98298338249997 42.1876
25.00578782394922 42.4001
25.028593271784167 42.5664
25.05157790644186 42.8561
25.07438537804115 42.9845
25.097193859145293 43.1414
25.120003350792075 43.4352
25.142992065061257 43.7655
25.165803588823465 44.1233
25.18861612625217 44.3235
25.211429678386736 44.3312
25.234422489079968 44.3972
25.257238081693636 44.4565
25.280054692141732 44.4661
25.3028723214652 44.4594
25.325869245420463 44.5506
25.348688923599397 44.6431
25.371509623787006 44.4131
25.394331347025812 44.0474
25.41733240110666 43.6166
25.440156181590016 42.8719
25.46298098826268 42.3032
25.48580682216873 41.8257
25.50881202326435 41.2847
25.53163992281684 40.8473
25.55446885274561 40.7222
25.577298814096377 40.4712
25.600308179121807 40.2977
25.623140214533745 40.4443
25.64597328451537 40.4132
25.66898578564376 40.1316
25.691820936010206 40.2851
25.714657124097695 40.1495
25.737494350954734 40.1745
25.760511045684957 40.1153
25.783350361364224 40.1344
25.806190718969255 40.1047
25.82903211955018 40.2368
25.852053024868923 40.2147
25.874896522722523 40.2976
25.897741066713106 40.148
25.920586657892454 40.3443
25.943611790812668 40.4933
25.966459487728237 40.6331
25.989308234998564 40.6989
26.01215803367705 41.0756
26.03518741123814 41.1375
26.05803932412957 41.2796
26.080892291600094 41.1844
26.10374631470478 41.1931
26.12677995397268 41.2196
26.14963609978026 41.1834
26.172493304397875 40.8911
26.19535156888223 40.746
26.218389486949604 40.3922
26.241249882640123 40.0265
26.26411134137826 39.754
26.28715248187403 39.7937
26.31001607820869 39.6728
26.3328807407756 39.4745
26.35574647063438 39.6933
26.37879191991473 39.5692
26.401659795896734 39.6678
26.424528742360263 39.9239
26.447398760366614 40.0267
26.470448535598294 40.1045
26.49332070826805 40.2924
26.516193955675355 40.6107
26.53906827888316 40.9424
26.562122397260108 41.1945
26.584998883685063 41.4038
26.607876449110325 41.6587
26.63075509460056 41.7735
26.65381357334404 41.9087
26.67669439061878 41.7708
26.699576291163382 41.6279
26.722459276044212 41.4113
26.745522132402975 41.2189
26.768407297649354 40.9439
26.791293550442003 40.5865
26.814180891848974 40.3323
26.837248143099337 40.0397
26.860137673466657 39.9867
26.88302829566349 39.794000000000004
26.90592001075963 39.5424
26.92899167420566 39.3966
26.951885586870763 39.0324
26.974780595655517 38.902
26.99785558178161 38.6958
27.020752794605112 38.6571
27.043651106772522 38.5985
27.06655051935668 38.501999999999995
27.089629948036183 38.4287
27.112531573292053 38.3075
27.135434302194138 38.4397
27.158338135817015 38.2107
27.181422024430987 38.2205
27.204328079372566 38.0609
27.22723524226965 38.1448
27.250143514198573 38.2787
27.273231880156334 38.21
27.296142382065014 37.9936
27.319053996245536 37.9296
27.341966723775965 37.931999999999995
27.365059584515222 38.107
27.38797455070062 38.1798
27.410890633481237 38.0613
27.433807833936918 38.1235
27.456905206923906 38.2107
27.47982465472398 38.1207
27.502745223449743 38.2015
27.525666914182825 38.2694
27.548768816912457 38.2403
27.571692763693633 38.1812
27.59461783573812 38.0422
27.617723149491244 37.8061
27.640650484125285 37.7323
27.66357894728264 37.7191
27.686508540048052 37.7099
27.709618414237887 37.7121
27.732550278321757 37.6311
27.755483275279115 37.5166
27.778417406196485 37.4161
27.801531858397514 37.5091
27.824468269376716 37.3846
27.847405817586786 37.3965
27.870344504116094 37.6856
27.893463551932008 37.7968
27.916404527281053 38.0553
27.93934664422563 38.1135
27.962289903855886 37.996
27.98541356491974 38.3976
28.00835912214229 38.5387
28.03130582533231 38.6424
28.054253675581805 38.8402
28.077381967556104 38.7153
28.100332124185126 38.5927
28.123283431160893 38.6952
28.146235889577238 38.4218
28.169368830154156 38.3572
28.192323603752033 38.0152
28.215279532083304 37.7588
28.238415973016764 37.6263
28.261374223145094 37.5695
28.284333631303806 37.2535
28.307294198589954 37.1188
28.330435319167677 36.7659
28.353398217078915 36.5187
28.376362277420153 36.2749
28.39932750129032 36.2136
28.422473319286713 36.1043
28.44544088262495 36.1162
28.468409612800283 35.9132
28.491379510913497 35.641999999999996
28.51453004413313 35.5229
28.53750229057244 35.4908
28.56047570826344 35.4508
28.583450298308804 35.5308
28.606605564586562 35.2287
28.629582511831156 35.2699
28.65256063474956 35.1261
28.675539934446338 35.2957
28.698699951647605 35.1551
28.72168161743193 35.174
28.74466446331978 35.1829
28.767648490417624 35.0946
28.790813276438353 35.1058
28.813799678527303 35.1481
28.836787265157085 35.0535
28.859955641890075 35.1154
28.882945610203045 35.1564
28.905936766392035 34.9616
28.928929111566863 34.9713
28.952102288520145 34.8637
28.975097024308607 34.7836
28.998092952423807 34.5486
29.021090073977508 34.57
29.04426806913204 34.4582
29.067267590245258 34.3195
29.090268308143695 34.334
29.11327022394099 34.2172
29.13645305530891 34.14
29.159457379627167 34.0928
29.18246290519685 34.0302
29.20546963313352 34.0134
29.22865731875826 34.0732
29.25166646419296 34.0053
29.27467681535305 33.9228
29.29768837335608 34.0741
29.320880931312562 33.9654
29.34389491580634 33.8271
29.366910110507334 33.9516
29.38992651653503 33.9172
29.41312396492981 33.8115
29.436142806456754 33.8131
29.45916286268059 33.7916
29.48236399319994 33.6461
29.50538649169417 33.3502
29.528410208259935 33.3959
29.55143514402014 33.1631
29.574641196749695 33.0189
29.597668583816574 32.8621
29.6206971934585 32.8675
29.64372702680042 32.9029
29.666938019934474 32.7178
29.689970313635285 32.7045
29.713003834422636 32.6162
29.73603858342347 32.6769
29.759254535188578 32.4503
29.78229175361658 32.4399
29.80533020365064 32.5138
29.82836988641968 32.4798
29.85159081507472 32.4494
29.874632976355343 32.3119
29.89767637376955 32.4338
29.920721008448314 32.3448
29.9439469322847 32.3916
29.96699405457564 32.2832
29.9900424175358 32.2515
30.013092022298157 32.1621
30.03632295963995 32.0625
30.059375061131373 32.2841
30.08242840783577 32.2325
30.105483000888153 32.1187
30.128718970092244 32.0165
30.151776069006917 32.0519
30.17483441768648 32.1251
30.198074175317235 32.0416
30.221135036724256 32.0853
30.24419715131772 32.0494
30.267260520236203 31.8725
30.290505341942243 31.9837
30.313571232750228 32.0004
30.336638381310948 32.0741
30.35970678876503 31.898000000000003
30.38295669299435 31.8746
30.40602763151657 31.9621
30.429099832366074 31.8397
30.452173296685572 31.7816
30.47542830191959 31.7887
30.498504306502497 31.712
30.521581577995562 31.805999999999997
30.544660117543582 31.9781
30.56792024229725 31.8971
30.59100133132069 31.7672
30.614083691845494 31.7552
30.637167325018545 31.9799
30.660432587840603 32.0228
30.683518779717886 31.9083
30.70660624769615 32.0481
30.729694992924372 31.930999999999997
30.75296541239743 31.9294
30.77605672557558 31.756999999999998
30.799149319462742 31.8002
30.8224236211637 31.7272
30.845518789950724 31.5527
30.868615242910597 31.5419
30.891712981195973 31.2375
30.91499247215866 31.2481
30.938092794619365 31.2665
30.96119440587579 31.1754
30.984297307082752 31.0854
31.00758200598383 30.9722
31.030687500658694 30.9506
31.053794288760695 30.796
31.076902371446767 30.8008
31.100192296997445 30.8693
31.12330298246119 30.7436
31.14641496599209 30.5654
31.169528248749216 30.6618
31.19282341969534 30.705
31.215939314557186 30.6985
31.239056512134788 30.6444
31.262175013589378 30.6539
31.28547544871168 30.5877
31.30859657161541 30.474
31.331719001892175 30.4866
31.35484274070538 30.6985
31.378148458819545 30.6738
31.401274828443725 30.569000000000003
31.424402510106933 30.638
31.447712205419993 30.6751
31.470842524931633 30.5805
31.493974159989783 30.5757
31.51710711176168 30.4739
31.54042212308802 30.5191
31.563557722100917 30.4676
31.586694641341655 30.2276
31.609832881979628 30.1769
31.63315322823208 30.1516
31.656294125521327 30.0104
31.679436347728515 30.0676
31.70257989602529 30.0516
31.725905596152327 29.8237
31.74905181052835 29.8258
31.772199354521323 29.9032
31.79534822930507 29.8286
31.818679302290967 29.8923
31.84183085259981 29.8105
31.864983737233473 29.8273
31.88813795736804 29.9221
31.911474422233013 29.7519
31.934631327356435 29.8606
31.9577895715215 29.8331
31.980949155906522 29.8875
32.004291031706956 29.844
32.027453310562606 29.6548
32.05061693318573 29.5072
32.07396288236386 29.4456
32.09712920658542 29.3632
32.12029687812702 29.2549
32.14346589817093 29.2569
32.166817291729984 29.1723
32.18998902288583 29.1455
32.21316210610336 29.0194
32.23633654256711 28.9069
32.259693399663725 28.8673
32.282870556771144 28.8984
32.30604907069099 28.8215
32.329228942610065 28.8582
32.35259128243769 28.737
32.375773884550505 28.717
32.398957848235646 28.6447
32.422143174682176 28.6651
32.445511016471215 28.553
32.468699082679954 28.4514
32.49188851523011 28.4095
32.51507931531304 28.3476
32.538452678331 28.2765
32.56164622776311 28.2349
32.58484114831493 28.1831
32.60803744118015 28.1657
32.631416344731896 28.1745
32.654615396551876 28.1544
32.67781582427913 28.1643
32.701198898634416 28.0309
32.72440209253756 27.9404
32.747606665947124 28.0284
32.77081262006088 27.8937
32.79420126883317 27.9409
32.81740999876112 27.975
32.840620112999424 27.8139
32.86383161274818 27.7663
32.88722585534586 27.693
32.91044014056596 27.8006
32.933655814909734 27.7272
32.95687287957963 27.7527
32.98027273544904 27.6463
33.00349259526636 27.5601
33.026713849030116 27.5909
33.04993649794511 27.4706
33.073341986570746 27.5412
33.09656744032826 27.5658
33.11979429286444 27.5335
33.14302254538647 27.5593
33.166433686291185 27.5152
33.18966475336992 27.4419
33.212897224069096 27.3504
33.23613109959831 27.2922
33.259547912343415 27.3365
33.2827846121627 27.3133
33.306022720453775 27.2447
33.32926223842861 27.1259
33.352684742614166 27.1544
33.37592709463173 27.0207
33.399170859982064 27.0296
33.422597648419426 26.9982
33.44584425514446 26.8073
33.46909227885668 26.7839
33.4923417207723 26.6659
33.51577423505344 26.7116
33.539026528130385 26.6526
33.56228024307245 26.7078
33.585535381098246 26.5317
33.60897364093058 26.475
33.63223163992385 26.4507
33.6554910656699 26.396
33.678751919389796 26.4042
33.702195944520106 26.2911
33.72545966903325 26.3528
33.74872482519663 26.2581
33.771991414233746 26.2544
33.79544122444841 26.2759
33.81871069412428 26.0941
33.84198160035767 26.1817
33.86525394437455 26.2653
33.88870955949969 26.1246
33.911984794020626 26.0573
33.93526147001624 25.9656
33.958539588715006 25.9236
33.98200102861669 25.8296
34.0052820477047 25.7874
34.02856451319451 25.7893
34.05203033759056 25.7479
34.07531571090147 25.8065
34.09860253431845 25.7329
34.121890809074316 25.6491
34.145362493118924 25.6465
34.16865368561615 25.5539
34.191946333164054 25.4628
34.21524043699793 25.4091
34.23871800066799 25.4477
34.26201503218366 25.3058
34.28531352370466 25.3477
34.30861347646881 25.3144
34.33209693978188 25.2164
34.3553998301885 25.2713
34.378704185565205 25.2002
34.402010007152356 25.1212
34.42549939016683 25.1444
34.44880815937748 25.085
34.472118398533134 25.0045
34.49543010887669 24.9709
34.51892543169198 24.8918
34.54224009966052 24.93
34.56555624255917 24.9631
34.58887386163339 24.7928
34.61237514439016 24.6641
34.6356957311114 24.6659
34.65901779775809 24.7732
34.68252356662995 24.6983
34.705848608458616 24.6613
34.72917513396849 24.6203
34.75250314440949 24.601999999999997
34.77601490857862 24.5059
34.799345904259795 24.4662
34.82267838863559 24.5069
34.846012362958525 24.3727
34.869530142679984 24.3534
34.89286711232212 24.320999999999998
34.91620557568269 24.393
34.93954553401677 24.3221
34.9630693495876 24.2519
34.986412313340814 24.2293
35.00975677584668 24.2644
35.033102738362956 24.1499
35.05663261012228 24.1054
35.0799815881786 24.163
35.10333207003229 24.0602
35.12668405694369 24.0656
35.150220005273056 24.0116
35.17357501786656 24.0284
35.19693153931268 23.9925
35.220289570874385 23.8757
35.24383161619786 23.9024
35.267192683604904 23.910999999999998
35.290555264930376 23.8595
35.314101899412165 23.862
35.33746752422433 23.8716
35.36083466676374 23.901
35.38420332829803 23.7081
35.407756095629054 23.7262
35.43112781085063 23.7248
35.45450104888391 23.6544
35.477875810999194 23.7206
35.50143473172161 23.6144
35.52481255774625 23.6689
35.54819191167777 23.525
35.57157279478914 23.5078
35.595137889488406 23.4632
35.61852184675279 23.4355
35.641907337029984 23.4321
35.665294361595684 23.3488
35.68886565090076 23.3497
35.7122557598848 23.2889
35.73564740699838 23.2359
35.759040593519934 23.2006
35.78261809810353 23.2625
35.80601437933051 23.1647
35.829412203814705 23.1176
35.85281157283719 23.0428
35.876395313415884 23.089000000000002
35.8997977874528 23.0516
35.92320180988546 23.0128
35.946790244133936 22.9429
35.97019737933222 22.836
35.993606066789866 22.8537
36.01701630779276 22.8598
36.04061101440684 22.7861
36.06402437852291 22.8422
36.08743930005611 22.7915
36.1108557802951 22.6942
36.13445678011326 22.6443
36.15787639383515 22.5838
36.18129757014299 22.6177
36.20472031032821 22.5874
36.22832762423364 22.4394
36.25175350829375 22.4817
36.275180960119776 22.404
36.298609981005924 22.4531
36.32222362992669 22.4277
36.34565580510207 22.375999999999998
36.36908955323448 22.3014
36.39252487562093 22.2029
36.416144880530226 22.2243
36.43958336764275 22.2368
36.463023432914625 22.2294
36.486465077645676 22.1715
36.51009145956204 22.2058
36.53353627947859 22.15
36.55698268276811 22.1342
36.58043067073321 22.1088
36.60406345072071 21.9698
36.62751462435344 22.0213
36.65096738658405 21.9746
36.67460498210655 21.8671
36.69806093788647 21.8565
36.72151848619297 21.8026
36.744977628333636 21.7845
36.76862165890998 21.7076
36.79208400512205 21.7828
36.81554794910557 21.7183
36.83901349217101 21.6485
36.862663978991606 21.6459
36.88613273667352 21.604
36.90960309738324 21.6883
36.933075062434064 21.6
36.95673202673572 21.5579
36.98020721697122 21.4737
37.003684015502365 21.4174
37.027162423645365 21.4247
37.050825886711465 21.3542
37.07430753063053 21.2878
37.09779078812467 21.2767
37.121275660513014 21.2751
37.144945643673694 21.1959
37.16843376245278 21.1472
37.19192350009803 21.1373
37.215414857931435 21.1493
37.239091382563885 21.0861
37.262585997426164 21.0782
37.28608223645736 21.0734
37.309763684451696 20.9721
37.33326318851098 21.0156
37.356764320726555 20.9213
37.380267082425526 20.9529
37.40395510942588 20.8926
37.42746114683234 20.7992
37.45096881771841 20.7643
37.474478123414166 20.7642
37.49817275092816 20.7252
37.52168534303452 20.6983
37.54519957395567 20.6675
37.568715445024665 20.6379
37.592416694607714 20.5643
37.61593586281424 20.5672
37.63945667518264 20.6219
37.66297913304891 20.5321
37.68668702630454 20.4622
37.710212792059274 20.4457
37.733740207334854 20.3593
37.757269273470364 20.3166
37.780983832050374 20.305999999999997
37.80451621684926 20.2488
37.82805025654007 20.2621
37.851585952464795 20.2622
37.8753071980695 20.2055
37.89884622345676 20.1611
37.92238690911902 20.0955
37.94611318753442 20.014
37.969657210779765 20.0537
37.99320289834801 20.0738
38.016750251586465 19.9473
38.04048325513017 19.8975
38.06403395679343 19.8667
38.087586328183946 19.8546
38.11114037065203 19.8927
38.13488012115898 19.8757
38.1584375229181 19.8023
38.181996599821 19.7569
38.205557353221124 19.7904
38.229303872575656 19.7388
38.2528679961576 19.748
38.27643380031219 19.6592
38.30000128639589 19.5919
38.32375459653193 19.6076
38.34732546371299 19.6222
38.37089801690786 19.4566
38.39447225747609 19.4831
38.418232380377425 19.5109
38.441810012983396 19.4616
38.46538933705673 19.3976
38.488970353960084 19.4015
38.51273731166058 19.3032
38.536321731567014 19.2215
38.55990784840681 19.3261
38.58367995004091 19.2504
38.60726947812959 19.1514
38.63086070726198 19.1969
38.654453638806274 19.2537
38.678232613930824 19.0567
38.70182896773327 19.0418
38.72542702806741 19.052
38.7490267963045 19.0893
38.77281266709232 19.025
38.79641586862214 19.012999999999998
38.8200207821842 18.9572
38.843627409152944 18.982
38.86742019782782 18.9097
38.891030269149255 18.8318
38.914642058016156 18.8101
38.938255565806124 18.8214
38.96205529464307 18.776
38.98567225787121 18.8396
39.00929094417078 18.7175
39.03291135492255 18.6891
39.05671804624804 18.6832
39.080341923549106 18.7063
39.103967529460334 18.6309
39.127594865365744 18.6014
39.15140854155791 18.5546
39.17503935514948 18.5235
39.19867190290282 18.4902
39.22249083587951 18.4669
39.24612686969409 18.4746
39.269764641845306 18.433
39.293404153722804 18.387
39.317230110864074 18.3015
39.34087311998506 18.2351
39.36451787301696 18.2526
39.388164371352595 18.2162
39.41199737518003 18.2016
39.43564738196752 18.1914
39.45929913825317 18.1596
39.48295264543308 18.1587
39.506792718520884 18.1303
39.530449745387216 18.1024
39.55410852735203 18.0153
39.57776906581474 18.01
39.60161623079 17.965999999999998
39.625280300200025 17.9851
39.64894613032202 17.9295
39.67261372255866 17.9045
39.6964680021016 17.8557
39.72013913657293 17.8546
39.74381203738292 17.8342
39.76748670593756 17.842
39.79134812278169 17.7852
39.81502634488497 17.7575
39.83870633896685 17.7717
39.862388106436654 17.7412
39.88625668336918 17.6756
39.90994201572829 17.6943
39.933629125719285 17.5905
39.957503091207826 17.5667
39.9811937746168 17.6084
40.00488623990914 17.5394
40.02858048850006 17.4799
40.05246165409549 17.4754
40.076159487492085 17.3837
40.099859108448875 17.4055
40.123560518384345 17.3348
40.1474489070226 17.3388
40.171153913178564 17.2848
40.194860712584955 17.3011
40.2185693066637 17.2632
40.242464941335314 17.229
40.26617714307655 17.2543
40.289891143772046 17.1919
40.3136069448471 17.1646
40.33750984859743 17.1236
40.3612292688043 17.0521
40.3849504936829 17.0797
40.40867352466194 17.0608
40.43258372059144 17.0158
40.45631038219906 17.0123
40.48003885420956 16.9292
40.503769138055105 16.9514
40.52768664931955 16.8773
40.55142057531802 16.8728
40.57515631746428 16.81
40.599079334038514 16.8409
40.62281872700477 16.7858
40.64655994043941 16.7763
40.67030297578061 16.7219
40.69423334835778 16.6965
40.71798004609188 16.7128
40.74172857006355 16.7202
40.76547892171441 16.6796
40.7894166736039 16.6256
40.813170699248566 16.5896
40.83692655691388 16.5702
40.86068424804498 16.5464
40.884629402612525 16.5492
40.908390779366385 16.4722
40.932153993938 16.5145
40.95591904777605 16.4712
40.979871628443995 16.4436
41.003640379561936 16.4162
41.02741097430883 16.384
41.05118341413683 16.32
41.075143444384416 16.3057
41.098919593177826 16.2988
41.1226975914255 16.2412
41.14647744058318 16.2159
41.170444943946755 16.1544
41.19422851378379 16.1905
41.218013938914645 16.1116
41.24198706625173 16.0844
41.26577622087193 16.0616
41.289567235177785 16.055999999999997
41.31336011063129 16.0428
41.337340752422875 16.0574
41.361137369129835 16.0409
41.38493585138705 15.9561
41.40873620066004 15.8998
41.43272438060107 15.8941
41.45652848292052 15.8154
41.48033445666918 15.7731
41.50414230331616 15.7957
41.528138045159764 15.7612
41.551949656675205 15.7819
41.575763145513235 15.7181
41.59957851314666 15.7431
41.62358184070442 15.6811
41.64740098505737 15.6499
41.6712220126409 15.6392
41.69504492493139 15.6271
41.71905586207357 15.5887
41.74288256296395 15.6247
41.766711153007456 15.5425
41.79054163368412 15.5008
41.814560204340054 15.4924
41.838394485526365 15.4897
41.86223066180303 15.4244
41.88625497706819 15.3415
41.910094962812 15.4026
41.93393684811168 15.331
41.95778063445365 15.2573
41.981812625263366 15.2679
42.00566023303407 15.2901
42.029509746323676 15.2189
42.05336116662236 15.219000000000001
42.077400857069705 15.1664
42.10125611078846 15.1268
42.12511327600405 15.1255
42.14897235421036 15.0683
42.173019768448455 15.1522
42.19688269209613 15.0692
42.22074753323349 15.0775
42.24461429335818 15.0114
42.268669455600495 14.9838
42.292540073217886 14.9773
42.31641261433284 14.9526
42.34028708044675 14.9029
42.36435001496739 14.8782
42.38822835065557 14.8885
42.41210861586426 14.8496
42.4359908120986 14.8579
42.46006154323262 14.7858
42.48394762115317 14.7506
42.507835634632315 14.7688
42.531912233047436 14.7537
42.55580413732265 14.668
42.579697981698 14.6605
42.60359376768525 14.6728
42.62767820545945 14.6009
42.65157789440821 14.628
42.67547952952185 14.6376
42.699383112316 14.4816
42.72347541395347 14.4715
42.74738291190531 14.4858
42.771292362102166 14.4927
42.795203766063516 14.4999
42.819303956130405 14.4364
42.843219287476536 14.347999999999999
42.86713657716324 14.3553
42.89105582671383 14.3453
42.91516392983864 14.3565
42.939087119032166 14.3305
42.963012272677304 14.276
42.98693939230129 14.2486
43.01105543317513 14.2118
43.034986504731386 14.1886
43.05891954686589 14.2099
43.08285456110972 14.1361
43.10697856448665 14.1206
43.130917542983475 14.0615
43.15485849820081 14.1317
43.17880143167367 14.0366
43.20293342237094 14.0009
43.226880332449 14.049000000000001
43.25082922540554 14.0075
43.27496722682525 14.0041
43.29892010567796 13.9648
43.32287497204102 13.9564
43.34683182745632 13.8689
43.370977859791836 13.8474
43.39493871351105 13.8401
43.41890156092628 13.833
43.44286640358341 13.809000000000001
43.46702049182749 13.7673
43.49098934522816 13.6929
43.51496019852649 13.7283
43.5389330532723 13.6984
43.56309522248204 13.647
43.58707210044314 13.6465
43.61105098451946 13.5913
43.63503187626491 13.5271
43.659202151562134 13.5263
43.68318707902681 13.5689
43.70717401884041 13.5508
43.731162972560874 13.4831
43.75534137913236 13.4748
43.779334381108384 13.4651
43.803329401683186 13.4847
43.82732644241872 13.3919
43.8515130055166 13.3933
43.87551410707659 13.3684
43.89951723350145 13.3462
43.923709934595614 13.3193
43.94771713129917 13.3257
43.97172635758096 13.2955
43.99573761501002 13.2212
44.0199385169922 13.1936
44.04395385732619 13.1874
44.067971233533086 13.1728
44.09199064718605 13.1084
44.11619977548961 13.1167
44.14022328470671 13.1196
44.16424883610785 13.1007
44.18827643127035 13.104000000000001
44.21249381139513 13.1031
44.236525514814076 13.005999999999998
44.26055926674478 12.9637
44.28459506876863 13.0181
44.3088207262813 12.9368
44.33286064928722 12.9302
44.35690262714919 12.9226
44.38094666145278 12.8898
44.4051806219871 12.9183
44.42922879003185 12.8453
44.45327901929361 12.7828
44.477331311362136 12.7986
44.501573600619416 12.7547
44.525630039221795 12.7294
44.54968854541895 12.7431
44.573937102200176 12.6735
44.5979997645541 12.7206
44.622064499300315 12.6677
44.64613130803592 12.6272
44.67038823869318 12.6255
44.69445921643748 12.622
44.718532272981385 12.565999999999999
44.742607409926194 12.579
44.76687274034801 12.5046
44.79095205918753 12.4927
44.81503346325094 12.4485
44.839116954143876 12.4928
44.86339071028742 12.4795
44.88747839599524 12.4087
44.91156817336837 12.4085
44.93566004401666 12.43
44.959942251908146 12.3868
44.984038330325966 12.3557
45.00813650686762 12.3046
45.03223678314731 12.3028
45.05652746888232 12.2308
45.08063196592069 12.2011
45.104738567558705 12.2713
45.128847275414856 12.2247
45.15314646515866 12.1319
45.17725940679741 12.1431
45.20137445952892 12.1537
45.22568004865265 12.1523
45.24979934496396 12.0755
45.27392075725247 12.0866
45.29804428714431 12.0793
45.322358426247604 12.0326
45.346486212804315 11.9557
45.370616121861914 11.9829
45.39474815505086 11.9933
45.41907087049246 11.9346
45.4432071734666 11.8995
45.46734560548283 11.9552
45.49148616817604 11.9418
45.51581748638564 11.8914
45.5399623320197 11.8297
45.56410931325473 11.7817
45.58825843173002 11.8069
45.61259837920865 11.7681
45.636751793816 11.8034
45.66090735060093 11.7434
45.68506505120716 11.7612
45.7094136545275 11.6543
45.73357566449271 11.6908
45.75773982322992 11.6604
45.78190613238733 11.649000000000001
45.806263418194064 11.5755
45.83043404997326 11.6034
45.85460683713677 11.5704
45.87897065658495 11.5654
45.90314777634752 11.5485
45.92732705646868 11.5297
45.9515084986045 11.4707
45.97588104735473 11.4488
46.00006683541565 11.4507
46.02425479047904 11.4246
46.04844491420549 11.4264
46.0728262191024 11.4032
46.09702070211635 11.3675
46.12121735879483 11.3551
46.14541619080294 11.3422
46.169806278764455 11.3103
46.194009483459034 11.3061
46.21821486849841 11.2649
46.24242243555223 11.2253
46.266821333570014 11.2181
46.29103328674601 11.1983
46.31524742696538 11.1678
46.33946375590237 11.1453
46.36387149104216 11.1865
46.38809221957392 11.0894
46.41231514186606 11.0988
46.436540259597464 11.0947
46.460956858999374 11.0682
46.48518638983522 11.0756
46.509418121166966 10.9999
46.533652054678114 11.0241
46.55807754555709 10.9784
46.58231590571962 10.9999
46.60655647313217 10.9241
46.630988654873654 10.9188
46.655233659129024 10.9439
46.67948087571551 10.890999999999998
46.70373030632484 10.8901
46.72817142736393 10.8597
46.752425308428684 10.8186
46.77668140861147 10.81
46.80093972960865 10.7681
46.82538981736788 10.7082
46.849652602470904 10.7505
46.87391761349769 10.7435
46.8981848521493 10.6765
46.9226439341274 10.6498
46.946915650573224 10.6153
46.97118959976749 10.6294
46.99546578341598 10.6327
47.019933887188216 10.6062
47.04421456235744 10.6037
47.06849747711879 10.5638
47.09278263318286 10.5101
47.11725978640143 10.5143
47.14154944775105 10.499
47.165841355555656 10.4762
47.1901355115306 10.4621
47.214621741924994 10.4575
47.23892041698887 10.475
47.26322134538975 10.4507
47.28771440635075 10.4029
47.31201986422527 10.4076
47.33632758061436 10.3698
47.360637557241866 10.3253
47.38513974410611 10.3293
47.40945426407847 10.3024
47.43377104948137 10.2575
47.45809010204344 10.2383
47.48260144275502 10.2257
47.506925052572285 10.1698
47.53125093475548 10.1934
47.55557909103813 10.1501
47.58009961361992 10.1318
47.60443234110732 10.1429
47.62876734791564 10.0962
47.65310463578333 10.0972
47.6776343683373 10.096
47.7019762413987 10.0269
47.72632040075572 10.0215
47.75066684815169 10.0094
47.77520581885936 9.98145
47.799556865477655 9.98488
47.823910205386 10.0038
47.84826584033272 9.97495
47.87281407745551 9.899519999999999
47.89717432569297 9.921389999999999
47.92153687423484 9.89151
47.94609208429692 9.89179
47.97045925671401 9.86642
47.99482873471275 9.81311
48.01920052005013 9.80118
48.04376504619224 9.78444
48.068141469543484 9.78593
48.09252020552573 9.76025
48.11690125590099 9.75809
48.1414751266064 9.728530000000001
48.16586082917454 9.7565
48.19024885144316 9.71349
48.2146391951793 9.6824
48.239222439012764 9.72219
48.26361744916137 9.64639
48.28801478610016 9.63904
48.31241445160131 9.65503
48.337007097209366 9.632489999999999
48.36141144338331 9.62632
48.38581812345755 9.548919999999999
48.41022713920929 9.56772
48.434829215320704 9.54427
48.45924292604658 9.51574
48.48365897780325 9.509730000000001
48.50807737237308 9.5379
48.532688907799276 9.50482
48.55711201168574 9.47252
48.581537463754074 9.44866
48.60615611725119 9.42143
48.63058628942721 9.42764
48.65501881516546 9.374410000000001
48.6794536962573 9.38003
48.70408185970339 9.36134
48.72852147531801 9.33191
48.75296345168211 9.279919999999999
48.77740779059232 9.27239
48.80204549302823 9.301630000000001
48.82649458091802 9.2551
48.85094603676547 9.21107
48.87539986237231 9.22098
48.90004713292306 9.19257
48.92450572200832 9.177539999999999
48.94896668628025 9.18143
48.97343002754588 9.15103
48.99808689542115 9.17027
49.02255501470614 9.13452
49.04702551642794 9.09884
49.0714984023988 9.07259
49.096164896893235 9.09944
49.120642575466796 9.05647
49.145122643748394 9.05286
49.16960510355558 8.965819999999999
49.19428125404938 8.95527
49.2187685210852 8.957189999999999
49.243258185121555 8.96631
49.26794160167084 8.9407
49.2924360839405 8.92378
49.31693296869764 8.9245
49.34143225776915 8.894
49.36612538195438 8.85977
49.39062950396021 8.868139999999999
49.41513603578346 8.83258
49.4396449792564 8.81891
49.46434784069503 8.82283
49.488861631846454 8.77473
49.513377840166804 8.77913
49.537896467493745 8.730780000000001
49.56260909589029 8.71769
49.587132585683285 8.74124
49.611658500018365 8.73086
49.636186840738596 8.68435
49.66090926588511 8.67676
49.685442483902584 8.65884
49.70997813385706 8.622530000000001
49.734516217597076 8.56894
49.75924846937352 8.58985
49.7837914452858 8.582989999999999
49.80833686055187 8.54482
49.83288471702571 8.55588
49.85762682540054 8.55921
49.882179588965734 8.55742
49.9067347993235 8.51092
49.93129245833333 8.503639999999999
49.95604445336378 8.47954
49.98060703442832 8.45795
50.005172069746266 8.413889999999999
50.02993150438364 8.43913
50.05450147301533 8.39451
50.07907390151433 8.3881
50.10364879174981 8.39451
50.12841816587289 8.35448
50.1529980044635 8.358319999999999
50.17758031042124 8.33762
50.20216508562089 8.33635
50.22694442953363 8.29775
50.25153416817468 8.29883
50.27612638170508 8.25515
50.300721072005196 8.20895
50.325510416102105 8.21796
50.350110084975064 8.20744
50.37471223628208 8.237739999999999
50.39931687190919 8.19713
50.424116246675766 8.188410000000001
50.44872587605249 8.12843
50.47333799543065 8.117360000000001
50.49795260670191 8.13113
50.52276204271512 8.143410000000001
50.54738166295838 8.118030000000001
50.57200378079314 8.0673
50.596628398116835 8.051630000000001
50.62144792604559 8.05364
50.646077567609396 8.04461
50.670709714377715 8.02548
50.69553683636198 8.01853
50.72017401885922 7.99374
50.7448137122895 8.012889999999999
50.76945591856022 7.929819999999999
50.79429318636823 7.91754
50.818940443716784 7.950239999999999
50.84359021965163 7.904610000000001
50.868242516085964 7.896710000000001
50.893089960641895 7.87016
50.917747323549435 7.84744
50.94240721271973 7.8625
50.96706963007175 7.80887
50.99192728239342 7.8229
51.01659478166073 7.821210000000001
51.04126481489051 7.795710000000001
51.06593738400761 7.76691
51.090805275207074 7.760910000000001
51.11548294172845 7.72647
51.14016314993547 7.70545
51.164845901758845 7.697
51.18972406304274 7.69256
51.21441192780656 7.68469
51.23910234200271 7.644360000000001
51.2637953075678 7.649210000000001
51.288683770237945 7.6379
51.31338186432707 7.58365
51.33808251561888 7.62193
51.362978729967345 7.58379
51.387684521509755 7.5723
51.41239287610203 7.53843
51.437103795691165 7.5646
51.46201036644977 7.50715
51.486726441956634 7.46311
51.51144508832545 7.50904
51.536166307509156 7.42979
51.56108326624387 7.423960000000001
51.58580965706056 7.4188600000000005
51.61053862657523 7.420380000000001
51.635270176746864 7.402310000000001
51.66019755512065 7.400519999999999
51.68493429268881 7.354139999999999
51.70967361681515 7.36912
51.73441552946465 7.34025
51.759353359237934 7.3629999999999995
51.7841004750961 7.346030000000001
51.80885018539685 7.2873600000000005
51.833602492111254 7.25968
51.8585508051424 7.26732
51.883308330926425 7.27145
51.90806845906181 7.238180000000001
51.932831191525715 7.23675
51.95779001977161 7.2245
51.98255798721516 7.2022699999999995
52.00732856494335 7.16488
52.03229530577543 7.177039999999999
52.057071130455945 7.147989999999999
52.081849571391054 7.12869
52.106630630568695 7.12706
52.13160794279417 7.08259
52.15639426492067 7.08438
52.18118321127822 7.06469
52.205974783860896 7.04323
52.23096269971011 7.03331
52.255759551287994 7.061030000000001
52.280559035098186 6.99527
52.30536115314103 7.0141800000000005
52.33035970494467 7.00652
52.35516711807904 6.96405
52.37997717147198 6.98083
52.40478986713005 6.96731
52.42979908731974 6.948930000000001
52.454617094216 6.91513
52.47943774942214 6.9092899999999995
52.50426105495102 6.90285
52.529280976059844 6.86982
52.554109609024096 6.8241
52.57894089837482 6.82667
52.60377484613117 6.8395399999999995
52.62880550079408 6.8422
52.65364479223379 6.820360000000001
52.67848674816189 6.79206
52.70352547971946 6.793410000000001
52.72837279155837 6.79522
52.753222773982785 6.73222
52.778075429022984 6.74356
52.80312495150885 6.75069
52.827982978797436 6.73756
52.85284368481815 6.69112
52.87770707160767 6.67404
52.90276741793998 6.690339999999999
52.92763619336701 6.671819999999999
52.952507655698504 6.681019999999999
52.977381806977576 6.636639999999999
53.00245301017842 6.6181600000000005
53.02733256653592 6.596989999999999
53.052214817996074 6.59859
53.077099766608484 6.59987
53.102181859804446 6.56315
53.127072229988265 6.58056
53.15196530349892 6.55021
53.17686108239249 6.52883
53.20195409881522 6.46692
53.22685531582556 6.5016099999999994
53.25175924441303 6.462940000000001
53.27666588664027 6.44476
53.30176985962693 6.470269999999999
53.3266819565689 6.44625
53.35159677336455 6.409590000000001
53.376514312083096 6.39772
53.40162927507703 6.39565
53.42655228516116 6.3756900000000005
53.45147802340193 6.35378
53.47660125628886 6.3758099999999995
53.50153247842639 6.36022
53.52646643496923 6.32495
53.55140312799818 6.30588
53.576537409691696 6.31065
53.60147960336152 6.29148
53.626424539786164 6.27612
53.65137222105307 6.23773
53.67651758529126 6.2664800000000005
53.70147078399681 6.19075
53.72642673383343 6.18805
53.75138543689533 6.18599
53.776541917524526 6.1517
53.801506154876755 6.1738800000000005
53.826473151763246 6.14024
53.851442910284916 6.10996
53.87661054126026 6.12292
53.9015858509782 6.09954
53.92656392866066 6.1113599999999995
53.95154477641532 6.11301
53.976723591801296 6.07621
54.00171000771266 6.07493
54.02669920004598 6.06414
54.051691170915745 6.01636
54.076881204886796 6.03753
54.101878760928514 6.07022
54.12687910187696 6.00319
54.152077577768296 5.96988
54.1770835166946 5.94548
54.20209224691339 5.971509999999999
54.22710377055121 5.91566
54.25231352511594 5.96368
54.27733066384342 5.9093
54.30235060239643 5.88848
54.32737334290836 5.88759
54.35259441062629 5.88514
54.377622783395324 5.84703
54.40265396455061 5.81556
54.42768795623251 5.84333
54.45292037169559 5.7863
54.477960012857906 5.79451
54.50300247099511 5.77077
54.52804774825457 5.73186
54.55329154616743 5.7001
54.57834249018678 5.69635
54.6033962597977 5.722119999999999
54.6284528571545 5.6664
54.653708072335164 5.639530000000001
54.67877035378786 5.6237
54.70383546947698 5.60112
54.72890342156389 5.57226
54.7541700889442 5.5079400000000005
54.77924374251975 5.5633300000000006
54.8043202390049 5.5728599999999995
54.82959552413022 5.5365400000000005
54.8546777351945 5.48643
54.87976279569621 5.45043
54.90485070780914 5.53665
54.930137506558005 5.40175
54.95523115074295 5.4698
54.98032765308844 5.39165
55.005427015775496 5.387569999999999
55.03072536339621 5.3960099999999995
55.05583047570572 5.32108
55.080938454927676 5.31921
55.10604930325027 5.32602
55.131359235107396 5.32558
55.15647585066083 5.25477
55.181595341907496 5.25052
55.20671771104285 5.23997
55.232039262617704 5.19771
55.25716741665048 5.22999
55.28229845518636 5.18005
55.30743238042802 5.088080000000001
55.33276558731939 5.0827
55.357905315183636 5.08734
55.383047936390035 5.01469
55.40819345314859 5.04
55.433538351073295 5.00331
55.458689688238415 5.0243400000000005
55.483843927614096 4.9840599999999995
55.509197623043605 4.91566
55.53435769621134 4.89038
55.55952067826466 4.82105
55.5846865714265 4.89369
55.61005202069737 4.87445
55.63522376553902 4.879
55.66039842818645 4.8741
55.68557601087004 4.8234
55.7109532500271 4.7373
55.73613670233794 4.76553
