TT I
1.2716486653135266 7.402480000000001
1.2939594142134223 7.0149300000000006
1.3162702121660406 6.62655
1.3385810600174564 6.72186
1.3608919586137629 6.47583
1.383202908801069 6.57837
1.405513911425503 6.72357
1.4278249673332093 6.6493199999999995
1.4501343378461518 5.8512900000000005
1.4724455028545926 5.75975
1.4947567236847858 5.71769
1.517068001182951 5.8227199999999995
1.5393793361953272 5.27232
1.5616907295681737 5.23644
1.5840021821477681 4.7197
1.60631369478041 5.03849
1.6286252683124185 4.95734
1.6509369035901333 4.80547
1.6732468618895553 4.91475
1.695558623192809 4.40843
1.7178704487808514 4.9294199999999995
1.7401823395001077 4.4317
1.7625012545597203 5.25804
1.7848028405262486 5.06849
1.8071218901122095 5.13243
1.8294236121921872 4.33462
1.8517427996910911 5.03038
1.8740620574440425 4.43768
1.8963639900671978 4.40537
1.9186833908139995 4.6736699999999995
1.9409854680117449 4.81878
1.9633050151394713 4.79559
1.9856246367570705 4.42451
2.0079269371922672 4.76957
2.03024671027244 4.29062
2.0525491637446027 4.42605
2.074869091674931 4.36574
2.097171701569106 4.34545
2.1194917877373847 4.50284
2.141811954326636 4.948869999999999
2.164114805233074 4.20334
2.186435135143035 4.61717
2.208738150935709 4.89936
2.231058647554722 6.8299
2.2533792288321184 6.4294199999999995
2.275682498336085 5.67356
2.298003251406138 5.6502
2.3203066942619714 5.05472
2.3426276225136022 5.27594
2.3649486396617507 4.98599
2.387252348930071 5.9789900000000005
2.4095735463442893 5.92868
2.4318774374315884 6.46095
2.4541988185014043 6.94227
2.476502894794693 6.8439
2.498824462909887 7.08788
2.521146125856138 7.3985899999999996
2.5434504863470337 7.53688
2.5657723414244717 7.20155
2.588076895590662 8.55861
2.610398946189713 8.61229
2.6327210958598384 8.25779
2.6550259469304716 8.50128
2.6773482972090137 8.43923
2.6996533504259 8.05353
2.7219759047039602 8.46236
2.744298562293959 7.66455
2.7666039251246595 7.72509
2.7889267918020164 8.057089999999999
2.8112323652516555 8.28691
2.833555444408179 8.22068
2.8558786311183852 8.00713
2.8781845268938557 8.92349
2.9005079311721484 9.0148
2.9228140460410397 8.86379
2.9451376712799635 8.36097
2.967444008632326 9.31323
2.9897678582247247 8.90498
3.0120918213106695 10.0387
3.0343984987899373 10.770999999999999
3.0567226913198637 10.8508
3.079029599759726 11.0181
3.101354025127254 11.6795
3.123678568232338 12.6108
3.145985829517914 12.7468
3.16831061055229 13.3266
3.1906181112775593 14.1713
3.212943133635653 14.623
3.2352682779763207 14.4325
3.2575761442691227 14.7347
3.2799015350264273 15.3416
3.302209649240067 15.8542
3.3245352898092655 15.9489
3.3468436553365257 16.4122
3.369169549113219 16.9896
3.3914955708171384 17.6289
3.413804319727358 18.2951
3.4361305997334863 18.8643
3.4584396084414553 19.2835
3.4807661501462652 19.7094
3.503092824025881 20.0021
3.5254022288463154 20.2379
3.5477291695206588 20.5637
3.5700388426251948 21.1695
3.5923660534916446 21.8996
3.6146934007816114 23.4642
3.637003482731501 27.7723
3.6593311053109985 29.6356
3.681641464033634 26.4015
3.7039693653009733 24.0349
3.726297407241705 24.9361
3.7486081875460804 24.5607
3.7709365132734978 25.1495
3.793247578841633 25.4438
3.8155761917550093 25.9654
3.8378875459837216 26.5081
3.8602164494827234 26.682
3.882545499606844 27.1975
3.9048572932539183 28.2792
3.9271866390645718 28.8013
3.9494987298666713 28.9404
3.971828374764527 29.1402
3.9941581705403255 30.039
4.016470713506008 30.8553
4.038800813471445 31.1509
4.061113662089144 32.1617
4.0834440696459176 32.6112
4.105774632334751 32.792
4.128087945865126 33.693000000000005
4.150418821249301 34.1701
4.172732448931298 34.7553
4.195063640413578 35.8899
4.2173775856475215 36.2847
4.239709096631102 39.565
4.262040768704612 54.4932
4.284355196706267 63.4374
4.306687193387355 55.0789
4.329001947444346 44.4998
4.35133427213731 41.9574
4.373666762177566 42.23
4.395982011761091 42.6898
4.418314834921175 43.6949
4.44063041906622 44.9637
4.4629635787515625 46.6281
4.4852969080429785 48.1541
4.5076130004776225 50.5674
4.529946671403969 54.0767
4.552263106909177 57.236000000000004
4.574597122877047 55.5896
4.596931312711224 53.2523
4.619248269273446 53.0568
4.6415828092605835 54.4997
4.663900117405352 55.0894
4.686235010953232 56.5323
4.708552674085913 57.9096
4.730887924602802 59.5714
4.753223354952695 61.1999
4.775541557023902 64.0489
4.797877349456786 66.3413
4.820195915032126 67.4342
4.842532072957498 67.6818
4.864868414979744 70.2727
4.88718753227192 74.1603
4.909524244902505 77.1819
4.931843734218147 76.6394
4.954180820867835 78.1161
4.976518095879839 80.8375
4.998838149695359 83.3074
5.021175803844231 86.6729
5.043496238205739 89.7796
5.065834274903528 93.8853
5.088172504230693 98.2495
5.1104935158799565 103.944
5.132832132875765 116.801
5.155153533596801 136.019
5.1774925416746225 175.31900000000002
5.199814334878411 377.14300000000003
5.2221537374521505 1003.08
5.244493338631803 2805.95
5.266815727034316 7976.32
5.289155727832427 13837.7
5.311478517248165 8416.11
5.333818921080011 2301.99
5.356159527788849 432.449
5.3784829252032536 178.592
5.400823940070432 143.795
5.423147747031976 125.383
5.445489173474152 116.87200000000001
5.467830807066149 116.834
5.490155234831516 116.87100000000001
5.512497285125229 110.551
5.534822130975162 104.47
5.557164601388673 101.288
5.579489868738879 98.5252
5.601832762690846 96.8639
5.6241758697774475 95.9012
5.646501775867269 95.1472
5.668845311622074 94.4761
5.691171647754637 94.1477
5.713515615597765 93.1506
5.735859800852677 92.57
5.758186788542988 93.5669
5.780531411018185 96.781
5.802858837297399 96.0846
5.825203900414495 96.0461
5.8475491852224 97.7969
5.869877275883075 97.2456
5.892223006467101 95.1013
5.914551544266608 93.6411
5.936897724049891 96.4349
5.959244129804903 104.09100000000001
5.981573344815301 132.41
6.0039202049061 242.62400000000002
6.026249875609095 474.20099999999996
6.04859719346037 970.105
6.070927323278297 2290.83
6.093275102315365 4829.55
6.115623113320588 5597.49
6.137953938319995 2919.15
6.160302415650845 811.436
6.182633708324452 192.266
6.2049826554078376 101.70200000000001
6.227331838745022 87.0485
6.249663839443684 81.0119
6.27201349767565 77.747
6.294345974611799 76.2343
6.316696111167083 75.3766
6.339046488263839 74.0389
6.361379686074702 70.6584
6.383730546639482 69.5151
6.406064229255215 68.717
6.428415576718203 69.1284
6.450749747566656 68.2984
6.47310158535871 66.1307
6.495453669698332 64.3437
6.517788579421056 63.7752
6.540141159237969 62.5305
6.562476565766648 61.9952
6.5848296444934045 61.7175
6.607182974060425 61.8502
6.6295191323281015 61.4911
6.651872965955752 60.0615
6.6742096296068985 61.2634
6.6965639707294615 65.5698
6.71891856698715 65.5664
6.741255995248479 61.5262
6.763611104154477 58.3056
6.785949046381137 57.298
6.808304671371482 57.9453
6.8306605557940046 59.0822
6.852999275508618 58.2533
6.875355681171544 56.9151
6.897694923437771 55.8883
6.92005185377892 55.4442
6.9423916220322655 55.4054
6.964749080490181 54.7098
6.987106804399774 55.0345
7.009447368180821 54.9615
7.031805625367033 54.9409
7.054146723727803 54.4169
7.076505517631004 53.9072
7.098864581288365 53.9666
7.121206488070854 53.891000000000005
7.143566093607822 53.9233
7.165908543567245 54.9014
7.188268694426048 54.913999999999994
7.2106291193438095 53.86
7.232972390625943 53.313
7.255333366030969 53.8678
7.277677189091925 57.9821
7.300038718428332 63.2836
7.322400526130865 61.4173
7.344745183422596 56.3777
7.367107550224791 53.425
7.389452767901992 53.6574
7.411815697249891 53.458
7.434161478756298 52.8939
7.456524974096713 52.5686
7.478888753837185 53.0115
7.501235387657368 53.6614
7.523599738562711 54.2574
7.545946944825532 55.2894
7.568311870344528 55.9488
7.5906770845765665 54.9009
7.613025156078678 54.4125
7.635390950099687 54.7441
7.657739602662809 54.8188
7.680105979923558 55.3483
7.702472650212829 56.2983
7.724822180948224 55.9052
7.747189439655568 55.552
7.769539560075357 55.0877
7.791907410653562 55.5978
7.81425812420825 55.8421
7.836626570110925 56.2173
7.858995315087906 56.8159
7.881346924933401 56.9291
7.903716270417482 57.5948
7.926068482028405 57.8577
7.948438431475253 58.273
7.9708086843180235 58.5629
7.993161805171116 59.7224
8.015532667162402 59.9682
8.037886398416653 61.3938
8.060257873014221 61.9442
8.082629655331942 62.4732
8.104984308787587 63.2521
8.127356708900503 64.5627
8.149711981398308 67.5389
8.172085002766314 69.1282
8.194458336181368 68.1897
8.216814543847752 67.8543
8.23918850371002 68.2509
8.26154533906492 69.3769
8.283919928836452 71.0787
8.306277395339652 72.1159
8.328652618483376 73.5711
8.351028159736202 75.5822
8.373386579575245 77.8151
8.395762759396959 79.2344
8.418121819038275 82.2004
8.440498640894003 86.6831
8.462875785192262 96.6317
8.485235811156207 123.959
8.507613602688501 178.892
8.529974277114228 269.098
8.552352719347912 401.849
8.574731488360351 664.576
8.59709314210385 1250.36
8.619472567021075 2045.03
8.64183487789147 2365.97
8.664214962183097 1780.69
8.686577933647762 810.8439999999999
8.708958680784317 296.473
8.731339760774953 138.52200000000002
8.753703729764451 103.10700000000001
8.77608547780821 95.17
8.798450116065078 92.8167
8.820832535634787 91.0272
8.843215292401656 90.9493
8.865580941199045 90.9168
8.887964374703538 90.1183
8.910330701447199 90.1194
8.932714815164482 89.2982
8.955099270424924 87.0697
8.977466620733543 85.1665
8.999851761421976 83.8551
9.022219798361645 83.7752
9.04460562795561 83.693
9.066991803441677 83.5668
9.089360876979615 84.1829
9.111747746589993 84.0676
9.13411751544971 82.8137
9.156505082664324 82.1279
9.178875550323522 81.7478
9.20126381862328 81.6059
9.223652438908596 82.4094
9.246023961427412 83.9578
9.26841328802173 84.5481
9.290785518039224 83.4719
9.313175554425882 84.2866
9.335565947154315 85.4277
9.357939245086508 85.9179
9.380330352834827 84.9052
9.40270436697103 84.4491
9.425096193225055 84.5237
9.447488380180165 84.5794
9.469863475295412 84.0268
9.492256385987508 84.32
9.514632206018318 85.0242
9.537025843935714 85.3959
9.559402392368193 86.5471
9.581796761000229 88.7942
9.604191496441521 90.5559
9.626569144158516 92.6605
9.648964615551032 93.098
9.671343000390081 92.2205
9.693739211225699 91.294
9.716135793237463 91.2837
9.738515290448102 92.4498
9.760912617143402 94.0198
9.783292860202891 96.2607
9.805690935076182 98.3274
9.828089385495742 99.1224
9.850470754023561 99.8981
9.872869957865444 101.87299999999999
9.89525208097539 105.431
9.917652041736662 110.572
9.940052382417589 121.685
9.962435644102392 150.438
9.984836746950979 193.86700000000002
10.007220771957746 259.022
10.029622640473708 364.121
10.052007432299963 546.419
10.074410069984072 852.8589999999999
10.096813093716005 1359.13
10.119199042482517 1906.34
10.141602840636468 2034.18
10.163989564971628 1469.1
10.186394141051062 732.345
10.208799107559706 309.22700000000003
10.231187001965623 158.672
10.253592751657669 117.264
10.275981430388155 108.53299999999999
10.298387966769793 105.932
10.320794897965431 105.324
10.343184759907361 104.34100000000001
10.36559248305461 102.955
10.387983138083852 104.338
10.410391656691655 111.58
10.432800574501677 122.95
10.455192425893369 139.506
10.47760214443012 165.967
10.499994797678786 212.93599999999998
10.522405320453982 296.625
10.54479877906917 419.347
10.567210109595656 555.998
10.5896218454736 594.525
10.612016518879773 471.32
10.634429067781074 294.082
10.656824555333241 168.365
10.679237920773568 111.03399999999999
10.701651695961992 92.5749
10.724048411481384 87.9656
10.746463008485165 85.1125
10.768860546937125 83.6525
10.791275969274796 82.2284
10.81369180576079 81.2773
10.836090585366925 80.1606
10.858507252467449 78.9921
10.88090686379991 78.1911
10.903324365036394 77.5305
10.925724811614439 76.51100000000001
10.948143150509463 76.7853
10.970561909719066 76.2439
10.992963615930844 75.5559
11.015383218085756 74.3385
11.037785768347074 72.8237
11.06020621697282 72.2297
11.082627090322113 71.2859
11.105030913430326 70.2904
11.12745263854165 69.9663
11.149857314510728 69.4026
11.172279894912576 70.1017
11.194702904450653 69.509
11.217108866490921 68.2003
11.239532736615194 67.7002
11.26193956033512 67.3638
11.284364294577085 66.8977
11.306789462371718 66.2426
11.329197585398376 65.8615
11.351623622610898 66.1245
11.37403261614354 65.3357
11.396459526308487 65.4327
11.418869393879497 64.82
11.441297180532617 64.7205
11.463725406927658 64.3348
11.486136592353875 63.6578
11.508565700543707 63.4381
11.530977768845315 63.7328
11.553407762368774 63.2183
11.575838200059769 62.9851
11.598251599479612 62.6093
11.620682927815501 62.5362
11.64309721895548 62.7014
11.665529441478206 62.3808
11.687962112597958 62.0734
11.710377748130886 62.248000000000005
11.732811318753434 62.1023
11.755227854859067 62.2083
11.777662328529495 62.0558
11.800079768750786 61.8639
11.822515149015453 61.9357
11.844950984084935 62.248999999999995
11.867369787303163 61.8257
11.889806534289491 61.9379
11.912226250487029 62.1103
11.934663912939751 62.7349
11.9571020346363 63.1717
11.979523127133968 63.181000000000004
12.001962169624331 64.4289
12.024384183972964 65.8838
12.046824150809913 69.1557
12.069264581333726 73.5152
12.091687985297767 80.168
12.11412934550045 89.3222
12.136553680195208 105.072
12.158995973632788 127.87200000000001
12.181438735204349 159.35299999999998
12.20386447284199 193.07
12.226308172985636 208.838
12.24873485024193 193.479
12.271179492516982 150.592
12.293607112949127 108.669
12.316052700916226 81.9964
12.338498763250042 68.9147
12.360927805303868 64.3167
12.383374818673879 63.1747
12.405804812803074 62.8912
12.428252780773262 63.1623
12.45070122756722 63.1276
12.473132656675375 63.1575
12.49558206341869 63.7645
12.518014453510101 64.1164
12.540464823770117 64.17699999999999
12.562915677315177 64.1872
12.58534951575545 64.3132
12.607801338171472 64.1695
12.630236146511358 64.8662
12.652688941369085 65.9939
12.675124723177234 66.1684
12.697578494048786 66.5873
12.720032754458185 66.273
12.742470003354093 66.411
12.764925245138771 66.8354
12.787363476431278 67.0825
12.809819703166806 67.6281
12.83227642391173 68.6007
12.854716135692716 69.1244
12.877173846755147 70.0936
12.899614549869717 70.7588
12.9220732548287 71.7411
12.94453245827299 72.2523
12.966974655289818 73.0324
12.989434858002571 73.7803
13.011878055298721 74.6232
13.034339260862497 75.3684
13.056800969391883 77.1833
13.079245674017244 80.4579
13.101708390774869 85.1061
13.12415410463411 93.0626
13.146617833206086 102.744
13.169064559883248 113.488
13.191529303857127 129.118
13.213994557076367 152.365
13.236442809902437 189.886
13.258909083908291 250.79
13.28135835851934 326.17900000000003
13.30382565690295 400.457
13.326293469022952 449.964
13.348744283242008 416.779
13.371213125129904 320.655
13.39366497011003 218.2
13.416134845360597 147.225
13.438605238843131 112.76100000000001
13.46105863690397 104.155
13.483530069144786 106.361
13.505984506951902 112.45299999999999
13.528456981549432 123.37799999999999
13.550929978879088 139.357
13.573385983253365 163.594
13.595860028340867 202.99099999999999
13.618317081455832 258.596
13.64079217790333 328.651
13.663250283359057 380.11800000000005
13.685726434770173 389.07099999999997
13.708203115221277 326.175
13.730662806148091 241.38
13.75314054697177 163.239
13.775601299246777 114.395
13.798080104050406 91.3069
13.820559442405358 82.7438
13.843021793671388 80.1959
13.865502201420897 78.5785
13.887965623051947 78.6744
13.910447103807167 77.8707
13.932929122629764 76.506
13.955394156785959 76.0883
13.977877254034569 75.0233
14.000343367582113 74.2189
14.022827546871707 73.5756
14.045294743423524 72.788
14.06778000837062 72.5096
14.090265817715476 72.27
14.112734645763819 71.6386
14.13522154619454 71.2579
14.157691466286913 71.0533
14.180179461423874 71.3252
14.202668005486178 70.77
14.22513957064374 70.3688
14.247629214846473 69.7257
14.270101881097517 69.4857
14.29259262906496 69.0996
14.315083930490205 68.9945
14.337558255389705 68.9409
14.360050666019726 69.0935
14.382526101071944 68.6676
14.405019624534942 68.2642
14.427513705993134 68.1206
14.449990813291825 68.3554
14.47248601302899 67.9248
14.49496423954951 68.0676
14.517460561197822 68.2256
14.539939910570322 67.8119
14.562437357763558 68.0563
14.58493536931253 68.6069
14.607416409993311 68.5574
14.62991555254159 69.0336
14.652397725157423 69.3518
14.674898002342799 69.5361
14.697398848433282 70.1142
14.719882725991326 71.5018
14.74238471217934 73.5013
14.764869730765593 76.6268
14.787372860692983 79.6865
14.809876564079925 84.57799999999999
14.83236330125751 90.7691
14.854868153850365 99.8396
14.877356041159485 114.646
14.899862046604186 133.139
14.922351087688757 161.168
14.944858249632887 196.00599999999997
14.967365991421232 223.67
14.989856770231246 232.445
15.012365673994204 215.36
15.03485761569738 177.04
15.05736768508665 132.9
15.07987833888692 101.889
15.102372032001655 83.01100000000001
15.124883856909658 73.5503
15.14737872204565 70.5475
15.169891721717274 69.2785
15.192405310371893 68.8123
15.214901940621196 68.5297
15.237416709527137 67.7982
15.259914520936249 67.8195
15.282430473753607 67.1087
15.304947020131227 66.7842
15.327446610371178 66.5987
15.349964346154254 65.9442
15.372465126703139 65.8208
15.394984055556009 65.7916
15.417486030076159 65.7111
15.44000615566487 65.2502
15.462526881230803 65.0726
15.485030653812652 65.1072
15.507552581617434 65.0178
15.530057557334603 65.0348
15.55258069104857 65.0999
15.575104429329837 65.6635
15.597611216864632 65.5301
15.620136166564563 66.0695
15.6426441664095 68.1782
15.665170331202765 70.2655
15.687697105158826 73.0999
15.710206930593545 76.5869
15.732734925158933 81.0837
15.755245972089478 87.4412
15.77777519094324 96.9569
15.800287463046663 110.00399999999999
15.822817909869592 130.135
15.84534897229804 153.5
15.867863089299354 181.18099999999998
15.890395385222186 199.05700000000002
15.912910736597423 197.69
15.935444269699861 176.295
15.957978423016485 141.092
15.980495633101265 108.86399999999999
16.003031029129367 85.3066
16.02554948280019 70.7974
16.048086125229432 64.6705
16.070623392487107 62.5961
16.09314371869582 61.508
16.11568223789321 60.614
16.13820381691126 60.0772
16.160743591742527 59.6161
16.183283996022084 59.1107
16.205807461423195 58.3017
16.228349126881973 57.9334
16.25087385432698 57.84
16.27341678466365 57.1578
16.29594277784926 56.9455
16.31848697676433 56.7098
16.341031811604868 56.2454
16.36355971058487 56.2009
16.3861058195587 56.1055
16.40863499352978 55.5797
16.431182380342005 55.4901
16.453730407713202 55.1496
16.476261501364792 54.7865
16.498810812136167 54.7598
16.52134319004079 54.9284
16.54389378792203 54.4786
16.566445031001553 54.4696
16.588979342490088 54.4069
16.61153187824822 54.3687
16.634067483263312 53.9756
16.656621315414416 54.0239
16.679175797408888 53.6817
16.701713349928728 53.7947
16.72426913389191 53.9611
16.74680798922351 53.9771
16.76936507887444 53.8947
16.791905240734874 53.9269
16.814463639794468 53.93600000000001
16.837022695210294 54.1802
16.859564824093756 54.0296
16.882125194503903 54.1803
16.904668639217885 54.2673
16.927230328348003 54.3363
16.949792678493612 54.5781
16.972338104193863 54.6523
16.994901778652235 54.6296
17.017448529496576 54.8413
17.040013531998152 55.4992
17.06257920018044 55.9934
17.0851279459922 56.532
17.107694947817667 57.5196
17.130245028099072 58.4056
17.15281336730298 59.6246
17.17536478578733 61.0965
17.19793446610687 63.5695
17.220504818648422 66.7744
17.243058251703697 70.2437
17.265629950971032 75.3447
17.288184731571736 80.5383
17.310757781306908 83.7329
17.33333150794385 83.1325
17.355888317140174 79.6178
17.37846339986244 73.1413
17.401021565958885 67.16199999999999
17.42359800851343 62.9146
17.44617513265564 60.318000000000005
17.468735341390783 59.1435
17.491261035594565 58.5229
17.51396340099364 58.2239
17.536490463869136 58.3263
17.559018209820174 58.3746
17.58154663977963 58.516000000000005
17.604251766089718 58.8364
17.626781572227713 59.2737
17.64931206518155 59.2182
17.671843245885103 59.5576
17.69455114821572 59.5532
17.717083712612634 59.903
17.739616967569667 60.3568
17.762150914021706 60.9218
17.78486160749854 61.2921
17.807396945166804 62.1949
17.829932977143503 63.4447
17.85246970436452 64.6105
17.875183204129467 66.4436
17.897721330097664 68.6638
17.920260154126645 71.06
17.942799677153296 74.0404
17.9655159983646 78.1321
17.988056927677544 83.6046
18.010598558807683 91.459
18.033140892692916 102.406
18.05586005052525 115.01100000000001
18.07840379824407 128.704
18.10094825154059 139.202
18.12366954819864 143.293
18.146215420998306 137.7
18.16876200220057 124.915
18.191309292745153 109.531
18.214033452627167 95.45
18.236582170236648 87.1083
18.259131600016456 84.0924
18.281681742907335 85.6143
18.304408781233683 91.0865
18.32696035875955 97.5165
18.349512652227624 102.454
18.372065662579683 106.818
18.394795594587553 105.61399999999999
18.41735004715306 98.5703
18.43990521943684 89.8958
18.46246111238171 80.8444
18.485193953325208 71.9097
18.507751296070428 66.3291
18.530309362314178 63.5738
18.552868153000343 62.08
18.57560391815056 61.266000000000005
18.59816416623245 60.8397
18.620725141597372 60.57899999999999
18.643286845190268 59.961999999999996
18.666025549835414 59.611999999999995
18.688588718427933 59.0578
18.711152618092243 58.9028
18.73389353884365 58.5608
18.75645890921984 58.192
18.77902501351406 57.958999999999996
18.801591852673102 57.9762
18.824335739722738 57.3414
18.846904057212626 57.266999999999996
18.8694731124168 57.0793
18.89204290628315 56.9598
18.914789774966803 56.893
18.937361054791623 56.753
18.959933076131318 56.2243
18.982505839934877 56.1999
19.00525570560582 56.1488
19.027829963004184 56.1189
19.05040496572238 56.1742
19.072980714710468 56.1454
19.095733592739563 56.3698
19.11831084296757 56.5455
19.140888842324735 56.7739
19.16346759176222 57.1596
19.18622349753803 57.8046
19.208803755869358 58.9174
19.231384767143577 60.1433
19.253966532312948 61.8451
19.276725481241822 63.902
19.29930876296784 66.5186
19.3218928014549 69.8297
19.34465404436217 72.6573
19.36723960516257 75.0016
19.389825925592426 75.2292
19.412413006605938 72.9284
19.43517731967805 68.63600000000001
19.457765930683355 64.2472
19.48035530514408 60.1569
19.50294544401556 57.1162
19.525712842708348 54.9647
19.54830451925909 54.2497
19.570896963095727 53.4167
19.593490175174704 53.1381
19.616260674962184 53.0881
19.638855432416964 53.0444
19.661450960992624 53.1291
19.68404726164677 53.0641
19.706820878021247 52.5776
19.729418731756834 52.8876
19.752017360452857 52.5949
19.77461676506804 53.0326
19.797393513540218 53.3357
19.819994478951667 53.25899999999999
19.84259622316767 54.0221
19.8651987471481 54.1378
19.887978643247177 54.3272
19.91058273574792 55.1083
19.933187610901943 55.8702
19.955969879466828 57.1709
19.97857632894404 58.6249
20.00118356396599 60.4647
20.023791585494575 62.9208
20.046577028914875 65.7814
20.069186632506966 68.2983
20.091797025500632 70.1259
20.114408208858933 70.1921
20.137196842715273 69.2201
20.159809615886765 66.7237
20.18242318232135 63.6753
20.20503754298326 61.6252
20.227829382875154 60.9195
20.250445341109344 61.2657
20.27306209647285 62.586999999999996
20.29567964993108 64.0514
20.31847471147704 65.1452
20.34109387027612 65.4954
20.363713830075454 64.4377
20.386334591841646 61.9947
20.409132890679302 58.9304
20.431755265564437 55.8276
20.454378445325528 53.181999999999995
20.477002430930366 51.8975
20.499803982716553 50.8657
20.522429589228004 50.3712
20.54505600449589 49.9974
20.567683229489194 49.7621
20.590488049900088 49.6359
20.61311690359731 49.3826
20.63574656993626 49.2148
20.658553853717297 48.8918
20.681185154618298 48.8988
20.703817271080066 48.6014
20.72645020407368 48.3704
20.749260783967177 48.4057
20.771895359337133 48.4477
20.794530754161617 48.2308
20.817166969412938 48.2316
20.83998086114876 48.2949
20.86261872660049 48.1156
20.885257415405402 47.95
20.90789692853701 48.1196
20.930714147864748 48.1049
20.953355319030678 48.1424
20.97599731745334 48.1744
20.99864014410749 47.9833
21.021460706796564 47.9474
21.044105199328826 48.3267
21.06675052302631 48.2161
21.089396678865015 48.4191
21.112220600704806 48.7603
21.134868430275347 49.2282
21.15751709492456 49.542
21.180166595629693 49.8909
21.202993892429635 50.5259
21.22564507473034 50.7878
21.24829709602816 50.9839
21.27112693608965 50.8556
21.293780644891275 50.6768
21.316435195634053 49.7699
21.339090589297417 49.0265
21.361923832041875 48.5476
21.384580921090404 48.2146
21.407238856007325 47.7862
21.429897637773326 47.6886
21.45273429906592 47.738
21.475394784108598 47.8737
21.498056118951983 47.7406
21.520718304578022 48.1831
21.543558400304388 48.1994
21.566222297108816 48.3891
21.58888704765135 48.5496
21.61155265291521 48.8912
21.63439619898156 49.3459
21.657063523335786 49.5217
21.67973170537063 49.8874
21.7024007460706 50.5143
21.72524775840385 51.3447
21.747918526116475 52.365
21.770590155457388 53.5576
21.79326264741238 54.9987
21.816113141960237 57.3128
21.838787368860547 59.5121
21.861462461341976 61.364
21.884315579735777 63.5916
21.90699241312273 64.4837
21.92967011506078 64.4024
21.95234868653799 63.1523
21.9752053151131 61.1451
21.997885635446785 59.0362
22.020566828293532 57.1506
22.04324889464272 55.8816
22.066109049404666 55.3565
22.088792872571794 55.32899999999999
22.111477572219204 55.7061
22.1341631493376 55.6329
22.157026846313123 55.1261
22.179714188221507 54.1374
22.202402410582668 52.8629
22.22509151438863 51.3267
22.24795876962584 50.196000000000005
22.270649646204486 49.3785
22.293341407213727 48.8876
22.316034053646906 48.4272
22.338904883215342 48.3898
22.36159931041458 48.2104
22.38429462602756 48.0389
22.40699083104897 47.8332
22.429865251039757 47.9868
22.452563244831367 47.9213
22.47526213102522 47.8276
22.49813925616515 47.9729
22.520839937143307 48.0081
22.543541513520587 47.9961
22.56624398629403 47.7157
22.589124730075895 47.8431
22.611829005656723 48.0915
22.63453418063466 48.1076
22.657240256008077 48.3675
22.680124634582935 48.5433
22.70283252079775 48.8452
22.725541310413075 49.0578
22.74825100442868 49.1424
22.771139033969575 49.6927
22.79385054687155 49.8699
22.81656296718292 50.7312
22.83927629590484 51.5714
22.862167992606945 52.5534
22.88488314827121 53.7856
22.907599215359284 54.9442
22.93031619487366 56.1373
22.953211574954405 57.1595
22.975930389478226 57.6064
22.998650119445763 57.2611
23.02137076586092 56.0134
23.044269845560063 54.278999999999996
23.06699233506288 52.63399999999999
23.089715744034912 51.0691
23.112617610931565 49.5247
23.135342869061212 48.6262
23.158069049684816 48.418
23.1807961538087 48.1034
23.20370174880544 48.0521
23.226430710184808 48.0868
23.249160598093425 48.3118
23.271891413539002 48.1853
23.294800752937697 48.235
23.31753343374794 48.5546
23.340267045128353 48.6858
23.36300158808808 49.0335
23.38591468821339 49.4249
23.408651104658304 49.8461
23.431388455719986 50.5632
23.454126742409 51.428000000000004
23.4770436196085 52.3933
23.499783787914662 53.7822
23.522524894889884 55.0191
23.54526694154616 56.4055
23.56818761219047 57.4369
23.59093154860734 57.6988
23.613676427751283 57.6239
23.636422250635754 56.0331
23.659346731118656 54.0647
23.68209445191868 51.9862
23.704843119509587 49.7965
23.72759273490623 48.263000000000005
23.750521041644767 47.0492
23.77327256312355 46.3048
23.796025035462787 45.9399
23.818956224555475 45.3306
23.841710609113413 45.2882
23.86446594758979 45.0871
23.887222241002014 44.8995
23.910157285144578 44.4944
23.932915498962537 44.5838
23.955674670778713 44.2615
23.978434801611975 44.1222
24.001373717286125 44.1214
24.024135776723917 43.8997
24.046898798245582 43.8829
24.06966278287146 43.8342
24.092605586582614 43.5391
24.115371508023642 43.5292
24.1381383956401 43.4238
24.16090625045381 43.417
24.183852958731244 43.4471
24.206622758582608 43.3428
24.229393528706886 43.0396
24.252165270127392 42.9681
24.27511589952438 43.0392
24.297889594216997 42.7543
24.32066426328598 42.7324
24.34343990775613 42.7538
24.36639447485003 42.6078
24.38917208083877 42.4905
24.41195066531332 42.3466
24.43490819850244 42.4766
24.457688750692377 42.457
24.48047028445616 42.4024
24.503252800821233 42.5252
24.526214300784112 42.5483
24.548998793132213 42.5664
24.57178427117417 42.4171
24.59457073593893 42.3404
24.617536219319863 42.2626
24.64032466834748 42.3549
24.663114107195035 42.1821
24.685904536893013 41.8156
24.708874020360852 41.8109
24.731666442613744 41.8257
24.754459858818787 41.7397
24.777254270007962 41.8136
24.80022777025625 41.6985
24.82302418230472 41.6902
24.845821592443674 41.7027
24.86862000170663 41.6543
24.891597535453727 41.4437
24.914397953892728 41.7567
24.93719937456671 41.8298
24.96000179851076 41.9384
24.98298338249997 42.2238
25.00578782394922 42.3124
25.028593271784167 42.4829
25.05157790644186 42.7632
25.07438537804115 42.8703
25.097193859145293 43.2352
25.120003350792075 43.3165
25.142992065061257 43.8243
25.165803588823465 44.068999999999996
25.18861612625217 44.2041
25.211429678386736 44.086999999999996
25.234422489079968 44.065
25.257238081693636 44.148
25.280054692141732 44.248000000000005
25.3028723214652 44.5019
25.325869245420463 44.4736
25.348688923599397 44.5187
25.371509623787006 44.3886
25.394331347025812 43.9819
25.41733240110666 43.391999999999996
25.440156181590016 42.5745
25.46298098826268 42.0466
25.48580682216873 41.4724
25.50881202326435 41.0771
25.53163992281684 40.753
25.55446885274561 40.537
25.577298814096377 40.3151
25.600308179121807 40.2402
25.623140214533745 40.2696
25.64597328451537 40.2937
25.66898578564376 40.0107
25.691820936010206 39.9046
25.714657124097695 40.0067
25.737494350954734 39.9588
25.760511045684957 39.8846
25.783350361364224 39.9921
25.806190718969255 39.889
25.82903211955018 40.0498
25.852053024868923 40.0816
25.874896522722523 40.0768
25.897741066713106 40.1375
25.920586657892454 40.2382
25.943611790812668 40.3049
25.966459487728237 40.4498
25.989308234998564 40.4078
26.01215803367705 40.9401
26.03518741123814 41.1147
26.05803932412957 41.2953
26.080892291600094 41.2635
26.10374631470478 41.3126
26.12677995397268 41.2143
26.14963609978026 40.9093
26.172493304397875 40.7641
26.19535156888223 40.5559
26.218389486949604 40.0839
26.241249882640123 40.0065
26.26411134137826 39.5786
26.28715248187403 39.6958
26.31001607820869 39.6013
26.3328807407756 39.4629
26.35574647063438 39.5383
26.37879191991473 39.6307
26.401659795896734 39.6944
26.424528742360263 39.8651
26.447398760366614 39.9175
26.470448535598294 40.0146
26.49332070826805 40.1724
26.516193955675355 40.5586
26.53906827888316 40.7879
26.562122397260108 41.0229
26.584998883685063 41.3441
26.607876449110325 41.7018
26.63075509460056 41.8526
26.65381357334404 41.8856
26.67669439061878 41.6471
26.699576291163382 41.4296
26.722459276044212 41.2338
26.745522132402975 41.1067
26.768407297649354 40.9182
26.791293550442003 40.4312
26.814180891848974 40.2989
26.837248143099337 39.8957
26.860137673466657 39.8572
26.88302829566349 39.5951
26.90592001075963 39.4374
26.92899167420566 39.193000000000005
26.951885586870763 38.9398
26.974780595655517 38.7392
26.99785558178161 38.5697
27.020752794605112 38.5739
27.043651106772522 38.371
27.06655051935668 38.3368
27.089629948036183 38.2016
27.112531573292053 38.2688
27.135434302194138 38.1761
27.158338135817015 38.08
27.181422024430987 38.1335
27.204328079372566 38.0068
27.22723524226965 38.0128
27.250143514198573 37.9918
27.273231880156334 38.0909
27.296142382065014 37.9706
27.319053996245536 37.8235
27.341966723775965 37.8847
27.365059584515222 37.9852
27.38797455070062 37.9638
27.410890633481237 37.889
27.433807833936918 37.9354
27.456905206923906 37.9966
27.47982465472398 38.0874
27.502745223449743 38.1826
27.525666914182825 38.1792
27.548768816912457 38.1325
27.571692763693633 37.9655
27.59461783573812 37.9355
27.617723149491244 37.6819
27.640650484125285 37.6176
27.66357894728264 37.6552
27.686508540048052 37.4826
27.709618414237887 37.4521
27.732550278321757 37.3435
27.755483275279115 37.4776
27.778417406196485 37.4314
27.801531858397514 37.4233
27.824468269376716 37.301
27.847405817586786 37.4632
27.870344504116094 37.5271
27.893463551932008 37.6979
27.916404527281053 37.9797
27.93934664422563 38.0626
27.962289903855886 37.993
27.98541356491974 38.3414
28.00835912214229 38.3662
28.03130582533231 38.7358
28.054253675581805 38.8109
28.077381967556104 38.5883
28.100332124185126 38.512
28.123283431160893 38.4649
28.146235889577238 38.3932
28.169368830154156 38.1673
28.192323603752033 38.0546
28.215279532083304 37.6864
28.238415973016764 37.4125
28.261374223145094 37.2484
28.284333631303806 37.0127
28.307294198589954 36.900999999999996
28.330435319167677 36.6059
28.353398217078915 36.2491
28.376362277420153 36.121
28.39932750129032 36.0157
28.422473319286713 35.8887
28.44544088262495 35.7733
28.468409612800283 35.5924
28.491379510913497 35.5661
28.51453004413313 35.53
28.53750229057244 35.4157
28.56047570826344 35.294000000000004
28.583450298308804 35.3716
28.606605564586562 35.2433
28.629582511831156 35.3143
28.65256063474956 35.1973
28.675539934446338 35.1624
28.698699951647605 35.2141
28.72168161743193 35.1455
28.74466446331978 35.1463
28.767648490417624 34.9687
28.790813276438353 34.9986
28.813799678527303 35.0785
28.836787265157085 35.0637
28.859955641890075 34.9431
28.882945610203045 34.9998
28.905936766392035 34.8667
28.928929111566863 34.8434
28.952102288520145 34.7454
28.975097024308607 34.6932
28.998092952423807 34.5728
29.021090073977508 34.4184
29.04426806913204 34.2532
29.067267590245258 34.117
29.090268308143695 34.1586
29.11327022394099 34.1638
29.13645305530891 33.9416
29.159457379627167 33.8746
29.18246290519685 33.8759
29.20546963313352 33.8734
29.22865731875826 33.8475
29.25166646419296 33.8555
29.27467681535305 33.7527
29.29768837335608 33.8367
29.320880931312562 33.8215
29.34389491580634 33.8372
29.366910110507334 33.7499
29.38992651653503 33.8739
29.41312396492981 33.8759
29.436142806456754 33.6416
29.45916286268059 33.608000000000004
29.48236399319994 33.4934
29.50538649169417 33.3289
29.528410208259935 33.175
29.55143514402014 33.0115
29.574641196749695 32.873000000000005
29.597668583816574 32.8149
29.6206971934585 32.7774
29.64372702680042 32.6974
29.666938019934474 32.6019
29.689970313635285 32.5154
29.713003834422636 32.5106
29.73603858342347 32.4891
29.759254535188578 32.4198
29.78229175361658 32.3265
29.80533020365064 32.4785
29.82836988641968 32.3148
29.85159081507472 32.4061
29.874632976355343 32.3008
29.89767637376955 32.3805
29.920721008448314 32.0826
29.9439469322847 32.1617
29.96699405457564 32.0265
29.9900424175358 32.0939
30.013092022298157 32.1761
30.03632295963995 32.0127
30.059375061131373 32.0921
30.08242840783577 32.1878
30.105483000888153 32.0595
30.128718970092244 31.9135
30.151776069006917 31.9997
30.17483441768648 32.0313
30.198074175317235 31.9718
30.221135036724256 31.995
30.24419715131772 31.9493
30.267260520236203 31.8398
30.290505341942243 31.8902
30.313571232750228 31.8229
30.336638381310948 31.8448
30.35970678876503 31.7889
30.38295669299435 31.6971
30.40602763151657 31.8361
30.429099832366074 31.6945
30.452173296685572 31.5907
30.47542830191959 31.5509
30.498504306502497 31.7102
30.521581577995562 31.6837
30.544660117543582 31.7907
30.56792024229725 31.8479
30.59100133132069 31.631999999999998
30.614083691845494 31.784000000000002
30.637167325018545 31.8318
30.660432587840603 31.9212
30.683518779717886 31.7874
30.70660624769615 31.8969
30.729694992924372 31.8513
30.75296541239743 31.7883
30.77605672557558 31.7412
30.799149319462742 31.6388
30.8224236211637 31.5117
30.845518789950724 31.4606
30.868615242910597 31.4353
30.891712981195973 31.2778
30.91499247215866 31.1764
30.938092794619365 31.1372
30.96119440587579 30.9851
30.984297307082752 30.9515
31.00758200598383 30.8777
31.030687500658694 30.8001
31.053794288760695 30.8289
31.076902371446767 30.7077
31.100192296997445 30.7564
31.12330298246119 30.7004
31.14641496599209 30.5474
31.169528248749216 30.5754
31.19282341969534 30.5019
31.215939314557186 30.5694
31.239056512134788 30.6407
31.262175013589378 30.4877
31.28547544871168 30.4294
31.30859657161541 30.4166
31.331719001892175 30.6161
31.35484274070538 30.587
31.378148458819545 30.6091
31.401274828443725 30.4805
31.424402510106933 30.4849
31.447712205419993 30.5765
31.470842524931633 30.4707
31.493974159989783 30.5314
31.51710711176168 30.4837
31.54042212308802 30.4572
31.563557722100917 30.3624
31.586694641341655 30.1774
31.609832881979628 30.0852
31.63315322823208 29.9887
31.656294125521327 29.9541
31.679436347728515 29.8492
31.70257989602529 29.7181
31.725905596152327 29.7506
31.74905181052835 29.7758
31.772199354521323 29.8691
31.79534822930507 29.7986
31.818679302290967 29.886999999999997
31.84183085259981 29.8458
31.864983737233473 29.8072
31.88813795736804 29.8809
31.911474422233013 29.6869
31.934631327356435 29.7018
31.9577895715215 29.6817
31.980949155906522 29.7325
32.004291031706956 29.579
32.027453310562606 29.4892
32.05061693318573 29.4607
32.07396288236386 29.4525
32.09712920658542 29.3999
32.12029687812702 29.2128
32.14346589817093 29.1642
32.166817291729984 29.1173
32.18998902288583 29.1072
32.21316210610336 28.9935
32.23633654256711 28.787
32.259693399663725 28.8392
32.282870556771144 28.8276
32.30604907069099 28.8216
32.329228942610065 28.7239
32.35259128243769 28.5971
32.375773884550505 28.594
32.398957848235646 28.607
32.422143174682176 28.4665
32.445511016471215 28.3796
32.468699082679954 28.3906
32.49188851523011 28.2369
32.51507931531304 28.2967
32.538452678331 28.3313
32.56164622776311 28.2962
32.58484114831493 28.203000000000003
32.60803744118015 28.111
32.631416344731896 28.033
32.654615396551876 28.1283
32.67781582427913 28.1096
32.701198898634416 27.9376
32.72440209253756 27.8965
32.747606665947124 27.878
32.77081262006088 27.8622
32.79420126883317 27.7729
32.81740999876112 27.8119
32.840620112999424 27.6642
32.86383161274818 27.6603
32.88722585534586 27.6961
32.91044014056596 27.7832
32.933655814909734 27.7171
32.95687287957963 27.6795
32.98027273544904 27.5811
33.00349259526636 27.4823
33.026713849030116 27.6196
33.04993649794511 27.5363
33.073341986570746 27.4563
33.09656744032826 27.5072
33.11979429286444 27.3765
33.14302254538647 27.4005
33.166433686291185 27.4055
33.18966475336992 27.3266
33.212897224069096 27.2684
33.23613109959831 27.22
33.259547912343415 27.2128
33.2827846121627 27.2213
33.306022720453775 27.0963
33.32926223842861 27.1099
33.352684742614166 27.0537
33.37592709463173 27.0003
33.399170859982064 26.8813
33.422597648419426 26.7734
33.44584425514446 26.7564
33.46909227885668 26.6742
33.4923417207723 26.5064
33.51577423505344 26.6448
33.539026528130385 26.647
33.56228024307245 26.5444
33.585535381098246 26.4475
33.60897364093058 26.4694
33.63223163992385 26.424
33.6554910656699 26.3307
33.678751919389796 26.3355
33.702195944520106 26.2587
33.72545966903325 26.2999
33.74872482519663 26.1659
33.771991414233746 26.1682
33.79544122444841 26.171999999999997
33.81871069412428 26.0115
33.84198160035767 26.016
33.86525394437455 26.0409
33.88870955949969 25.8846
33.911984794020626 25.8953
33.93526147001624 25.9299
33.958539588715006 25.7996
33.98200102861669 25.7537
34.0052820477047 25.7839
34.02856451319451 25.7421
34.05203033759056 25.6366
34.07531571090147 25.5999
34.09860253431845 25.5825
34.121890809074316 25.5501
34.145362493118924 25.5584
34.16865368561615 25.5544
34.191946333164054 25.4721
34.21524043699793 25.4304
34.23871800066799 25.4479
34.26201503218366 25.28
34.28531352370466 25.237
34.30861347646881 25.19
34.33209693978188 25.1932
34.3553998301885 25.2217
34.378704185565205 25.0684
34.402010007152356 25.0651
34.42549939016683 25.0184
34.44880815937748 24.8867
34.472118398533134 24.8993
34.49543010887669 24.9417
34.51892543169198 24.8812
34.54224009966052 24.8164
34.56555624255917 24.8474
34.58887386163339 24.7173
34.61237514439016 24.592
34.6356957311114 24.6136
34.65901779775809 24.6432
34.68252356662995 24.654
34.705848608458616 24.5364
34.72917513396849 24.4979
34.75250314440949 24.4965
34.77601490857862 24.3941
34.799345904259795 24.3878
34.82267838863559 24.4314
34.846012362958525 24.368000000000002
34.869530142679984 24.3005
34.89286711232212 24.2861
34.91620557568269 24.2818
34.93954553401677 24.2599
34.9630693495876 24.1893
34.986412313340814 24.1677
35.00975677584668 24.1378
35.033102738362956 24.0755
35.05663261012228 24.03
35.0799815881786 24.055999999999997
35.10333207003229 23.9596
35.12668405694369 23.9675
35.150220005273056 23.976
35.17357501786656 23.9991
35.19693153931268 23.8602
35.220289570874385 23.9044
35.24383161619786 23.9361
35.267192683604904 23.7921
35.290555264930376 23.7809
35.314101899412165 23.8087
35.33746752422433 23.8026
35.36083466676374 23.7037
35.38420332829803 23.6474
35.407756095629054 23.7426
35.43112781085063 23.677
35.45450104888391 23.6121
35.477875810999194 23.6857
35.50143473172161 23.5247
35.52481255774625 23.6175
35.54819191167777 23.5239
35.57157279478914 23.4917
35.595137889488406 23.4527
35.61852184675279 23.4042
35.641907337029984 23.3658
35.665294361595684 23.2929
35.68886565090076 23.1722
35.7122557598848 23.1934
35.73564740699838 23.2071
35.759040593519934 23.1651
35.78261809810353 23.1428
35.80601437933051 23.0585
35.829412203814705 23.0379
35.85281157283719 22.9612
35.876395313415884 22.9857
35.8997977874528 22.8679
35.92320180988546 22.8553
35.946790244133936 22.8006
35.97019737933222 22.8103
35.993606066789866 22.7807
36.01701630779276 22.7384
36.04061101440684 22.721999999999998
36.06402437852291 22.7506
36.08743930005611 22.6795
36.1108557802951 22.6632
36.13445678011326 22.6286
36.15787639383515 22.5667
36.18129757014299 22.5722
36.20472031032821 22.4974
36.22832762423364 22.3576
36.25175350829375 22.3726
36.275180960119776 22.3148
36.298609981005924 22.3525
36.32222362992669 22.3688
36.34565580510207 22.2624
36.36908955323448 22.2558
36.39252487562093 22.162
36.416144880530226 22.2169
36.43958336764275 22.1788
36.463023432914625 22.1539
36.486465077645676 21.9845
36.51009145956204 22.1503
36.53353627947859 22.0747
36.55698268276811 22.0839
36.58043067073321 21.958000000000002
36.60406345072071 21.8521
36.62751462435344 21.9372
36.65096738658405 21.8895
36.67460498210655 21.875
36.69806093788647 21.8748
36.72151848619297 21.7517
36.744977628333636 21.7938
36.76862165890998 21.664
36.79208400512205 21.6459
36.81554794910557 21.6288
36.83901349217101 21.6108
36.862663978991606 21.5595
36.88613273667352 21.576
36.90960309738324 21.5945
36.933075062434064 21.5156
36.95673202673572 21.4103
36.98020721697122 21.4144
37.003684015502365 21.2898
37.027162423645365 21.2519
37.050825886711465 21.2881
37.07430753063053 21.2417
37.09779078812467 21.1928
37.121275660513014 21.2065
37.144945643673694 21.162
37.16843376245278 21.1574
37.19192350009803 21.0562
37.215414857931435 21.0755
37.239091382563885 21.0243
37.262585997426164 21.0211
37.28608223645736 20.9244
37.309763684451696 20.8871
37.33326318851098 20.9195
37.356764320726555 20.8236
37.380267082425526 20.8599
37.40395510942588 20.8385
37.42746114683234 20.7483
37.45096881771841 20.7714
37.474478123414166 20.7716
37.49817275092816 20.6694
37.52168534303452 20.5877
37.54519957395567 20.5858
37.568715445024665 20.6026
37.592416694607714 20.4944
37.61593586281424 20.5296
37.63945667518264 20.5184
37.66297913304891 20.5284
37.68668702630454 20.3938
37.710212792059274 20.3439
37.733740207334854 20.3166
37.757269273470364 20.2805
37.780983832050374 20.2953
37.80451621684926 20.3028
37.82805025654007 20.3102
37.851585952464795 20.1879
37.8753071980695 20.1688
37.89884622345676 20.0733
37.92238690911902 20.0316
37.94611318753442 19.9601
37.969657210779765 20.0067
37.99320289834801 19.9834
38.016750251586465 19.9992
38.04048325513017 19.9243
38.06403395679343 19.9233
38.087586328183946 19.8523
38.11114037065203 19.8353
38.13488012115898 19.8513
38.1584375229181 19.7567
38.181996599821 19.7302
38.205557353221124 19.7296
38.229303872575656 19.6729
38.2528679961576 19.6447
38.27643380031219 19.6759
38.30000128639589 19.5805
38.32375459653193 19.5518
38.34732546371299 19.5919
38.37089801690786 19.5044
38.39447225747609 19.4835
38.418232380377425 19.4211
38.441810012983396 19.3967
38.46538933705673 19.2922
38.488970353960084 19.3133
38.51273731166058 19.267
38.536321731567014 19.33
38.55990784840681 19.222
38.58367995004091 19.2138
38.60726947812959 19.1169
38.63086070726198 19.1612
38.654453638806274 19.1291
38.678232613930824 19.0239
38.70182896773327 18.9747
38.72542702806741 18.9356
38.7490267963045 19.0024
38.77281266709232 18.9407
38.79641586862214 18.9038
38.8200207821842 18.854
38.843627409152944 18.9121
38.86742019782782 18.8792
38.891030269149255 18.7748
38.914642058016156 18.7488
38.938255565806124 18.7268
38.96205529464307 18.6356
38.98567225787121 18.7044
39.00929094417078 18.6953
39.03291135492255 18.6713
39.05671804624804 18.6184
39.080341923549106 18.5426
39.103967529460334 18.5423
39.127594865365744 18.4731
39.15140854155791 18.474
39.17503935514948 18.4375
39.19867190290282 18.4913
39.22249083587951 18.418
39.24612686969409 18.41
39.269764641845306 18.3225
39.293404153722804 18.2768
39.317230110864074 18.2528
39.34087311998506 18.256
39.36451787301696 18.2032
39.388164371352595 18.1165
39.41199737518003 18.1478
39.43564738196752 18.112000000000002
39.45929913825317 18.0836
39.48295264543308 18.0771
39.506792718520884 18.0715
39.530449745387216 17.9724
39.55410852735203 17.9488
39.57776906581474 18.0089
39.60161623079 17.9382
39.625280300200025 17.9594
39.64894613032202 17.8912
39.67261372255866 17.8391
39.6964680021016 17.8245
39.72013913657293 17.7983
39.74381203738292 17.7765
39.76748670593756 17.7951
39.79134812278169 17.739
39.81502634488497 17.724
39.83870633896685 17.6254
39.862388106436654 17.6095
39.88625668336918 17.6771
39.90994201572829 17.6864
39.933629125719285 17.5313
39.957503091207826 17.4858
39.9811937746168 17.5365
40.00488623990914 17.4418
40.02858048850006 17.4129
40.05246165409549 17.3872
40.076159487492085 17.2924
40.099859108448875 17.3393
40.123560518384345 17.2852
40.1474489070226 17.2743
40.171153913178564 17.2034
40.194860712584955 17.2186
40.2185693066637 17.2173
40.242464941335314 17.1511
40.26617714307655 17.137
40.289891143772046 17.14
40.3136069448471 17.1159
40.33750984859743 17.1067
40.3612292688043 17.0116
40.3849504936829 16.9873
40.40867352466194 16.9812
40.43258372059144 16.9311
40.45631038219906 16.9749
40.48003885420956 16.9116
40.503769138055105 16.8754
40.52768664931955 16.8584
40.55142057531802 16.8697
40.57515631746428 16.8253
40.599079334038514 16.7975
40.62281872700477 16.7807
40.64655994043941 16.7508
40.67030297578061 16.6882
40.69423334835778 16.6361
40.71798004609188 16.6535
40.74172857006355 16.6071
40.76547892171441 16.6046
40.7894166736039 16.5935
40.813170699248566 16.5414
40.83692655691388 16.5435
40.86068424804498 16.5122
40.884629402612525 16.4772
40.908390779366385 16.4651
40.932153993938 16.4152
40.95591904777605 16.4195
40.979871628443995 16.4204
41.003640379561936 16.2921
41.02741097430883 16.3229
41.05118341413683 16.2902
41.075143444384416 16.2461
41.098919593177826 16.2365
41.1226975914255 16.1935
41.14647744058318 16.1698
41.170444943946755 16.0752
41.19422851378379 16.1217
41.218013938914645 16.0724
41.24198706625173 16.0499
41.26577622087193 16.0499
41.289567235177785 16.0362
41.31336011063129 15.9883
41.337340752422875 15.9078
41.361137369129835 15.9301
41.38493585138705 15.8744
41.40873620066004 15.8578
41.43272438060107 15.8802
41.45652848292052 15.8151
41.48033445666918 15.8014
41.50414230331616 15.73
41.528138045159764 15.7664
41.551949656675205 15.6733
41.575763145513235 15.6255
41.59957851314666 15.6738
41.62358184070442 15.6795
41.64740098505737 15.6199
41.6712220126409 15.562000000000001
41.69504492493139 15.5334
41.71905586207357 15.526
41.74288256296395 15.5364
41.766711153007456 15.4775
41.79054163368412 15.45
41.814560204340054 15.4973
41.838394485526365 15.4476
41.86223066180303 15.4402
41.88625497706819 15.3292
41.910094962812 15.308
41.93393684811168 15.307
41.95778063445365 15.2712
41.981812625263366 15.2775
42.00566023303407 15.2347
42.029509746323676 15.2069
42.05336116662236 15.203
42.077400857069705 15.1826
42.10125611078846 15.1015
42.12511327600405 15.0274
42.14897235421036 15.0015
42.173019768448455 15.0547
42.19688269209613 15.0264
42.22074753323349 14.9677
42.24461429335818 14.9808
42.268669455600495 14.9534
42.292540073217886 14.9676
42.31641261433284 14.9075
42.34028708044675 14.8682
42.36435001496739 14.8858
42.38822835065557 14.8795
42.41210861586426 14.8252
42.4359908120986 14.77
42.46006154323262 14.7629
42.48394762115317 14.6954
42.507835634632315 14.6985
42.531912233047436 14.6934
42.55580413732265 14.6687
42.579697981698 14.6318
42.60359376768525 14.6008
42.62767820545945 14.5569
42.65157789440821 14.5855
42.67547952952185 14.502
42.699383112316 14.5038
42.72347541395347 14.4566
42.74738291190531 14.4575
42.771292362102166 14.4431
42.795203766063516 14.3983
42.819303956130405 14.368
42.843219287476536 14.3095
42.86713657716324 14.2807
42.89105582671383 14.2664
42.91516392983864 14.2587
42.939087119032166 14.2461
42.963012272677304 14.2137
42.98693939230129 14.14
43.01105543317513 14.1882
43.034986504731386 14.1405
43.05891954686589 14.1299
43.08285456110972 14.135
43.10697856448665 14.0795
43.130917542983475 14.0493
43.15485849820081 14.0273
43.17880143167367 14.0066
43.20293342237094 14.0014
43.226880332449 13.9482
43.25082922540554 13.9533
43.27496722682525 13.8699
43.29892010567796 13.8928
43.32287497204102 13.8523
43.34683182745632 13.8732
43.370977859791836 13.8161
43.39493871351105 13.7993
43.41890156092628 13.780999999999999
43.44286640358341 13.7264
43.46702049182749 13.6752
43.49098934522816 13.7009
43.51496019852649 13.6488
43.5389330532723 13.6581
43.56309522248204 13.6354
43.58707210044314 13.5713
43.61105098451946 13.5829
43.63503187626491 13.523
43.659202151562134 13.4964
43.68318707902681 13.5216
43.70717401884041 13.5038
43.731162972560874 13.4778
43.75534137913236 13.3969
43.779334381108384 13.3956
43.803329401683186 13.4074
43.82732644241872 13.3911
43.8515130055166 13.3846
43.87551410707659 13.3547
43.89951723350145 13.3385
43.923709934595614 13.2385
43.94771713129917 13.2592
43.97172635758096 13.2578
43.99573761501002 13.1854
44.0199385169922 13.1589
44.04395385732619 13.1838
44.067971233533086 13.1359
44.09199064718605 13.1215
44.11619977548961 13.1098
44.14022328470671 13.0689
44.16424883610785 13.0152
44.18827643127035 12.9833
44.21249381139513 13.0236
44.236525514814076 12.9606
44.26055926674478 12.9704
44.28459506876863 12.9807
44.3088207262813 12.866
44.33286064928722 12.8747
44.35690262714919 12.8782
44.38094666145278 12.8577
44.4051806219871 12.8313
44.42922879003185 12.8073
44.45327901929361 12.7881
44.477331311362136 12.7969
44.501573600619416 12.7081
44.525630039221795 12.6999
44.54968854541895 12.7013
44.573937102200176 12.706
44.5979997645541 12.6589
44.622064499300315 12.5963
44.64613130803592 12.6504
44.67038823869318 12.6236
44.69445921643748 12.5741
44.718532272981385 12.5203
44.742607409926194 12.5203
44.76687274034801 12.4997
44.79095205918753 12.464
44.81503346325094 12.4652
44.839116954143876 12.4172
44.86339071028742 12.3773
44.88747839599524 12.4047
44.91156817336837 12.3249
44.93566004401666 12.3233
44.959942251908146 12.3226
44.984038330325966 12.3163
45.00813650686762 12.2204
45.03223678314731 12.2154
45.05652746888232 12.1718
45.08063196592069 12.1988
45.104738567558705 12.2042
45.128847275414856 12.145999999999999
45.15314646515866 12.1011
45.17725940679741 12.1163
45.20137445952892 12.1091
45.22568004865265 12.0651
45.24979934496396 12.0633
45.27392075725247 12.0419
45.29804428714431 11.9955
45.322358426247604 11.9582
45.346486212804315 11.9877
45.370616121861914 11.9506
45.39474815505086 11.9089
45.41907087049246 11.8809
45.4432071734666 11.8902
45.46734560548283 11.8933
45.49148616817604 11.8916
45.51581748638564 11.8219
45.5399623320197 11.7788
45.56410931325473 11.718
45.58825843173002 11.7479
45.61259837920865 11.7556
45.636751793816 11.7636
45.66090735060093 11.6582
45.68506505120716 11.6776
45.7094136545275 11.6867
45.73357566449271 11.5985
45.75773982322992 11.6069
45.78190613238733 11.622
45.806263418194064 11.5171
45.83043404997326 11.5718
45.85460683713677 11.5723
45.87897065658495 11.4941
45.90314777634752 11.499
45.92732705646868 11.4878
45.9515084986045 11.4217
45.97588104735473 11.4401
46.00006683541565 11.4147
46.02425479047904 11.3835
46.04844491420549 11.3546
46.0728262191024 11.357000000000001
46.09702070211635 11.3527
46.12121735879483 11.3108
46.14541619080294 11.2977
46.169806278764455 11.2762
46.194009483459034 11.265999999999998
46.21821486849841 11.2351
46.24242243555223 11.1846
46.266821333570014 11.1872
46.29103328674601 11.1146
46.31524742696538 11.1651
46.33946375590237 11.1411
46.36387149104216 11.1122
46.38809221957392 11.0697
46.41231514186606 11.04
46.436540259597464 11.0677
46.460956858999374 11.0145
46.48518638983522 11.0077
46.509418121166966 10.9819
46.533652054678114 10.9398
46.55807754555709 10.9464
46.58231590571962 10.9558
46.60655647313217 10.9126
46.630988654873654 10.8831
46.655233659129024 10.8117
46.67948087571551 10.831
46.70373030632484 10.8475
46.72817142736393 10.807
46.752425308428684 10.7971
46.77668140861147 10.7505
46.80093972960865 10.7005
46.82538981736788 10.6845
46.849652602470904 10.7049
46.87391761349769 10.6866
46.8981848521493 10.6526
46.9226439341274 10.6199
46.946915650573224 10.5984
46.97118959976749 10.607999999999999
46.99546578341598 10.5494
47.019933887188216 10.5805
47.04421456235744 10.5523
47.06849747711879 10.5257
47.09278263318286 10.4502
47.11725978640143 10.4679
47.14154944775105 10.455
47.165841355555656 10.4376
47.1901355115306 10.4124
47.214621741924994 10.4117
47.23892041698887 10.4087
47.26322134538975 10.3507
47.28771440635075 10.3007
47.31201986422527 10.2794
47.33632758061436 10.3199
47.360637557241866 10.3294
47.38513974410611 10.2589
47.40945426407847 10.2588
47.43377104948137 10.2275
47.45809010204344 10.2011
47.48260144275502 10.2052
47.506925052572285 10.1784
47.53125093475548 10.152999999999999
47.55557909103813 10.1415
47.58009961361992 10.0728
47.60443234110732 10.0479
47.62876734791564 10.0722
47.65310463578333 10.0269
47.6776343683373 10.0553
47.7019762413987 10.002
47.72632040075572 10.0089
47.75066684815169 9.9975
47.77520581885936 9.916039999999999
47.799556865477655 9.91089
47.823910205386 9.93403
47.84826584033272 9.91426
47.87281407745551 9.873610000000001
47.89717432569297 9.86733
47.92153687423484 9.84493
47.94609208429692 9.85328
47.97045925671401 9.79395
47.99482873471275 9.7848
48.01920052005013 9.792019999999999
48.04376504619224 9.75937
48.068141469543484 9.76532
48.09252020552573 9.759089999999999
48.11690125590099 9.74535
48.1414751266064 9.69231
48.16586082917454 9.675139999999999
48.19024885144316 9.643839999999999
48.2146391951793 9.63793
48.239222439012764 9.66888
48.26361744916137 9.62865
48.28801478610016 9.58271
48.31241445160131 9.58426
48.337007097209366 9.56579
48.36141144338331 9.54037
48.38581812345755 9.48736
48.41022713920929 9.492569999999999
48.434829215320704 9.48327
48.45924292604658 9.48339
48.48365897780325 9.44705
48.50807737237308 9.453339999999999
48.532688907799276 9.40935
48.55711201168574 9.40185
48.581537463754074 9.369010000000001
48.60615611725119 9.3932
48.63058628942721 9.38596
48.65501881516546 9.387880000000001
48.6794536962573 9.32723
48.70408185970339 9.30264
48.72852147531801 9.321810000000001
48.75296345168211 9.27555
48.77740779059232 9.30845
48.80204549302823 9.24992
48.82649458091802 9.267669999999999
48.85094603676547 9.21686
48.87539986237231 9.15213
48.90004713292306 9.168989999999999
48.92450572200832 9.13333
48.94896668628025 9.1475
48.97343002754588 9.06218
48.99808689542115 9.1128
49.02255501470614 9.09627
49.04702551642794 9.07877
49.0714984023988 9.06655
49.096164896893235 9.05511
49.120642575466796 9.00342
49.145122643748394 8.971060000000001
49.16960510355558 8.98983
49.19428125404938 8.96619
49.2187685210852 8.9483
49.243258185121555 8.8924
49.26794160167084 8.875869999999999
49.2924360839405 8.88287
49.31693296869764 8.8612
49.34143225776915 8.84373
49.36612538195438 8.83109
49.39062950396021 8.827060000000001
49.41513603578346 8.79752
49.4396449792564 8.772089999999999
49.46434784069503 8.78519
49.488861631846454 8.75941
49.513377840166804 8.7277
49.537896467493745 8.73435
49.56260909589029 8.70823
49.587132585683285 8.657210000000001
49.611658500018365 8.67494
49.636186840738596 8.65138
49.66090926588511 8.67753
49.685442483902584 8.6336
49.70997813385706 8.6099
49.734516217597076 8.57899
49.75924846937352 8.57823
49.7837914452858 8.54468
49.80833686055187 8.551910000000001
49.83288471702571 8.531130000000001
49.85762682540054 8.53207
49.882179588965734 8.441930000000001
49.9067347993235 8.427999999999999
49.93129245833333 8.45415
49.95604445336378 8.43582
49.98060703442832 8.423580000000001
50.005172069746266 8.401860000000001
50.02993150438364 8.39369
50.05450147301533 8.37653
50.07907390151433 8.37042
50.10364879174981 8.32584
50.12841816587289 8.3419
50.1529980044635 8.305489999999999
50.17758031042124 8.316089999999999
50.20216508562089 8.293339999999999
50.22694442953363 8.267710000000001
50.25153416817468 8.25416
50.27612638170508 8.22746
50.300721072005196 8.17925
50.325510416102105 8.16271
50.350110084975064 8.159980000000001
50.37471223628208 8.156130000000001
50.39931687190919 8.158380000000001
50.424116246675766 8.16076
50.44872587605249 8.10166
50.47333799543065 8.10865
50.49795260670191 8.08735
50.52276204271512 8.0888
50.54738166295838 8.0555
50.57200378079314 8.040560000000001
50.596628398116835 8.00566
50.62144792604559 8.016860000000001
50.646077567609396 7.9984399999999996
50.670709714377715 7.98376
50.69553683636198 7.94738
50.72017401885922 7.9492899999999995
50.7448137122895 7.94005
50.76945591856022 7.90297
50.79429318636823 7.91575
50.818940443716784 7.91285
50.84359021965163 7.88582
50.868242516085964 7.8694
50.893089960641895 7.85505
50.917747323549435 7.836310000000001
50.94240721271973 7.82194
50.96706963007175 7.78055
50.99192728239342 7.78982
51.01659478166073 7.792619999999999
51.04126481489051 7.77988
51.06593738400761 7.733160000000001
51.090805275207074 7.71691
51.11548294172845 7.69115
51.14016314993547 7.694389999999999
51.164845901758845 7.69049
51.18972406304274 7.6703399999999995
51.21441192780656 7.651389999999999
51.23910234200271 7.6363
51.2637953075678 7.62418
51.288683770237945 7.57492
51.31338186432707 7.57963
51.33808251561888 7.54639
51.362978729967345 7.54707
51.387684521509755 7.53833
51.41239287610203 7.51186
51.437103795691165 7.479989999999999
51.46201036644977 7.49503
51.486726441956634 7.48911
51.51144508832545 7.478910000000001
51.536166307509156 7.42745
51.56108326624387 7.40982
51.58580965706056 7.42238
51.61053862657523 7.439310000000001
51.635270176746864 7.368060000000001
51.66019755512065 7.40648
51.68493429268881 7.35791
51.70967361681515 7.34616
51.73441552946465 7.31958
51.759353359237934 7.318230000000001
51.7841004750961 7.29277
51.80885018539685 7.28945
51.833602492111254 7.268210000000001
51.8585508051424 7.2626
51.883308330926425 7.22075
51.90806845906181 7.19263
51.932831191525715 7.152480000000001
51.95779001977161 7.18615
51.98255798721516 7.1318399999999995
52.00732856494335 7.1173
52.03229530577543 7.128839999999999
52.057071130455945 7.12212
52.081849571391054 7.11212
52.106630630568695 7.11245
52.13160794279417 7.0704899999999995
52.15639426492067 7.04321
52.18118321127822 7.06757
52.205974783860896 7.026669999999999
52.23096269971011 7.04397
52.255759551287994 7.00426
52.280559035098186 6.973839999999999
52.30536115314103 6.95574
52.33035970494467 6.94452
52.35516711807904 6.973560000000001
52.37997717147198 6.97606
52.40478986713005 6.94821
52.42979908731974 6.9073899999999995
52.454617094216 6.8696
52.47943774942214 6.862939999999999
52.50426105495102 6.85502
52.529280976059844 6.85256
52.554109609024096 6.82194
52.57894089837482 6.839410000000001
52.60377484613117 6.80393
52.62880550079408 6.75403
52.65364479223379 6.770810000000001
52.67848674816189 6.769419999999999
52.70352547971946 6.715330000000001
52.72837279155837 6.70858
52.753222773982785 6.7006
52.778075429022984 6.71628
52.80312495150885 6.7183
52.827982978797436 6.69355
52.85284368481815 6.65999
52.87770707160767 6.669810000000001
52.90276741793998 6.64239
52.92763619336701 6.59825
52.952507655698504 6.62109
52.977381806977576 6.595960000000001
53.00245301017842 6.61033
53.02733256653592 6.56716
53.052214817996074 6.5544899999999995
53.077099766608484 6.5046
53.102181859804446 6.48546
53.127072229988265 6.51053
53.15196530349892 6.51865
53.17686108239249 6.474480000000001
53.20195409881522 6.46056
53.22685531582556 6.48795
53.25175924441303 6.47665
53.27666588664027 6.45086
53.30176985962693 6.35573
53.3266819565689 6.3912
53.35159677336455 6.35018
53.376514312083096 6.39004
53.40162927507703 6.36407
53.42655228516116 6.34644
53.45147802340193 6.326980000000001
53.47660125628886 6.30852
53.50153247842639 6.2886
53.52646643496923 6.29269
53.55140312799818 6.2987400000000004
53.576537409691696 6.28909
53.60147960336152 6.2484
53.626424539786164 6.2277
53.65137222105307 6.2195599999999995
53.67651758529126 6.2331
53.70147078399681 6.18081
53.72642673383343 6.17141
53.75138543689533 6.16878
53.776541917524526 6.177219999999999
53.801506154876755 6.15873
53.826473151763246 6.1112400000000004
53.851442910284916 6.059080000000001
53.87661054126026 6.08973
53.9015858509782 6.08296
53.92656392866066 6.05962
53.95154477641532 6.0633
53.976723591801296 6.046469999999999
54.00171000771266 6.0464199999999995
54.02669920004598 6.04971
54.051691170915745 5.9985
54.076881204886796 6.0271099999999995
54.101878760928514 6.00703
54.12687910187696 5.99001
54.152077577768296 5.97663
54.1770835166946 5.93045
54.20209224691339 5.90391
54.22710377055121 5.9351199999999995
54.25231352511594 5.92394
54.27733066384342 5.8471
54.30235060239643 5.85594
54.32737334290836 5.82091
54.35259441062629 5.79528
54.377622783395324 5.84339
54.40265396455061 5.8605599999999995
54.42768795623251 5.78109
54.45292037169559 5.74383
54.477960012857906 5.7694
54.50300247099511 5.74955
54.52804774825457 5.71446
54.55329154616743 5.6763699999999995
54.57834249018678 5.6511
54.6033962597977 5.699990000000001
54.6284528571545 5.66539
54.653708072335164 5.62922
54.67877035378786 5.61041
54.70383546947698 5.56544
54.72890342156389 5.58445
54.7541700889442 5.5602599999999995
54.77924374251975 5.53627
54.8043202390049 5.5067900000000005
54.82959552413022 5.46925
54.8546777351945 5.4618
54.87976279569621 5.45081
54.90485070780914 5.423430000000001
54.930137506558005 5.4153400000000005
54.95523115074295 5.428319999999999
54.98032765308844 5.365480000000001
55.005427015775496 5.32394
55.03072536339621 5.32656
55.05583047570572 5.31153
55.080938454927676 5.2769699999999995
55.10604930325027 5.25588
55.131359235107396 5.29585
55.15647585066083 5.24555
55.181595341907496 5.16266
55.20671771104285 5.18219
55.232039262617704 5.17764
55.25716741665048 5.168419999999999
55.28229845518636 5.09994
55.30743238042802 5.07762
55.33276558731939 5.06727
55.357905315183636 5.09275
55.383047936390035 5.02411
55.40819345314859 5.00269
55.433538351073295 4.98912
55.458689688238415 4.97434
55.483843927614096 4.91766
55.509197623043605 4.88773
55.53435769621134 4.84541
55.55952067826466 4.87766
55.5846865714265 4.85264
55.61005202069737 4.84393
55.63522376553902 4.81251
55.66039842818645 4.75172
55.68557601087004 4.7397800000000005
55.7109532500271 4.73791
55.73613670233794 4.767469999999999
