TT I
1.2716486653135266 7.19928
1.2939594142134223 7.05691
1.3162702121660406 6.345680000000001
1.3385810600174564 7.06032
1.3608919586137629 6.218369999999999
1.383202908801069 5.8872
1.405513911425503 6.12217
1.4278249673332093 5.97912
1.4501343378461518 6.675860000000001
1.4724455028545926 5.98292
1.4947567236847858 6.314019999999999
1.517068001182951 6.78516
1.5393793361953272 5.7367099999999995
1.5616907295681737 5.35654
1.5840021821477681 5.516369999999999
1.60631369478041 4.97641
1.6286252683124185 4.76505
1.6509369035901333 4.631130000000001
1.6732468618895553 4.98195
1.695558623192809 4.66028
1.7178704487808514 5.36454
1.7401823395001077 5.240469999999999
1.7625012545597203 4.97968
1.7848028405262486 4.76711
1.8071218901122095 4.6075
1.8294236121921872 4.11912
1.8517427996910911 4.46992
1.8740620574440425 4.77099
1.8963639900671978 4.74443
1.9186833908139995 4.41865
1.9409854680117449 4.86546
1.9633050151394713 4.88152
1.9856246367570705 5.12677
2.0079269371922672 5.22144
2.03024671027244 4.565919999999999
2.0525491637446027 4.62315
2.074869091674931 4.6532599999999995
2.097171701569106 4.55124
2.1194917877373847 4.7367099999999995
2.141811954326636 4.74216
2.164114805233074 4.71508
2.186435135143035 5.80395
2.208738150935709 11.9582
2.231058647554722 23.0881
2.2533792288321184 17.3811
2.275682498336085 9.167769999999999
2.298003251406138 6.5221800000000005
2.3203066942619714 5.86581
2.3426276225136022 5.63439
2.3649486396617507 5.58491
2.387252348930071 5.50845
2.4095735463442893 6.15572
2.4318774374315884 6.603039999999999
2.4541988185014043 6.671930000000001
2.476502894794693 7.371989999999999
2.498824462909887 6.76467
2.521146125856138 6.70845
2.5434504863470337 7.170210000000001
2.5657723414244717 8.57352
2.588076895590662 8.49394
2.610398946189713 8.45076
2.6327210958598384 8.1676
2.6550259469304716 8.114239999999999
2.6773482972090137 8.244660000000001
2.6996533504259 8.57892
2.7219759047039602 8.44684
2.744298562293959 8.148019999999999
2.7666039251246595 8.098469999999999
2.7889267918020164 8.18235
2.8112323652516555 8.45251
2.833555444408179 8.7825
2.8558786311183852 8.75233
2.8781845268938557 9.19243
2.9005079311721484 8.8692
2.9228140460410397 8.74797
2.9451376712799635 9.754669999999999
2.967444008632326 9.407810000000001
2.9897678582247247 9.98702
3.0120918213106695 10.4323
3.0343984987899373 10.8067
3.0567226913198637 11.0462
3.079029599759726 11.3937
3.101354025127254 12.3877
3.123678568232338 13.2454
3.145985829517914 13.1415
3.16831061055229 13.4702
3.1906181112775593 14.3135
3.212943133635653 14.9637
3.2352682779763207 15.2706
3.2575761442691227 15.464
3.2799015350264273 15.982999999999999
3.302209649240067 16.2852
3.3245352898092655 17.0871
3.3468436553365257 17.0309
3.369169549113219 17.6015
3.3914955708171384 18.3414
3.413804319727358 19.0271
3.4361305997334863 19.4581
3.4584396084414553 19.6655
3.4807661501462652 20.2712
3.503092824025881 20.2281
3.5254022288463154 20.7823
3.5477291695206588 21.3181
3.5700388426251948 22.2879
3.5923660534916446 23.1908
3.6146934007816114 35.3659
3.637003482731501 72.6138
3.6593311053109985 79.643
3.681641464033634 48.8338
3.7039693653009733 29.1775
3.726297407241705 26.0219
3.7486081875460804 25.125
3.7709365132734978 25.5382
3.793247578841633 26.6086
3.8155761917550093 26.9694
3.8378875459837216 27.2429
3.8602164494827234 27.5846
3.882545499606844 28.2782
3.9048572932539183 28.816
3.9271866390645718 28.8512
3.9494987298666713 29.4215
3.971828374764527 30.0192
3.9941581705403255 30.4564
4.016470713506008 31.0314
4.038800813471445 31.5293
4.061113662089144 32.1767
4.0834440696459176 32.9018
4.105774632334751 33.7153
4.128087945865126 34.4602
4.150418821249301 35.2341
4.172732448931298 36.7368
4.195063640413578 38.4103
4.2173775856475215 41.9165
4.239709096631102 67.7118
4.262040768704612 194.22299999999998
4.284355196706267 256.259
4.306687193387355 164.957
4.329001947444346 71.3054
4.35133427213731 46.431000000000004
4.373666762177566 44.0198
4.395982011761091 43.8134
4.418314834921175 45.2067
4.44063041906622 51.5096
4.4629635787515625 59.6945
4.4852969080429785 59.8425
4.5076130004776225 52.3561
4.529946671403969 51.4859
4.552263106909177 52.0261
4.574597122877047 52.0476
4.596931312711224 52.5616
4.619248269273446 52.9955
4.6415828092605835 53.9955
4.663900117405352 54.9586
4.686235010953232 56.266999999999996
4.708552674085913 57.7231
4.730887924602802 59.1571
4.753223354952695 60.7464
4.775541557023902 62.7282
4.797877349456786 64.4521
4.820195915032126 65.8644
4.842532072957498 66.6969
4.864868414979744 69.0343
4.88718753227192 71.8339
4.909524244902505 73.714
4.931843734218147 74.8598
4.954180820867835 76.9192
4.976518095879839 80.0736
4.998838149695359 82.3498
5.021175803844231 85.9452
5.043496238205739 89.3352
5.065834274903528 93.4175
5.088172504230693 97.6058
5.1104935158799565 103.585
5.132832132875765 123.90700000000001
5.155153533596801 159.056
5.1774925416746225 187.887
5.199814334878411 323.624
5.2221537374521505 877.1560000000001
5.244493338631803 2695.44
5.266815727034316 7619.51
5.289155727832427 12235.2
5.311478517248165 8614.88
5.333818921080011 2734.49
5.356159527788849 519.605
5.3784829252032536 180.22
5.400823940070432 142.218
5.423147747031976 126.36200000000001
5.445489173474152 117.353
5.467830807066149 112.665
5.490155234831516 109.91
5.512497285125229 105.944
5.534822130975162 103.26899999999999
5.557164601388673 100.912
5.579489868738879 98.4543
5.601832762690846 97.1544
5.6241758697774475 96.5336
5.646501775867269 95.6488
5.668845311622074 93.9291
5.691171647754637 93.3753
5.713515615597765 92.402
5.735859800852677 91.5673
5.758186788542988 90.9086
5.780531411018185 91.7926
5.802858837297399 91.5294
5.825203900414495 91.5227
5.8475491852224 92.6102
5.869877275883075 92.7758
5.892223006467101 92.4572
5.914551544266608 92.9413
5.936897724049891 94.7421
5.959244129804903 99.7794
5.981573344815301 115.22399999999999
6.0039202049061 195.532
6.026249875609095 418.879
6.04859719346037 904.523
6.070927323278297 2180.03
6.093275102315365 4373.81
6.115623113320588 5179.72
6.137953938319995 3093.4
6.160302415650845 940.757
6.182633708324452 225.905
6.2049826554078376 109.182
6.227331838745022 90.0716
6.249663839443684 83.3348
6.27201349767565 80.9205
6.294345974611799 85.1359
6.316696111167083 93.4802
6.339046488263839 88.6386
6.361379686074702 76.6916
6.383730546639482 70.7364
6.406064229255215 68.3897
6.428415576718203 67.9461
6.450749747566656 67.1558
6.47310158535871 65.4526
6.495453669698332 64.9017
6.517788579421056 64.0541
6.540141159237969 62.8734
6.562476565766648 62.2794
6.5848296444934045 62.3816
6.607182974060425 62.1022
6.6295191323281015 62.3488
6.651872965955752 65.3235
6.6742096296068985 85.0043
6.6965639707294615 119.28
6.71891856698715 117.402
6.741255995248479 84.5825
6.763611104154477 65.3045
6.785949046381137 59.3474
6.808304671371482 58.0343
6.8306605557940046 57.7791
6.852999275508618 57.6397
6.875355681171544 56.7893
6.897694923437771 56.5435
6.92005185377892 56.2292
6.9423916220322655 55.854
6.964749080490181 54.8669
6.987106804399774 55.0439
7.009447368180821 55.4966
7.031805625367033 55.2174
7.054146723727803 54.7618
7.076505517631004 54.5515
7.098864581288365 54.7069
7.121206488070854 54.4215
7.143566093607822 54.4438
7.165908543567245 55.011
7.188268694426048 55.2156
7.2106291193438095 54.9426
7.232972390625943 55.9098
7.255333366030969 66.7654
7.277677189091925 107.454
7.300038718428332 141.459
7.322400526130865 120.08200000000001
7.344745183422596 79.6478
7.367107550224791 59.7913
7.389452767901992 55.6468
7.411815697249891 54.8064
7.434161478756298 54.1
7.456524974096713 53.5543
7.478888753837185 53.442
7.501235387657368 53.9874
7.523599738562711 54.0543
7.545946944825532 54.2462
7.568311870344528 54.7566
7.5906770845765665 54.8058
7.613025156078678 56.1224
7.635390950099687 57.0307
7.657739602662809 56.3385
7.680105979923558 55.3133
7.702472650212829 55.7614
7.724822180948224 55.5807
7.747189439655568 55.6045
7.769539560075357 55.707
7.791907410653562 56.4542
7.81425812420825 56.3055
7.836626570110925 56.2815
7.858995315087906 56.8966
7.881346924933401 56.8839
7.903716270417482 57.7589
7.926068482028405 58.0278
7.948438431475253 58.431999999999995
7.9708086843180235 58.766999999999996
7.993161805171116 59.5838
8.015532667162402 60.0439
8.037886398416653 61.5053
8.060257873014221 61.6676
8.082629655331942 62.3256
8.104984308787587 63.038000000000004
8.127356708900503 66.3437
8.149711981398308 71.1387
8.172085002766314 72.7559
8.194458336181368 70.2315
8.216814543847752 68.0604
8.23918850371002 68.3763
8.26154533906492 69.1878
8.283919928836452 71.1029
8.306277395339652 72.2461
8.328652618483376 73.32
8.351028159736202 75.6682
8.373386579575245 77.5139
8.395762759396959 79.2065
8.418121819038275 83.6796
8.440498640894003 94.6316
8.462875785192262 105.91799999999999
8.485235811156207 118.006
8.507613602688501 155.705
8.529974277114228 239.303
8.552352719347912 367.473
8.574731488360351 641.422
8.59709314210385 1188.43
8.619472567021075 1899.56
8.64183487789147 2165.09
8.664214962183097 1748.44
8.686577933647762 917.18
8.708958680784317 354.853
8.731339760774953 158.121
8.753703729764451 108.42200000000001
8.77608547780821 97.3856
8.798450116065078 94.1974
8.820832535634787 91.3123
8.843215292401656 90.3904
8.865580941199045 89.4358
8.887964374703538 88.559
8.910330701447199 89.1059
8.932714815164482 90.4448
8.955099270424924 89.5757
8.977466620733543 87.0431
8.999851761421976 84.5247
9.022219798361645 83.0406
9.04460562795561 82.8542
9.066991803441677 82.7053
9.089360876979615 82.4679
9.111747746589993 82.2536
9.13411751544971 81.4474
9.156505082664324 80.9187
9.178875550323522 81.1623
9.20126381862328 81.5358
9.223652438908596 81.93799999999999
9.246023961427412 81.5902
9.26841328802173 80.9631
9.290785518039224 81.3521
9.313175554425882 82.0572
9.335565947154315 82.6915
9.357939245086508 82.8603
9.380330352834827 82.7179
9.40270436697103 82.9806
9.425096193225055 82.5281
9.447488380180165 83.3946
9.469863475295412 83.5969
9.492256385987508 83.8816
9.514632206018318 84.3823
9.537025843935714 84.7718
9.559402392368193 85.7438
9.581796761000229 87.1832
9.604191496441521 88.2377
9.626569144158516 90.9819
9.648964615551032 94.8272
9.671343000390081 95.883
9.693739211225699 93.8337
9.716135793237463 92.1229
9.738515290448102 92.1482
9.760912617143402 93.0159
9.783292860202891 94.6989
9.805690935076182 96.1672
9.828089385495742 96.9316
9.850470754023561 99.5493
9.872869957865444 105.604
9.89525208097539 117.14399999999999
9.917652041736662 126.415
9.940052382417589 126.865
9.962435644102392 135.803
9.984836746950979 168.041
10.007220771957746 228.919
10.029622640473708 327.285
10.052007432299963 502.851
10.074410069984072 817.328
10.096813093716005 1270.46
10.119199042482517 1741.18
10.141602840636468 1918.29
10.163989564971628 1523.0
10.186394141051062 869.7639999999999
10.208799107559706 400.483
10.231187001965623 186.18900000000002
10.253592751657669 124.056
10.275981430388155 111.52799999999999
10.298387966769793 110.824
10.320794897965431 111.978
10.343184759907361 110.43700000000001
10.36559248305461 106.115
10.387983138083852 102.78200000000001
10.410391656691655 105.175
10.432800574501677 115.389
10.455192425893369 131.412
10.47760214443012 156.991
10.499994797678786 203.047
10.522405320453982 288.283
10.54479877906917 420.79699999999997
10.567210109595656 524.586
10.5896218454736 571.76
10.612016518879773 493.957
10.634429067781074 339.23699999999997
10.656824555333241 197.28099999999998
10.679237920773568 122.21799999999999
10.701651695961992 95.7993
10.724048411481384 88.166
10.746463008485165 85.5372
10.768860546937125 83.8875
10.791275969274796 82.1779
10.81369180576079 80.9108
10.836090585366925 80.2688
10.858507252467449 79.0094
10.88090686379991 78.2258
10.903324365036394 77.6394
10.925724811614439 77.209
10.948143150509463 78.2038
10.970561909719066 77.5807
10.992963615930844 76.1037
11.015383218085756 74.0403
11.037785768347074 72.611
11.06020621697282 72.0567
11.082627090322113 71.8092
11.105030913430326 71.2409
11.12745263854165 71.7042
11.149857314510728 74.1882
11.172279894912576 78.2522
11.194702904450653 78.4548
11.217108866490921 75.303
11.239532736615194 71.7158
11.26193956033512 70.3157
11.284364294577085 68.878
11.306789462371718 67.0384
11.329197585398376 66.5924
11.351623622610898 66.3197
11.37403261614354 65.2233
11.396459526308487 65.4157
11.418869393879497 64.7409
11.441297180532617 64.5537
11.463725406927658 64.1519
11.486136592353875 63.9703
11.508565700543707 64.4812
11.530977768845315 65.8965
11.553407762368774 66.3101
11.575838200059769 65.9489
11.598251599479612 64.4067
11.620682927815501 63.1926
11.64309721895548 63.0438
11.665529441478206 62.371
11.687962112597958 62.0781
11.710377748130886 62.0761
11.732811318753434 61.8929
11.755227854859067 62.2585
11.777662328529495 62.1259
11.800079768750786 61.8771
11.822515149015453 61.6432
11.844950984084935 62.0016
11.867369787303163 61.7865
11.889806534289491 61.9623
11.912226250487029 62.2314
11.934663912939751 62.2613
11.9571020346363 62.26
11.979523127133968 62.0449
12.001962169624331 62.626000000000005
12.024384183972964 63.6355
12.046824150809913 66.7534
12.069264581333726 71.5783
12.091687985297767 76.9553
12.11412934550045 85.8548
12.136553680195208 102.045
12.158995973632788 126.648
12.181438735204349 157.007
12.20386447284199 189.75400000000002
12.226308172985636 208.862
12.24873485024193 202.71200000000002
12.271179492516982 169.075
12.293607112949127 124.182
12.316052700916226 93.5533
12.338498763250042 76.3311
12.360927805303868 68.36399999999999
12.383374818673879 65.0489
12.405804812803074 63.626000000000005
12.428252780773262 63.3625
12.45070122756722 63.481
12.473132656675375 63.5743
12.49558206341869 63.5381
12.518014453510101 63.7551
12.540464823770117 63.8202
12.562915677315177 64.1778
12.58534951575545 64.6053
12.607801338171472 66.2633
12.630236146511358 70.3777
12.652688941369085 74.1035
12.675124723177234 74.2093
12.697578494048786 71.2524
12.720032754458185 68.3443
12.742470003354093 67.1883
12.764925245138771 67.0796
12.787363476431278 67.1384
12.809819703166806 67.5409
12.83227642391173 68.2329
12.854716135692716 68.9839
12.877173846755147 69.8682
12.899614549869717 70.2941
12.9220732548287 71.2659
12.94453245827299 71.597
12.966974655289818 72.3383
12.989434858002571 73.2669
13.011878055298721 74.1481
13.034339260862497 75.0528
13.056800969391883 76.2108
13.079245674017244 78.2281
13.101708390774869 80.33800000000001
13.12415410463411 86.535
13.146617833206086 97.2391
13.169064559883248 108.446
13.191529303857127 122.829
13.213994557076367 145.997
13.236442809902437 185.09900000000002
13.258909083908291 244.188
13.28135835851934 312.014
13.30382565690295 380.585
13.326293469022952 418.163
13.348744283242008 414.093
13.371213125129904 345.63699999999994
13.39366497011003 252.545
13.416134845360597 167.53
13.438605238843131 121.73899999999999
13.46105863690397 103.639
13.483530069144786 103.226
13.505984506951902 108.169
13.528456981549432 117.296
13.550929978879088 131.757
13.573385983253365 157.27700000000002
13.595860028340867 198.166
13.618317081455832 252.65900000000002
13.64079217790333 307.969
13.663250283359057 353.474
13.685726434770173 361.39300000000003
13.708203115221277 328.202
13.730662806148091 254.676
13.75314054697177 178.63400000000001
13.775601299246777 125.62100000000001
13.798080104050406 96.0284
13.820559442405358 84.3808
13.843021793671388 80.773
13.865502201420897 79.1449
13.887965623051947 78.889
13.910447103807167 77.5818
13.932929122629764 76.1628
13.955394156785959 75.9204
13.977877254034569 75.0803
14.000343367582113 74.1267
14.022827546871707 73.7469
14.045294743423524 73.035
14.06778000837062 72.2444
14.090265817715476 72.1337
14.112734645763819 71.6948
14.13522154619454 71.5146
14.157691466286913 71.5094
14.180179461423874 71.1265
14.202668005486178 70.4873
14.22513957064374 69.7477
14.247629214846473 69.5079
14.270101881097517 69.1054
14.29259262906496 69.6763
14.315083930490205 70.3003
14.337558255389705 70.4393
14.360050666019726 70.1761
14.382526101071944 69.2193
14.405019624534942 68.3261
14.427513705993134 67.9645
14.449990813291825 68.2668
14.47248601302899 68.0026
14.49496423954951 67.8284
14.517460561197822 68.0885
14.539939910570322 67.7532
14.562437357763558 68.1591
14.58493536931253 69.3308
14.607416409993311 69.9221
14.62991555254159 70.3324
14.652397725157423 70.4416
14.674898002342799 69.8639
14.697398848433282 69.5588
14.719882725991326 70.4514
14.74238471217934 71.4004
14.764869730765593 74.2519
14.787372860692983 77.0524
14.809876564079925 81.574
14.83236330125751 87.2059
14.854868153850365 95.8411
14.877356041159485 110.031
14.899862046604186 129.968
14.922351087688757 157.657
14.944858249632887 186.476
14.967365991421232 211.158
14.989856770231246 221.6
15.012365673994204 214.597
15.03485761569738 187.2
15.05736768508665 145.115
15.07987833888692 112.637
15.102372032001655 89.5033
15.124883856909658 76.6235
15.14737872204565 71.4084
15.169891721717274 69.8104
15.192405310371893 69.4217
15.214901940621196 69.8821
15.237416709527137 69.8091
15.259914520936249 69.7557
15.282430473753607 68.8697
15.304947020131227 67.8141
15.327446610371178 67.1689
15.349964346154254 66.4163
15.372465126703139 65.9663
15.394984055556009 65.7873
15.417486030076159 65.8467
15.44000615566487 65.3317
15.462526881230803 65.4508
15.485030653812652 65.4301
15.507552581617434 65.4459
15.530057557334603 65.2405
15.55258069104857 65.3023
15.575104429329837 65.3733
15.597611216864632 65.16
15.620136166564563 65.1678
15.6426441664095 66.2937
15.665170331202765 68.0582
15.687697105158826 70.8582
15.710206930593545 74.1377
15.732734925158933 78.0349
15.755245972089478 84.4345
15.77777519094324 94.4085
15.800287463046663 108.32
15.822817909869592 128.365
15.84534897229804 151.155
15.867863089299354 173.752
15.890395385222186 190.25099999999998
15.912910736597423 192.42700000000002
15.935444269699861 180.93900000000002
15.957978423016485 150.591
15.980495633101265 119.45100000000001
16.003031029129367 93.743
16.02554948280019 75.5626
16.048086125229432 66.8107
16.070623392487107 64.0511
16.09314371869582 63.2317
16.11568223789321 62.358999999999995
16.13820381691126 61.4359
16.160743591742527 60.6467
16.183283996022084 59.7873
16.205807461423195 58.7364
16.228349126881973 58.3854
16.25087385432698 58.2727
16.27341678466365 57.6316
16.29594277784926 57.71
16.31848697676433 57.6813
16.341031811604868 57.8166
16.36355971058487 58.0546
16.3861058195587 57.7337
16.40863499352978 56.8231
16.431182380342005 56.0811
16.453730407713202 55.501000000000005
16.476261501364792 55.0798
16.498810812136167 54.8298
16.52134319004079 55.211000000000006
16.54389378792203 55.1052
16.566445031001553 54.5177
16.588979342490088 54.5246
16.61153187824822 54.3701
16.634067483263312 54.2074
16.656621315414416 54.1601
16.679175797408888 53.9069
16.701713349928728 53.8549
16.72426913389191 54.2311
16.74680798922351 54.2865
16.76936507887444 54.3176
16.791905240734874 54.428999999999995
16.814463639794468 54.1097
16.837022695210294 54.0482
16.859564824093756 54.2899
16.882125194503903 55.2064
16.904668639217885 55.6347
16.927230328348003 55.7641
16.949792678493612 55.9764
16.972338104193863 55.1798
16.994901778652235 54.8252
17.017448529496576 54.9521
17.040013531998152 55.278
17.06257920018044 55.4974
17.0851279459922 56.278
17.107694947817667 57.1651
17.130245028099072 57.8781
17.15281336730298 59.2398
17.17536478578733 60.9597
17.19793446610687 63.2572
17.220504818648422 66.4291
17.243058251703697 70.0219
17.265629950971032 74.7428
17.288184731571736 79.2714
17.310757781306908 81.9069
17.33333150794385 82.6747
17.355888317140174 80.4055
17.37846339986244 75.6124
17.401021565958885 69.7403
17.42359800851343 64.762
17.44617513265564 61.2146
17.468735341390783 59.3792
17.491261035594565 58.5098
17.51396340099364 58.163999999999994
17.536490463869136 58.2431
17.559018209820174 58.3917
17.58154663977963 58.5796
17.604251766089718 58.6693
17.626781572227713 58.8842
17.64931206518155 59.2898
17.671843245885103 59.6288
17.69455114821572 59.8951
17.717083712612634 60.168
17.739616967569667 60.3723
17.762150914021706 60.6152
17.78486160749854 60.5566
17.807396945166804 61.2875
17.829932977143503 62.1055
17.85246970436452 63.3764
17.875183204129467 65.2594
17.897721330097664 67.1317
17.920260154126645 69.4647
17.942799677153296 72.5935
17.9655159983646 76.2645
17.988056927677544 81.9939
18.010598558807683 90.3274
18.033140892692916 100.88799999999999
18.05586005052525 112.15899999999999
18.07840379824407 122.885
18.10094825154059 132.83100000000002
18.12366954819864 137.844
18.146215420998306 135.732
18.16876200220057 127.322
18.191309292745153 113.824
18.214033452627167 102.056
18.236582170236648 91.25200000000001
18.259131600016456 86.1653
18.281681742907335 86.6499
18.304408781233683 91.3306
18.32696035875955 96.3476
18.349512652227624 100.462
18.372065662579683 104.03200000000001
18.394795594587553 103.79700000000001
18.41735004715306 100.353
18.43990521943684 93.1106
18.46246111238171 84.4402
18.485193953325208 76.0792
18.507751296070428 69.0027
18.530309362314178 65.0239
18.552868153000343 62.8048
18.57560391815056 61.5362
18.59816416623245 60.8629
18.620725141597372 60.5416
18.643286845190268 60.1934
18.666025549835414 59.6839
18.688588718427933 59.1211
18.711152618092243 59.0502
18.73389353884365 58.7946
18.75645890921984 58.5611
18.77902501351406 58.1292
18.801591852673102 57.9456
18.824335739722738 57.6131
18.846904057212626 57.4207
18.8694731124168 57.2168
18.89204290628315 57.1759
18.914789774966803 56.9472
18.937361054791623 56.647
18.959933076131318 56.3048
18.982505839934877 56.3738
19.00525570560582 56.5104
19.027829963004184 56.215
19.05040496572238 56.3595
19.072980714710468 56.363
19.095733592739563 56.5016
19.11831084296757 56.6726
19.140888842324735 56.9412
19.16346759176222 57.181000000000004
19.18622349753803 57.797
19.208803755869358 58.7675
19.231384767143577 59.9428
19.253966532312948 61.7975
19.276725481241822 63.6773
19.29930876296784 66.1613
19.3218928014549 69.2935
19.34465404436217 72.2581
19.36723960516257 74.5413
19.389825925592426 75.1545
19.412413006605938 73.8391
19.43517731967805 70.2047
19.457765930683355 66.3002
19.48035530514408 62.1284
19.50294544401556 58.5477
19.525712842708348 55.8393
19.54830451925909 54.5578
19.570896963095727 53.7167
19.593490175174704 53.3205
19.616260674962184 53.1343
19.638855432416964 52.882
19.661450960992624 53.0714
19.68404726164677 52.931999999999995
19.706820878021247 52.784
19.729418731756834 52.9077
19.752017360452857 52.648
19.77461676506804 52.9853
19.797393513540218 53.0589
19.819994478951667 53.1987
19.84259622316767 53.6369
19.8651987471481 53.9966
19.887978643247177 54.2463
19.91058273574792 54.6994
19.933187610901943 55.5088
19.955969879466828 56.7812
19.97857632894404 58.2679
20.00118356396599 60.0448
20.023791585494575 62.4375
20.046577028914875 65.1324
20.069186632506966 67.0974
20.091797025500632 68.7311
20.114408208858933 69.3103
20.137196842715273 68.8139
20.159809615886765 67.3611
20.18242318232135 64.7897
20.20503754298326 62.8653
20.227829382875154 61.9057
20.250445341109344 61.9511
20.27306209647285 62.638000000000005
20.29567964993108 63.6371
20.31847471147704 64.4982
20.34109387027612 65.0556
20.363713830075454 64.3825
20.386334591841646 62.8284
20.409132890679302 60.5026
20.431755265564437 57.5009
20.454378445325528 54.6611
20.477002430930366 53.0694
20.499803982716553 51.8014
20.522429589228004 50.9346
20.54505600449589 50.3645
20.567683229489194 50.2486
20.590488049900088 49.8441
20.61311690359731 49.6513
20.63574656993626 49.5068
20.658553853717297 49.2858
20.681185154618298 49.1593
20.703817271080066 48.9384
20.72645020407368 48.5492
20.749260783967177 48.5311
20.771895359337133 48.458999999999996
20.794530754161617 48.3057
20.817166969412938 48.3048
20.83998086114876 48.2798
20.86261872660049 48.2008
20.885257415405402 48.0784
20.90789692853701 48.0638
20.930714147864748 47.963
20.953355319030678 48.2215
20.97599731745334 48.2027
20.99864014410749 47.8186
21.021460706796564 48.0258
21.044105199328826 48.2303
21.06675052302631 48.3956
21.089396678865015 48.6725
21.112220600704806 49.049
21.134868430275347 49.4577
21.15751709492456 49.6648
21.180166595629693 49.7727
21.202993892429635 50.25
21.22564507473034 50.638000000000005
21.24829709602816 50.8506
21.27112693608965 50.755
21.293780644891275 50.7479
21.316435195634053 49.882
21.339090589297417 49.4524
21.361923832041875 49.0322
21.384580921090404 48.4573
21.407238856007325 47.9411
21.429897637773326 47.8411
21.45273429906592 47.8357
21.475394784108598 47.975
21.498056118951983 47.7615
21.520718304578022 47.9752
21.543558400304388 48.1894
21.566222297108816 48.4191
21.58888704765135 48.2127
21.61155265291521 48.6339
21.63439619898156 49.0949
21.657063523335786 49.2921
21.67973170537063 49.7249
21.7024007460706 50.1787
21.72524775840385 51.143
21.747918526116475 52.0525
21.770590155457388 53.18600000000001
21.79326264741238 54.8181
21.816113141960237 56.9383
21.838787368860547 58.8067
21.861462461341976 60.6728
21.884315579735777 62.2778
21.90699241312273 63.1298
21.92967011506078 63.593999999999994
21.95234868653799 63.1314
21.9752053151131 61.9998
21.997885635446785 60.2009
22.020566828293532 58.4757
22.04324889464272 57.1346
22.066109049404666 56.1844
22.088792872571794 55.5848
22.111477572219204 55.3898
22.1341631493376 55.5579
22.157026846313123 55.106
22.179714188221507 54.3985
22.202402410582668 53.5137
22.22509151438863 52.1117
22.24795876962584 50.8681
22.270649646204486 50.0088
22.293341407213727 49.4875
22.316034053646906 48.7426
22.338904883215342 48.4994
22.36159931041458 48.5654
22.38429462602756 48.4101
22.40699083104897 48.3135
22.429865251039757 48.2535
22.452563244831367 48.2156
22.47526213102522 48.3949
22.49813925616515 48.0843
22.520839937143307 48.0014
22.543541513520587 48.1886
22.56624398629403 47.9726
22.589124730075895 47.8246
22.611829005656723 48.1785
22.63453418063466 48.20399999999999
22.657240256008077 48.3784
22.680124634582935 48.3812
22.70283252079775 48.5018
22.725541310413075 48.8612
22.74825100442868 49.1547
22.771139033969575 49.6951
22.79385054687155 50.0437
22.81656296718292 50.6571
22.83927629590484 51.5937
22.862167992606945 52.4261
22.88488314827121 53.7461
22.907599215359284 54.8245
22.93031619487366 55.8121
22.953211574954405 56.669
22.975930389478226 57.0971
22.998650119445763 56.9774
23.02137076586092 56.3044
23.044269845560063 55.3184
23.06699233506288 53.788000000000004
23.089715744034912 51.9112
23.112617610931565 50.4602
23.135342869061212 49.4231
23.158069049684816 48.7467
23.1807961538087 48.2376
23.20370174880544 48.2668
23.226430710184808 48.3525
23.249160598093425 48.2037
23.271891413539002 48.299
23.294800752937697 48.1157
23.31753343374794 48.443000000000005
23.340267045128353 48.5791
23.36300158808808 48.946999999999996
23.38591468821339 49.2241
23.408651104658304 49.7073
23.431388455719986 50.2677
23.454126742409 51.2978
23.4770436196085 52.297
23.499783787914662 53.6093
23.522524894889884 54.5779
23.54526694154616 55.7045
23.56818761219047 56.5283
23.59093154860734 56.8848
23.613676427751283 57.1972
23.636422250635754 56.2275
23.659346731118656 54.6836
23.68209445191868 52.8206
23.704843119509587 50.8713
23.72759273490623 49.0733
23.750521041644767 47.7516
23.77327256312355 46.8047
23.796025035462787 46.1428
23.818956224555475 45.5801
23.841710609113413 45.5751
23.86446594758979 45.4002
23.887222241002014 45.1948
23.910157285144578 44.6802
23.932915498962537 44.7542
23.955674670778713 44.7046
23.978434801611975 44.3309
24.001373717286125 44.2396
24.024135776723917 44.2149
24.046898798245582 44.2169
24.06966278287146 44.0701
24.092605586582614 43.7063
24.115371508023642 43.5755
24.1381383956401 43.5752
24.16090625045381 43.4015
24.183852958731244 43.4485
24.206622758582608 43.4207
24.229393528706886 43.1236
24.252165270127392 43.2985
24.27511589952438 43.1765
24.297889594216997 42.961000000000006
24.32066426328598 42.8557
24.34343990775613 42.7261
24.36639447485003 42.8187
24.38917208083877 42.6951
24.41195066531332 42.6022
24.43490819850244 42.7426
24.457688750692377 42.5043
24.48047028445616 42.3717
24.503252800821233 42.513000000000005
24.526214300784112 42.7318
24.548998793132213 42.6472
24.57178427117417 42.4891
24.59457073593893 42.6285
24.617536219319863 42.5751
24.64032466834748 42.4792
24.663114107195035 42.2209
24.685904536893013 42.1365
24.708874020360852 41.9337
24.731666442613744 41.9381
24.754459858818787 41.9612
24.777254270007962 41.8447
24.80022777025625 41.7668
24.82302418230472 41.7067
24.845821592443674 41.79
24.86862000170663 41.7393
24.891597535453727 41.6067
24.914397953892728 41.8535
24.93719937456671 41.6853
24.96000179851076 41.8633
24.98298338249997 42.0463
25.00578782394922 42.1949
25.028593271784167 42.4653
25.05157790644186 42.7634
25.07438537804115 42.821000000000005
25.097193859145293 43.0754
25.120003350792075 43.3611
25.142992065061257 43.599
25.165803588823465 43.9024
25.18861612625217 44.0361
25.211429678386736 44.1866
25.234422489079968 44.387
25.257238081693636 44.2277
25.280054692141732 44.4402
25.3028723214652 44.3408
25.325869245420463 44.4341
25.348688923599397 44.4075
25.371509623787006 44.3773
25.394331347025812 43.9972
25.41733240110666 43.7133
25.440156181590016 42.9319
25.46298098826268 42.4341
25.48580682216873 42.0366
25.50881202326435 41.5266
25.53163992281684 41.0129
25.55446885274561 40.6958
25.577298814096377 40.4019
25.600308179121807 40.3914
25.623140214533745 40.4223
25.64597328451537 40.3552
25.66898578564376 39.9146
25.691820936010206 40.0175
25.714657124097695 40.0969
25.737494350954734 40.1276
25.760511045684957 39.9095
25.783350361364224 40.1442
25.806190718969255 39.9375
25.82903211955018 40.1267
25.852053024868923 40.1458
25.874896522722523 40.1679
25.897741066713106 40.174
25.920586657892454 40.2327
25.943611790812668 40.3783
25.966459487728237 40.601
25.989308234998564 40.6064
26.01215803367705 40.9986
26.03518741123814 41.1911
26.05803932412957 41.2593
26.080892291600094 41.1562
26.10374631470478 41.2262
26.12677995397268 41.3472
26.14963609978026 41.2006
26.172493304397875 40.9196
26.19535156888223 40.7133
26.218389486949604 40.2634
26.241249882640123 40.0867
26.26411134137826 39.7986
26.28715248187403 39.8752
26.31001607820869 39.6449
26.3328807407756 39.4863
26.35574647063438 39.6019
26.37879191991473 39.6713
26.401659795896734 39.5909
26.424528742360263 39.7735
26.447398760366614 39.9469
26.470448535598294 40.1067
26.49332070826805 40.2559
26.516193955675355 40.7954
26.53906827888316 40.908
26.562122397260108 41.0208
26.584998883685063 41.367
26.607876449110325 41.5374
26.63075509460056 41.7087
26.65381357334404 41.7722
26.67669439061878 41.5797
26.699576291163382 41.5377
26.722459276044212 41.4332
26.745522132402975 41.1652
26.768407297649354 40.8666
26.791293550442003 40.5993
26.814180891848974 40.4071
26.837248143099337 40.0834
26.860137673466657 39.9387
26.88302829566349 39.6943
26.90592001075963 39.4963
26.92899167420566 39.4814
26.951885586870763 39.0609
26.974780595655517 38.8174
26.99785558178161 38.6929
27.020752794605112 38.6127
27.043651106772522 38.5733
27.06655051935668 38.4698
27.089629948036183 38.4128
27.112531573292053 38.3308
27.135434302194138 38.3741
27.158338135817015 38.1533
27.181422024430987 38.1988
27.204328079372566 38.0441
27.22723524226965 38.0358
27.250143514198573 38.0684
27.273231880156334 38.0624
27.296142382065014 38.015
27.319053996245536 37.9278
27.341966723775965 38.0038
27.365059584515222 38.0897
27.38797455070062 38.0231
27.410890633481237 38.0532
27.433807833936918 38.0741
27.456905206923906 37.9976
27.47982465472398 38.1472
27.502745223449743 38.1447
27.525666914182825 38.2756
27.548768816912457 38.0473
27.571692763693633 37.9972
27.59461783573812 37.9806
27.617723149491244 37.6948
27.640650484125285 37.6072
27.66357894728264 37.6836
27.686508540048052 37.7222
27.709618414237887 37.4912
27.732550278321757 37.4181
27.755483275279115 37.4144
27.778417406196485 37.4957
27.801531858397514 37.4582
27.824468269376716 37.4158
27.847405817586786 37.3743
27.870344504116094 37.6094
27.893463551932008 37.7292
27.916404527281053 37.8666
27.93934664422563 37.8599
27.962289903855886 37.9718
27.98541356491974 38.1942
28.00835912214229 38.4342
28.03130582533231 38.5235
28.054253675581805 38.5949
28.077381967556104 38.5335
28.100332124185126 38.6453
28.123283431160893 38.5304
28.146235889577238 38.3702
28.169368830154156 38.2674
28.192323603752033 38.1479
28.215279532083304 37.7914
28.238415973016764 37.5194
28.261374223145094 37.4325
28.284333631303806 37.2441
28.307294198589954 37.0989
28.330435319167677 36.6774
28.353398217078915 36.5064
28.376362277420153 36.4265
28.39932750129032 36.2401
28.422473319286713 35.96
28.44544088262495 35.9604
28.468409612800283 35.7975
28.491379510913497 35.7133
28.51453004413313 35.5778
28.53750229057244 35.6712
28.56047570826344 35.4872
28.583450298308804 35.4981
28.606605564586562 35.2335
28.629582511831156 35.3666
28.65256063474956 35.2768
28.675539934446338 35.352
28.698699951647605 35.3529
28.72168161743193 35.2296
28.74466446331978 35.2294
28.767648490417624 35.097
28.790813276438353 35.0743
28.813799678527303 35.1527
28.836787265157085 35.08
28.859955641890075 34.9825
28.882945610203045 35.115
28.905936766392035 35.0023
28.928929111566863 34.998000000000005
28.952102288520145 34.9611
28.975097024308607 34.7822
28.998092952423807 34.6353
29.021090073977508 34.555
29.04426806913204 34.5173
29.067267590245258 34.3078
29.090268308143695 34.2212
29.11327022394099 34.2081
29.13645305530891 34.2268
29.159457379627167 34.0625
29.18246290519685 34.0256
29.20546963313352 33.8827
29.22865731875826 33.9743
29.25166646419296 33.977
29.27467681535305 33.9255
29.29768837335608 34.0449
29.320880931312562 34.009
29.34389491580634 33.8907
29.366910110507334 33.8768
29.38992651653503 33.8552
29.41312396492981 33.879
29.436142806456754 33.6944
29.45916286268059 33.6133
29.48236399319994 33.5942
29.50538649169417 33.3684
29.528410208259935 33.3562
29.55143514402014 33.1388
29.574641196749695 33.1064
29.597668583816574 32.9286
29.6206971934585 32.8448
29.64372702680042 32.9037
29.666938019934474 32.6415
29.689970313635285 32.6767
29.713003834422636 32.6229
29.73603858342347 32.5111
29.759254535188578 32.4463
29.78229175361658 32.4573
29.80533020365064 32.5302
29.82836988641968 32.57
29.85159081507472 32.521
29.874632976355343 32.3557
29.89767637376955 32.3992
29.920721008448314 32.2623
29.9439469322847 32.3732
29.96699405457564 32.2926
29.9900424175358 32.3094
30.013092022298157 32.2603
30.03632295963995 32.1014
30.059375061131373 32.0521
30.08242840783577 32.1348
30.105483000888153 32.1439
30.128718970092244 32.0586
30.151776069006917 32.0753
30.17483441768648 32.1435
30.198074175317235 32.1004
30.221135036724256 32.1236
30.24419715131772 31.9382
30.267260520236203 31.8407
30.290505341942243 31.9232
30.313571232750228 31.9748
30.336638381310948 31.8657
30.35970678876503 31.9358
30.38295669299435 31.8389
30.40602763151657 31.844
30.429099832366074 31.8735
30.452173296685572 31.8413
30.47542830191959 31.787
30.498504306502497 31.6808
30.521581577995562 31.8101
30.544660117543582 31.8387
30.56792024229725 31.9123
30.59100133132069 31.844
30.614083691845494 31.7296
30.637167325018545 31.8434
30.660432587840603 31.8896
30.683518779717886 31.7807
30.70660624769615 31.8955
30.729694992924372 31.8595
30.75296541239743 31.9016
30.77605672557558 31.7964
30.799149319462742 31.7367
30.8224236211637 31.6068
30.845518789950724 31.5132
30.868615242910597 31.5576
30.891712981195973 31.3591
30.91499247215866 31.344
30.938092794619365 31.2556
30.96119440587579 31.1354
30.984297307082752 31.0554
31.00758200598383 30.9072
31.030687500658694 30.8255
31.053794288760695 30.8355
31.076902371446767 30.7254
31.100192296997445 30.7552
31.12330298246119 30.7414
31.14641496599209 30.5927
31.169528248749216 30.6289
31.19282341969534 30.62
31.215939314557186 30.6413
31.239056512134788 30.6938
31.262175013589378 30.5569
31.28547544871168 30.4924
31.30859657161541 30.4454
31.331719001892175 30.5411
31.35484274070538 30.666
31.378148458819545 30.7003
31.401274828443725 30.4375
31.424402510106933 30.5295
31.447712205419993 30.6573
31.470842524931633 30.5152
31.493974159989783 30.4006
31.51710711176168 30.423000000000002
31.54042212308802 30.4653
31.563557722100917 30.4712
31.586694641341655 30.2532
31.609832881979628 30.1648
31.63315322823208 30.1438
31.656294125521327 29.9831
31.679436347728515 29.9169
31.70257989602529 29.905
31.725905596152327 29.8433
31.74905181052835 29.8799
31.772199354521323 29.862
31.79534822930507 29.7761
31.818679302290967 29.8059
31.84183085259981 29.8306
31.864983737233473 29.8379
31.88813795736804 29.9327
31.911474422233013 29.7345
31.934631327356435 29.7885
31.9577895715215 29.7847
31.980949155906522 29.816999999999997
32.004291031706956 29.6737
32.027453310562606 29.5487
32.05061693318573 29.482
32.07396288236386 29.4458
32.09712920658542 29.4823
32.12029687812702 29.2729
32.14346589817093 29.2271
32.166817291729984 29.2265
32.18998902288583 29.1074
32.21316210610336 29.154
32.23633654256711 28.9644
32.259693399663725 28.9655
32.282870556771144 28.8866
32.30604907069099 28.8117
32.329228942610065 28.8344
32.35259128243769 28.6134
32.375773884550505 28.5972
32.398957848235646 28.616
32.422143174682176 28.5801
32.445511016471215 28.5505
32.468699082679954 28.5037
32.49188851523011 28.3543
32.51507931531304 28.3742
32.538452678331 28.3473
32.56164622776311 28.2596
32.58484114831493 28.195999999999998
32.60803744118015 28.1983
32.631416344731896 28.1877
32.654615396551876 28.2754
32.67781582427913 28.1226
32.701198898634416 27.9343
32.72440209253756 27.9345
32.747606665947124 27.9274
32.77081262006088 27.8986
32.79420126883317 27.8236
32.81740999876112 27.9018
32.840620112999424 27.763
32.86383161274818 27.7224
32.88722585534586 27.7808
32.91044014056596 27.8116
32.933655814909734 27.6825
32.95687287957963 27.764
32.98027273544904 27.6246
33.00349259526636 27.4942
33.026713849030116 27.611
33.04993649794511 27.521
33.073341986570746 27.5617
33.09656744032826 27.5212
33.11979429286444 27.551
33.14302254538647 27.4972
33.166433686291185 27.4682
33.18966475336992 27.424
33.212897224069096 27.2785
33.23613109959831 27.3264
33.259547912343415 27.1826
33.2827846121627 27.1977
33.306022720453775 27.2091
33.32926223842861 27.1562
33.352684742614166 27.0387
33.37592709463173 27.1148
33.399170859982064 26.9488
33.422597648419426 26.9218
33.44584425514446 26.8091
33.46909227885668 26.8337
33.4923417207723 26.7746
33.51577423505344 26.6741
33.539026528130385 26.6379
33.56228024307245 26.639
33.585535381098246 26.4797
33.60897364093058 26.4371
33.63223163992385 26.4663
33.6554910656699 26.4074
33.678751919389796 26.381999999999998
33.702195944520106 26.3091
33.72545966903325 26.3194
33.74872482519663 26.1919
33.771991414233746 26.18
33.79544122444841 26.1547
33.81871069412428 26.1317
33.84198160035767 26.1832
33.86525394437455 26.1066
33.88870955949969 26.0233
33.911984794020626 26.0079
33.93526147001624 26.0332
33.958539588715006 26.0093
33.98200102861669 25.864
34.0052820477047 25.7987
34.02856451319451 25.8307
34.05203033759056 25.69
34.07531571090147 25.6834
34.09860253431845 25.6927
34.121890809074316 25.6128
34.145362493118924 25.6331
34.16865368561615 25.6257
34.191946333164054 25.5685
34.21524043699793 25.5961
34.23871800066799 25.4816
34.26201503218366 25.3286
34.28531352370466 25.43
34.30861347646881 25.3228
34.33209693978188 25.2801
34.3553998301885 25.2977
34.378704185565205 25.1699
34.402010007152356 25.1469
34.42549939016683 25.1104
34.44880815937748 25.0887
34.472118398533134 24.9381
34.49543010887669 25.0045
34.51892543169198 24.8581
34.54224009966052 24.909000000000002
34.56555624255917 24.9126
34.58887386163339 24.7855
34.61237514439016 24.7971
34.6356957311114 24.6658
34.65901779775809 24.6854
34.68252356662995 24.6682
34.705848608458616 24.6715
34.72917513396849 24.5692
34.75250314440949 24.5161
34.77601490857862 24.5066
34.799345904259795 24.4199
34.82267838863559 24.4804
34.846012362958525 24.3949
34.869530142679984 24.3825
34.89286711232212 24.3576
34.91620557568269 24.3164
34.93954553401677 24.3322
34.9630693495876 24.2313
34.986412313340814 24.3068
35.00975677584668 24.2399
35.033102738362956 24.2062
35.05663261012228 24.1399
35.0799815881786 24.0544
35.10333207003229 24.0752
35.12668405694369 24.061999999999998
35.150220005273056 24.0209
35.17357501786656 24.0104
35.19693153931268 23.9155
35.220289570874385 23.8845
35.24383161619786 23.9597
35.267192683604904 23.904
35.290555264930376 23.9188
35.314101899412165 23.814
35.33746752422433 23.7419
35.36083466676374 23.8375
35.38420332829803 23.6884
35.407756095629054 23.795
35.43112781085063 23.7902
35.45450104888391 23.6987
35.477875810999194 23.6814
35.50143473172161 23.6202
35.52481255774625 23.6098
35.54819191167777 23.541999999999998
35.57157279478914 23.5335
35.595137889488406 23.5256
35.61852184675279 23.4083
35.641907337029984 23.4056
35.665294361595684 23.3299
35.68886565090076 23.2747
35.7122557598848 23.3174
35.73564740699838 23.2964
35.759040593519934 23.2299
35.78261809810353 23.2362
35.80601437933051 23.2009
35.829412203814705 23.0277
35.85281157283719 23.0091
35.876395313415884 23.0578
35.8997977874528 22.9579
35.92320180988546 22.9348
35.946790244133936 22.7977
35.97019737933222 22.908
35.993606066789866 22.7811
36.01701630779276 22.799
36.04061101440684 22.750999999999998
36.06402437852291 22.8184
36.08743930005611 22.8273
36.1108557802951 22.6934
36.13445678011326 22.6697
36.15787639383515 22.5827
36.18129757014299 22.5149
36.20472031032821 22.4694
36.22832762423364 22.4415
36.25175350829375 22.4678
36.275180960119776 22.4145
36.298609981005924 22.4611
36.32222362992669 22.3398
36.34565580510207 22.3578
36.36908955323448 22.3246
36.39252487562093 22.2487
36.416144880530226 22.2369
36.43958336764275 22.1908
36.463023432914625 22.2296
36.486465077645676 22.1096
36.51009145956204 22.2228
36.53353627947859 22.1614
36.55698268276811 22.0846
36.58043067073321 22.0096
36.60406345072071 21.9599
36.62751462435344 21.9884
36.65096738658405 21.9424
36.67460498210655 21.9449
36.69806093788647 21.9108
36.72151848619297 21.7842
36.744977628333636 21.8842
36.76862165890998 21.7191
36.79208400512205 21.7537
36.81554794910557 21.748
36.83901349217101 21.6251
36.862663978991606 21.5785
36.88613273667352 21.6431
36.90960309738324 21.6023
36.933075062434064 21.4914
36.95673202673572 21.5024
36.98020721697122 21.4928
37.003684015502365 21.3496
37.027162423645365 21.3989
37.050825886711465 21.3934
37.07430753063053 21.2891
37.09779078812467 21.2897
37.121275660513014 21.2569
37.144945643673694 21.1814
37.16843376245278 21.219
37.19192350009803 21.1735
37.215414857931435 21.1469
37.239091382563885 21.1204
37.262585997426164 21.0202
37.28608223645736 21.023000000000003
37.309763684451696 20.948
37.33326318851098 20.8967
37.356764320726555 20.8356
37.380267082425526 20.9015
37.40395510942588 20.894000000000002
37.42746114683234 20.791999999999998
37.45096881771841 20.7889
37.474478123414166 20.8721
37.49817275092816 20.685
37.52168534303452 20.7083
37.54519957395567 20.5756
37.568715445024665 20.5665
37.592416694607714 20.5547
37.61593586281424 20.6615
37.63945667518264 20.6165
37.66297913304891 20.5206
37.68668702630454 20.5026
37.710212792059274 20.4373
37.733740207334854 20.3505
37.757269273470364 20.3387
37.780983832050374 20.2862
37.80451621684926 20.3337
37.82805025654007 20.3021
37.851585952464795 20.262999999999998
37.8753071980695 20.2096
37.89884622345676 20.2156
37.92238690911902 20.0937
37.94611318753442 20.065
37.969657210779765 20.0729
37.99320289834801 20.0143
38.016750251586465 19.9514
38.04048325513017 19.9868
38.06403395679343 19.9406
38.087586328183946 19.8879
38.11114037065203 19.9458
38.13488012115898 19.9516
38.1584375229181 19.855999999999998
38.181996599821 19.7241
38.205557353221124 19.7335
38.229303872575656 19.7599
38.2528679961576 19.7182
38.27643380031219 19.6801
38.30000128639589 19.6215
38.32375459653193 19.6129
38.34732546371299 19.63
38.37089801690786 19.5231
38.39447225747609 19.4077
38.418232380377425 19.3991
38.441810012983396 19.4827
38.46538933705673 19.463
38.488970353960084 19.4135
38.51273731166058 19.3859
38.536321731567014 19.3097
38.55990784840681 19.2512
38.58367995004091 19.2568
38.60726947812959 19.1826
38.63086070726198 19.2213
38.654453638806274 19.1416
38.678232613930824 19.0919
38.70182896773327 19.0252
38.72542702806741 19.0835
38.7490267963045 19.0633
38.77281266709232 19.0297
38.79641586862214 19.0022
38.8200207821842 18.9908
38.843627409152944 18.9459
38.86742019782782 18.838
38.891030269149255 18.8129
38.914642058016156 18.8317
38.938255565806124 18.8227
38.96205529464307 18.7561
38.98567225787121 18.7323
39.00929094417078 18.7362
39.03291135492255 18.7046
39.05671804624804 18.6381
39.080341923549106 18.6803
39.103967529460334 18.6484
39.127594865365744 18.5157
39.15140854155791 18.4964
39.17503935514948 18.5243
39.19867190290282 18.4889
39.22249083587951 18.4499
39.24612686969409 18.4877
39.269764641845306 18.4334
39.293404153722804 18.3289
39.317230110864074 18.2883
39.34087311998506 18.2951
39.36451787301696 18.2798
39.388164371352595 18.2569
39.41199737518003 18.198
39.43564738196752 18.1452
39.45929913825317 18.1644
39.48295264543308 18.1452
39.506792718520884 18.1318
39.530449745387216 18.0942
39.55410852735203 18.0538
39.57776906581474 18.1024
39.60161623079 17.9966
39.625280300200025 17.9059
39.64894613032202 17.9035
39.67261372255866 17.8986
39.6964680021016 17.8641
39.72013913657293 17.8343
39.74381203738292 17.7736
39.76748670593756 17.8285
39.79134812278169 17.7679
39.81502634488497 17.7222
39.83870633896685 17.7269
39.862388106436654 17.671
39.88625668336918 17.6256
39.90994201572829 17.6442
39.933629125719285 17.5385
39.957503091207826 17.5325
39.9811937746168 17.5589
40.00488623990914 17.4677
40.02858048850006 17.4494
40.05246165409549 17.3814
40.076159487492085 17.3599
40.099859108448875 17.3978
40.123560518384345 17.3781
40.1474489070226 17.3269
40.171153913178564 17.3372
40.194860712584955 17.2874
40.2185693066637 17.2534
40.242464941335314 17.2284
40.26617714307655 17.2067
40.289891143772046 17.191
40.3136069448471 17.1758
40.33750984859743 17.1256
40.3612292688043 17.0099
40.3849504936829 17.0606
40.40867352466194 17.0434
40.43258372059144 17.0093
40.45631038219906 17.0152
40.48003885420956 16.884
40.503769138055105 16.8763
40.52768664931955 16.9369
40.55142057531802 16.8725
40.57515631746428 16.815
40.599079334038514 16.7865
40.62281872700477 16.8112
40.64655994043941 16.7205
40.67030297578061 16.7147
40.69423334835778 16.7362
40.71798004609188 16.6778
40.74172857006355 16.6614
40.76547892171441 16.6403
40.7894166736039 16.6056
40.813170699248566 16.5326
40.83692655691388 16.5114
40.86068424804498 16.5787
40.884629402612525 16.4982
40.908390779366385 16.5278
40.932153993938 16.438
40.95591904777605 16.3976
40.979871628443995 16.39
41.003640379561936 16.3991
41.02741097430883 16.3514
41.05118341413683 16.3127
41.075143444384416 16.2993
41.098919593177826 16.2741
41.1226975914255 16.2135
41.14647744058318 16.2252
41.170444943946755 16.1683
41.19422851378379 16.2131
41.218013938914645 16.1492
41.24198706625173 16.1095
41.26577622087193 16.0812
41.289567235177785 16.0725
41.31336011063129 16.0244
41.337340752422875 15.998
41.361137369129835 15.9657
41.38493585138705 15.9188
41.40873620066004 15.8715
41.43272438060107 15.8538
41.45652848292052 15.8323
41.48033445666918 15.8015
41.50414230331616 15.8074
41.528138045159764 15.7485
41.551949656675205 15.7264
41.575763145513235 15.675999999999998
41.59957851314666 15.7067
41.62358184070442 15.6973
41.64740098505737 15.6916
41.6712220126409 15.5997
41.69504492493139 15.5619
41.71905586207357 15.4925
41.74288256296395 15.5481
41.766711153007456 15.5619
41.79054163368412 15.4594
41.814560204340054 15.4557
41.838394485526365 15.4773
41.86223066180303 15.4115
41.88625497706819 15.394
41.910094962812 15.3965
41.93393684811168 15.3259
41.95778063445365 15.2777
41.981812625263366 15.2866
42.00566023303407 15.2597
42.029509746323676 15.2529
42.05336116662236 15.2031
42.077400857069705 15.2226
42.10125611078846 15.208
42.12511327600405 15.1944
42.14897235421036 15.1078
42.173019768448455 15.0633
42.19688269209613 15.1042
42.22074753323349 15.017999999999999
42.24461429335818 15.0289
42.268669455600495 15.0148
42.292540073217886 15.0257
42.31641261433284 14.9633
42.34028708044675 14.9038
42.36435001496739 14.9326
42.38822835065557 14.9077
42.41210861586426 14.8673
42.4359908120986 14.860999999999999
42.46006154323262 14.8404
42.48394762115317 14.774000000000001
42.507835634632315 14.7537
42.531912233047436 14.6804
42.55580413732265 14.6792
42.579697981698 14.6689
42.60359376768525 14.647
42.62767820545945 14.628
42.65157789440821 14.5977
42.67547952952185 14.5778
42.699383112316 14.527000000000001
42.72347541395347 14.4906
42.74738291190531 14.4747
42.771292362102166 14.4898
42.795203766063516 14.4628
42.819303956130405 14.4288
42.843219287476536 14.3386
42.86713657716324 14.3489
42.89105582671383 14.3052
42.91516392983864 14.3392
42.939087119032166 14.289000000000001
42.963012272677304 14.2571
42.98693939230129 14.2503
43.01105543317513 14.2133
43.034986504731386 14.2016
43.05891954686589 14.183
43.08285456110972 14.1696
43.10697856448665 14.1399
43.130917542983475 14.0673
43.15485849820081 14.0746
43.17880143167367 14.0291
43.20293342237094 13.9797
43.226880332449 13.9536
43.25082922540554 14.0059
43.27496722682525 13.9764
43.29892010567796 13.969000000000001
43.32287497204102 13.8868
43.34683182745632 13.845999999999998
43.370977859791836 13.8437
43.39493871351105 13.8271
43.41890156092628 13.8027
43.44286640358341 13.7709
43.46702049182749 13.7704
43.49098934522816 13.6908
43.51496019852649 13.7182
43.5389330532723 13.6562
43.56309522248204 13.6856
43.58707210044314 13.6725
43.61105098451946 13.5533
43.63503187626491 13.5575
43.659202151562134 13.5988
43.68318707902681 13.5691
43.70717401884041 13.5482
43.731162972560874 13.474
43.75534137913236 13.463
43.779334381108384 13.4543
43.803329401683186 13.4251
43.82732644241872 13.4264
43.8515130055166 13.4699
43.87551410707659 13.332
43.89951723350145 13.3381
43.923709934595614 13.3125
43.94771713129917 13.3177
43.97172635758096 13.2589
43.99573761501002 13.2802
44.0199385169922 13.2522
44.04395385732619 13.1815
44.067971233533086 13.222000000000001
44.09199064718605 13.2117
44.11619977548961 13.129000000000001
44.14022328470671 13.1085
44.16424883610785 13.1175
44.18827643127035 13.106
44.21249381139513 13.0693
44.236525514814076 13.0576
44.26055926674478 12.9873
44.28459506876863 13.0003
44.3088207262813 12.9211
44.33286064928722 12.9526
44.35690262714919 12.9028
44.38094666145278 12.9005
44.4051806219871 12.8999
44.42922879003185 12.8158
44.45327901929361 12.8072
44.477331311362136 12.8007
44.501573600619416 12.793
44.525630039221795 12.737
44.54968854541895 12.7776
44.573937102200176 12.7206
44.5979997645541 12.6702
44.622064499300315 12.6733
44.64613130803592 12.6759
44.67038823869318 12.655999999999999
44.69445921643748 12.5987
44.718532272981385 12.5667
44.742607409926194 12.5682
44.76687274034801 12.5353
44.79095205918753 12.5
44.81503346325094 12.4995
44.839116954143876 12.4669
44.86339071028742 12.4351
44.88747839599524 12.3946
44.91156817336837 12.44
44.93566004401666 12.4077
44.959942251908146 12.3763
44.984038330325966 12.3534
45.00813650686762 12.2897
45.03223678314731 12.3045
45.05652746888232 12.2652
45.08063196592069 12.2184
45.104738567558705 12.1666
45.128847275414856 12.1582
45.15314646515866 12.1399
45.17725940679741 12.1221
45.20137445952892 12.1228
45.22568004865265 12.126
45.24979934496396 12.097000000000001
45.27392075725247 12.0486
45.29804428714431 12.0056
45.322358426247604 12.0379
45.346486212804315 11.9861
45.370616121861914 11.9852
45.39474815505086 11.9336
45.41907087049246 11.9214
45.4432071734666 11.8962
45.46734560548283 11.9036
45.49148616817604 11.8938
45.51581748638564 11.8712
45.5399623320197 11.8668
45.56410931325473 11.8388
45.58825843173002 11.8149
45.61259837920865 11.7893
45.636751793816 11.8116
45.66090735060093 11.7238
45.68506505120716 11.6888
45.7094136545275 11.6939
45.73357566449271 11.6467
45.75773982322992 11.6387
45.78190613238733 11.6183
45.806263418194064 11.585999999999999
45.83043404997326 11.5658
45.85460683713677 11.5664
45.87897065658495 11.5509
45.90314777634752 11.5277
45.92732705646868 11.4978
45.9515084986045 11.4634
45.97588104735473 11.4673
46.00006683541565 11.4461
46.02425479047904 11.4152
46.04844491420549 11.3833
46.0728262191024 11.3902
46.09702070211635 11.3399
46.12121735879483 11.3715
46.14541619080294 11.3466
46.169806278764455 11.3241
46.194009483459034 11.2984
46.21821486849841 11.2565
46.24242243555223 11.2421
46.266821333570014 11.1998
46.29103328674601 11.2014
46.31524742696538 11.1998
46.33946375590237 11.1425
46.36387149104216 11.1788
46.38809221957392 11.1303
46.41231514186606 11.103
46.436540259597464 11.1014
46.460956858999374 11.0829
46.48518638983522 11.0444
46.509418121166966 11.0191
46.533652054678114 11.0058
46.55807754555709 10.9891
46.58231590571962 10.9452
46.60655647313217 10.8897
46.630988654873654 10.8804
46.655233659129024 10.8827
46.67948087571551 10.9013
46.70373030632484 10.8476
46.72817142736393 10.809000000000001
46.752425308428684 10.8406
46.77668140861147 10.7779
46.80093972960865 10.7657
46.82538981736788 10.7151
46.849652602470904 10.7175
46.87391761349769 10.6864
46.8981848521493 10.704
46.9226439341274 10.7328
46.946915650573224 10.6136
46.97118959976749 10.6145
46.99546578341598 10.5985
47.019933887188216 10.6267
47.04421456235744 10.595
47.06849747711879 10.5568
47.09278263318286 10.5696
47.11725978640143 10.5241
47.14154944775105 10.5082
47.165841355555656 10.4851
47.1901355115306 10.4712
47.214621741924994 10.4625
47.23892041698887 10.4193
47.26322134538975 10.4197
47.28771440635075 10.3812
47.31201986422527 10.401
47.33632758061436 10.3482
47.360637557241866 10.2785
47.38513974410611 10.3264
47.40945426407847 10.2944
47.43377104948137 10.2636
47.45809010204344 10.2747
47.48260144275502 10.2387
47.506925052572285 10.2113
47.53125093475548 10.1726
47.55557909103813 10.1813
47.58009961361992 10.1604
47.60443234110732 10.1637
47.62876734791564 10.1179
47.65310463578333 10.1082
47.6776343683373 10.0814
47.7019762413987 10.0419
47.72632040075572 10.035
47.75066684815169 10.0267
47.77520581885936 9.98943
47.799556865477655 9.97964
47.823910205386 9.97406
47.84826584033272 9.95934
47.87281407745551 9.90274
47.89717432569297 9.91918
47.92153687423484 9.91625
47.94609208429692 9.91215
47.97045925671401 9.87759
47.99482873471275 9.86748
48.01920052005013 9.86202
48.04376504619224 9.82521
48.068141469543484 9.79416
48.09252020552573 9.78426
48.11690125590099 9.76023
48.1414751266064 9.75193
48.16586082917454 9.71226
48.19024885144316 9.67902
48.2146391951793 9.694339999999999
48.239222439012764 9.68427
48.26361744916137 9.65542
48.28801478610016 9.65881
48.31241445160131 9.62968
48.337007097209366 9.60397
48.36141144338331 9.5891
48.38581812345755 9.580739999999999
48.41022713920929 9.55025
48.434829215320704 9.54225
48.45924292604658 9.525210000000001
48.48365897780325 9.50355
48.50807737237308 9.482510000000001
48.532688907799276 9.46952
48.55711201168574 9.46366
48.581537463754074 9.44137
48.60615611725119 9.43783
48.63058628942721 9.40677
48.65501881516546 9.3826
48.6794536962573 9.37595
48.70408185970339 9.35336
48.72852147531801 9.33739
48.75296345168211 9.31228
48.77740779059232 9.29536
48.80204549302823 9.26408
48.82649458091802 9.2819
48.85094603676547 9.21124
48.87539986237231 9.20444
48.90004713292306 9.193060000000001
48.92450572200832 9.18063
48.94896668628025 9.171330000000001
48.97343002754588 9.183869999999999
48.99808689542115 9.1598
49.02255501470614 9.12768
49.04702551642794 9.08201
49.0714984023988 9.08635
49.096164896893235 9.051730000000001
49.120642575466796 9.06652
49.145122643748394 9.031939999999999
49.16960510355558 9.016630000000001
49.19428125404938 9.024189999999999
49.2187685210852 8.99138
49.243258185121555 8.97828
49.26794160167084 8.94636
49.2924360839405 8.97074
49.31693296869764 8.88889
49.34143225776915 8.8598
49.36612538195438 8.85212
49.39062950396021 8.862260000000001
49.41513603578346 8.84928
49.4396449792564 8.86482
49.46434784069503 8.85469
49.488861631846454 8.79417
49.513377840166804 8.77021
49.537896467493745 8.73666
49.56260909589029 8.69334
49.587132585683285 8.72537
49.611658500018365 8.71752
49.636186840738596 8.6776
49.66090926588511 8.6782
49.685442483902584 8.66461
49.70997813385706 8.60736
49.734516217597076 8.63797
49.75924846937352 8.60511
49.7837914452858 8.56069
49.80833686055187 8.56333
49.83288471702571 8.56292
49.85762682540054 8.56778
49.882179588965734 8.54247
49.9067347993235 8.50146
49.93129245833333 8.53312
49.95604445336378 8.51258
49.98060703442832 8.44181
50.005172069746266 8.44102
50.02993150438364 8.44393
50.05450147301533 8.422080000000001
50.07907390151433 8.40133
50.10364879174981 8.37199
50.12841816587289 8.37958
50.1529980044635 8.32768
50.17758031042124 8.31857
50.20216508562089 8.309619999999999
50.22694442953363 8.26309
50.25153416817468 8.25728
50.27612638170508 8.28486
50.300721072005196 8.248389999999999
50.325510416102105 8.25634
50.350110084975064 8.2088
50.37471223628208 8.21989
50.39931687190919 8.21203
50.424116246675766 8.16762
50.44872587605249 8.121189999999999
50.47333799543065 8.15582
50.49795260670191 8.12951
50.52276204271512 8.09266
50.54738166295838 8.10551
50.57200378079314 8.092
50.596628398116835 8.03266
50.62144792604559 8.02128
50.646077567609396 8.031880000000001
50.670709714377715 8.04283
50.69553683636198 7.9938899999999995
50.72017401885922 7.973489999999999
50.7448137122895 7.962060000000001
50.76945591856022 7.952660000000001
50.79429318636823 7.93575
50.818940443716784 7.94039
50.84359021965163 7.89927
50.868242516085964 7.89067
50.893089960641895 7.88952
50.917747323549435 7.856660000000001
50.94240721271973 7.83988
50.96706963007175 7.824439999999999
50.99192728239342 7.82861
51.01659478166073 7.81146
51.04126481489051 7.793010000000001
51.06593738400761 7.77958
51.090805275207074 7.7501
51.11548294172845 7.757439999999999
51.14016314993547 7.733439999999999
51.164845901758845 7.750710000000001
51.18972406304274 7.70418
51.21441192780656 7.6653899999999995
51.23910234200271 7.64953
51.2637953075678 7.645230000000001
51.288683770237945 7.62626
51.31338186432707 7.614739999999999
51.33808251561888 7.5694300000000005
51.362978729967345 7.59987
51.387684521509755 7.57188
51.41239287610203 7.52738
51.437103795691165 7.49719
51.46201036644977 7.525930000000001
51.486726441956634 7.49512
51.51144508832545 7.5163199999999994
51.536166307509156 7.4539
51.56108326624387 7.4690199999999995
51.58580965706056 7.42425
51.61053862657523 7.41385
51.635270176746864 7.43883
51.66019755512065 7.44079
51.68493429268881 7.380089999999999
51.70967361681515 7.38391
51.73441552946465 7.368410000000001
51.759353359237934 7.34492
51.7841004750961 7.345160000000001
51.80885018539685 7.3376600000000005
51.833602492111254 7.270919999999999
51.8585508051424 7.28141
51.883308330926425 7.264889999999999
51.90806845906181 7.267939999999999
51.932831191525715 7.1970600000000005
51.95779001977161 7.20257
51.98255798721516 7.189489999999999
52.00732856494335 7.17462
52.03229530577543 7.163819999999999
52.057071130455945 7.155360000000001
52.081849571391054 7.14515
52.106630630568695 7.11338
52.13160794279417 7.078139999999999
52.15639426492067 7.098330000000001
52.18118321127822 7.08372
52.205974783860896 7.06045
52.23096269971011 7.061210000000001
52.255759551287994 7.0683300000000004
52.280559035098186 7.01846
52.30536115314103 6.98786
52.33035970494467 6.97427
52.35516711807904 6.95202
52.37997717147198 6.9646300000000005
52.40478986713005 6.92497
52.42979908731974 6.92691
52.454617094216 6.91471
52.47943774942214 6.900810000000001
52.50426105495102 6.88974
52.529280976059844 6.8558
52.554109609024096 6.8247100000000005
52.57894089837482 6.85648
52.60377484613117 6.83668
52.62880550079408 6.8258399999999995
52.65364479223379 6.80145
52.67848674816189 6.7832
52.70352547971946 6.7762899999999995
52.72837279155837 6.7351
52.753222773982785 6.74797
52.778075429022984 6.73615
52.80312495150885 6.740419999999999
52.827982978797436 6.69422
52.85284368481815 6.675789999999999
52.87770707160767 6.67962
52.90276741793998 6.67017
52.92763619336701 6.6847199999999996
52.952507655698504 6.61901
52.977381806977576 6.66003
53.00245301017842 6.62208
53.02733256653592 6.57798
53.052214817996074 6.58696
53.077099766608484 6.57892
53.102181859804446 6.54666
53.127072229988265 6.543019999999999
53.15196530349892 6.56615
53.17686108239249 6.53562
53.20195409881522 6.54165
53.22685531582556 6.5026
53.25175924441303 6.41737
53.27666588664027 6.45118
53.30176985962693 6.44841
53.3266819565689 6.41343
53.35159677336455 6.41493
53.376514312083096 6.43843
53.40162927507703 6.36048
53.42655228516116 6.4046199999999995
53.45147802340193 6.32991
53.47660125628886 6.337999999999999
53.50153247842639 6.32342
53.52646643496923 6.300730000000001
53.55140312799818 6.31417
53.576537409691696 6.25874
53.60147960336152 6.28334
53.626424539786164 6.24001
53.65137222105307 6.22526
53.67651758529126 6.2291099999999995
53.70147078399681 6.219130000000001
53.72642673383343 6.20306
53.75138543689533 6.1823
53.776541917524526 6.173109999999999
53.801506154876755 6.174919999999999
53.826473151763246 6.13588
53.851442910284916 6.10976
53.87661054126026 6.14821
53.9015858509782 6.0936699999999995
53.92656392866066 6.06533
53.95154477641532 6.07474
53.976723591801296 6.05881
54.00171000771266 6.045319999999999
54.02669920004598 6.0311900000000005
54.051691170915745 6.01428
54.076881204886796 6.01882
54.101878760928514 6.01349
54.12687910187696 5.98766
54.152077577768296 5.97201
54.1770835166946 5.92272
54.20209224691339 5.95707
54.22710377055121 5.92295
54.25231352511594 5.97656
54.27733066384342 5.911230000000001
54.30235060239643 5.89412
54.32737334290836 5.87078
54.35259441062629 5.8044199999999995
54.377622783395324 5.81311
54.40265396455061 5.7981300000000005
54.42768795623251 5.77867
54.45292037169559 5.79136
54.477960012857906 5.7948699999999995
54.50300247099511 5.7654
54.52804774825457 5.74745
54.55329154616743 5.6780800000000005
54.57834249018678 5.6951
54.6033962597977 5.66862
54.6284528571545 5.6598
54.653708072335164 5.66829
54.67877035378786 5.66854
54.70383546947698 5.58871
54.72890342156389 5.57311
54.7541700889442 5.5448
54.77924374251975 5.57169
54.8043202390049 5.5269900000000005
54.82959552413022 5.50442
54.8546777351945 5.46215
54.87976279569621 5.47369
54.90485070780914 5.49469
54.930137506558005 5.45337
54.95523115074295 5.443969999999999
54.98032765308844 5.3922099999999995
55.005427015775496 5.36428
55.03072536339621 5.37804
55.05583047570572 5.2910699999999995
55.080938454927676 5.28927
55.10604930325027 5.2801
55.131359235107396 5.35991
55.15647585066083 5.23189
55.181595341907496 5.23321
55.20671771104285 5.18329
55.232039262617704 5.20337
55.25716741665048 5.191269999999999
55.28229845518636 5.122669999999999
55.30743238042802 5.10067
55.33276558731939 5.12188
55.357905315183636 5.1513
55.383047936390035 5.04997
55.40819345314859 5.06047
55.433538351073295 5.00697
55.458689688238415 5.01856
55.483843927614096 4.95479
55.509197623043605 4.94495
55.53435769621134 4.94464
55.55952067826466 4.92575
55.5846865714265 4.86204
55.61005202069737 4.83188
55.63522376553902 4.86413
55.66039842818645 4.80394
55.68557601087004 4.8066
55.7109532500271 4.71711
55.73613670233794 4.72347
