TT I
1.2716486653135266 7.0539
1.2939594142134223 7.0723899999999995
1.3162702121660406 6.7077
1.3385810600174564 6.64123
1.3608919586137629 7.03978
1.383202908801069 6.49216
1.405513911425503 5.90566
1.4278249673332093 6.16246
1.4501343378461518 5.7925
1.4724455028545926 5.32249
1.4947567236847858 5.71572
1.517068001182951 6.29019
1.5393793361953272 6.03939
1.5616907295681737 5.5275300000000005
1.5840021821477681 5.3676
1.60631369478041 4.71448
1.6286252683124185 5.50491
1.6509369035901333 5.4189300000000005
1.6732468618895553 5.27694
1.695558623192809 4.6643
1.7178704487808514 4.63059
1.7401823395001077 4.29038
1.7625012545597203 4.50865
1.7848028405262486 4.3985199999999995
1.8071218901122095 4.84136
1.8294236121921872 4.4497
1.8517427996910911 4.6658599999999995
1.8740620574440425 4.8276699999999995
1.8963639900671978 4.7495400000000005
1.9186833908139995 4.4320699999999995
1.9409854680117449 5.14216
1.9633050151394713 4.8608199999999995
1.9856246367570705 4.79026
2.0079269371922672 4.88999
2.03024671027244 4.6355
2.0525491637446027 5.06482
2.074869091674931 4.73724
2.097171701569106 4.47666
2.1194917877373847 5.26564
2.141811954326636 5.1826300000000005
2.164114805233074 4.84808
2.186435135143035 5.7317599999999995
2.208738150935709 10.7955
2.231058647554722 19.5375
2.2533792288321184 15.8669
2.275682498336085 8.36035
2.298003251406138 5.54219
2.3203066942619714 5.72464
2.3426276225136022 5.52731
2.3649486396617507 5.6707
2.387252348930071 6.36463
2.4095735463442893 6.09276
2.4318774374315884 6.49139
2.4541988185014043 7.073589999999999
2.476502894794693 6.999569999999999
2.498824462909887 7.49487
2.521146125856138 7.623460000000001
2.5434504863470337 7.724660000000001
2.5657723414244717 8.025
2.588076895590662 8.27427
2.610398946189713 8.49132
2.6327210958598384 8.36647
2.6550259469304716 8.44759
2.6773482972090137 8.460180000000001
2.6996533504259 8.9232
2.7219759047039602 8.430489999999999
2.744298562293959 8.84534
2.7666039251246595 9.163839999999999
2.7889267918020164 8.24964
2.8112323652516555 7.732360000000001
2.833555444408179 8.62472
2.8558786311183852 8.96112
2.8781845268938557 9.43805
2.9005079311721484 8.93453
2.9228140460410397 9.0817
2.9451376712799635 8.99405
2.967444008632326 9.5633
2.9897678582247247 10.409
3.0120918213106695 11.0952
3.0343984987899373 10.7742
3.0567226913198637 11.2905
3.079029599759726 11.6233
3.101354025127254 12.162
3.123678568232338 13.1185
3.145985829517914 13.3642
3.16831061055229 14.1782
3.1906181112775593 14.4944
3.212943133635653 15.2365
3.2352682779763207 15.4738
3.2575761442691227 15.9609
3.2799015350264273 15.3499
3.302209649240067 16.2926
3.3245352898092655 16.5686
3.3468436553365257 17.1182
3.369169549113219 17.6264
3.3914955708171384 18.0726
3.413804319727358 18.7666
3.4361305997334863 18.9942
3.4584396084414553 19.5736
3.4807661501462652 20.2315
3.503092824025881 20.3644
3.5254022288463154 20.5634
3.5477291695206588 21.4864
3.5700388426251948 22.6181
3.5923660534916446 23.6571
3.6146934007816114 33.8645
3.637003482731501 66.0013
3.6593311053109985 71.3271
3.681641464033634 44.8014
3.7039693653009733 28.5539
3.726297407241705 25.3805
3.7486081875460804 25.2863
3.7709365132734978 25.7035
3.793247578841633 25.8929
3.8155761917550093 26.4615
3.8378875459837216 26.6168
3.8602164494827234 27.3593
3.882545499606844 28.2812
3.9048572932539183 28.5375
3.9271866390645718 28.8726
3.9494987298666713 29.619
3.971828374764527 30.226999999999997
3.9941581705403255 30.7791
4.016470713506008 31.3787
4.038800813471445 31.7114
4.061113662089144 32.9897
4.0834440696459176 33.0493
4.105774632334751 33.1206
4.128087945865126 34.2648
4.150418821249301 35.0468
4.172732448931298 36.1553
4.195063640413578 38.0468
4.2173775856475215 40.5982
4.239709096631102 63.2576
4.262040768704612 169.563
4.284355196706267 221.023
4.306687193387355 147.773
4.329001947444346 67.8807
4.35133427213731 46.5089
4.373666762177566 43.871
4.395982011761091 43.9555
4.418314834921175 44.7342
4.44063041906622 50.69
4.4629635787515625 57.9734
4.4852969080429785 57.9938
4.5076130004776225 52.8871
4.529946671403969 52.7528
4.552263106909177 54.1307
4.574597122877047 53.5266
4.596931312711224 52.7566
4.619248269273446 53.2406
4.6415828092605835 53.9027
4.663900117405352 54.5392
4.686235010953232 56.0575
4.708552674085913 57.5138
4.730887924602802 59.1677
4.753223354952695 60.6491
4.775541557023902 63.1593
4.797877349456786 65.3391
4.820195915032126 66.3472
4.842532072957498 66.5959
4.864868414979744 69.2303
4.88718753227192 71.9255
4.909524244902505 74.2166
4.931843734218147 74.994
4.954180820867835 76.9445
4.976518095879839 79.4075
4.998838149695359 81.7618
5.021175803844231 85.6903
5.043496238205739 88.9832
5.065834274903528 92.7181
5.088172504230693 97.3193
5.1104935158799565 103.469
5.132832132875765 121.479
5.155153533596801 156.377
5.1774925416746225 181.96200000000002
5.199814334878411 303.313
5.2221537374521505 836.829
5.244493338631803 2622.54
5.266815727034316 7830.58
5.289155727832427 13430.3
5.311478517248165 8977.3
5.333818921080011 2782.43
5.356159527788849 518.339
5.3784829252032536 182.16299999999998
5.400823940070432 144.55100000000002
5.423147747031976 126.04799999999999
5.445489173474152 116.531
5.467830807066149 113.962
5.490155234831516 112.50299999999999
5.512497285125229 107.17
5.534822130975162 103.51700000000001
5.557164601388673 100.48100000000001
5.579489868738879 97.583
5.601832762690846 96.6939
5.6241758697774475 95.5498
5.646501775867269 94.7874
5.668845311622074 93.5287
5.691171647754637 93.0439
5.713515615597765 91.7684
5.735859800852677 90.9658
5.758186788542988 91.3599
5.780531411018185 93.3459
5.802858837297399 93.0724
5.825203900414495 93.0769
5.8475491852224 94.3781
5.869877275883075 94.2417
5.892223006467101 92.6015
5.914551544266608 91.9482
5.936897724049891 93.9719
5.959244129804903 98.699
5.981573344815301 113.602
6.0039202049061 189.045
6.026249875609095 400.05800000000005
6.04859719346037 867.921
6.070927323278297 2175.93
6.093275102315365 4509.98
6.115623113320588 5223.71
6.137953938319995 3072.46
6.160302415650845 887.071
6.182633708324452 213.02200000000002
6.2049826554078376 107.29700000000001
6.227331838745022 88.3382
6.249663839443684 82.1404
6.27201349767565 79.4764
6.294345974611799 83.2916
6.316696111167083 90.0616
6.339046488263839 85.788
6.361379686074702 75.6548
6.383730546639482 70.2555
6.406064229255215 67.7599
6.428415576718203 68.4802
6.450749747566656 67.8822
6.47310158535871 65.8297
6.495453669698332 64.2976
6.517788579421056 63.8515
6.540141159237969 62.701
6.562476565766648 62.4976
6.5848296444934045 61.8753
6.607182974060425 61.9535
6.6295191323281015 62.1511
6.651872965955752 64.1719
6.6742096296068985 81.7053
6.6965639707294615 110.17399999999999
6.71891856698715 109.01899999999999
6.741255995248479 80.9793
6.763611104154477 64.3056
6.785949046381137 59.2351
6.808304671371482 58.215
6.8306605557940046 58.3282
6.852999275508618 57.5861
6.875355681171544 56.9395
6.897694923437771 55.9115
6.92005185377892 56.092
6.9423916220322655 55.5189
6.964749080490181 54.7301
6.987106804399774 54.7904
7.009447368180821 54.8617
7.031805625367033 54.8944
7.054146723727803 54.9409
7.076505517631004 54.4685
7.098864581288365 54.6908
7.121206488070854 54.4824
7.143566093607822 54.6683
7.165908543567245 55.3775
7.188268694426048 54.8756
7.2106291193438095 54.6965
7.232972390625943 55.3656
7.255333366030969 64.9937
7.277677189091925 101.014
7.300038718428332 129.92600000000002
7.322400526130865 110.485
7.344745183422596 75.8298
7.367107550224791 58.7797
7.389452767901992 54.9602
7.411815697249891 54.0513
7.434161478756298 53.3572
7.456524974096713 53.5311
7.478888753837185 53.4277
7.501235387657368 53.7209
7.523599738562711 53.5618
7.545946944825532 53.875
7.568311870344528 54.4504
7.5906770845765665 54.353
7.613025156078678 55.5794
7.635390950099687 56.3556
7.657739602662809 56.2171
7.680105979923558 55.3808
7.702472650212829 55.7509
7.724822180948224 55.5367
7.747189439655568 55.5902
7.769539560075357 55.2315
7.791907410653562 55.9315
7.81425812420825 55.6889
7.836626570110925 55.9083
7.858995315087906 56.6863
7.881346924933401 56.8888
7.903716270417482 57.458999999999996
7.926068482028405 57.7477
7.948438431475253 58.735
7.9708086843180235 59.1099
7.993161805171116 59.6682
8.015532667162402 59.74100000000001
8.037886398416653 60.7438
8.060257873014221 61.4808
8.082629655331942 62.2003
8.104984308787587 62.8692
8.127356708900503 65.9791
8.149711981398308 70.6001
8.172085002766314 72.7389
8.194458336181368 70.3314
8.216814543847752 68.1579
8.23918850371002 68.4438
8.26154533906492 68.9311
8.283919928836452 70.6381
8.306277395339652 71.7147
8.328652618483376 72.9036
8.351028159736202 74.7285
8.373386579575245 77.3434
8.395762759396959 78.8837
8.418121819038275 82.7911
8.440498640894003 92.5423
8.462875785192262 102.73200000000001
8.485235811156207 114.16799999999999
8.507613602688501 150.41299999999998
8.529974277114228 227.351
8.552352719347912 354.464
8.574731488360351 611.441
8.59709314210385 1174.93
8.619472567021075 1884.05
8.64183487789147 2194.43
8.664214962183097 1771.43
8.686577933647762 926.8810000000001
8.708958680784317 349.45300000000003
8.731339760774953 156.423
8.753703729764451 107.605
8.77608547780821 96.5144
8.798450116065078 93.4349
8.820832535634787 90.7489
8.843215292401656 90.0635
8.865580941199045 89.5786
8.887964374703538 88.8636
8.910330701447199 89.6357
8.932714815164482 90.6219
8.955099270424924 88.7306
8.977466620733543 86.2831
8.999851761421976 84.0978
9.022219798361645 82.72
9.04460562795561 82.5241
9.066991803441677 82.464
9.089360876979615 82.3502
9.111747746589993 82.382
9.13411751544971 81.4199
9.156505082664324 80.9479
9.178875550323522 80.6724
9.20126381862328 81.0501
9.223652438908596 81.5863
9.246023961427412 81.5167
9.26841328802173 81.0142
9.290785518039224 81.1618
9.313175554425882 82.5833
9.335565947154315 83.1586
9.357939245086508 83.4381
9.380330352834827 83.3671
9.40270436697103 83.2561
9.425096193225055 83.3149
9.447488380180165 83.5349
9.469863475295412 83.3522
9.492256385987508 83.1063
9.514632206018318 83.7984
9.537025843935714 84.4628
9.559402392368193 85.0765
9.581796761000229 87.0055
9.604191496441521 88.5847
9.626569144158516 91.6774
9.648964615551032 94.2438
9.671343000390081 94.7439
9.693739211225699 92.8241
9.716135793237463 91.1954
9.738515290448102 91.1018
9.760912617143402 92.8758
9.783292860202891 94.2352
9.805690935076182 95.9348
9.828089385495742 97.1885
9.850470754023561 99.3517
9.872869957865444 104.539
9.89525208097539 114.431
9.917652041736662 123.152
9.940052382417589 124.071
9.962435644102392 133.748
9.984836746950979 165.575
10.007220771957746 223.30599999999998
10.029622640473708 319.192
10.052007432299963 502.176
10.074410069984072 804.076
10.096813093716005 1278.35
10.119199042482517 1767.88
10.141602840636468 1941.85
10.163989564971628 1531.5
10.186394141051062 840.71
10.208799107559706 365.12699999999995
10.231187001965623 177.02200000000002
10.253592751657669 122.25299999999999
10.275981430388155 110.486
10.298387966769793 109.11399999999999
10.320794897965431 109.734
10.343184759907361 108.585
10.36559248305461 104.571
10.387983138083852 102.646
10.410391656691655 104.363
10.432800574501677 113.906
10.455192425893369 128.688
10.47760214443012 154.124
10.499994797678786 199.771
10.522405320453982 282.026
10.54479877906917 404.276
10.567210109595656 530.806
10.5896218454736 569.746
10.612016518879773 491.75
10.634429067781074 331.00199999999995
10.656824555333241 188.975
10.679237920773568 118.25299999999999
10.701651695961992 93.7191
10.724048411481384 87.5005
10.746463008485165 84.9957
10.768860546937125 83.3349
10.791275969274796 81.4309
10.81369180576079 80.9309
10.836090585366925 79.834
10.858507252467449 78.7593
10.88090686379991 77.8
10.903324365036394 77.4697
10.925724811614439 76.8761
10.948143150509463 77.7213
10.970561909719066 77.2544
10.992963615930844 75.5992
11.015383218085756 73.8742
11.037785768347074 72.2147
11.06020621697282 71.7619
11.082627090322113 71.2543
11.105030913430326 70.5229
11.12745263854165 70.5078
11.149857314510728 72.7248
11.172279894912576 76.5603
11.194702904450653 76.4551
11.217108866490921 73.562
11.239532736615194 70.8241
11.26193956033512 69.3643
11.284364294577085 68.2481
11.306789462371718 67.0897
11.329197585398376 66.2662
11.351623622610898 65.8794
11.37403261614354 65.0855
11.396459526308487 65.045
11.418869393879497 64.373
11.441297180532617 63.9524
11.463725406927658 63.7098
11.486136592353875 63.6529
11.508565700543707 63.824
11.530977768845315 65.3868
11.553407762368774 65.6618
11.575838200059769 65.1008
11.598251599479612 63.7581
11.620682927815501 62.6681
11.64309721895548 62.3787
11.665529441478206 62.0607
11.687962112597958 61.8185
11.710377748130886 62.1672
11.732811318753434 62.0426
11.755227854859067 61.9369
11.777662328529495 61.5329
11.800079768750786 61.7608
11.822515149015453 61.5433
11.844950984084935 61.7103
11.867369787303163 61.4763
11.889806534289491 61.6107
11.912226250487029 61.8175
11.934663912939751 61.6532
11.9571020346363 61.9013
11.979523127133968 61.8721
12.001962169624331 62.4809
12.024384183972964 63.3282
12.046824150809913 66.0826
12.069264581333726 70.8133
12.091687985297767 76.5706
12.11412934550045 85.5048
12.136553680195208 100.98
12.158995973632788 127.13
12.181438735204349 156.64700000000002
12.20386447284199 185.264
12.226308172985636 202.485
12.24873485024193 195.35
12.271179492516982 157.107
12.293607112949127 120.156
12.316052700916226 91.9701
12.338498763250042 74.49600000000001
12.360927805303868 67.2192
12.383374818673879 64.6134
12.405804812803074 63.3005
12.428252780773262 63.1094
12.45070122756722 63.0716
12.473132656675375 63.1457
12.49558206341869 63.4192
12.518014453510101 63.3364
12.540464823770117 63.433
12.562915677315177 63.6649
12.58534951575545 64.3066
12.607801338171472 65.7639
12.630236146511358 69.3603
12.652688941369085 72.5173
12.675124723177234 72.6147
12.697578494048786 70.2849
12.720032754458185 67.6123
12.742470003354093 66.5495
12.764925245138771 66.7329
12.787363476431278 66.9784
12.809819703166806 67.2461
12.83227642391173 67.9682
12.854716135692716 68.3872
12.877173846755147 69.4634
12.899614549869717 69.6839
12.9220732548287 70.4864
12.94453245827299 71.2239
12.966974655289818 72.2897
12.989434858002571 72.9003
13.011878055298721 73.8597
13.034339260862497 74.6542
13.056800969391883 75.61399999999999
13.079245674017244 77.827
13.101708390774869 79.6121
13.12415410463411 86.1697
13.146617833206086 96.2164
13.169064559883248 106.69200000000001
13.191529303857127 121.14
13.213994557076367 143.52100000000002
13.236442809902437 182.03099999999998
13.258909083908291 241.545
13.28135835851934 310.106
13.30382565690295 383.333
13.326293469022952 428.65
13.348744283242008 419.605
13.371213125129904 347.449
13.39366497011003 246.362
13.416134845360597 165.72299999999998
13.438605238843131 119.12
13.46105863690397 102.258
13.483530069144786 101.895
13.505984506951902 106.363
13.528456981549432 115.624
13.550929978879088 131.09
13.573385983253365 155.03799999999998
13.595860028340867 197.671
13.618317081455832 255.63
13.64079217790333 313.555
13.663250283359057 361.469
13.685726434770173 372.759
13.708203115221277 323.438
13.730662806148091 250.92700000000002
13.75314054697177 178.342
13.775601299246777 123.619
13.798080104050406 94.9512
13.820559442405358 83.8418
13.843021793671388 80.1566
13.865502201420897 78.9631
13.887965623051947 78.0281
13.910447103807167 77.0722
13.932929122629764 75.6769
13.955394156785959 75.4734
13.977877254034569 74.8004
14.000343367582113 73.694
14.022827546871707 73.0353
14.045294743423524 72.5297
14.06778000837062 71.6721
14.090265817715476 71.6115
14.112734645763819 71.1833
14.13522154619454 70.8633
14.157691466286913 70.8947
14.180179461423874 70.7119
14.202668005486178 70.0753
14.22513957064374 69.653
14.247629214846473 69.2762
14.270101881097517 69.0681
14.29259262906496 69.4591
14.315083930490205 69.6737
14.337558255389705 69.5667
14.360050666019726 69.5439
14.382526101071944 68.8183
14.405019624534942 68.0201
14.427513705993134 67.4803
14.449990813291825 67.8244
14.47248601302899 67.7294
14.49496423954951 67.6238
14.517460561197822 67.83
14.539939910570322 67.5714
14.562437357763558 67.9846
14.58493536931253 68.8174
14.607416409993311 69.4233
14.62991555254159 69.8798
14.652397725157423 69.483
14.674898002342799 69.4028
14.697398848433282 69.2048
14.719882725991326 69.9833
14.74238471217934 70.7045
14.764869730765593 73.3389
14.787372860692983 76.4986
14.809876564079925 80.6171
14.83236330125751 86.1851
14.854868153850365 94.6033
14.877356041159485 109.131
14.899862046604186 128.83700000000002
14.922351087688757 157.216
14.944858249632887 189.187
14.967365991421232 213.325
14.989856770231246 225.148
15.012365673994204 215.90200000000002
15.03485761569738 181.16400000000002
15.05736768508665 144.27100000000002
15.07987833888692 109.874
15.102372032001655 87.3933
15.124883856909658 75.3332
15.14737872204565 71.1101
15.169891721717274 69.4165
15.192405310371893 69.1381
15.214901940621196 69.0788
15.237416709527137 68.7748
15.259914520936249 68.8545
15.282430473753607 68.1837
15.304947020131227 67.3176
15.327446610371178 66.7329
15.349964346154254 65.8837
15.372465126703139 65.5441
15.394984055556009 65.3891
15.417486030076159 65.2788
15.44000615566487 64.9261
15.462526881230803 64.9518
15.485030653812652 65.0368
15.507552581617434 64.9651
15.530057557334603 64.9634
15.55258069104857 64.8596
15.575104429329837 65.0013
15.597611216864632 64.6494
15.620136166564563 64.788
15.6426441664095 65.565
15.665170331202765 67.2139
15.687697105158826 70.3327
15.710206930593545 73.406
15.732734925158933 77.5608
15.755245972089478 83.7325
15.77777519094324 93.2669
15.800287463046663 107.113
15.822817909869592 127.553
15.84534897229804 150.918
15.867863089299354 174.872
15.890395385222186 190.669
15.912910736597423 193.685
15.935444269699861 178.953
15.957978423016485 149.414
15.980495633101265 118.53200000000001
16.003031029129367 92.8924
16.02554948280019 75.2865
16.048086125229432 66.5666
16.070623392487107 63.7418
16.09314371869582 62.6365
16.11568223789321 61.6831
16.13820381691126 60.8901
16.160743591742527 60.172
16.183283996022084 59.5242
16.205807461423195 58.4224
16.228349126881973 58.1741
16.25087385432698 57.922
16.27341678466365 57.3876
16.29594277784926 57.1721
16.31848697676433 57.32
16.341031811604868 57.2417
16.36355971058487 57.4699
16.3861058195587 57.3024
16.40863499352978 56.1956
16.431182380342005 55.4853
16.453730407713202 55.0428
16.476261501364792 54.7315
16.498810812136167 54.4268
16.52134319004079 54.7129
16.54389378792203 54.4561
16.566445031001553 54.2675
16.588979342490088 54.2001
16.61153187824822 53.9985
16.634067483263312 53.956
16.656621315414416 53.7946
16.679175797408888 53.6887
16.701713349928728 53.8894
16.72426913389191 53.8611
16.74680798922351 53.8892
16.76936507887444 53.9103
16.791905240734874 53.8558
16.814463639794468 53.9905
16.837022695210294 53.8071
16.859564824093756 54.2175
16.882125194503903 54.6467
16.904668639217885 55.0404
16.927230328348003 55.0155
16.949792678493612 55.09
16.972338104193863 54.678999999999995
16.994901778652235 54.523999999999994
17.017448529496576 54.5908
17.040013531998152 54.8978
17.06257920018044 55.1119
17.0851279459922 55.8814
17.107694947817667 56.5702
17.130245028099072 57.3307
17.15281336730298 58.7005
17.17536478578733 60.3485
17.19793446610687 62.7955
17.220504818648422 65.9732
17.243058251703697 69.7379
17.265629950971032 74.9378
17.288184731571736 78.7727
17.310757781306908 82.969
17.33333150794385 82.4428
17.355888317140174 79.9976
17.37846339986244 74.8114
17.401021565958885 69.1865
17.42359800851343 64.0604
17.44617513265564 60.9019
17.468735341390783 58.9745
17.491261035594565 57.97
17.51396340099364 58.1002
17.536490463869136 58.24100000000001
17.559018209820174 58.0886
17.58154663977963 58.206
17.604251766089718 58.1931
17.626781572227713 58.5145
17.64931206518155 58.8332
17.671843245885103 59.1937
17.69455114821572 59.3398
17.717083712612634 59.5231
17.739616967569667 59.6762
17.762150914021706 60.1644
17.78486160749854 60.2193
17.807396945166804 60.9771
17.829932977143503 61.7196
17.85246970436452 63.0217
17.875183204129467 64.6021
17.897721330097664 66.8645
17.920260154126645 68.8036
17.942799677153296 71.781
17.9655159983646 75.37100000000001
17.988056927677544 81.2211
18.010598558807683 89.5112
18.033140892692916 100.07600000000001
18.05586005052525 111.77799999999999
18.07840379824407 123.309
18.10094825154059 131.532
18.12366954819864 136.431
18.146215420998306 133.93200000000002
18.16876200220057 125.631
18.191309292745153 112.37799999999999
18.214033452627167 100.28
18.236582170236648 89.5766
18.259131600016456 85.0832
18.281681742907335 85.7786
18.304408781233683 90.2609
18.32696035875955 95.9954
18.349512652227624 100.69200000000001
18.372065662579683 104.316
18.394795594587553 104.324
18.41735004715306 99.3176
18.43990521943684 92.7978
18.46246111238171 83.9331
18.485193953325208 75.0029
18.507751296070428 68.3971
18.530309362314178 64.6157
18.552868153000343 62.4668
18.57560391815056 61.3002
18.59816416623245 60.7813
18.620725141597372 60.2558
18.643286845190268 59.8643
18.666025549835414 59.2934
18.688588718427933 58.7042
18.711152618092243 58.5537
18.73389353884365 58.2687
18.75645890921984 57.845
18.77902501351406 57.7409
18.801591852673102 57.7436
18.824335739722738 57.0469
18.846904057212626 56.9929
18.8694731124168 56.7966
18.89204290628315 56.7691
18.914789774966803 56.4037
18.937361054791623 56.1449
18.959933076131318 55.958999999999996
18.982505839934877 56.0409
19.00525570560582 56.0032
19.027829963004184 55.8304
19.05040496572238 55.8652
19.072980714710468 55.7695
19.095733592739563 56.0777
19.11831084296757 56.2946
19.140888842324735 56.6106
19.16346759176222 56.9282
19.18622349753803 57.3743
19.208803755869358 58.3008
19.231384767143577 59.4363
19.253966532312948 60.8836
19.276725481241822 63.051
19.29930876296784 65.8186
19.3218928014549 68.9062
19.34465404436217 71.3813
19.36723960516257 74.0463
19.389825925592426 74.0949
19.412413006605938 73.1536
19.43517731967805 69.7096
19.457765930683355 65.7078
19.48035530514408 61.683
19.50294544401556 58.0478
19.525712842708348 55.5105
19.54830451925909 54.2749
19.570896963095727 53.2424
19.593490175174704 53.1701
19.616260674962184 52.925
19.638855432416964 52.6791
19.661450960992624 52.9153
19.68404726164677 52.6306
19.706820878021247 52.4499
19.729418731756834 52.6317
19.752017360452857 52.2457
19.77461676506804 52.5577
19.797393513540218 52.6715
19.819994478951667 52.7549
19.84259622316767 53.4782
19.8651987471481 53.8593
19.887978643247177 53.9041
19.91058273574792 54.4307
19.933187610901943 55.2774
19.955969879466828 56.448
19.97857632894404 58.0835
20.00118356396599 59.8489
20.023791585494575 61.9452
20.046577028914875 64.7036
20.069186632506966 66.9321
20.091797025500632 68.1028
20.114408208858933 68.8023
20.137196842715273 67.9307
20.159809615886765 66.5401
20.18242318232135 64.0291
20.20503754298326 62.3638
20.227829382875154 61.3785
20.250445341109344 61.7248
20.27306209647285 62.3996
20.29567964993108 63.8329
20.31847471147704 64.5992
20.34109387027612 64.7889
20.363713830075454 64.3793
20.386334591841646 62.5165
20.409132890679302 59.9853
20.431755265564437 56.9476
20.454378445325528 54.3773
20.477002430930366 52.5839
20.499803982716553 51.339
20.522429589228004 50.7479
20.54505600449589 50.0818
20.567683229489194 49.952
20.590488049900088 49.5242
20.61311690359731 49.3241
20.63574656993626 49.398
20.658553853717297 49.0252
20.681185154618298 49.0167
20.703817271080066 48.8213
20.72645020407368 48.4227
20.749260783967177 48.2958
20.771895359337133 48.0387
20.794530754161617 48.1435
20.817166969412938 48.0755
20.83998086114876 48.0748
20.86261872660049 47.9956
20.885257415405402 48.0007
20.90789692853701 47.9393
20.930714147864748 47.6444
20.953355319030678 47.893
20.97599731745334 47.9827
20.99864014410749 47.7036
21.021460706796564 47.8888
21.044105199328826 48.0678
21.06675052302631 48.0982
21.089396678865015 48.3948
21.112220600704806 48.5921
21.134868430275347 48.9367
21.15751709492456 49.2828
21.180166595629693 49.3806
21.202993892429635 50.1393
21.22564507473034 50.446000000000005
21.24829709602816 50.6963
21.27112693608965 50.7231
21.293780644891275 50.5588
21.316435195634053 49.7621
21.339090589297417 49.2109
21.361923832041875 48.7017
21.384580921090404 48.1928
21.407238856007325 47.8535
21.429897637773326 47.7216
21.45273429906592 47.7274
21.475394784108598 47.6473
21.498056118951983 47.4308
21.520718304578022 47.7441
21.543558400304388 47.9424
21.566222297108816 48.1179
21.58888704765135 48.078
21.61155265291521 48.2188
21.63439619898156 48.8831
21.657063523335786 49.0705
21.67973170537063 49.5747
21.7024007460706 49.946999999999996
21.72524775840385 50.8167
21.747918526116475 51.7821
21.770590155457388 53.0456
21.79326264741238 54.7334
21.816113141960237 56.6054
21.838787368860547 58.7717
21.861462461341976 60.5123
21.884315579735777 62.2357
21.90699241312273 63.2032
21.92967011506078 63.355
21.95234868653799 62.7788
21.9752053151131 61.7195
21.997885635446785 59.8682
22.020566828293532 58.2115
22.04324889464272 56.8695
22.066109049404666 55.6981
22.088792872571794 55.2708
22.111477572219204 55.4129
22.1341631493376 55.2588
22.157026846313123 54.917
22.179714188221507 54.1552
22.202402410582668 53.1056
22.22509151438863 51.8218
22.24795876962584 50.3907
22.270649646204486 49.5201
22.293341407213727 49.0003
22.316034053646906 48.4255
22.338904883215342 48.3613
22.36159931041458 48.2488
22.38429462602756 48.2373
22.40699083104897 47.9065
22.429865251039757 47.878
22.452563244831367 48.0864
22.47526213102522 48.0112
22.49813925616515 47.97
22.520839937143307 47.8101
22.543541513520587 47.8709
22.56624398629403 47.6088
22.589124730075895 47.5171
22.611829005656723 47.6986
22.63453418063466 47.5889
22.657240256008077 47.9814
22.680124634582935 48.0676
22.70283252079775 48.1818
22.725541310413075 48.5182
22.74825100442868 48.9087
22.771139033969575 49.1172
22.79385054687155 49.5561
22.81656296718292 50.3634
22.83927629590484 51.3189
22.862167992606945 52.2917
22.88488314827121 53.4291
22.907599215359284 54.6431
22.93031619487366 55.6555
22.953211574954405 56.1468
22.975930389478226 56.9821
22.998650119445763 56.9702
23.02137076586092 56.026
23.044269845560063 54.7309
23.06699233506288 53.277
23.089715744034912 51.6905
23.112617610931565 50.1597
23.135342869061212 49.1035
23.158069049684816 48.4458
23.1807961538087 48.0671
23.20370174880544 48.022
23.226430710184808 47.8016
23.249160598093425 47.9673
23.271891413539002 47.8998
23.294800752937697 47.9019
23.31753343374794 48.1959
23.340267045128353 48.1665
23.36300158808808 48.4308
23.38591468821339 48.8364
23.408651104658304 49.3217
23.431388455719986 50.0653
23.454126742409 50.7791
23.4770436196085 51.8407
23.499783787914662 53.331
23.522524894889884 54.5623
23.54526694154616 55.5566
23.56818761219047 56.537
23.59093154860734 56.7461
23.613676427751283 56.8858
23.636422250635754 55.8101
23.659346731118656 54.3406
23.68209445191868 52.4911
23.704843119509587 50.5022
23.72759273490623 48.8161
23.750521041644767 47.2073
23.77327256312355 46.2936
23.796025035462787 45.8123
23.818956224555475 45.3175
23.841710609113413 45.3038
23.86446594758979 45.0606
23.887222241002014 44.8178
23.910157285144578 44.4309
23.932915498962537 44.4963
23.955674670778713 44.1984
23.978434801611975 44.1861
24.001373717286125 44.0377
24.024135776723917 43.8872
24.046898798245582 43.7311
24.06966278287146 43.7986
24.092605586582614 43.523999999999994
24.115371508023642 43.505
24.1381383956401 43.35
24.16090625045381 43.3056
24.183852958731244 43.3258
24.206622758582608 43.1712
24.229393528706886 42.8452
24.252165270127392 43.0216
24.27511589952438 42.8179
24.297889594216997 42.717
24.32066426328598 42.5072
24.34343990775613 42.6278
24.36639447485003 42.5909
24.38917208083877 42.5508
24.41195066531332 42.4109
24.43490819850244 42.3109
24.457688750692377 42.3648
24.48047028445616 42.273999999999994
24.503252800821233 42.4236
24.526214300784112 42.4082
24.548998793132213 42.3758
24.57178427117417 42.2986
24.59457073593893 42.3822
24.617536219319863 42.1105
24.64032466834748 42.2122
24.663114107195035 42.1033
24.685904536893013 41.7675
24.708874020360852 41.7837
24.731666442613744 41.7178
24.754459858818787 41.6005
24.777254270007962 41.7292
24.80022777025625 41.5014
24.82302418230472 41.5395
24.845821592443674 41.6108
24.86862000170663 41.4551
24.891597535453727 41.3364
24.914397953892728 41.5894
24.93719937456671 41.461000000000006
24.96000179851076 41.5733
24.98298338249997 41.7891
25.00578782394922 42.1447
25.028593271784167 42.1948
25.05157790644186 42.6513
25.07438537804115 42.6745
25.097193859145293 42.9464
25.120003350792075 42.9364
25.142992065061257 43.4627
25.165803588823465 43.7339
25.18861612625217 43.9189
25.211429678386736 43.955
25.234422489079968 44.0524
25.257238081693636 44.1575
25.280054692141732 44.1781
25.3028723214652 44.1536
25.325869245420463 44.3165
25.348688923599397 44.2569
25.371509623787006 44.0131
25.394331347025812 43.6936
25.41733240110666 43.3344
25.440156181590016 42.5833
25.46298098826268 42.1677
25.48580682216873 41.6739
25.50881202326435 41.1095
25.53163992281684 40.7034
25.55446885274561 40.4483
25.577298814096377 40.2307
25.600308179121807 40.2826
25.623140214533745 40.2675
25.64597328451537 40.2438
25.66898578564376 39.9669
25.691820936010206 39.906
25.714657124097695 39.72
25.737494350954734 39.9438
25.760511045684957 39.8471
25.783350361364224 39.8466
25.806190718969255 39.8684
25.82903211955018 39.8954
25.852053024868923 39.9119
25.874896522722523 39.93
25.897741066713106 39.8908
25.920586657892454 40.0232
25.943611790812668 40.1998
25.966459487728237 40.2968
25.989308234998564 40.3318
26.01215803367705 40.6248
26.03518741123814 40.7725
26.05803932412957 40.9573
26.080892291600094 40.8657
26.10374631470478 40.9555
26.12677995397268 40.8147
26.14963609978026 40.8299
26.172493304397875 40.641999999999996
26.19535156888223 40.4752
26.218389486949604 40.0992
26.241249882640123 39.8664
26.26411134137826 39.6506
26.28715248187403 39.664
26.31001607820869 39.4025
26.3328807407756 39.2875
26.35574647063438 39.5366
26.37879191991473 39.3674
26.401659795896734 39.3675
26.424528742360263 39.5318
26.447398760366614 39.6169
26.470448535598294 39.7567
26.49332070826805 40.069
26.516193955675355 40.4619
26.53906827888316 40.5818
26.562122397260108 40.7053
26.584998883685063 41.0744
26.607876449110325 41.4147
26.63075509460056 41.3686
26.65381357334404 41.4727
26.67669439061878 41.3753
26.699576291163382 41.3617
26.722459276044212 41.2014
26.745522132402975 41.0347
26.768407297649354 40.686
26.791293550442003 40.3697
26.814180891848974 40.0955
26.837248143099337 39.8679
26.860137673466657 39.7787
26.88302829566349 39.5499
26.90592001075963 39.3542
26.92899167420566 39.1737
26.951885586870763 38.8014
26.974780595655517 38.7124
26.99785558178161 38.5455
27.020752794605112 38.2997
27.043651106772522 38.2663
27.06655051935668 38.2261
27.089629948036183 38.0066
27.112531573292053 38.0814
27.135434302194138 38.0276
27.158338135817015 37.9408
27.181422024430987 38.0972
27.204328079372566 37.8085
27.22723524226965 37.8863
27.250143514198573 37.8844
27.273231880156334 37.8904
27.296142382065014 37.817
27.319053996245536 37.7255
27.341966723775965 37.7558
27.365059584515222 37.8711
27.38797455070062 37.9205
27.410890633481237 37.7878
27.433807833936918 37.7204
27.456905206923906 37.8624
27.47982465472398 37.8584
27.502745223449743 37.9728
27.525666914182825 38.0463
27.548768816912457 37.9991
27.571692763693633 37.8864
27.59461783573812 37.7217
27.617723149491244 37.5948
27.640650484125285 37.5372
27.66357894728264 37.5642
27.686508540048052 37.414
27.709618414237887 37.3561
27.732550278321757 37.2536
27.755483275279115 37.1844
27.778417406196485 37.2696
27.801531858397514 37.2139
27.824468269376716 37.2153
27.847405817586786 37.1538
27.870344504116094 37.3676
27.893463551932008 37.6096
27.916404527281053 37.6996
27.93934664422563 37.8316
27.962289903855886 37.9573
27.98541356491974 38.0501
28.00835912214229 37.9963
28.03130582533231 38.2682
28.054253675581805 38.5581
28.077381967556104 38.497
28.100332124185126 38.4052
28.123283431160893 38.4048
28.146235889577238 38.2739
28.169368830154156 38.0116
28.192323603752033 37.9207
28.215279532083304 37.5652
28.238415973016764 37.3389
28.261374223145094 37.2095
28.284333631303806 37.1583
28.307294198589954 37.0316
28.330435319167677 36.6318
28.353398217078915 36.3118
28.376362277420153 35.939
28.39932750129032 35.9286
28.422473319286713 35.8075
28.44544088262495 35.8579
28.468409612800283 35.5637
28.491379510913497 35.3496
28.51453004413313 35.2636
28.53750229057244 35.3848
28.56047570826344 35.2543
28.583450298308804 35.2285
28.606605564586562 35.0343
28.629582511831156 35.1299
28.65256063474956 35.1415
28.675539934446338 35.1012
28.698699951647605 35.0243
28.72168161743193 34.9205
28.74466446331978 34.9041
28.767648490417624 34.8209
28.790813276438353 34.8909
28.813799678527303 34.9481
28.836787265157085 34.8152
28.859955641890075 34.9742
28.882945610203045 34.900999999999996
28.905936766392035 34.7718
28.928929111566863 34.8207
28.952102288520145 34.6928
28.975097024308607 34.4873
28.998092952423807 34.4389
29.021090073977508 34.3234
29.04426806913204 34.3135
29.067267590245258 34.1087
29.090268308143695 34.0976
29.11327022394099 33.9705
29.13645305530891 33.8673
29.159457379627167 33.8262
29.18246290519685 33.8754
29.20546963313352 33.6662
29.22865731875826 33.8133
29.25166646419296 33.7716
29.27467681535305 33.7141
29.29768837335608 33.8716
29.320880931312562 33.8412
29.34389491580634 33.67
29.366910110507334 33.718
29.38992651653503 33.7382
29.41312396492981 33.6961
29.436142806456754 33.6028
29.45916286268059 33.4487
29.48236399319994 33.3368
29.50538649169417 33.260999999999996
29.528410208259935 33.1798
29.55143514402014 32.9992
29.574641196749695 32.8662
29.597668583816574 32.8599
29.6206971934585 32.5705
29.64372702680042 32.6029
29.666938019934474 32.5177
29.689970313635285 32.4452
29.713003834422636 32.5067
29.73603858342347 32.385999999999996
29.759254535188578 32.2695
29.78229175361658 32.2604
29.80533020365064 32.3672
29.82836988641968 32.2875
29.85159081507472 32.1455
29.874632976355343 32.2064
29.89767637376955 32.2886
29.920721008448314 32.068000000000005
29.9439469322847 32.0625
29.96699405457564 32.0909
29.9900424175358 32.039
30.013092022298157 32.0236
30.03632295963995 32.0064
30.059375061131373 31.9232
30.08242840783577 32.0237
30.105483000888153 31.878
30.128718970092244 31.9456
30.151776069006917 31.8724
30.17483441768648 31.9188
30.198074175317235 31.8166
30.221135036724256 31.9068
30.24419715131772 31.8422
30.267260520236203 31.7727
30.290505341942243 31.805
30.313571232750228 31.8958
30.336638381310948 31.7663
30.35970678876503 31.7363
30.38295669299435 31.7249
30.40602763151657 31.701
30.429099832366074 31.588
30.452173296685572 31.5782
30.47542830191959 31.6256
30.498504306502497 31.5826
30.521581577995562 31.7279
30.544660117543582 31.6945
30.56792024229725 31.7382
30.59100133132069 31.6723
30.614083691845494 31.5255
30.637167325018545 31.6617
30.660432587840603 31.7839
30.683518779717886 31.6726
30.70660624769615 31.7265
30.729694992924372 31.7249
30.75296541239743 31.8131
30.77605672557558 31.7138
30.799149319462742 31.5576
30.8224236211637 31.4942
30.845518789950724 31.4045
30.868615242910597 31.3694
30.891712981195973 31.2765
30.91499247215866 31.0735
30.938092794619365 31.0268
30.96119440587579 30.9434
30.984297307082752 30.8234
31.00758200598383 30.8266
31.030687500658694 30.7438
31.053794288760695 30.6822
31.076902371446767 30.5593
31.100192296997445 30.5444
31.12330298246119 30.5757
31.14641496599209 30.5189
31.169528248749216 30.5176
31.19282341969534 30.3291
31.215939314557186 30.4939
31.239056512134788 30.5067
31.262175013589378 30.3775
31.28547544871168 30.3144
31.30859657161541 30.3399
31.331719001892175 30.4723
31.35484274070538 30.5324
31.378148458819545 30.4184
31.401274828443725 30.4786
31.424402510106933 30.487
31.447712205419993 30.5443
31.470842524931633 30.3943
31.493974159989783 30.363000000000003
31.51710711176168 30.3277
31.54042212308802 30.3303
31.563557722100917 30.3213
31.586694641341655 30.1661
31.609832881979628 30.0292
31.63315322823208 29.9639
31.656294125521327 29.8836
31.679436347728515 29.8561
31.70257989602529 29.7404
31.725905596152327 29.7608
31.74905181052835 29.6726
31.772199354521323 29.7076
31.79534822930507 29.6918
31.818679302290967 29.7103
31.84183085259981 29.6756
31.864983737233473 29.7231
31.88813795736804 29.7523
31.911474422233013 29.5602
31.934631327356435 29.5591
31.9577895715215 29.55
31.980949155906522 29.5207
32.004291031706956 29.5384
32.027453310562606 29.4331
32.05061693318573 29.3381
32.07396288236386 29.3999
32.09712920658542 29.2459
32.12029687812702 29.1564
32.14346589817093 29.0252
32.166817291729984 29.045
32.18998902288583 29.0358
32.21316210610336 28.9372
32.23633654256711 28.7519
32.259693399663725 28.737
32.282870556771144 28.6465
32.30604907069099 28.7113
32.329228942610065 28.6167
32.35259128243769 28.4715
32.375773884550505 28.4403
32.398957848235646 28.5003
32.422143174682176 28.3766
32.445511016471215 28.2941
32.468699082679954 28.3063
32.49188851523011 28.2193
32.51507931531304 28.1716
32.538452678331 28.2119
32.56164622776311 28.0796
32.58484114831493 28.0659
32.60803744118015 28.1198
32.631416344731896 28.1274
32.654615396551876 27.9301
32.67781582427913 27.9274
32.701198898634416 27.9438
32.72440209253756 27.8
32.747606665947124 27.8345
32.77081262006088 27.6943
32.79420126883317 27.7165
32.81740999876112 27.7551
32.840620112999424 27.5708
32.86383161274818 27.5397
32.88722585534586 27.5152
32.91044014056596 27.6304
32.933655814909734 27.4611
32.95687287957963 27.5762
32.98027273544904 27.4716
33.00349259526636 27.3976
33.026713849030116 27.4122
33.04993649794511 27.4011
33.073341986570746 27.3555
33.09656744032826 27.4043
33.11979429286444 27.3684
33.14302254538647 27.3524
33.166433686291185 27.2827
33.18966475336992 27.2165
33.212897224069096 27.1832
33.23613109959831 27.2576
33.259547912343415 27.1102
33.2827846121627 27.1904
33.306022720453775 27.1023
33.32926223842861 27.0312
33.352684742614166 26.9016
33.37592709463173 26.9292
33.399170859982064 26.8608
33.422597648419426 26.8625
33.44584425514446 26.6472
33.46909227885668 26.6266
33.4923417207723 26.4959
33.51577423505344 26.5996
33.539026528130385 26.5127
33.56228024307245 26.4777
33.585535381098246 26.3748
33.60897364093058 26.4028
33.63223163992385 26.298000000000002
33.6554910656699 26.311999999999998
33.678751919389796 26.2608
33.702195944520106 26.2315
33.72545966903325 26.2349
33.74872482519663 26.078000000000003
33.771991414233746 26.1623
33.79544122444841 26.0976
33.81871069412428 25.9237
33.84198160035767 25.9004
33.86525394437455 25.9658
33.88870955949969 25.9399
33.911984794020626 25.9339
33.93526147001624 25.8785
33.958539588715006 25.7988
33.98200102861669 25.759
34.0052820477047 25.6318
34.02856451319451 25.5915
34.05203033759056 25.5749
34.07531571090147 25.6098
34.09860253431845 25.5531
34.121890809074316 25.4826
34.145362493118924 25.4117
34.16865368561615 25.4386
34.191946333164054 25.3335
34.21524043699793 25.3833
34.23871800066799 25.3474
34.26201503218366 25.2121
34.28531352370466 25.2407
34.30861347646881 25.1646
34.33209693978188 25.0936
34.3553998301885 25.0701
34.378704185565205 25.0686
34.402010007152356 25.0241
34.42549939016683 24.9804
34.44880815937748 24.8411
34.472118398533134 24.8079
34.49543010887669 24.8334
34.51892543169198 24.7389
34.54224009966052 24.738000000000003
34.56555624255917 24.7004
34.58887386163339 24.6503
34.61237514439016 24.5445
34.6356957311114 24.5828
34.65901779775809 24.5799
34.68252356662995 24.4666
34.705848608458616 24.5315
34.72917513396849 24.4154
34.75250314440949 24.3535
34.77601490857862 24.314
34.799345904259795 24.2425
34.82267838863559 24.2915
34.846012362958525 24.285999999999998
34.869530142679984 24.2869
34.89286711232212 24.1952
34.91620557568269 24.1815
34.93954553401677 24.1599
34.9630693495876 24.1241
34.986412313340814 24.1433
35.00975677584668 24.1058
35.033102738362956 24.08
35.05663261012228 24.0313
35.0799815881786 23.9428
35.10333207003229 23.8858
35.12668405694369 23.9664
35.150220005273056 23.9393
35.17357501786656 23.898000000000003
35.19693153931268 23.813000000000002
35.220289570874385 23.838
35.24383161619786 23.9045
35.267192683604904 23.6973
35.290555264930376 23.6941
35.314101899412165 23.6878
35.33746752422433 23.6058
35.36083466676374 23.671
35.38420332829803 23.6445
35.407756095629054 23.6259
35.43112781085063 23.665
35.45450104888391 23.6249
35.477875810999194 23.6536
35.50143473172161 23.5695
35.52481255774625 23.6053
35.54819191167777 23.4882
35.57157279478914 23.4088
35.595137889488406 23.3655
35.61852184675279 23.3489
35.641907337029984 23.3066
35.665294361595684 23.2586
35.68886565090076 23.1826
35.7122557598848 23.1994
35.73564740699838 23.2017
35.759040593519934 23.0184
35.78261809810353 23.0261
35.80601437933051 22.9173
35.829412203814705 22.9356
35.85281157283719 22.927
35.876395313415884 22.9576
35.8997977874528 22.914
35.92320180988546 22.8625
35.946790244133936 22.6452
35.97019737933222 22.8218
35.993606066789866 22.6893
36.01701630779276 22.7292
36.04061101440684 22.7047
36.06402437852291 22.6327
36.08743930005611 22.6683
36.1108557802951 22.5427
36.13445678011326 22.5441
36.15787639383515 22.4635
36.18129757014299 22.4614
36.20472031032821 22.3496
36.22832762423364 22.4181
36.25175350829375 22.3326
36.275180960119776 22.211
36.298609981005924 22.3239
36.32222362992669 22.3221
36.34565580510207 22.2574
36.36908955323448 22.1938
36.39252487562093 22.0656
36.416144880530226 22.1058
36.43958336764275 22.1644
36.463023432914625 22.0861
36.486465077645676 22.0201
36.51009145956204 22.0422
36.53353627947859 22.0268
36.55698268276811 21.9392
36.58043067073321 21.9261
36.60406345072071 21.8556
36.62751462435344 21.9254
36.65096738658405 21.8689
36.67460498210655 21.8402
36.69806093788647 21.7831
36.72151848619297 21.7165
36.744977628333636 21.6869
36.76862165890998 21.6357
36.79208400512205 21.6358
36.81554794910557 21.6059
36.83901349217101 21.5073
36.862663978991606 21.5546
36.88613273667352 21.5295
36.90960309738324 21.4623
36.933075062434064 21.427
36.95673202673572 21.4064
36.98020721697122 21.3108
37.003684015502365 21.2777
37.027162423645365 21.2546
37.050825886711465 21.2649
37.07430753063053 21.1257
37.09779078812467 21.1358
37.121275660513014 21.0816
37.144945643673694 21.1328
37.16843376245278 21.1159
37.19192350009803 21.111
37.215414857931435 21.0024
37.239091382563885 20.9177
37.262585997426164 20.9028
37.28608223645736 20.9121
37.309763684451696 20.9507
37.33326318851098 20.8776
37.356764320726555 20.784000000000002
37.380267082425526 20.8628
37.40395510942588 20.7908
37.42746114683234 20.6831
37.45096881771841 20.659000000000002
37.474478123414166 20.6835
37.49817275092816 20.6095
37.52168534303452 20.6093
37.54519957395567 20.5197
37.568715445024665 20.4851
37.592416694607714 20.3516
37.61593586281424 20.4305
37.63945667518264 20.4774
37.66297913304891 20.3109
37.68668702630454 20.4196
37.710212792059274 20.3544
37.733740207334854 20.2809
37.757269273470364 20.1983
37.780983832050374 20.1865
37.80451621684926 20.18
37.82805025654007 20.137999999999998
37.851585952464795 20.0771
37.8753071980695 20.0262
37.89884622345676 19.9772
37.92238690911902 20.0269
37.94611318753442 19.9514
37.969657210779765 19.9552
37.99320289834801 19.9655
38.016750251586465 19.8526
38.04048325513017 19.8393
38.06403395679343 19.83
38.087586328183946 19.7982
38.11114037065203 19.7808
38.13488012115898 19.7109
38.1584375229181 19.6698
38.181996599821 19.6071
38.205557353221124 19.5859
38.229303872575656 19.5799
38.2528679961576 19.5793
38.27643380031219 19.5479
38.30000128639589 19.4405
38.32375459653193 19.5004
38.34732546371299 19.5192
38.37089801690786 19.3813
38.39447225747609 19.3684
38.418232380377425 19.3118
38.441810012983396 19.3186
38.46538933705673 19.2528
38.488970353960084 19.3584
38.51273731166058 19.2997
38.536321731567014 19.1945
38.55990784840681 19.1617
38.58367995004091 19.1884
38.60726947812959 19.0709
38.63086070726198 19.0757
38.654453638806274 19.024
38.678232613930824 18.9982
38.70182896773327 18.8987
38.72542702806741 18.9493
38.7490267963045 18.9809
38.77281266709232 18.9458
38.79641586862214 18.8709
38.8200207821842 18.8277
38.843627409152944 18.8504
38.86742019782782 18.8067
38.891030269149255 18.7617
38.914642058016156 18.7522
38.938255565806124 18.6742
38.96205529464307 18.6617
38.98567225787121 18.6033
39.00929094417078 18.565
39.03291135492255 18.6248
39.05671804624804 18.6222
39.080341923549106 18.5234
39.103967529460334 18.4876
39.127594865365744 18.3937
39.15140854155791 18.4394
39.17503935514948 18.4309
39.19867190290282 18.4069
39.22249083587951 18.3282
39.24612686969409 18.3333
39.269764641845306 18.333
39.293404153722804 18.2487
39.317230110864074 18.1914
39.34087311998506 18.1551
39.36451787301696 18.167
39.388164371352595 18.1087
39.41199737518003 18.1125
39.43564738196752 18.0738
39.45929913825317 18.0264
39.48295264543308 18.0155
39.506792718520884 18.0175
39.530449745387216 17.9888
39.55410852735203 17.9137
39.57776906581474 17.9825
39.60161623079 17.9157
39.625280300200025 17.8211
39.64894613032202 17.8169
39.67261372255866 17.8523
39.6964680021016 17.7741
39.72013913657293 17.8059
39.74381203738292 17.7333
39.76748670593756 17.7107
39.79134812278169 17.7145
39.81502634488497 17.6253
39.83870633896685 17.6379
39.862388106436654 17.5804
39.88625668336918 17.557000000000002
39.90994201572829 17.5202
39.933629125719285 17.4969
39.957503091207826 17.4781
39.9811937746168 17.4875
40.00488623990914 17.3617
40.02858048850006 17.3517
40.05246165409549 17.3436
40.076159487492085 17.2792
40.099859108448875 17.2899
40.123560518384345 17.2736
40.1474489070226 17.2828
40.171153913178564 17.2079
40.194860712584955 17.2671
40.2185693066637 17.195
40.242464941335314 17.1116
40.26617714307655 17.1445
40.289891143772046 17.139
40.3136069448471 17.0654
40.33750984859743 17.0287
40.3612292688043 16.993
40.3849504936829 16.986
40.40867352466194 16.9644
40.43258372059144 16.9047
40.45631038219906 16.8689
40.48003885420956 16.8966
40.503769138055105 16.8773
40.52768664931955 16.8411
40.55142057531802 16.7837
40.57515631746428 16.7383
40.599079334038514 16.7721
40.62281872700477 16.6712
40.64655994043941 16.6292
40.67030297578061 16.6488
40.69423334835778 16.6201
40.71798004609188 16.5937
40.74172857006355 16.5566
40.76547892171441 16.5776
40.7894166736039 16.5306
40.813170699248566 16.4916
40.83692655691388 16.454
40.86068424804498 16.5123
40.884629402612525 16.4232
40.908390779366385 16.4257
40.932153993938 16.3929
40.95591904777605 16.3363
40.979871628443995 16.3309
41.003640379561936 16.3119
41.02741097430883 16.2783
41.05118341413683 16.2441
41.075143444384416 16.2421
41.098919593177826 16.1654
41.1226975914255 16.1265
41.14647744058318 16.2026
41.170444943946755 16.1389
41.19422851378379 16.0781
41.218013938914645 16.0554
41.24198706625173 15.952
41.26577622087193 15.9906
41.289567235177785 15.9316
41.31336011063129 15.9125
41.337340752422875 15.9053
41.361137369129835 15.9105
41.38493585138705 15.8845
41.40873620066004 15.8597
41.43272438060107 15.7881
41.45652848292052 15.7598
41.48033445666918 15.7322
41.50414230331616 15.7038
41.528138045159764 15.6924
41.551949656675205 15.6016
41.575763145513235 15.6545
41.59957851314666 15.6388
41.62358184070442 15.5787
41.64740098505737 15.5773
41.6712220126409 15.557
41.69504492493139 15.5019
41.71905586207357 15.4404
41.74288256296395 15.4231
41.766711153007456 15.3975
41.79054163368412 15.4354
41.814560204340054 15.3904
41.838394485526365 15.3986
41.86223066180303 15.3366
41.88625497706819 15.3005
41.910094962812 15.3219
41.93393684811168 15.2443
41.95778063445365 15.1641
41.981812625263366 15.1882
42.00566023303407 15.1526
42.029509746323676 15.1158
42.05336116662236 15.1407
42.077400857069705 15.0815
42.10125611078846 15.0868
42.12511327600405 15.0573
42.14897235421036 15.0427
42.173019768448455 15.0306
42.19688269209613 14.9835
42.22074753323349 14.9675
42.24461429335818 14.8674
42.268669455600495 14.9233
42.292540073217886 14.967
42.31641261433284 14.8682
42.34028708044675 14.8508
42.36435001496739 14.81
42.38822835065557 14.8103
42.41210861586426 14.7785
42.4359908120986 14.8047
42.46006154323262 14.6697
42.48394762115317 14.6259
42.507835634632315 14.6587
42.531912233047436 14.6597
42.55580413732265 14.5756
42.579697981698 14.5818
42.60359376768525 14.5671
42.62767820545945 14.4948
42.65157789440821 14.5361
42.67547952952185 14.5073
42.699383112316 14.5106
42.72347541395347 14.4154
42.74738291190531 14.3998
42.771292362102166 14.4277
42.795203766063516 14.4018
42.819303956130405 14.3808
42.843219287476536 14.3022
42.86713657716324 14.2656
42.89105582671383 14.2748
42.91516392983864 14.2592
42.939087119032166 14.2236
42.963012272677304 14.2228
42.98693939230129 14.2237
43.01105543317513 14.1361
43.034986504731386 14.1209
43.05891954686589 14.077
43.08285456110972 14.0657
43.10697856448665 14.0634
43.130917542983475 13.977
43.15485849820081 13.9927
43.17880143167367 13.9064
43.20293342237094 13.9363
43.226880332449 13.9145
43.25082922540554 13.9308
43.27496722682525 13.9314
43.29892010567796 13.8567
43.32287497204102 13.8457
43.34683182745632 13.7688
43.370977859791836 13.7671
43.39493871351105 13.8087
43.41890156092628 13.7619
43.44286640358341 13.6993
43.46702049182749 13.6816
43.49098934522816 13.7102
43.51496019852649 13.6494
43.5389330532723 13.5802
43.56309522248204 13.5865
43.58707210044314 13.5782
43.61105098451946 13.481
43.63503187626491 13.5346
43.659202151562134 13.5073
43.68318707902681 13.4921
43.70717401884041 13.4625
43.731162972560874 13.4507
43.75534137913236 13.4068
43.779334381108384 13.379000000000001
43.803329401683186 13.3217
43.82732644241872 13.3193
43.8515130055166 13.3464
43.87551410707659 13.2992
43.89951723350145 13.2646
43.923709934595614 13.248
43.94771713129917 13.198
43.97172635758096 13.1874
43.99573761501002 13.1706
44.0199385169922 13.1323
44.04395385732619 13.100999999999999
44.067971233533086 13.0917
44.09199064718605 13.0752
44.11619977548961 13.0365
44.14022328470671 13.0077
44.16424883610785 13.0649
44.18827643127035 13.0597
44.21249381139513 13.0499
44.236525514814076 12.9658
44.26055926674478 12.9633
44.28459506876863 12.9252
44.3088207262813 12.9054
44.33286064928722 12.8766
44.35690262714919 12.8487
44.38094666145278 12.7898
44.4051806219871 12.8099
44.42922879003185 12.7529
44.45327901929361 12.7436
44.477331311362136 12.7153
44.501573600619416 12.6836
44.525630039221795 12.638
44.54968854541895 12.6604
44.573937102200176 12.6628
44.5979997645541 12.6124
44.622064499300315 12.5668
44.64613130803592 12.5612
44.67038823869318 12.5293
44.69445921643748 12.4844
44.718532272981385 12.5189
44.742607409926194 12.4835
44.76687274034801 12.4433
44.79095205918753 12.3956
44.81503346325094 12.4309
44.839116954143876 12.4249
44.86339071028742 12.4187
44.88747839599524 12.3805
44.91156817336837 12.3183
44.93566004401666 12.2901
44.959942251908146 12.3227
44.984038330325966 12.2752
45.00813650686762 12.2257
45.03223678314731 12.262
45.05652746888232 12.1837
45.08063196592069 12.1678
45.104738567558705 12.168
45.128847275414856 12.1087
45.15314646515866 12.0593
45.17725940679741 12.1317
45.20137445952892 12.0937
45.22568004865265 12.0473
45.24979934496396 12.0481
45.27392075725247 11.9949
45.29804428714431 11.9638
45.322358426247604 11.9545
45.346486212804315 11.9358
45.370616121861914 11.9694
45.39474815505086 11.9148
45.41907087049246 11.8519
45.4432071734666 11.8523
45.46734560548283 11.8561
45.49148616817604 11.833
45.51581748638564 11.7946
45.5399623320197 11.7447
45.56410931325473 11.735
45.58825843173002 11.7724
45.61259837920865 11.7381
45.636751793816 11.7176
45.66090735060093 11.6871
45.68506505120716 11.6388
45.7094136545275 11.6564
45.73357566449271 11.6103
45.75773982322992 11.6284
45.78190613238733 11.5584
45.806263418194064 11.4768
45.83043404997326 11.5187
45.85460683713677 11.5084
45.87897065658495 11.4811
45.90314777634752 11.4808
45.92732705646868 11.4671
45.9515084986045 11.4097
45.97588104735473 11.3718
46.00006683541565 11.398
46.02425479047904 11.3304
46.04844491420549 11.3522
46.0728262191024 11.2966
46.09702070211635 11.2916
46.12121735879483 11.31
46.14541619080294 11.2777
46.169806278764455 11.2782
46.194009483459034 11.2485
46.21821486849841 11.2349
46.24242243555223 11.1966
46.266821333570014 11.1386
46.29103328674601 11.1216
46.31524742696538 11.154000000000002
46.33946375590237 11.1113
46.36387149104216 11.0625
46.38809221957392 11.0581
46.41231514186606 11.0769
46.436540259597464 11.0766
46.460956858999374 11.0104
46.48518638983522 10.9922
46.509418121166966 10.9459
46.533652054678114 10.9276
46.55807754555709 10.9476
46.58231590571962 10.9162
46.60655647313217 10.8847
46.630988654873654 10.8609
46.655233659129024 10.8466
46.67948087571551 10.8371
46.70373030632484 10.7719
46.72817142736393 10.7739
46.752425308428684 10.7969
46.77668140861147 10.7425
46.80093972960865 10.7157
46.82538981736788 10.7128
46.849652602470904 10.6712
46.87391761349769 10.6371
46.8981848521493 10.6428
46.9226439341274 10.6088
46.946915650573224 10.6139
46.97118959976749 10.6048
46.99546578341598 10.5867
47.019933887188216 10.5448
47.04421456235744 10.5478
47.06849747711879 10.525
47.09278263318286 10.502
47.11725978640143 10.4496
47.14154944775105 10.4493
47.165841355555656 10.4056
47.1901355115306 10.4125
47.214621741924994 10.4059
47.23892041698887 10.3437
47.26322134538975 10.3437
47.28771440635075 10.315999999999999
47.31201986422527 10.3307
47.33632758061436 10.2873
47.360637557241866 10.2651
47.38513974410611 10.2455
47.40945426407847 10.2057
47.43377104948137 10.2063
47.45809010204344 10.1596
47.48260144275502 10.1506
47.506925052572285 10.1491
47.53125093475548 10.1544
47.55557909103813 10.109
47.58009961361992 10.0943
47.60443234110732 10.0761
47.62876734791564 10.0519
47.65310463578333 10.0296
47.6776343683373 10.0228
47.7019762413987 10.0175
47.72632040075572 9.9926
47.75066684815169 9.93835
47.77520581885936 9.913780000000001
47.799556865477655 9.90961
47.823910205386 9.91414
47.84826584033272 9.91745
47.87281407745551 9.907060000000001
47.89717432569297 9.86761
47.92153687423484 9.88247
47.94609208429692 9.83578
47.97045925671401 9.807080000000001
47.99482873471275 9.770489999999999
48.01920052005013 9.751380000000001
48.04376504619224 9.80465
48.068141469543484 9.78342
48.09252020552573 9.71907
48.11690125590099 9.68557
48.1414751266064 9.656889999999999
48.16586082917454 9.67801
48.19024885144316 9.63453
48.2146391951793 9.64962
48.239222439012764 9.66015
48.26361744916137 9.58479
48.28801478610016 9.56869
48.31241445160131 9.56349
48.337007097209366 9.56513
48.36141144338331 9.551
48.38581812345755 9.54313
48.41022713920929 9.52177
48.434829215320704 9.50539
48.45924292604658 9.44201
48.48365897780325 9.44254
48.50807737237308 9.43493
48.532688907799276 9.44032
48.55711201168574 9.3741
48.581537463754074 9.35416
48.60615611725119 9.37257
48.63058628942721 9.36111
48.65501881516546 9.300839999999999
48.6794536962573 9.27599
48.70408185970339 9.29013
48.72852147531801 9.28293
48.75296345168211 9.2395
48.77740779059232 9.26224
48.80204549302823 9.2634
48.82649458091802 9.22817
48.85094603676547 9.20749
48.87539986237231 9.173119999999999
48.90004713292306 9.13413
48.92450572200832 9.14208
48.94896668628025 9.119860000000001
48.97343002754588 9.07644
48.99808689542115 9.103860000000001
49.02255501470614 9.11956
49.04702551642794 9.056189999999999
49.0714984023988 9.04172
49.096164896893235 9.02639
49.120642575466796 8.959489999999999
49.145122643748394 8.96434
49.16960510355558 8.938130000000001
49.19428125404938 8.965010000000001
49.2187685210852 8.959769999999999
49.243258185121555 8.911660000000001
49.26794160167084 8.88008
49.2924360839405 8.86179
49.31693296869764 8.85038
49.34143225776915 8.80161
49.36612538195438 8.81185
49.39062950396021 8.77248
49.41513603578346 8.76041
49.4396449792564 8.80903
49.46434784069503 8.756910000000001
49.488861631846454 8.745619999999999
49.513377840166804 8.73666
49.537896467493745 8.70964
49.56260909589029 8.69673
49.587132585683285 8.690389999999999
49.611658500018365 8.65511
49.636186840738596 8.60948
49.66090926588511 8.614510000000001
49.685442483902584 8.59992
49.70997813385706 8.54177
49.734516217597076 8.57173
49.75924846937352 8.52977
49.7837914452858 8.55596
49.80833686055187 8.491389999999999
49.83288471702571 8.50758
49.85762682540054 8.52091
49.882179588965734 8.50135
49.9067347993235 8.4901
49.93129245833333 8.47665
49.95604445336378 8.432889999999999
49.98060703442832 8.39276
50.005172069746266 8.40651
50.02993150438364 8.41169
50.05450147301533 8.375169999999999
50.07907390151433 8.34556
50.10364879174981 8.35374
50.12841816587289 8.323839999999999
50.1529980044635 8.30539
50.17758031042124 8.25315
50.20216508562089 8.25336
50.22694442953363 8.2361
50.25153416817468 8.2458
50.27612638170508 8.22255
50.300721072005196 8.19707
50.325510416102105 8.193769999999999
50.350110084975064 8.162360000000001
50.37471223628208 8.171
50.39931687190919 8.134269999999999
50.424116246675766 8.137789999999999
50.44872587605249 8.115089999999999
50.47333799543065 8.12118
50.49795260670191 8.094489999999999
50.52276204271512 8.06264
50.54738166295838 8.05268
50.57200378079314 8.03771
50.596628398116835 7.98925
50.62144792604559 7.98072
50.646077567609396 7.94728
50.670709714377715 7.9376
50.69553683636198 7.90525
50.72017401885922 7.93803
50.7448137122895 7.93052
50.76945591856022 7.915610000000001
50.79429318636823 7.92327
50.818940443716784 7.90445
50.84359021965163 7.8761600000000005
50.868242516085964 7.84635
50.893089960641895 7.80537
50.917747323549435 7.81203
50.94240721271973 7.80938
50.96706963007175 7.75523
50.99192728239342 7.756460000000001
51.01659478166073 7.7682
51.04126481489051 7.775639999999999
51.06593738400761 7.75052
51.090805275207074 7.72187
51.11548294172845 7.6883
51.14016314993547 7.69061
51.164845901758845 7.6657
51.18972406304274 7.6465
51.21441192780656 7.64703
51.23910234200271 7.640610000000001
51.2637953075678 7.6361
51.288683770237945 7.587330000000001
51.31338186432707 7.55818
51.33808251561888 7.5574
51.362978729967345 7.5240800000000005
51.387684521509755 7.521780000000001
51.41239287610203 7.463419999999999
51.437103795691165 7.444310000000001
51.46201036644977 7.448230000000001
51.486726441956634 7.454060000000001
51.51144508832545 7.45975
51.536166307509156 7.4532
51.56108326624387 7.41966
51.58580965706056 7.44711
51.61053862657523 7.38846
51.635270176746864 7.376410000000001
51.66019755512065 7.333710000000001
51.68493429268881 7.32234
51.70967361681515 7.33857
51.73441552946465 7.330189999999999
51.759353359237934 7.300739999999999
51.7841004750961 7.329289999999999
51.80885018539685 7.301410000000001
51.833602492111254 7.25913
51.8585508051424 7.222360000000001
51.883308330926425 7.226310000000001
51.90806845906181 7.19873
51.932831191525715 7.193280000000001
51.95779001977161 7.17758
51.98255798721516 7.1741
52.00732856494335 7.187460000000001
52.03229530577543 7.12935
52.057071130455945 7.0880600000000005
52.081849571391054 7.08295
52.106630630568695 7.10505
52.13160794279417 7.0537600000000005
52.15639426492067 7.059589999999999
52.18118321127822 7.0522800000000005
52.205974783860896 6.98695
52.23096269971011 7.01467
52.255759551287994 7.029160000000001
52.280559035098186 6.95407
52.30536115314103 6.9523600000000005
52.33035970494467 6.920439999999999
52.35516711807904 6.952560000000001
52.37997717147198 6.90258
52.40478986713005 6.929189999999999
52.42979908731974 6.8881
52.454617094216 6.875939999999999
52.47943774942214 6.87926
52.50426105495102 6.83299
52.529280976059844 6.80742
52.554109609024096 6.8194
52.57894089837482 6.815910000000001
52.60377484613117 6.813280000000001
52.62880550079408 6.8092
52.65364479223379 6.76307
52.67848674816189 6.7401
52.70352547971946 6.768160000000001
52.72837279155837 6.73305
52.753222773982785 6.74931
52.778075429022984 6.6963
52.80312495150885 6.7035800000000005
52.827982978797436 6.68478
52.85284368481815 6.644880000000001
52.87770707160767 6.62839
52.90276741793998 6.608619999999999
52.92763619336701 6.62211
52.952507655698504 6.60008
52.977381806977576 6.58672
53.00245301017842 6.56343
53.02733256653592 6.557910000000001
53.052214817996074 6.559489999999999
53.077099766608484 6.5355
53.102181859804446 6.5069099999999995
53.127072229988265 6.498819999999999
53.15196530349892 6.50225
53.17686108239249 6.43041
53.20195409881522 6.45049
53.22685531582556 6.46249
53.25175924441303 6.42945
53.27666588664027 6.42826
53.30176985962693 6.4244
53.3266819565689 6.395519999999999
53.35159677336455 6.39074
53.376514312083096 6.34638
53.40162927507703 6.36557
53.42655228516116 6.35806
53.45147802340193 6.33335
53.47660125628886 6.32646
53.50153247842639 6.26018
53.52646643496923 6.27466
53.55140312799818 6.26743
53.576537409691696 6.25966
53.60147960336152 6.22612
53.626424539786164 6.22935
53.65137222105307 6.19078
53.67651758529126 6.19954
53.70147078399681 6.18926
53.72642673383343 6.12504
53.75138543689533 6.14238
53.776541917524526 6.1672
53.801506154876755 6.113230000000001
53.826473151763246 6.1245
53.851442910284916 6.0906199999999995
53.87661054126026 6.1071800000000005
53.9015858509782 6.06841
53.92656392866066 6.0685
53.95154477641532 6.038469999999999
53.976723591801296 6.0690599999999995
54.00171000771266 6.02515
54.02669920004598 6.0063
54.051691170915745 5.99796
54.076881204886796 5.986619999999999
54.101878760928514 5.96787
54.12687910187696 5.96938
54.152077577768296 5.97797
54.1770835166946 5.95863
54.20209224691339 5.937
54.22710377055121 5.86832
54.25231352511594 5.85531
54.27733066384342 5.85171
54.30235060239643 5.86311
54.32737334290836 5.866230000000001
54.35259441062629 5.80425
54.377622783395324 5.80088
54.40265396455061 5.805540000000001
54.42768795623251 5.77991
54.45292037169559 5.74295
54.477960012857906 5.7275
54.50300247099511 5.7355599999999995
54.52804774825457 5.748530000000001
54.55329154616743 5.6696
54.57834249018678 5.676419999999999
54.6033962597977 5.64732
54.6284528571545 5.6706900000000005
54.653708072335164 5.6126
54.67877035378786 5.6207199999999995
54.70383546947698 5.57535
54.72890342156389 5.55278
54.7541700889442 5.53305
54.77924374251975 5.50646
54.8043202390049 5.482469999999999
54.82959552413022 5.5041
54.8546777351945 5.489669999999999
54.87976279569621 5.4063099999999995
54.90485070780914 5.3901
54.930137506558005 5.36704
54.95523115074295 5.395
54.98032765308844 5.3282099999999994
55.005427015775496 5.37124
55.03072536339621 5.35651
55.05583047570572 5.3058
55.080938454927676 5.31462
55.10604930325027 5.2756
55.131359235107396 5.28988
55.15647585066083 5.16
55.181595341907496 5.18464
55.20671771104285 5.155530000000001
55.232039262617704 5.10171
55.25716741665048 5.09927
55.28229845518636 5.1193599999999995
55.30743238042802 5.039969999999999
55.33276558731939 5.08862
55.357905315183636 5.0704
55.383047936390035 4.98566
55.40819345314859 4.965330000000001
55.433538351073295 4.95956
55.458689688238415 4.98219
55.483843927614096 4.91686
55.509197623043605 4.93662
55.53435769621134 4.89004
55.55952067826466 4.81706
55.5846865714265 4.79094
55.61005202069737 4.83876
55.63522376553902 4.80503
55.66039842818645 4.76692
55.68557601087004 4.7682400000000005
55.7109532500271 4.7463
55.73613670233794 4.72777
