TT I
1.2716486653135266 7.2409
1.2939594142134223 7.3933
1.3162702121660406 7.174760000000001
1.3385810600174564 6.67415
1.3608919586137629 7.170560000000001
1.383202908801069 6.4963
1.405513911425503 5.6203
1.4278249673332093 6.11921
1.4501343378461518 6.3291
1.4724455028545926 5.72809
1.4947567236847858 5.31308
1.517068001182951 6.14789
1.5393793361953272 5.5182400000000005
1.5616907295681737 5.48259
1.5840021821477681 5.55536
1.60631369478041 5.55435
1.6286252683124185 5.24385
1.6509369035901333 5.246659999999999
1.6732468618895553 4.7484
1.695558623192809 4.49535
1.7178704487808514 5.02325
1.7401823395001077 4.44112
1.7625012545597203 4.468719999999999
1.7848028405262486 4.6530000000000005
1.8071218901122095 4.57388
1.8294236121921872 3.9513300000000005
1.8517427996910911 4.4145199999999996
1.8740620574440425 5.06427
1.8963639900671978 4.4820199999999994
1.9186833908139995 4.923719999999999
1.9409854680117449 5.0778
1.9633050151394713 4.9777
1.9856246367570705 4.42322
2.0079269371922672 4.54816
2.03024671027244 4.1514
2.0525491637446027 3.6631099999999996
2.074869091674931 4.0457
2.097171701569106 4.2998400000000006
2.1194917877373847 4.7431
2.141811954326636 4.95643
2.164114805233074 4.71479
2.186435135143035 4.3017199999999995
2.208738150935709 5.8813
2.231058647554722 6.629560000000001
2.2533792288321184 6.31237
2.275682498336085 5.60029
2.298003251406138 5.36964
2.3203066942619714 5.86445
2.3426276225136022 5.74894
2.3649486396617507 5.58186
2.387252348930071 6.72222
2.4095735463442893 5.1222
2.4318774374315884 5.88192
2.4541988185014043 6.47466
2.476502894794693 7.54723
2.498824462909887 7.08982
2.521146125856138 7.085310000000001
2.5434504863470337 7.28856
2.5657723414244717 7.96138
2.588076895590662 8.36383
2.610398946189713 8.55151
2.6327210958598384 8.55874
2.6550259469304716 8.73371
2.6773482972090137 8.155560000000001
2.6996533504259 7.606889999999999
2.7219759047039602 7.7758
2.744298562293959 8.30918
2.7666039251246595 8.16192
2.7889267918020164 8.2685
2.8112323652516555 8.33817
2.833555444408179 8.68012
2.8558786311183852 8.32732
2.8781845268938557 8.81097
2.9005079311721484 8.98767
2.9228140460410397 8.57601
2.9451376712799635 9.08878
2.967444008632326 9.23072
2.9897678582247247 9.11951
3.0120918213106695 9.80056
3.0343984987899373 10.4534
3.0567226913198637 10.6644
3.079029599759726 11.7038
3.101354025127254 11.8494
3.123678568232338 12.4427
3.145985829517914 12.8109
3.16831061055229 13.1628
3.1906181112775593 14.1026
3.212943133635653 14.5958
3.2352682779763207 14.4813
3.2575761442691227 15.1732
3.2799015350264273 15.5705
3.302209649240067 15.8306
3.3245352898092655 16.3097
3.3468436553365257 16.844
3.369169549113219 17.4103
3.3914955708171384 18.1651
3.413804319727358 18.3946
3.4361305997334863 18.6177
3.4584396084414553 18.9635
3.4807661501462652 19.3633
3.503092824025881 19.7784
3.5254022288463154 20.6633
3.5477291695206588 20.921999999999997
3.5700388426251948 21.8493
3.5923660534916446 22.1006
3.6146934007816114 23.2789
3.637003482731501 28.2419
3.6593311053109985 29.8997
3.681641464033634 26.4932
3.7039693653009733 24.3102
3.726297407241705 24.7332
3.7486081875460804 24.7872
3.7709365132734978 25.3004
3.793247578841633 26.2464
3.8155761917550093 25.9941
3.8378875459837216 26.4672
3.8602164494827234 26.7719
3.882545499606844 27.8792
3.9048572932539183 28.2382
3.9271866390645718 28.5402
3.9494987298666713 29.0894
3.971828374764527 29.2846
3.9941581705403255 29.7688
4.016470713506008 30.7051
4.038800813471445 30.9971
4.061113662089144 32.2687
4.0834440696459176 32.3676
4.105774632334751 32.8313
4.128087945865126 33.7309
4.150418821249301 34.1153
4.172732448931298 34.3919
4.195063640413578 35.4516
4.2173775856475215 37.2906
4.239709096631102 39.9739
4.262040768704612 54.6976
4.284355196706267 64.46600000000001
4.306687193387355 55.6066
4.329001947444346 44.3914
4.35133427213731 41.9077
4.373666762177566 42.4573
4.395982011761091 42.6213
4.418314834921175 43.6217
4.44063041906622 45.0665
4.4629635787515625 47.0568
4.4852969080429785 48.0092
4.5076130004776225 50.3255
4.529946671403969 54.3579
4.552263106909177 57.3837
4.574597122877047 55.5714
4.596931312711224 53.3774
4.619248269273446 53.0749
4.6415828092605835 54.364
4.663900117405352 55.3732
4.686235010953232 56.3017
4.708552674085913 57.8506
4.730887924602802 59.5181
4.753223354952695 61.4701
4.775541557023902 64.2415
4.797877349456786 67.1643
4.820195915032126 67.5709
4.842532072957498 67.3671
4.864868414979744 70.4706
4.88718753227192 74.6485
4.909524244902505 76.9612
4.931843734218147 76.1412
4.954180820867835 78.1077
4.976518095879839 80.4745
4.998838149695359 83.37700000000001
5.021175803844231 87.205
5.043496238205739 89.8675
5.065834274903528 94.1625
5.088172504230693 98.5582
5.1104935158799565 103.59
5.132832132875765 116.46700000000001
5.155153533596801 135.741
5.1774925416746225 175.752
5.199814334878411 378.718
5.2221537374521505 1006.11
5.244493338631803 2817.29
5.266815727034316 7996.32
5.289155727832427 13851.4
5.311478517248165 8413.65
5.333818921080011 2281.08
5.356159527788849 429.99300000000005
5.3784829252032536 178.843
5.400823940070432 144.076
5.423147747031976 125.7
5.445489173474152 117.279
5.467830807066149 116.706
5.490155234831516 116.65299999999999
5.512497285125229 110.292
5.534822130975162 104.428
5.557164601388673 101.523
5.579489868738879 98.2356
5.601832762690846 96.8623
5.6241758697774475 96.0246
5.646501775867269 94.9212
5.668845311622074 94.6618
5.691171647754637 93.8076
5.713515615597765 93.1937
5.735859800852677 92.0109
5.758186788542988 93.774
5.780531411018185 96.8642
5.802858837297399 96.2315
5.825203900414495 96.3071
5.8475491852224 97.9445
5.869877275883075 97.3602
5.892223006467101 94.8253
5.914551544266608 93.7846
5.936897724049891 97.044
5.959244129804903 104.73
5.981573344815301 133.32299999999998
6.0039202049061 243.99
6.026249875609095 477.04
6.04859719346037 972.852
6.070927323278297 2299.1
6.093275102315365 4818.1
6.115623113320588 5593.34
6.137953938319995 2891.36
6.160302415650845 800.5260000000001
6.182633708324452 191.32299999999998
6.2049826554078376 101.751
6.227331838745022 87.0619
6.249663839443684 81.2529
6.27201349767565 78.2935
6.294345974611799 76.8961
6.316696111167083 75.5613
6.339046488263839 73.8137
6.361379686074702 71.3712
6.383730546639482 69.4289
6.406064229255215 68.8319
6.428415576718203 69.6303
6.450749747566656 68.3171
6.47310158535871 66.3649
6.495453669698332 64.3603
6.517788579421056 63.6917
6.540141159237969 62.373000000000005
6.562476565766648 61.6371
6.5848296444934045 61.9035
6.607182974060425 61.6289
6.6295191323281015 61.7026
6.651872965955752 60.6111
6.6742096296068985 61.7302
6.6965639707294615 65.807
6.71891856698715 65.8226
6.741255995248479 61.2977
6.763611104154477 57.9769
6.785949046381137 57.4623
6.808304671371482 58.2685
6.8306605557940046 59.038999999999994
6.852999275508618 58.2309
6.875355681171544 57.1529
6.897694923437771 55.7943
6.92005185377892 55.0881
6.9423916220322655 55.2676
6.964749080490181 54.7362
6.987106804399774 54.8063
7.009447368180821 55.0293
7.031805625367033 54.9719
7.054146723727803 54.6586
7.076505517631004 54.2417
7.098864581288365 54.0256
7.121206488070854 53.674
7.143566093607822 54.2781
7.165908543567245 55.1069
7.188268694426048 54.7192
7.2106291193438095 53.7245
7.232972390625943 53.3031
7.255333366030969 53.8015
7.277677189091925 58.288999999999994
7.300038718428332 63.4289
7.322400526130865 61.3198
7.344745183422596 56.7567
7.367107550224791 53.5974
7.389452767901992 53.1941
7.411815697249891 53.2523
7.434161478756298 52.6134
7.456524974096713 53.1937
7.478888753837185 52.9122
7.501235387657368 53.4064
7.523599738562711 54.2229
7.545946944825532 55.1437
7.568311870344528 55.7664
7.5906770845765665 54.8797
7.613025156078678 54.3635
7.635390950099687 54.7399
7.657739602662809 54.7333
7.680105979923558 55.0703
7.702472650212829 55.733999999999995
7.724822180948224 55.7293
7.747189439655568 55.8043
7.769539560075357 55.0459
7.791907410653562 55.7085
7.81425812420825 55.745
7.836626570110925 55.8587
7.858995315087906 56.9425
7.881346924933401 56.9592
7.903716270417482 57.6524
7.926068482028405 57.9944
7.948438431475253 58.6361
7.9708086843180235 59.4069
7.993161805171116 59.9901
8.015532667162402 60.1859
8.037886398416653 61.5038
8.060257873014221 61.8072
8.082629655331942 62.3689
8.104984308787587 63.0263
8.127356708900503 64.8106
8.149711981398308 67.7733
8.172085002766314 68.8918
8.194458336181368 68.5061
8.216814543847752 68.13
8.23918850371002 68.6366
8.26154533906492 69.3955
8.283919928836452 71.2863
8.306277395339652 72.252
8.328652618483376 73.2885
8.351028159736202 75.773
8.373386579575245 78.2708
8.395762759396959 79.4352
8.418121819038275 82.1412
8.440498640894003 86.8821
8.462875785192262 96.9794
8.485235811156207 124.339
8.507613602688501 179.24599999999998
8.529974277114228 269.705
8.552352719347912 403.116
8.574731488360351 666.73
8.59709314210385 1255.32
8.619472567021075 2051.95
8.64183487789147 2356.44
8.664214962183097 1764.0
8.686577933647762 799.579
8.708958680784317 294.195
8.731339760774953 137.477
8.753703729764451 103.46799999999999
8.77608547780821 95.7953
8.798450116065078 93.1529
8.820832535634787 91.0286
8.843215292401656 91.1101
8.865580941199045 90.7391
8.887964374703538 90.0142
8.910330701447199 90.0118
8.932714815164482 89.725
8.955099270424924 86.9753
8.977466620733543 85.07
8.999851761421976 84.398
9.022219798361645 83.4268
9.04460562795561 83.352
9.066991803441677 83.29
9.089360876979615 83.9157
9.111747746589993 84.0088
9.13411751544971 82.8813
9.156505082664324 81.8115
9.178875550323522 81.7975
9.20126381862328 81.6806
9.223652438908596 82.7559
9.246023961427412 83.8588
9.26841328802173 84.2486
9.290785518039224 83.7607
9.313175554425882 84.6491
9.335565947154315 85.5317
9.357939245086508 85.8552
9.380330352834827 84.9102
9.40270436697103 84.96700000000001
9.425096193225055 84.5611
9.447488380180165 84.6735
9.469863475295412 84.0557
9.492256385987508 84.3262
9.514632206018318 85.0446
9.537025843935714 85.3773
9.559402392368193 86.6242
9.581796761000229 88.8068
9.604191496441521 90.8205
9.626569144158516 92.2622
9.648964615551032 92.8177
9.671343000390081 92.1613
9.693739211225699 91.8343
9.716135793237463 91.8101
9.738515290448102 92.4593
9.760912617143402 93.6824
9.783292860202891 96.46600000000001
9.805690935076182 98.3082
9.828089385495742 98.82
9.850470754023561 99.7997
9.872869957865444 101.99799999999999
9.89525208097539 105.58
9.917652041736662 110.804
9.940052382417589 122.06
9.962435644102392 150.789
9.984836746950979 194.703
10.007220771957746 259.91700000000003
10.029622640473708 366.583
10.052007432299963 548.7180000000001
10.074410069984072 856.916
10.096813093716005 1363.15
10.119199042482517 1908.81
10.141602840636468 2024.78
10.163989564971628 1462.15
10.186394141051062 726.8660000000001
10.208799107559706 305.137
10.231187001965623 159.254
10.253592751657669 117.682
10.275981430388155 108.42399999999999
10.298387966769793 105.90799999999999
10.320794897965431 105.285
10.343184759907361 104.51899999999999
10.36559248305461 103.052
10.387983138083852 104.391
10.410391656691655 111.336
10.432800574501677 123.542
10.455192425893369 140.009
10.47760214443012 166.68400000000003
10.499994797678786 212.706
10.522405320453982 297.23900000000003
10.54479877906917 420.485
10.567210109595656 557.115
10.5896218454736 593.375
10.612016518879773 468.14
10.634429067781074 289.008
10.656824555333241 166.632
10.679237920773568 110.617
10.701651695961992 92.1752
10.724048411481384 87.8254
10.746463008485165 85.40100000000001
10.768860546937125 83.6575
10.791275969274796 82.2103
10.81369180576079 81.253
10.836090585366925 80.4909
10.858507252467449 78.6773
10.88090686379991 77.8652
10.903324365036394 77.1204
10.925724811614439 76.6675
10.948143150509463 76.9869
10.970561909719066 76.1249
10.992963615930844 75.6317
11.015383218085756 74.1983
11.037785768347074 72.2642
11.06020621697282 72.0405
11.082627090322113 71.2208
11.105030913430326 70.4985
11.12745263854165 70.0876
11.149857314510728 69.4271
11.172279894912576 70.2178
11.194702904450653 69.3046
11.217108866490921 68.7084
11.239532736615194 67.999
11.26193956033512 67.3969
11.284364294577085 67.0823
11.306789462371718 66.4637
11.329197585398376 66.2067
11.351623622610898 66.29
11.37403261614354 65.359
11.396459526308487 65.0972
11.418869393879497 64.6883
11.441297180532617 64.5602
11.463725406927658 63.7122
11.486136592353875 63.7135
11.508565700543707 63.4882
11.530977768845315 63.5337
11.553407762368774 63.6834
11.575838200059769 63.5242
11.598251599479612 63.0562
11.620682927815501 62.8454
11.64309721895548 62.5952
11.665529441478206 62.1541
11.687962112597958 61.8759
11.710377748130886 62.2414
11.732811318753434 62.0707
11.755227854859067 62.2883
11.777662328529495 61.9212
11.800079768750786 61.9298
11.822515149015453 61.8715
11.844950984084935 62.238
11.867369787303163 61.7907
11.889806534289491 61.8037
11.912226250487029 62.2989
11.934663912939751 62.5626
11.9571020346363 63.2121
11.979523127133968 63.5584
12.001962169624331 64.1731
12.024384183972964 65.7517
12.046824150809913 69.2837
12.069264581333726 73.3949
12.091687985297767 79.9412
12.11412934550045 88.9895
12.136553680195208 105.205
12.158995973632788 128.408
12.181438735204349 159.793
12.20386447284199 193.255
12.226308172985636 208.375
12.24873485024193 192.423
12.271179492516982 149.869
12.293607112949127 108.109
12.316052700916226 81.7114
12.338498763250042 69.0057
12.360927805303868 64.5151
12.383374818673879 63.7656
12.405804812803074 63.0164
12.428252780773262 63.1136
12.45070122756722 63.4447
12.473132656675375 63.4884
12.49558206341869 63.7168
12.518014453510101 64.0317
12.540464823770117 64.1861
12.562915677315177 63.9599
12.58534951575545 64.2795
12.607801338171472 64.0712
12.630236146511358 64.7364
12.652688941369085 65.8851
12.675124723177234 66.1904
12.697578494048786 66.5879
12.720032754458185 66.4885
12.742470003354093 66.5766
12.764925245138771 66.9745
12.787363476431278 67.1974
12.809819703166806 67.7241
12.83227642391173 68.5031
12.854716135692716 68.9739
12.877173846755147 70.4547
12.899614549869717 70.6968
12.9220732548287 71.7922
12.94453245827299 72.3433
12.966974655289818 73.1883
12.989434858002571 73.8018
13.011878055298721 75.0815
13.034339260862497 75.7951
13.056800969391883 77.1284
13.079245674017244 80.512
13.101708390774869 84.93299999999999
13.12415410463411 92.9573
13.146617833206086 103.045
13.169064559883248 113.63
13.191529303857127 129.034
13.213994557076367 152.446
13.236442809902437 190.46099999999998
13.258909083908291 251.062
13.28135835851934 326.426
13.30382565690295 400.79
13.326293469022952 448.816
13.348744283242008 416.05199999999996
13.371213125129904 319.433
13.39366497011003 217.217
13.416134845360597 146.596
13.438605238843131 112.587
13.46105863690397 104.087
13.483530069144786 106.428
13.505984506951902 112.662
13.528456981549432 123.508
13.550929978879088 139.125
13.573385983253365 163.99599999999998
13.595860028340867 203.43900000000002
13.618317081455832 258.435
13.64079217790333 327.935
13.663250283359057 379.57300000000004
13.685726434770173 387.467
13.708203115221277 324.529
13.730662806148091 239.42700000000002
13.75314054697177 162.67
13.775601299246777 113.572
13.798080104050406 91.3511
13.820559442405358 83.0298
13.843021793671388 80.4932
13.865502201420897 79.0429
13.887965623051947 78.6508
13.910447103807167 77.866
13.932929122629764 76.2936
13.955394156785959 75.8694
13.977877254034569 75.0523
14.000343367582113 74.3068
14.022827546871707 73.8525
14.045294743423524 73.0951
14.06778000837062 72.3764
14.090265817715476 72.1841
14.112734645763819 71.7898
14.13522154619454 71.5037
14.157691466286913 71.5154
14.180179461423874 71.2363
14.202668005486178 70.5391
14.22513957064374 69.9729
14.247629214846473 69.7751
14.270101881097517 69.301
14.29259262906496 69.1973
14.315083930490205 69.1857
14.337558255389705 68.9817
14.360050666019726 68.7816
14.382526101071944 68.6153
14.405019624534942 68.4549
14.427513705993134 68.4429
14.449990813291825 68.4228
14.47248601302899 67.9843
14.49496423954951 67.9651
14.517460561197822 68.2971
14.539939910570322 68.113
14.562437357763558 68.3715
14.58493536931253 68.6599
14.607416409993311 68.6679
14.62991555254159 68.8751
14.652397725157423 69.2431
14.674898002342799 69.6819
14.697398848433282 69.7815
14.719882725991326 71.6199
14.74238471217934 73.7596
14.764869730765593 76.9797
14.787372860692983 79.8264
14.809876564079925 84.7307
14.83236330125751 90.7973
14.854868153850365 99.945
14.877356041159485 114.647
14.899862046604186 133.30100000000002
14.922351087688757 161.243
14.944858249632887 195.96599999999998
14.967365991421232 223.08599999999998
14.989856770231246 231.608
15.012365673994204 213.673
15.03485761569738 175.25
15.05736768508665 132.39700000000002
15.07987833888692 101.72399999999999
15.102372032001655 82.9276
15.124883856909658 73.7699
15.14737872204565 70.6978
15.169891721717274 69.4583
15.192405310371893 69.0415
15.214901940621196 68.6298
15.237416709527137 67.9071
15.259914520936249 67.8636
15.282430473753607 67.1341
15.304947020131227 66.6811
15.327446610371178 66.4919
15.349964346154254 66.0104
15.372465126703139 65.9878
15.394984055556009 65.7149
15.417486030076159 65.5122
15.44000615566487 65.4852
15.462526881230803 65.3412
15.485030653812652 65.1677
15.507552581617434 64.7674
15.530057557334603 64.7729
15.55258069104857 65.1395
15.575104429329837 65.3376
15.597611216864632 65.4336
15.620136166564563 66.1978
15.6426441664095 68.0178
15.665170331202765 70.5061
15.687697105158826 73.2749
15.710206930593545 76.4863
15.732734925158933 81.2843
15.755245972089478 87.7198
15.77777519094324 96.9177
15.800287463046663 109.859
15.822817909869592 130.197
15.84534897229804 153.6
15.867863089299354 181.11700000000002
15.890395385222186 198.921
15.912910736597423 197.425
15.935444269699861 175.593
15.957978423016485 140.748
15.980495633101265 108.559
16.003031029129367 85.023
16.02554948280019 70.6787
16.048086125229432 64.3385
16.070623392487107 62.51
16.09314371869582 61.5357
16.11568223789321 60.7607
16.13820381691126 60.0529
16.160743591742527 59.7908
16.183283996022084 59.3114
16.205807461423195 58.5343
16.228349126881973 58.012
16.25087385432698 57.8842
16.27341678466365 57.3214
16.29594277784926 57.1833
16.31848697676433 56.9218
16.341031811604868 56.4021
16.36355971058487 56.3467
16.3861058195587 56.1485
16.40863499352978 55.6465
16.431182380342005 55.3829
16.453730407713202 55.2493
16.476261501364792 54.9514
16.498810812136167 54.5571
16.52134319004079 54.848
16.54389378792203 54.8145
16.566445031001553 54.7652
16.588979342490088 54.3379
16.61153187824822 54.0935
16.634067483263312 54.1844
16.656621315414416 53.9433
16.679175797408888 53.6916
16.701713349928728 53.5785
16.72426913389191 53.9063
16.74680798922351 53.9555
16.76936507887444 53.8972
16.791905240734874 53.8478
16.814463639794468 53.6825
16.837022695210294 54.0044
16.859564824093756 54.222
16.882125194503903 54.0755
16.904668639217885 54.2399
16.927230328348003 54.3278
16.949792678493612 54.6906
16.972338104193863 54.6016
16.994901778652235 54.5309
17.017448529496576 54.9934
17.040013531998152 55.2693
17.06257920018044 56.0139
17.0851279459922 56.7718
17.107694947817667 57.4631
17.130245028099072 58.3834
17.15281336730298 59.7154
17.17536478578733 61.3935
17.19793446610687 63.8119
17.220504818648422 66.8492
17.243058251703697 70.2353
17.265629950971032 75.193
17.288184731571736 80.4996
17.310757781306908 83.7896
17.33333150794385 83.3308
17.355888317140174 79.4095
17.37846339986244 72.8385
17.401021565958885 67.0819
17.42359800851343 62.8118
17.44617513265564 60.3035
17.468735341390783 59.2531
17.491261035594565 58.4551
17.51396340099364 58.3154
17.536490463869136 58.3151
17.559018209820174 58.5188
17.58154663977963 58.4941
17.604251766089718 58.7244
17.626781572227713 58.902
17.64931206518155 59.1613
17.671843245885103 59.4918
17.69455114821572 59.7145
17.717083712612634 59.9727
17.739616967569667 60.0929
17.762150914021706 60.6884
17.78486160749854 60.9182
17.807396945166804 62.0227
17.829932977143503 63.2889
17.85246970436452 65.0341
17.875183204129467 66.7219
17.897721330097664 68.5786
17.920260154126645 70.9228
17.942799677153296 74.2567
17.9655159983646 78.3548
17.988056927677544 83.8237
18.010598558807683 91.5617
18.033140892692916 102.76299999999999
18.05586005052525 115.21600000000001
18.07840379824407 128.69299999999998
18.10094825154059 139.026
18.12366954819864 142.95600000000002
18.146215420998306 137.365
18.16876200220057 124.348
18.191309292745153 109.08
18.214033452627167 95.3446
18.236582170236648 86.7302
18.259131600016456 84.0074
18.281681742907335 85.2653
18.304408781233683 90.9165
18.32696035875955 97.4686
18.349512652227624 102.09299999999999
18.372065662579683 106.609
18.394795594587553 105.40899999999999
18.41735004715306 98.4179
18.43990521943684 89.6658
18.46246111238171 80.7646
18.485193953325208 71.8776
18.507751296070428 66.7289
18.530309362314178 63.6822
18.552868153000343 62.2504
18.57560391815056 61.2566
18.59816416623245 60.8888
18.620725141597372 60.3597
18.643286845190268 60.013999999999996
18.666025549835414 59.6242
18.688588718427933 58.9452
18.711152618092243 58.7914
18.73389353884365 58.6438
18.75645890921984 58.2292
18.77902501351406 58.0974
18.801591852673102 58.0232
18.824335739722738 57.4238
18.846904057212626 57.2855
18.8694731124168 57.1548
18.89204290628315 57.0482
18.914789774966803 56.7907
18.937361054791623 56.4604
18.959933076131318 56.1846
18.982505839934877 56.1022
19.00525570560582 56.0166
19.027829963004184 56.0303
19.05040496572238 56.2641
19.072980714710468 56.3954
19.095733592739563 56.4796
19.11831084296757 56.6313
19.140888842324735 56.827
19.16346759176222 57.2023
19.18622349753803 57.7514
19.208803755869358 58.7139
19.231384767143577 59.9582
19.253966532312948 61.5806
19.276725481241822 63.8404
19.29930876296784 66.7775
19.3218928014549 69.9307
19.34465404436217 72.7462
19.36723960516257 75.1055
19.389825925592426 75.2355
19.412413006605938 72.9067
19.43517731967805 68.6325
19.457765930683355 63.916000000000004
19.48035530514408 59.717
19.50294544401556 57.0174
19.525712842708348 54.963
19.54830451925909 54.0005
19.570896963095727 53.3297
19.593490175174704 53.0047
19.616260674962184 53.0897
19.638855432416964 52.8543
19.661450960992624 52.9893
19.68404726164677 52.8259
19.706820878021247 52.6374
19.729418731756834 52.8376
19.752017360452857 52.7982
19.77461676506804 52.9789
19.797393513540218 53.2862
19.819994478951667 53.4534
19.84259622316767 53.7904
19.8651987471481 54.2912
19.887978643247177 54.5993
19.91058273574792 55.0483
19.933187610901943 55.769
19.955969879466828 56.9605
19.97857632894404 58.5807
20.00118356396599 60.5223
20.023791585494575 62.8005
20.046577028914875 65.7824
20.069186632506966 68.4442
20.091797025500632 70.1979
20.114408208858933 70.0971
20.137196842715273 69.1395
20.159809615886765 66.4955
20.18242318232135 63.4766
20.20503754298326 61.4915
20.227829382875154 60.8038
20.250445341109344 61.2786
20.27306209647285 62.5967
20.29567964993108 64.1159
20.31847471147704 65.0248
20.34109387027612 65.3574
20.363713830075454 64.2746
20.386334591841646 61.9154
20.409132890679302 58.6029
20.431755265564437 56.0193
20.454378445325528 53.4305
20.477002430930366 51.9184
20.499803982716553 50.803000000000004
20.522429589228004 50.0828
20.54505600449589 49.8737
20.567683229489194 49.833
20.590488049900088 49.6165
20.61311690359731 49.5746
20.63574656993626 49.3728
20.658553853717297 48.9736
20.681185154618298 48.9764
20.703817271080066 48.9368
20.72645020407368 48.6264
20.749260783967177 48.3577
20.771895359337133 48.2914
20.794530754161617 48.3011
20.817166969412938 48.3092
20.83998086114876 48.3532
20.86261872660049 48.1874
20.885257415405402 48.3001
20.90789692853701 48.0438
20.930714147864748 48.0673
20.953355319030678 47.9851
20.97599731745334 48.0321
20.99864014410749 47.8057
21.021460706796564 47.9824
21.044105199328826 48.18
21.06675052302631 48.2478
21.089396678865015 48.506
21.112220600704806 49.075
21.134868430275347 49.3508
21.15751709492456 49.5294
21.180166595629693 49.8419
21.202993892429635 50.5412
21.22564507473034 50.7464
21.24829709602816 51.0443
21.27112693608965 50.7216
21.293780644891275 50.5246
21.316435195634053 49.8441
21.339090589297417 49.1358
21.361923832041875 48.5987
21.384580921090404 48.1035
21.407238856007325 47.7892
21.429897637773326 47.5593
21.45273429906592 47.8412
21.475394784108598 47.9514
21.498056118951983 47.9991
21.520718304578022 48.1998
21.543558400304388 48.1457
21.566222297108816 48.5434
21.58888704765135 48.7265
21.61155265291521 48.8537
21.63439619898156 49.2516
21.657063523335786 49.5233
21.67973170537063 49.9919
21.7024007460706 50.5319
21.72524775840385 51.1915
21.747918526116475 52.3183
21.770590155457388 53.7959
21.79326264741238 55.3351
21.816113141960237 57.0051
21.838787368860547 59.2508
21.861462461341976 61.5304
21.884315579735777 63.553999999999995
21.90699241312273 64.6263
21.92967011506078 64.4313
21.95234868653799 63.0391
21.9752053151131 61.0739
21.997885635446785 58.6864
22.020566828293532 57.031000000000006
22.04324889464272 55.8401
22.066109049404666 55.128
22.088792872571794 55.4249
22.111477572219204 55.6529
22.1341631493376 55.762
22.157026846313123 55.1538
22.179714188221507 54.1822
22.202402410582668 52.8476
22.22509151438863 51.349
22.24795876962584 50.0298
22.270649646204486 49.4238
22.293341407213727 48.9573
22.316034053646906 48.5291
22.338904883215342 48.3108
22.36159931041458 48.2937
22.38429462602756 48.1976
22.40699083104897 47.9035
22.429865251039757 47.8563
22.452563244831367 48.0064
22.47526213102522 47.8629
22.49813925616515 47.8724
22.520839937143307 47.8631
22.543541513520587 48.1395
22.56624398629403 47.9318
22.589124730075895 47.8722
22.611829005656723 48.1478
22.63453418063466 48.2452
22.657240256008077 48.3339
22.680124634582935 48.3742
22.70283252079775 48.8382
22.725541310413075 49.0823
22.74825100442868 49.1974
22.771139033969575 49.7591
22.79385054687155 50.0006
22.81656296718292 50.7587
22.83927629590484 51.8064
22.862167992606945 52.7176
22.88488314827121 53.9122
22.907599215359284 55.1245
22.93031619487366 56.2432
22.953211574954405 57.1258
22.975930389478226 57.4826
22.998650119445763 57.0968
23.02137076586092 56.0121
23.044269845560063 54.2846
23.06699233506288 52.4497
23.089715744034912 50.9619
23.112617610931565 49.6801
23.135342869061212 48.8135
23.158069049684816 48.2773
23.1807961538087 48.1328
23.20370174880544 47.983000000000004
23.226430710184808 48.0679
23.249160598093425 48.3335
23.271891413539002 48.3679
23.294800752937697 48.2525
23.31753343374794 48.6459
23.340267045128353 48.4713
23.36300158808808 48.9439
23.38591468821339 49.5078
23.408651104658304 49.9437
23.431388455719986 50.3675
23.454126742409 51.2812
23.4770436196085 52.2946
23.499783787914662 53.9347
23.522524894889884 55.1556
23.54526694154616 56.3329
23.56818761219047 57.376999999999995
23.59093154860734 57.626000000000005
23.613676427751283 57.4327
23.636422250635754 55.8607
23.659346731118656 53.8803
23.68209445191868 52.0285
23.704843119509587 49.8364
23.72759273490623 48.2051
23.750521041644767 47.1391
23.77327256312355 46.2886
23.796025035462787 45.7629
23.818956224555475 45.3619
23.841710609113413 45.36600000000001
23.86446594758979 45.0388
23.887222241002014 44.9898
23.910157285144578 44.4667
23.932915498962537 44.6268
23.955674670778713 44.3033
23.978434801611975 44.2433
24.001373717286125 44.2212
24.024135776723917 44.016999999999996
24.046898798245582 43.8086
24.06966278287146 43.8787
24.092605586582614 43.6773
24.115371508023642 43.5398
24.1381383956401 43.4771
24.16090625045381 43.3802
24.183852958731244 43.232
24.206622758582608 43.17100000000001
24.229393528706886 43.001999999999995
24.252165270127392 43.2137
24.27511589952438 43.0977
24.297889594216997 42.7588
24.32066426328598 42.6593
24.34343990775613 42.619
24.36639447485003 42.5271
24.38917208083877 42.5548
24.41195066531332 42.4829
24.43490819850244 42.4483
24.457688750692377 42.4098
24.48047028445616 42.3789
24.503252800821233 42.4698
24.526214300784112 42.4464
24.548998793132213 42.5644
24.57178427117417 42.4887
24.59457073593893 42.483999999999995
24.617536219319863 42.2905
24.64032466834748 42.2841
24.663114107195035 42.0423
24.685904536893013 41.9444
24.708874020360852 41.9497
24.731666442613744 41.867
24.754459858818787 41.792
24.777254270007962 41.8167
24.80022777025625 41.5446
24.82302418230472 41.6185
24.845821592443674 41.7309
24.86862000170663 41.7036
24.891597535453727 41.6122
24.914397953892728 41.8122
24.93719937456671 41.9777
24.96000179851076 41.9404
24.98298338249997 42.0541
25.00578782394922 42.2111
25.028593271784167 42.3199
25.05157790644186 42.766000000000005
25.07438537804115 43.0901
25.097193859145293 43.2164
25.120003350792075 43.4124
25.142992065061257 43.7245
25.165803588823465 44.0093
25.18861612625217 44.0657
25.211429678386736 44.1067
25.234422489079968 44.1436
25.257238081693636 44.1307
25.280054692141732 44.3968
25.3028723214652 44.3751
25.325869245420463 44.4828
25.348688923599397 44.5023
25.371509623787006 44.2717
25.394331347025812 43.9187
25.41733240110666 43.2392
25.440156181590016 42.5609
25.46298098826268 42.1194
25.48580682216873 41.5352
25.50881202326435 41.0324
25.53163992281684 40.8005
25.55446885274561 40.5532
25.577298814096377 40.189
25.600308179121807 40.2235
25.623140214533745 40.3497
25.64597328451537 40.1661
25.66898578564376 39.9253
25.691820936010206 40.0209
25.714657124097695 39.9508
25.737494350954734 40.0474
25.760511045684957 39.8286
25.783350361364224 39.9456
25.806190718969255 39.7647
25.82903211955018 39.9816
25.852053024868923 40.1449
25.874896522722523 40.0901
25.897741066713106 40.0504
25.920586657892454 40.171
25.943611790812668 40.2157
25.966459487728237 40.4718
25.989308234998564 40.5435
26.01215803367705 41.004
26.03518741123814 41.0732
26.05803932412957 41.1992
26.080892291600094 41.268
26.10374631470478 41.0957
26.12677995397268 41.2478
26.14963609978026 41.1369
26.172493304397875 40.7618
26.19535156888223 40.6091
26.218389486949604 40.1368
26.241249882640123 39.8958
26.26411134137826 39.6784
26.28715248187403 39.6151
26.31001607820869 39.4658
26.3328807407756 39.4125
26.35574647063438 39.5553
26.37879191991473 39.5634
26.401659795896734 39.5812
26.424528742360263 39.7794
26.447398760366614 40.0664
26.470448535598294 40.1298
26.49332070826805 40.2229
26.516193955675355 40.6054
26.53906827888316 40.9177
26.562122397260108 41.0314
26.584998883685063 41.2669
26.607876449110325 41.6324
26.63075509460056 41.9155
26.65381357334404 41.8118
26.67669439061878 41.7976
26.699576291163382 41.4459
26.722459276044212 41.2399
26.745522132402975 40.9955
26.768407297649354 40.7345
26.791293550442003 40.4574
26.814180891848974 40.2661
26.837248143099337 40.0018
26.860137673466657 39.7529
26.88302829566349 39.5323
26.90592001075963 39.3868
26.92899167420566 39.1597
26.951885586870763 38.9014
26.974780595655517 38.8368
26.99785558178161 38.594
27.020752794605112 38.3907
27.043651106772522 38.36
27.06655051935668 38.2626
27.089629948036183 38.2215
27.112531573292053 38.2382
27.135434302194138 38.1959
27.158338135817015 38.1461
27.181422024430987 38.0671
27.204328079372566 37.9125
27.22723524226965 38.0774
27.250143514198573 38.1305
27.273231880156334 37.9802
27.296142382065014 37.978
27.319053996245536 37.8916
27.341966723775965 37.9017
27.365059584515222 38.0981
27.38797455070062 38.0703
27.410890633481237 37.8473
27.433807833936918 37.8414
27.456905206923906 38.0428
27.47982465472398 38.0178
27.502745223449743 38.0975
27.525666914182825 38.3006
27.548768816912457 38.1451
27.571692763693633 38.0331
27.59461783573812 37.9739
27.617723149491244 37.7202
27.640650484125285 37.6171
27.66357894728264 37.6601
27.686508540048052 37.5115
27.709618414237887 37.4254
27.732550278321757 37.4346
27.755483275279115 37.4048
27.778417406196485 37.5104
27.801531858397514 37.2512
27.824468269376716 37.3126
27.847405817586786 37.3241
27.870344504116094 37.559
27.893463551932008 37.7001
27.916404527281053 37.7807
27.93934664422563 37.9053
27.962289903855886 38.1601
27.98541356491974 38.3433
28.00835912214229 38.4083
28.03130582533231 38.7038
28.054253675581805 38.8327
28.077381967556104 38.7012
28.100332124185126 38.5066
28.123283431160893 38.4061
28.146235889577238 38.263000000000005
28.169368830154156 38.0955
28.192323603752033 38.0195
28.215279532083304 37.7267
28.238415973016764 37.4254
28.261374223145094 37.2944
28.284333631303806 37.0788
28.307294198589954 36.7123
28.330435319167677 36.4284
28.353398217078915 36.2528
28.376362277420153 36.0813
28.39932750129032 36.0405
28.422473319286713 35.9057
28.44544088262495 35.9358
28.468409612800283 35.6607
28.491379510913497 35.533
28.51453004413313 35.4552
28.53750229057244 35.4042
28.56047570826344 35.3606
28.583450298308804 35.3105
28.606605564586562 35.1968
28.629582511831156 35.3269
28.65256063474956 35.0777
28.675539934446338 35.0732
28.698699951647605 35.1781
28.72168161743193 35.0607
28.74466446331978 34.9981
28.767648490417624 35.0712
28.790813276438353 34.905
28.813799678527303 34.9138
28.836787265157085 34.9934
28.859955641890075 34.9343
28.882945610203045 34.9422
28.905936766392035 34.8822
28.928929111566863 34.9003
28.952102288520145 34.9095
28.975097024308607 34.6163
28.998092952423807 34.5352
29.021090073977508 34.3672
29.04426806913204 34.22
29.067267590245258 34.2232
29.090268308143695 34.1661
29.11327022394099 34.0661
29.13645305530891 33.889
29.159457379627167 33.9664
29.18246290519685 33.8954
29.20546963313352 33.836999999999996
29.22865731875826 33.856
29.25166646419296 33.903
29.27467681535305 33.7398
29.29768837335608 33.8102
29.320880931312562 33.8637
29.34389491580634 33.8607
29.366910110507334 33.7712
29.38992651653503 33.8643
29.41312396492981 33.826
29.436142806456754 33.7042
29.45916286268059 33.5614
29.48236399319994 33.4493
29.50538649169417 33.3176
29.528410208259935 33.1763
29.55143514402014 32.9873
29.574641196749695 32.8413
29.597668583816574 32.909
29.6206971934585 32.588
29.64372702680042 32.7674
29.666938019934474 32.7178
29.689970313635285 32.5281
29.713003834422636 32.4752
29.73603858342347 32.4872
29.759254535188578 32.3976
29.78229175361658 32.2972
29.80533020365064 32.5111
29.82836988641968 32.344
29.85159081507472 32.3294
29.874632976355343 32.306999999999995
29.89767637376955 32.3089
29.920721008448314 32.2275
29.9439469322847 32.1234
29.96699405457564 32.0977
29.9900424175358 32.1736
30.013092022298157 32.098
30.03632295963995 31.9947
30.059375061131373 32.0886
30.08242840783577 32.150999999999996
30.105483000888153 32.1101
30.128718970092244 31.9854
30.151776069006917 31.9703
30.17483441768648 32.0744
30.198074175317235 31.9906
30.221135036724256 31.9507
30.24419715131772 31.9144
30.267260520236203 31.7835
30.290505341942243 31.8261
30.313571232750228 31.8795
30.336638381310948 31.8569
30.35970678876503 31.7967
30.38295669299435 31.7369
30.40602763151657 31.7401
30.429099832366074 31.7574
30.452173296685572 31.6308
30.47542830191959 31.6436
30.498504306502497 31.6832
30.521581577995562 31.7567
30.544660117543582 31.7919
30.56792024229725 31.8221
30.59100133132069 31.8455
30.614083691845494 31.7426
30.637167325018545 31.8291
30.660432587840603 31.8359
30.683518779717886 31.8864
30.70660624769615 31.819000000000003
30.729694992924372 31.87
30.75296541239743 31.8028
30.77605672557558 31.6962
30.799149319462742 31.7122
30.8224236211637 31.4886
30.845518789950724 31.4311
30.868615242910597 31.3884
30.891712981195973 31.2142
30.91499247215866 31.1233
30.938092794619365 31.154
30.96119440587579 31.0635
30.984297307082752 30.923000000000002
31.00758200598383 30.9031
31.030687500658694 30.8336
31.053794288760695 30.7216
31.076902371446767 30.5976
31.100192296997445 30.7908
31.12330298246119 30.7401
31.14641496599209 30.5492
31.169528248749216 30.6555
31.19282341969534 30.6396
31.215939314557186 30.5998
31.239056512134788 30.572
31.262175013589378 30.4771
31.28547544871168 30.4848
31.30859657161541 30.4579
31.331719001892175 30.5446
31.35484274070538 30.5227
31.378148458819545 30.5829
31.401274828443725 30.4877
31.424402510106933 30.5406
31.447712205419993 30.508000000000003
31.470842524931633 30.4014
31.493974159989783 30.4082
31.51710711176168 30.3344
31.54042212308802 30.3195
31.563557722100917 30.3437
31.586694641341655 30.1353
31.609832881979628 30.1142
31.63315322823208 30.1248
31.656294125521327 29.9776
31.679436347728515 29.8637
31.70257989602529 29.9193
31.725905596152327 29.8302
31.74905181052835 29.7774
31.772199354521323 29.7637
31.79534822930507 29.7412
31.818679302290967 29.8122
31.84183085259981 29.7908
31.864983737233473 29.7997
31.88813795736804 29.8676
31.911474422233013 29.6621
31.934631327356435 29.6993
31.9577895715215 29.6101
31.980949155906522 29.662
32.004291031706956 29.5969
32.027453310562606 29.4319
32.05061693318573 29.3464
32.07396288236386 29.3775
32.09712920658542 29.2348
32.12029687812702 29.165
32.14346589817093 29.2189
32.166817291729984 29.0941
32.18998902288583 29.0359
32.21316210610336 29.0066
32.23633654256711 28.8108
32.259693399663725 28.8506
32.282870556771144 28.7275
32.30604907069099 28.7892
32.329228942610065 28.7202
32.35259128243769 28.5605
32.375773884550505 28.5557
32.398957848235646 28.5767
32.422143174682176 28.523000000000003
32.445511016471215 28.4086
32.468699082679954 28.3645
32.49188851523011 28.276999999999997
32.51507931531304 28.2282
32.538452678331 28.3146
32.56164622776311 28.2195
32.58484114831493 28.0941
32.60803744118015 28.1708
32.631416344731896 28.0627
32.654615396551876 28.0469
32.67781582427913 28.0994
32.701198898634416 27.9346
32.72440209253756 27.9866
32.747606665947124 27.9413
32.77081262006088 27.8043
32.79420126883317 27.7499
32.81740999876112 27.7192
32.840620112999424 27.6722
32.86383161274818 27.6398
32.88722585534586 27.654
32.91044014056596 27.728
32.933655814909734 27.6976
32.95687287957963 27.6173
32.98027273544904 27.5343
33.00349259526636 27.5206
33.026713849030116 27.5731
33.04993649794511 27.5574
33.073341986570746 27.4762
33.09656744032826 27.4705
33.11979429286444 27.3914
33.14302254538647 27.3471
33.166433686291185 27.293000000000003
33.18966475336992 27.3481
33.212897224069096 27.1688
33.23613109959831 27.3308
33.259547912343415 27.1758
33.2827846121627 27.177
33.306022720453775 27.1381
33.32926223842861 27.0793
33.352684742614166 27.0325
33.37592709463173 27.0526
33.399170859982064 26.9563
33.422597648419426 26.8978
33.44584425514446 26.7727
33.46909227885668 26.741
33.4923417207723 26.6549
33.51577423505344 26.7322
33.539026528130385 26.6174
33.56228024307245 26.5898
33.585535381098246 26.4062
33.60897364093058 26.4561
33.63223163992385 26.4152
33.6554910656699 26.3026
33.678751919389796 26.3135
33.702195944520106 26.2353
33.72545966903325 26.2554
33.74872482519663 26.1079
33.771991414233746 26.2294
33.79544122444841 26.1252
33.81871069412428 26.1477
33.84198160035767 26.0922
33.86525394437455 25.9921
33.88870955949969 25.9366
33.911984794020626 25.9494
33.93526147001624 25.9427
33.958539588715006 25.899
33.98200102861669 25.7613
34.0052820477047 25.7307
34.02856451319451 25.7113
34.05203033759056 25.6849
34.07531571090147 25.6828
34.09860253431845 25.5684
34.121890809074316 25.5088
34.145362493118924 25.6093
34.16865368561615 25.5268
34.191946333164054 25.3965
34.21524043699793 25.4452
34.23871800066799 25.4009
34.26201503218366 25.3095
34.28531352370466 25.3054
34.30861347646881 25.24
34.33209693978188 25.1864
34.3553998301885 25.1036
34.378704185565205 24.9815
34.402010007152356 25.0191
34.42549939016683 25.0303
34.44880815937748 24.9661
34.472118398533134 24.8815
34.49543010887669 24.8607
34.51892543169198 24.7869
34.54224009966052 24.8528
34.56555624255917 24.8734
34.58887386163339 24.7536
34.61237514439016 24.7116
34.6356957311114 24.6687
34.65901779775809 24.5931
34.68252356662995 24.6023
34.705848608458616 24.5947
34.72917513396849 24.5002
34.75250314440949 24.4954
34.77601490857862 24.4027
34.799345904259795 24.3137
34.82267838863559 24.3835
34.846012362958525 24.3341
34.869530142679984 24.2796
34.89286711232212 24.2856
34.91620557568269 24.2621
34.93954553401677 24.2783
34.9630693495876 24.174
34.986412313340814 24.1741
35.00975677584668 24.1899
35.033102738362956 24.081999999999997
35.05663261012228 23.9941
35.0799815881786 23.9782
35.10333207003229 23.9605
35.12668405694369 23.9838
35.150220005273056 23.9584
35.17357501786656 23.863000000000003
35.19693153931268 23.8123
35.220289570874385 23.9048
35.24383161619786 23.9008
35.267192683604904 23.8627
35.290555264930376 23.8349
35.314101899412165 23.8126
35.33746752422433 23.7496
35.36083466676374 23.7539
35.38420332829803 23.7151
35.407756095629054 23.8041
35.43112781085063 23.669
35.45450104888391 23.6989
35.477875810999194 23.7027
35.50143473172161 23.6173
35.52481255774625 23.5881
35.54819191167777 23.4374
35.57157279478914 23.4695
35.595137889488406 23.4357
35.61852184675279 23.3182
35.641907337029984 23.3124
35.665294361595684 23.3189
35.68886565090076 23.2775
35.7122557598848 23.2171
35.73564740699838 23.1727
35.759040593519934 23.1349
35.78261809810353 23.1391
35.80601437933051 23.0075
35.829412203814705 22.9984
35.85281157283719 22.881999999999998
35.876395313415884 22.8778
35.8997977874528 22.9301
35.92320180988546 22.8872
35.946790244133936 22.8507
35.97019737933222 22.9142
35.993606066789866 22.8013
36.01701630779276 22.7818
36.04061101440684 22.6878
36.06402437852291 22.7838
36.08743930005611 22.6905
36.1108557802951 22.5623
36.13445678011326 22.5495
36.15787639383515 22.5721
36.18129757014299 22.4758
36.20472031032821 22.401999999999997
36.22832762423364 22.3818
36.25175350829375 22.3549
36.275180960119776 22.3403
36.298609981005924 22.3457
36.32222362992669 22.3004
36.34565580510207 22.324
36.36908955323448 22.2601
36.39252487562093 22.1994
36.416144880530226 22.1612
36.43958336764275 22.1862
36.463023432914625 22.1874
36.486465077645676 22.0785
36.51009145956204 22.1379
36.53353627947859 22.069000000000003
36.55698268276811 22.0147
36.58043067073321 22.0354
36.60406345072071 21.9192
36.62751462435344 21.9499
36.65096738658405 21.9305
36.67460498210655 21.8594
36.69806093788647 21.8524
36.72151848619297 21.7607
36.744977628333636 21.7451
36.76862165890998 21.6421
36.79208400512205 21.6658
36.81554794910557 21.7651
36.83901349217101 21.5622
36.862663978991606 21.5268
36.88613273667352 21.503
36.90960309738324 21.5525
36.933075062434064 21.4517
36.95673202673572 21.4625
36.98020721697122 21.3519
37.003684015502365 21.2624
37.027162423645365 21.2824
37.050825886711465 21.3189
37.07430753063053 21.179000000000002
37.09779078812467 21.1794
37.121275660513014 21.1516
37.144945643673694 21.1228
37.16843376245278 21.0947
37.19192350009803 21.1673
37.215414857931435 21.0944
37.239091382563885 21.0799
37.262585997426164 21.0473
37.28608223645736 21.0066
37.309763684451696 20.8894
37.33326318851098 20.9372
37.356764320726555 20.9412
37.380267082425526 20.854
37.40395510942588 20.7901
37.42746114683234 20.7825
37.45096881771841 20.679000000000002
37.474478123414166 20.7018
37.49817275092816 20.7339
37.52168534303452 20.6638
37.54519957395567 20.551
37.568715445024665 20.5669
37.592416694607714 20.5091
37.61593586281424 20.5189
37.63945667518264 20.5357
37.66297913304891 20.3935
37.68668702630454 20.414
37.710212792059274 20.3672
37.733740207334854 20.3859
37.757269273470364 20.3211
37.780983832050374 20.2887
37.80451621684926 20.3104
37.82805025654007 20.2477
37.851585952464795 20.1309
37.8753071980695 20.1209
37.89884622345676 20.0399
37.92238690911902 20.0511
37.94611318753442 20.0268
37.969657210779765 20.0124
37.99320289834801 19.995
38.016750251586465 19.9283
38.04048325513017 19.8921
38.06403395679343 19.8865
38.087586328183946 19.9267
38.11114037065203 19.7871
38.13488012115898 19.7819
38.1584375229181 19.6737
38.181996599821 19.7095
38.205557353221124 19.6708
38.229303872575656 19.6277
38.2528679961576 19.5968
38.27643380031219 19.5215
38.30000128639589 19.534000000000002
38.32375459653193 19.5138
38.34732546371299 19.5383
38.37089801690786 19.4382
38.39447225747609 19.3907
38.418232380377425 19.3758
38.441810012983396 19.3603
38.46538933705673 19.308
38.488970353960084 19.3069
38.51273731166058 19.3129
38.536321731567014 19.2428
38.55990784840681 19.2529
38.58367995004091 19.1833
38.60726947812959 19.1328
38.63086070726198 19.2234
38.654453638806274 19.1543
38.678232613930824 19.0386
38.70182896773327 18.9959
38.72542702806741 19.0209
38.7490267963045 18.9772
38.77281266709232 18.9968
38.79641586862214 18.965999999999998
38.8200207821842 18.8633
38.843627409152944 18.9509
38.86742019782782 18.8353
38.891030269149255 18.8172
38.914642058016156 18.7767
38.938255565806124 18.7096
38.96205529464307 18.6443
38.98567225787121 18.6776
39.00929094417078 18.6848
39.03291135492255 18.6517
39.05671804624804 18.605
39.080341923549106 18.5434
39.103967529460334 18.5609
39.127594865365744 18.4688
39.15140854155791 18.4913
39.17503935514948 18.449
39.19867190290282 18.3635
39.22249083587951 18.3957
39.24612686969409 18.4034
39.269764641845306 18.4204
39.293404153722804 18.3458
39.317230110864074 18.3035
39.34087311998506 18.1792
39.36451787301696 18.172
39.388164371352595 18.1585
39.41199737518003 18.0909
39.43564738196752 18.1085
39.45929913825317 18.0885
39.48295264543308 18.1054
39.506792718520884 18.0355
39.530449745387216 17.9832
39.55410852735203 17.9953
39.57776906581474 17.985
39.60161623079 17.9437
39.625280300200025 17.8936
39.64894613032202 17.8241
39.67261372255866 17.8474
39.6964680021016 17.8476
39.72013913657293 17.8827
39.74381203738292 17.7959
39.76748670593756 17.7071
39.79134812278169 17.7402
39.81502634488497 17.6955
39.83870633896685 17.6331
39.862388106436654 17.6113
39.88625668336918 17.6157
39.90994201572829 17.5817
39.933629125719285 17.5334
39.957503091207826 17.5189
39.9811937746168 17.5198
40.00488623990914 17.4428
40.02858048850006 17.4185
40.05246165409549 17.3834
40.076159487492085 17.2806
40.099859108448875 17.2724
40.123560518384345 17.227
40.1474489070226 17.2831
40.171153913178564 17.2579
40.194860712584955 17.219
40.2185693066637 17.2166
40.242464941335314 17.1539
40.26617714307655 17.1701
40.289891143772046 17.1242
40.3136069448471 17.1012
40.33750984859743 17.0346
40.3612292688043 17.0359
40.3849504936829 16.9897
40.40867352466194 17.0183
40.43258372059144 16.9434
40.45631038219906 16.9523
40.48003885420956 16.8972
40.503769138055105 16.8878
40.52768664931955 16.8805
40.55142057531802 16.8333
40.57515631746428 16.7761
40.599079334038514 16.7473
40.62281872700477 16.7071
40.64655994043941 16.6997
40.67030297578061 16.6541
40.69423334835778 16.6042
40.71798004609188 16.6435
40.74172857006355 16.6186
40.76547892171441 16.6163
40.7894166736039 16.542
40.813170699248566 16.4831
40.83692655691388 16.4752
40.86068424804498 16.4436
40.884629402612525 16.4256
40.908390779366385 16.4466
40.932153993938 16.4288
40.95591904777605 16.4426
40.979871628443995 16.4054
41.003640379561936 16.3535
41.02741097430883 16.3283
41.05118341413683 16.2784
41.075143444384416 16.2408
41.098919593177826 16.219
41.1226975914255 16.2494
41.14647744058318 16.1491
41.170444943946755 16.1587
41.19422851378379 16.1549
41.218013938914645 16.0897
41.24198706625173 16.0627
41.26577622087193 16.0407
41.289567235177785 15.9789
41.31336011063129 15.9697
41.337340752422875 15.9293
41.361137369129835 15.9238
41.38493585138705 15.915999999999999
41.40873620066004 15.8785
41.43272438060107 15.8582
41.45652848292052 15.7513
41.48033445666918 15.7535
41.50414230331616 15.7493
41.528138045159764 15.7251
41.551949656675205 15.6726
41.575763145513235 15.7024
41.59957851314666 15.6642
41.62358184070442 15.6662
41.64740098505737 15.6266
41.6712220126409 15.5416
41.69504492493139 15.5358
41.71905586207357 15.5646
41.74288256296395 15.4705
41.766711153007456 15.4437
41.79054163368412 15.4054
41.814560204340054 15.4649
41.838394485526365 15.4514
41.86223066180303 15.3612
41.88625497706819 15.2855
41.910094962812 15.2833
41.93393684811168 15.3176
41.95778063445365 15.2369
41.981812625263366 15.242
42.00566023303407 15.2252
42.029509746323676 15.1558
42.05336116662236 15.1686
42.077400857069705 15.1535
42.10125611078846 15.1365
42.12511327600405 15.08
42.14897235421036 15.0762
42.173019768448455 15.0109
42.19688269209613 15.0363
42.22074753323349 15.0174
42.24461429335818 14.9666
42.268669455600495 14.9682
42.292540073217886 14.9026
42.31641261433284 14.9014
42.34028708044675 14.8568
42.36435001496739 14.8529
42.38822835065557 14.8691
42.41210861586426 14.8028
42.4359908120986 14.7455
42.46006154323262 14.7017
42.48394762115317 14.7291
42.507835634632315 14.7089
42.531912233047436 14.6647
42.55580413732265 14.6612
42.579697981698 14.5897
42.60359376768525 14.5767
42.62767820545945 14.5317
42.65157789440821 14.5376
42.67547952952185 14.5093
42.699383112316 14.5064
42.72347541395347 14.4693
42.74738291190531 14.4358
42.771292362102166 14.4374
42.795203766063516 14.3726
42.819303956130405 14.4211
42.843219287476536 14.3594
42.86713657716324 14.3315
42.89105582671383 14.3251
42.91516392983864 14.3171
42.939087119032166 14.2963
42.963012272677304 14.23
42.98693939230129 14.1638
43.01105543317513 14.187000000000001
43.034986504731386 14.1643
43.05891954686589 14.1196
43.08285456110972 14.0751
43.10697856448665 14.0859
43.130917542983475 14.0072
43.15485849820081 14.0304
43.17880143167367 13.9875
43.20293342237094 13.9586
43.226880332449 13.9843
43.25082922540554 13.9714
43.27496722682525 13.9372
43.29892010567796 13.8691
43.32287497204102 13.873
43.34683182745632 13.8192
43.370977859791836 13.765999999999998
43.39493871351105 13.8144
43.41890156092628 13.7813
43.44286640358341 13.7823
43.46702049182749 13.7102
43.49098934522816 13.6902
43.51496019852649 13.6553
43.5389330532723 13.6587
43.56309522248204 13.6193
43.58707210044314 13.6037
43.61105098451946 13.522
43.63503187626491 13.5292
43.659202151562134 13.5381
43.68318707902681 13.5048
43.70717401884041 13.4856
43.731162972560874 13.390999999999998
43.75534137913236 13.4665
43.779334381108384 13.4104
43.803329401683186 13.3849
43.82732644241872 13.3897
43.8515130055166 13.3399
43.87551410707659 13.2749
43.89951723350145 13.3125
43.923709934595614 13.2683
43.94771713129917 13.2638
43.97172635758096 13.2159
43.99573761501002 13.1847
44.0199385169922 13.1806
44.04395385732619 13.1815
44.067971233533086 13.1734
44.09199064718605 13.1345
44.11619977548961 13.0705
44.14022328470671 13.0644
44.16424883610785 13.0859
44.18827643127035 13.0546
44.21249381139513 13.0366
44.236525514814076 12.9869
44.26055926674478 12.9543
44.28459506876863 12.9516
44.3088207262813 12.869000000000002
44.33286064928722 12.8826
44.35690262714919 12.8797
44.38094666145278 12.8322
44.4051806219871 12.8296
44.42922879003185 12.806
44.45327901929361 12.7844
44.477331311362136 12.7648
44.501573600619416 12.7313
44.525630039221795 12.7022
44.54968854541895 12.6999
44.573937102200176 12.6691
44.5979997645541 12.6276
44.622064499300315 12.593
44.64613130803592 12.5922
44.67038823869318 12.6353
44.69445921643748 12.546
44.718532272981385 12.5096
44.742607409926194 12.5128
44.76687274034801 12.482000000000001
44.79095205918753 12.4622
44.81503346325094 12.4545
44.839116954143876 12.4263
44.86339071028742 12.4185
44.88747839599524 12.3559
44.91156817336837 12.3124
44.93566004401666 12.2906
44.959942251908146 12.2934
44.984038330325966 12.3128
45.00813650686762 12.2488
45.03223678314731 12.2067
45.05652746888232 12.2154
45.08063196592069 12.2171
45.104738567558705 12.177999999999999
45.128847275414856 12.1668
45.15314646515866 12.093
45.17725940679741 12.0898
45.20137445952892 12.0937
45.22568004865265 12.087
45.24979934496396 12.0267
45.27392075725247 12.0284
45.29804428714431 12.0091
45.322358426247604 11.9786
45.346486212804315 11.9765
45.370616121861914 11.9424
45.39474815505086 11.9067
45.41907087049246 11.8798
45.4432071734666 11.8636
45.46734560548283 11.8587
45.49148616817604 11.8408
45.51581748638564 11.8181
45.5399623320197 11.7938
45.56410931325473 11.7713
45.58825843173002 11.7964
45.61259837920865 11.734000000000002
45.636751793816 11.7373
45.66090735060093 11.7142
45.68506505120716 11.6845
45.7094136545275 11.6282
45.73357566449271 11.6166
45.75773982322992 11.65
45.78190613238733 11.6041
45.806263418194064 11.4824
45.83043404997326 11.5263
45.85460683713677 11.5301
45.87897065658495 11.4972
45.90314777634752 11.4595
45.92732705646868 11.4863
45.9515084986045 11.4649
45.97588104735473 11.4084
46.00006683541565 11.4347
46.02425479047904 11.3806
46.04844491420549 11.3277
46.0728262191024 11.3566
46.09702070211635 11.3457
46.12121735879483 11.3064
46.14541619080294 11.3045
46.169806278764455 11.2716
46.194009483459034 11.2802
46.21821486849841 11.2557
46.24242243555223 11.1778
46.266821333570014 11.1739
46.29103328674601 11.164000000000001
46.31524742696538 11.1446
46.33946375590237 11.1279
46.36387149104216 11.1002
46.38809221957392 11.0703
46.41231514186606 11.0415
46.436540259597464 11.0818
46.460956858999374 11.0551
46.48518638983522 10.991
46.509418121166966 10.9769
46.533652054678114 10.9628
46.55807754555709 10.9155
46.58231590571962 10.9738
46.60655647313217 10.9457
46.630988654873654 10.877
46.655233659129024 10.8178
46.67948087571551 10.8498
46.70373030632484 10.8141
46.72817142736393 10.8024
46.752425308428684 10.7932
46.77668140861147 10.7554
46.80093972960865 10.7124
46.82538981736788 10.6639
46.849652602470904 10.6729
46.87391761349769 10.6636
46.8981848521493 10.6619
46.9226439341274 10.6428
46.946915650573224 10.6081
46.97118959976749 10.6184
46.99546578341598 10.5636
47.019933887188216 10.544
47.04421456235744 10.5769
47.06849747711879 10.5315
47.09278263318286 10.4869
47.11725978640143 10.4781
47.14154944775105 10.422
47.165841355555656 10.4354
47.1901355115306 10.3939
47.214621741924994 10.4201
47.23892041698887 10.3837
47.26322134538975 10.374
47.28771440635075 10.3085
47.31201986422527 10.3231
47.33632758061436 10.2983
47.360637557241866 10.2979
47.38513974410611 10.2953
47.40945426407847 10.2395
47.43377104948137 10.2412
47.45809010204344 10.1912
47.48260144275502 10.1809
47.506925052572285 10.2144
47.53125093475548 10.0984
47.55557909103813 10.1142
47.58009961361992 10.1089
47.60443234110732 10.0929
47.62876734791564 10.0785
47.65310463578333 10.0447
47.6776343683373 10.0725
47.7019762413987 10.0085
47.72632040075572 9.96583
47.75066684815169 9.99403
47.77520581885936 9.94421
47.799556865477655 9.91935
47.823910205386 9.94718
47.84826584033272 9.90985
47.87281407745551 9.87621
47.89717432569297 9.91925
47.92153687423484 9.866019999999999
47.94609208429692 9.85614
47.97045925671401 9.8297
47.99482873471275 9.79186
48.01920052005013 9.81436
48.04376504619224 9.75522
48.068141469543484 9.75795
48.09252020552573 9.74028
48.11690125590099 9.68709
48.1414751266064 9.73245
48.16586082917454 9.69688
48.19024885144316 9.64891
48.2146391951793 9.62835
48.239222439012764 9.62508
48.26361744916137 9.59623
48.28801478610016 9.61722
48.31241445160131 9.60113
48.337007097209366 9.57789
48.36141144338331 9.573310000000001
48.38581812345755 9.49368
48.41022713920929 9.495
48.434829215320704 9.5329
48.45924292604658 9.47498
48.48365897780325 9.49945
48.50807737237308 9.44162
48.532688907799276 9.41697
48.55711201168574 9.427669999999999
48.581537463754074 9.40926
48.60615611725119 9.37505
48.63058628942721 9.345839999999999
48.65501881516546 9.33014
48.6794536962573 9.3169
48.70408185970339 9.32576
48.72852147531801 9.30216
48.75296345168211 9.2566
48.77740779059232 9.26091
48.80204549302823 9.247630000000001
48.82649458091802 9.22589
48.85094603676547 9.17508
48.87539986237231 9.198189999999999
48.90004713292306 9.18747
48.92450572200832 9.149239999999999
48.94896668628025 9.141539999999999
48.97343002754588 9.12542
48.99808689542115 9.12151
49.02255501470614 9.11149
49.04702551642794 9.06391
49.0714984023988 9.04198
49.096164896893235 9.00558
49.120642575466796 8.98632
49.145122643748394 8.963230000000001
49.16960510355558 8.98657
49.19428125404938 8.96369
49.2187685210852 8.940389999999999
49.243258185121555 8.94445
49.26794160167084 8.94069
49.2924360839405 8.90392
49.31693296869764 8.85903
49.34143225776915 8.83447
49.36612538195438 8.830919999999999
49.39062950396021 8.808019999999999
49.41513603578346 8.80894
49.4396449792564 8.804789999999999
49.46434784069503 8.79263
49.488861631846454 8.76308
49.513377840166804 8.74132
49.537896467493745 8.72455
49.56260909589029 8.69823
49.587132585683285 8.683810000000001
49.611658500018365 8.70304
49.636186840738596 8.647210000000001
49.66090926588511 8.66286
49.685442483902584 8.63072
49.70997813385706 8.616530000000001
49.734516217597076 8.596739999999999
49.75924846937352 8.564689999999999
49.7837914452858 8.598180000000001
49.80833686055187 8.523010000000001
49.83288471702571 8.5055
49.85762682540054 8.54322
49.882179588965734 8.49145
49.9067347993235 8.44904
49.93129245833333 8.45735
49.95604445336378 8.45841
49.98060703442832 8.42066
50.005172069746266 8.423789999999999
50.02993150438364 8.37693
50.05450147301533 8.367280000000001
50.07907390151433 8.344619999999999
50.10364879174981 8.35182
50.12841816587289 8.34695
50.1529980044635 8.33539
50.17758031042124 8.29374
50.20216508562089 8.32802
50.22694442953363 8.26902
50.25153416817468 8.27263
50.27612638170508 8.21265
50.300721072005196 8.2047
50.325510416102105 8.19726
50.350110084975064 8.17128
50.37471223628208 8.192689999999999
50.39931687190919 8.160680000000001
50.424116246675766 8.16287
50.44872587605249 8.13438
50.47333799543065 8.09384
50.49795260670191 8.07598
50.52276204271512 8.05597
50.54738166295838 8.038969999999999
50.57200378079314 8.0185
50.596628398116835 8.035689999999999
50.62144792604559 8.02815
50.646077567609396 8.00838
50.670709714377715 8.00738
50.69553683636198 7.937710000000001
50.72017401885922 7.938680000000001
50.7448137122895 7.93837
50.76945591856022 7.9276800000000005
50.79429318636823 7.9103699999999995
50.818940443716784 7.8992
50.84359021965163 7.8670800000000005
50.868242516085964 7.865819999999999
50.893089960641895 7.81464
50.917747323549435 7.825130000000001
50.94240721271973 7.8123
50.96706963007175 7.78971
50.99192728239342 7.799119999999999
51.01659478166073 7.77687
51.04126481489051 7.74931
51.06593738400761 7.71672
51.090805275207074 7.71948
51.11548294172845 7.70825
51.14016314993547 7.72501
51.164845901758845 7.67599
51.18972406304274 7.64577
51.21441192780656 7.6153
51.23910234200271 7.61199
51.2637953075678 7.6101
51.288683770237945 7.60284
51.31338186432707 7.56654
51.33808251561888 7.580539999999999
51.362978729967345 7.56234
51.387684521509755 7.5388
51.41239287610203 7.51055
51.437103795691165 7.476560000000001
51.46201036644977 7.46104
51.486726441956634 7.4652899999999995
51.51144508832545 7.47268
51.536166307509156 7.420710000000001
51.56108326624387 7.45954
51.58580965706056 7.420210000000001
51.61053862657523 7.409889999999999
51.635270176746864 7.358569999999999
51.66019755512065 7.395989999999999
51.68493429268881 7.411110000000001
51.70967361681515 7.35654
51.73441552946465 7.291930000000001
51.759353359237934 7.28503
51.7841004750961 7.3112699999999995
51.80885018539685 7.28361
51.833602492111254 7.27699
51.8585508051424 7.26089
51.883308330926425 7.243010000000001
51.90806845906181 7.22646
51.932831191525715 7.19335
51.95779001977161 7.1586
51.98255798721516 7.137410000000001
52.00732856494335 7.10923
52.03229530577543 7.13685
52.057071130455945 7.0949100000000005
52.081849571391054 7.09275
52.106630630568695 7.10445
52.13160794279417 7.03224
52.15639426492067 7.049060000000001
52.18118321127822 7.054880000000001
52.205974783860896 7.005269999999999
52.23096269971011 7.00192
52.255759551287994 6.97832
52.280559035098186 6.972989999999999
52.30536115314103 6.979710000000001
52.33035970494467 6.96615
52.35516711807904 6.938439999999999
52.37997717147198 6.908010000000001
52.40478986713005 6.913069999999999
52.42979908731974 6.942589999999999
52.454617094216 6.91045
52.47943774942214 6.860239999999999
52.50426105495102 6.849819999999999
52.529280976059844 6.86937
52.554109609024096 6.841010000000001
52.57894089837482 6.787489999999999
52.60377484613117 6.78737
52.62880550079408 6.760560000000001
52.65364479223379 6.7525
52.67848674816189 6.781000000000001
52.70352547971946 6.7911
52.72837279155837 6.73959
52.753222773982785 6.71985
52.778075429022984 6.715960000000001
52.80312495150885 6.706910000000001
52.827982978797436 6.67738
52.85284368481815 6.668539999999999
52.87770707160767 6.63928
52.90276741793998 6.6231800000000005
52.92763619336701 6.620310000000001
52.952507655698504 6.60158
52.977381806977576 6.57857
53.00245301017842 6.61607
53.02733256653592 6.57193
53.052214817996074 6.57138
53.077099766608484 6.55536
53.102181859804446 6.53251
53.127072229988265 6.54126
53.15196530349892 6.5067
53.17686108239249 6.4846900000000005
53.20195409881522 6.4839
53.22685531582556 6.45585
53.25175924441303 6.47342
53.27666588664027 6.43112
53.30176985962693 6.3977900000000005
53.3266819565689 6.3947199999999995
53.35159677336455 6.38477
53.376514312083096 6.3802900000000005
53.40162927507703 6.37674
53.42655228516116 6.329359999999999
53.45147802340193 6.294630000000001
53.47660125628886 6.31902
53.50153247842639 6.29876
53.52646643496923 6.29959
53.55140312799818 6.30676
53.576537409691696 6.30094
53.60147960336152 6.224069999999999
53.626424539786164 6.26691
53.65137222105307 6.224480000000001
53.67651758529126 6.23104
53.70147078399681 6.21103
53.72642673383343 6.22334
53.75138543689533 6.1620800000000004
53.776541917524526 6.14544
53.801506154876755 6.17856
53.826473151763246 6.12248
53.851442910284916 6.08592
53.87661054126026 6.07411
53.9015858509782 6.10551
53.92656392866066 6.09771
53.95154477641532 6.08875
53.976723591801296 6.07754
54.00171000771266 6.03694
54.02669920004598 6.00508
54.051691170915745 6.0212699999999995
54.076881204886796 6.0006
54.101878760928514 6.02114
54.12687910187696 5.93895
54.152077577768296 5.96402
54.1770835166946 5.94081
54.20209224691339 5.91907
54.22710377055121 5.93255
54.25231352511594 5.906569999999999
54.27733066384342 5.89224
54.30235060239643 5.894819999999999
54.32737334290836 5.84245
54.35259441062629 5.77894
54.377622783395324 5.76628
54.40265396455061 5.80625
54.42768795623251 5.79018
54.45292037169559 5.71755
54.477960012857906 5.74444
54.50300247099511 5.76907
54.52804774825457 5.73896
54.55329154616743 5.69674
54.57834249018678 5.72792
54.6033962597977 5.701219999999999
54.6284528571545 5.62688
54.653708072335164 5.64743
54.67877035378786 5.60519
54.70383546947698 5.52607
54.72890342156389 5.49996
54.7541700889442 5.49938
54.77924374251975 5.50751
54.8043202390049 5.47645
54.82959552413022 5.4771
54.8546777351945 5.44381
54.87976279569621 5.41619
54.90485070780914 5.44488
54.930137506558005 5.33136
54.95523115074295 5.36505
54.98032765308844 5.36113
55.005427015775496 5.33825
55.03072536339621 5.36359
55.05583047570572 5.291180000000001
55.080938454927676 5.27822
55.10604930325027 5.25897
55.131359235107396 5.28801
55.15647585066083 5.18739
55.181595341907496 5.18791
55.20671771104285 5.19853
55.232039262617704 5.15683
55.25716741665048 5.1622
55.28229845518636 5.16095
55.30743238042802 5.08021
55.33276558731939 5.03814
55.357905315183636 5.0801
55.383047936390035 5.03616
55.40819345314859 4.97469
55.433538351073295 5.009530000000001
55.458689688238415 5.000030000000001
55.483843927614096 4.9133
55.509197623043605 4.93452
55.53435769621134 4.89719
55.55952067826466 4.8491599999999995
55.5846865714265 4.83399
55.61005202069737 4.79955
55.63522376553902 4.85151
55.66039842818645 4.80203
55.68557601087004 4.8068599999999995
55.7109532500271 4.6947
55.73613670233794 4.7532
