TT I
1.2716486653135266 7.82845
1.2939594142134223 7.58293
1.3162702121660406 7.381239999999999
1.3385810600174564 7.264660000000001
1.3608919586137629 7.01611
1.383202908801069 7.235519999999999
1.405513911425503 7.4681
1.4278249673332093 6.52528
1.4501343378461518 6.4772
1.4724455028545926 6.59824
1.4947567236847858 6.19195
1.517068001182951 6.42399
1.5393793361953272 6.6868300000000005
1.5616907295681737 6.38853
1.5840021821477681 6.16826
1.60631369478041 5.27045
1.6286252683124185 6.54776
1.6509369035901333 5.61866
1.6732468618895553 5.58328
1.695558623192809 5.88486
1.7178704487808514 6.00758
1.7401823395001077 5.57453
1.7625012545597203 5.43248
1.7848028405262486 5.71295
1.8071218901122095 5.46938
1.8294236121921872 4.89328
1.8517427996910911 5.23717
1.8740620574440425 5.44311
1.8963639900671978 4.92488
1.9186833908139995 5.34411
1.9409854680117449 5.5643199999999995
1.9633050151394713 5.3280199999999995
1.9856246367570705 5.22613
2.0079269371922672 5.341469999999999
2.03024671027244 5.02294
2.0525491637446027 4.4183699999999995
2.074869091674931 4.56074
2.097171701569106 4.969180000000001
2.1194917877373847 5.07604
2.141811954326636 5.2929
2.164114805233074 4.74219
2.186435135143035 4.79092
2.208738150935709 5.03426
2.231058647554722 4.66846
2.2533792288321184 4.1388
2.275682498336085 4.6771199999999995
2.298003251406138 4.3655
2.3203066942619714 4.5656099999999995
2.3426276225136022 4.4224
2.3649486396617507 4.27925
2.387252348930071 5.02122
2.4095735463442893 3.84071
2.4318774374315884 4.67379
2.4541988185014043 4.30339
2.476502894794693 4.57395
2.498824462909887 4.905480000000001
2.521146125856138 4.69032
2.5434504863470337 4.90665
2.5657723414244717 4.7842199999999995
2.588076895590662 5.46761
2.610398946189713 5.84163
2.6327210958598384 5.23367
2.6550259469304716 5.42497
2.6773482972090137 5.30742
2.6996533504259 6.20785
2.7219759047039602 6.74515
2.744298562293959 5.66878
2.7666039251246595 6.63357
2.7889267918020164 6.560389999999999
2.8112323652516555 6.59353
2.833555444408179 7.70251
2.8558786311183852 7.904560000000001
2.8781845268938557 8.1441
2.9005079311721484 8.27391
2.9228140460410397 8.298010000000001
2.9451376712799635 8.58794
2.967444008632326 9.01408
2.9897678582247247 9.707139999999999
3.0120918213106695 9.95567
3.0343984987899373 10.6963
3.0567226913198637 10.9687
3.079029599759726 11.454
3.101354025127254 11.879000000000001
3.123678568232338 12.5811
3.145985829517914 12.8923
3.16831061055229 13.1567
3.1906181112775593 13.7703
3.212943133635653 14.5819
3.2352682779763207 15.2413
3.2575761442691227 15.4936
3.2799015350264273 15.6154
3.302209649240067 15.9868
3.3245352898092655 16.8919
3.3468436553365257 17.3043
3.369169549113219 17.4155
3.3914955708171384 19.0723
3.413804319727358 19.152
3.4361305997334863 19.4426
3.4584396084414553 19.7359
3.4807661501462652 20.6816
3.503092824025881 21.0247
3.5254022288463154 21.1509
3.5477291695206588 21.2637
3.5700388426251948 21.8901
3.5923660534916446 22.9373
3.6146934007816114 22.9895
3.637003482731501 23.3306
3.6593311053109985 23.4457
3.681641464033634 24.1603
3.7039693653009733 24.7914
3.726297407241705 25.4257
3.7486081875460804 25.5017
3.7709365132734978 26.0449
3.793247578841633 26.3093
3.8155761917550093 26.823
3.8378875459837216 27.3832
3.8602164494827234 27.925
3.882545499606844 28.5378
3.9048572932539183 29.2327
3.9271866390645718 29.6543
3.9494987298666713 30.4262
3.971828374764527 31.2248
3.9941581705403255 31.0265
4.016470713506008 31.5895
4.038800813471445 32.6662
4.061113662089144 33.201
4.0834440696459176 33.6189
4.105774632334751 34.1354
4.128087945865126 34.9993
4.150418821249301 36.0721
4.172732448931298 36.5981
4.195063640413578 37.0854
4.2173775856475215 38.3029
4.239709096631102 38.617
4.262040768704612 39.1095
4.284355196706267 40.0245
4.306687193387355 40.5932
4.329001947444346 42.3019
4.35133427213731 42.858999999999995
4.373666762177566 43.7204
4.395982011761091 44.6702
4.418314834921175 45.3923
4.44063041906622 46.678000000000004
4.4629635787515625 47.8057
4.4852969080429785 49.0182
4.5076130004776225 50.0013
4.529946671403969 51.6623
4.552263106909177 52.461999999999996
4.574597122877047 53.4281
4.596931312711224 54.8615
4.619248269273446 56.055
4.6415828092605835 57.1493
4.663900117405352 58.3046
4.686235010953232 60.0051
4.708552674085913 61.7537
4.730887924602802 63.1021
4.753223354952695 64.6768
4.775541557023902 66.2212
4.797877349456786 67.844
4.820195915032126 70.4467
4.842532072957498 71.8119
4.864868414979744 74.1041
4.88718753227192 76.7695
4.909524244902505 79.5011
4.931843734218147 81.5394
4.954180820867835 84.8944
4.976518095879839 89.1078
4.998838149695359 93.4382
5.021175803844231 97.3163
5.043496238205739 102.286
5.065834274903528 108.70299999999999
5.088172504230693 116.227
5.1104935158799565 125.37700000000001
5.132832132875765 142.05200000000002
5.155153533596801 170.606
5.1774925416746225 280.325
5.199814334878411 887.908
5.2221537374521505 2264.46
5.244493338631803 3943.48
5.266815727034316 6517.23
5.289155727832427 10201.7
5.311478517248165 9593.4
5.333818921080011 4505.6
5.356159527788849 1104.71
5.3784829252032536 294.539
5.400823940070432 188.505
5.423147747031976 156.697
5.445489173474152 140.043
5.467830807066149 129.941
5.490155234831516 123.698
5.512497285125229 118.791
5.534822130975162 116.01799999999999
5.557164601388673 113.671
5.579489868738879 109.889
5.601832762690846 107.915
5.6241758697774475 106.064
5.646501775867269 105.32600000000001
5.668845311622074 104.82600000000001
5.691171647754637 104.021
5.713515615597765 102.581
5.735859800852677 101.85
5.758186788542988 101.289
5.780531411018185 101.72200000000001
5.802858837297399 101.4
5.825203900414495 102.20200000000001
5.8475491852224 103.255
5.869877275883075 104.46700000000001
5.892223006467101 107.829
5.914551544266608 111.68700000000001
5.936897724049891 119.16
5.959244129804903 134.88299999999998
5.981573344815301 195.42
6.0039202049061 441.954
6.026249875609095 916.821
6.04859719346037 1436.06
6.070927323278297 2161.46
6.093275102315365 3488.15
6.115623113320588 4517.3
6.137953938319995 3743.94
6.160302415650845 1549.03
6.182633708324452 410.23400000000004
6.2049826554078376 157.637
6.227331838745022 112.55
6.249663839443684 97.8915
6.27201349767565 90.1469
6.294345974611799 85.6665
6.316696111167083 81.7717
6.339046488263839 78.973
6.361379686074702 76.8865
6.383730546639482 75.065
6.406064229255215 73.1031
6.428415576718203 72.2541
6.450749747566656 70.7747
6.47310158535871 69.8738
6.495453669698332 68.8136
6.517788579421056 68.0011
6.540141159237969 66.7665
6.562476565766648 66.1398
6.5848296444934045 65.2897
6.607182974060425 64.6822
6.6295191323281015 64.3843
6.651872965955752 63.3871
6.6742096296068985 62.8972
6.6965639707294615 62.6708
6.71891856698715 62.0969
6.741255995248479 61.2889
6.763611104154477 60.8241
6.785949046381137 60.5186
6.808304671371482 60.0949
6.8306605557940046 60.1241
6.852999275508618 59.1669
6.875355681171544 59.1195
6.897694923437771 58.5804
6.92005185377892 58.5987
6.9423916220322655 58.308
6.964749080490181 57.8808
6.987106804399774 57.5445
7.009447368180821 57.7743
7.031805625367033 57.5221
7.054146723727803 57.0677
7.076505517631004 56.8395
7.098864581288365 56.6481
7.121206488070854 56.5132
7.143566093607822 56.3249
7.165908543567245 56.068000000000005
7.188268694426048 55.9665
7.2106291193438095 55.7753
7.232972390625943 55.799
7.255333366030969 56.0455
7.277677189091925 55.8122
7.300038718428332 55.7341
7.322400526130865 55.7765
7.344745183422596 56.2054
7.367107550224791 55.9586
7.389452767901992 56.2124
7.411815697249891 56.1654
7.434161478756298 55.9186
7.456524974096713 55.9982
7.478888753837185 55.775
7.501235387657368 56.2779
7.523599738562711 57.3191
7.545946944825532 58.9232
7.568311870344528 59.5106
7.5906770845765665 58.4836
7.613025156078678 57.7075
7.635390950099687 57.4557
7.657739602662809 57.3652
7.680105979923558 57.2143
7.702472650212829 58.1299
7.724822180948224 57.9719
7.747189439655568 58.3139
7.769539560075357 58.3853
7.791907410653562 59.4199
7.81425812420825 59.0308
7.836626570110925 59.2004
7.858995315087906 59.9217
7.881346924933401 60.7661
7.903716270417482 61.0844
7.926068482028405 61.5431
7.948438431475253 62.3783
7.9708086843180235 62.8369
7.993161805171116 63.6365
8.015532667162402 64.0325
8.037886398416653 65.1635
8.060257873014221 65.3363
8.082629655331942 66.2304
8.104984308787587 67.2366
8.127356708900503 67.9259
8.149711981398308 68.9011
8.172085002766314 69.6471
8.194458336181368 70.8646
8.216814543847752 71.7526
8.23918850371002 73.5437
8.26154533906492 74.7517
8.283919928836452 76.55199999999999
8.306277395339652 77.801
8.328652618483376 79.3417
8.351028159736202 82.1234
8.373386579575245 85.1243
8.395762759396959 87.333
8.418121819038275 90.9062
8.440498640894003 96.95200000000001
8.462875785192262 109.54799999999999
8.485235811156207 157.183
8.507613602688501 286.63599999999997
8.529974277114228 464.195
8.552352719347912 602.1669999999999
8.574731488360351 754.7330000000001
8.59709314210385 1031.41
8.619472567021075 1455.33
8.64183487789147 1913.83
8.664214962183097 1971.86
8.686577933647762 1297.58
8.708958680784317 588.256
8.731339760774953 245.085
8.753703729764451 137.43
8.77608547780821 113.104
8.798450116065078 105.788
8.820832535634787 100.992
8.843215292401656 98.3884
8.865580941199045 96.6187
8.887964374703538 94.3868
8.910330701447199 93.3631
8.932714815164482 92.2538
8.955099270424924 90.9849
8.977466620733543 90.135
8.999851761421976 89.9443
9.022219798361645 89.1776
9.04460562795561 89.031
9.066991803441677 88.4343
9.089360876979615 87.9078
9.111747746589993 87.4393
9.13411751544971 87.2511
9.156505082664324 86.8818
9.178875550323522 86.9069
9.20126381862328 86.9727
9.223652438908596 89.016
9.246023961427412 90.5339
9.26841328802173 90.5906
9.290785518039224 89.6409
9.313175554425882 89.1249
9.335565947154315 88.4431
9.357939245086508 88.2186
9.380330352834827 88.1015
9.40270436697103 88.4138
9.425096193225055 88.5637
9.447488380180165 89.5879
9.469863475295412 89.73299999999999
9.492256385987508 90.2229
9.514632206018318 90.772
9.537025843935714 91.0844
9.559402392368193 91.8308
9.581796761000229 92.8861
9.604191496441521 93.2137
9.626569144158516 93.9169
9.648964615551032 94.7233
9.671343000390081 95.5482
9.693739211225699 96.8552
9.716135793237463 98.0695
9.738515290448102 99.0429
9.760912617143402 100.61200000000001
9.783292860202891 102.256
9.805690935076182 103.54299999999999
9.828089385495742 104.61399999999999
9.850470754023561 106.76799999999999
9.872869957865444 109.59
9.89525208097539 113.209
9.917652041736662 118.734
9.940052382417589 134.05700000000002
9.962435644102392 191.817
9.984836746950979 302.03
10.007220771957746 430.087
10.029622640473708 530.355
10.052007432299963 632.18
10.074410069984072 780.74
10.096813093716005 1030.3
10.119199042482517 1407.71
10.141602840636468 1750.25
10.163989564971628 1740.11
10.186394141051062 1224.06
10.208799107559706 620.319
10.231187001965623 278.108
10.253592751657669 155.46200000000002
10.275981430388155 126.73700000000001
10.298387966769793 119.008
10.320794897965431 116.46
10.343184759907361 113.891
10.36559248305461 112.16
10.387983138083852 114.374
10.410391656691655 128.876
10.432800574501677 158.735
10.455192425893369 191.324
10.47760214443012 215.58700000000002
10.499994797678786 237.452
10.522405320453982 277.015
10.54479877906917 339.985
10.567210109595656 427.783
10.5896218454736 514.754
10.612016518879773 539.006
10.634429067781074 435.03
10.656824555333241 271.514
10.679237920773568 159.934
10.701651695961992 110.955
10.724048411481384 97.8683
10.746463008485165 93.6162
10.768860546937125 90.9074
10.791275969274796 88.7978
10.81369180576079 87.3265
10.836090585366925 86.006
10.858507252467449 84.6917
10.88090686379991 83.5556
10.903324365036394 82.3938
10.925724811614439 81.0334
10.948143150509463 80.6454
10.970561909719066 79.9711
10.992963615930844 79.0234
11.015383218085756 77.9026
11.037785768347074 76.5818
11.06020621697282 76.3619
11.082627090322113 76.0008
11.105030913430326 75.0566
11.12745263854165 74.4423
11.149857314510728 73.5901
11.172279894912576 73.5625
11.194702904450653 72.4607
11.217108866490921 71.696
11.239532736615194 71.5755
11.26193956033512 71.3758
11.284364294577085 70.9252
11.306789462371718 70.3857
11.329197585398376 69.9381
11.351623622610898 69.9845
11.37403261614354 69.3125
11.396459526308487 69.3677
11.418869393879497 68.8083
11.441297180532617 68.49
11.463725406927658 67.8265
11.486136592353875 67.5932
11.508565700543707 67.3046
11.530977768845315 67.3602
11.553407762368774 66.9169
11.575838200059769 66.88600000000001
11.598251599479612 66.5422
11.620682927815501 66.7964
11.64309721895548 66.8522
11.665529441478206 66.3257
11.687962112597958 66.0835
11.710377748130886 66.2625
11.732811318753434 65.7803
11.755227854859067 65.9597
11.777662328529495 65.5411
11.800079768750786 65.3649
11.822515149015453 65.2023
11.844950984084935 65.7458
11.867369787303163 65.7437
11.889806534289491 65.6059
11.912226250487029 66.3893
11.934663912939751 67.1113
11.9571020346363 67.3358
11.979523127133968 67.7789
12.001962169624331 69.2318
12.024384183972964 72.5385
12.046824150809913 79.9581
12.069264581333726 89.2775
12.091687985297767 95.9348
12.11412934550045 101.29899999999999
12.136553680195208 108.266
12.158995973632788 120.226
12.181438735204349 136.80200000000002
12.20386447284199 159.194
12.226308172985636 186.84599999999998
12.24873485024193 204.12
12.271179492516982 187.479
12.293607112949127 148.33100000000002
12.316052700916226 107.335
12.338498763250042 81.0709
12.360927805303868 70.9702
12.383374818673879 68.3056
12.405804812803074 67.7603
12.428252780773262 67.5803
12.45070122756722 67.6407
12.473132656675375 67.277
12.49558206341869 67.45100000000001
12.518014453510101 67.7277
12.540464823770117 67.5529
12.562915677315177 67.8501
12.58534951575545 68.1202
12.607801338171472 67.8445
12.630236146511358 68.4587
12.652688941369085 68.8591
12.675124723177234 69.062
12.697578494048786 69.5459
12.720032754458185 69.8816
12.742470003354093 70.3788
12.764925245138771 70.9417
12.787363476431278 71.4614
12.809819703166806 71.7506
12.83227642391173 72.8627
12.854716135692716 73.5651
12.877173846755147 74.7773
12.899614549869717 75.0254
12.9220732548287 76.007
12.94453245827299 76.6417
12.966974655289818 77.8272
12.989434858002571 78.9885
13.011878055298721 79.8149
13.034339260862497 80.7391
13.056800969391883 82.7373
13.079245674017244 86.4066
13.101708390774869 92.3581
13.12415410463411 109.523
13.146617833206086 132.276
13.169064559883248 150.55200000000002
13.191529303857127 163.74
13.213994557076367 176.02
13.236442809902437 194.641
13.258909083908291 224.733
13.28135835851934 260.063
13.30382565690295 310.142
13.326293469022952 372.55199999999996
13.348744283242008 414.48
13.371213125129904 395.58
13.39366497011003 321.513
13.416134845360597 226.982
13.438605238843131 156.827
13.46105863690397 131.105
13.483530069144786 135.05200000000002
13.505984506951902 146.425
13.528456981549432 156.836
13.550929978879088 163.516
13.573385983253365 173.835
13.595860028340867 192.503
13.618317081455832 219.989
13.64079217790333 255.833
13.663250283359057 301.16200000000003
13.685726434770173 345.81300000000005
13.708203115221277 364.171
13.730662806148091 316.188
13.75314054697177 241.46400000000003
13.775601299246777 165.077
13.798080104050406 115.70100000000001
13.820559442405358 94.4404
13.843021793671388 87.9547
13.865502201420897 85.1811
13.887965623051947 84.5374
13.910447103807167 83.0676
13.932929122629764 82.0459
13.955394156785959 81.5055
13.977877254034569 80.3148
14.000343367582113 79.5357
14.022827546871707 78.5983
14.045294743423524 77.7889
14.06778000837062 77.4586
14.090265817715476 77.4704
14.112734645763819 76.8283
14.13522154619454 76.5791
14.157691466286913 76.2261
14.180179461423874 75.9082
14.202668005486178 75.5042
14.22513957064374 74.882
14.247629214846473 74.3993
14.270101881097517 74.0845
14.29259262906496 73.8742
14.315083930490205 73.4136
14.337558255389705 73.3518
14.360050666019726 73.4844
14.382526101071944 72.9511
14.405019624534942 72.7583
14.427513705993134 72.74
14.449990813291825 72.7125
14.47248601302899 72.8202
14.49496423954951 72.5785
14.517460561197822 72.6849
14.539939910570322 72.8867
14.562437357763558 72.9398
14.58493536931253 73.2302
14.607416409993311 73.2398
14.62991555254159 73.6955
14.652397725157423 73.5535
14.674898002342799 74.0404
14.697398848433282 74.7354
14.719882725991326 76.7016
14.74238471217934 80.5266
14.764869730765593 88.459
14.787372860692983 96.1813
14.809876564079925 103.353
14.83236330125751 108.337
14.854868153850365 112.384
14.877356041159485 118.88
14.899862046604186 128.344
14.922351087688757 142.284
14.944858249632887 159.54399999999998
14.967365991421232 181.298
14.989856770231246 203.90200000000002
15.012365673994204 219.327
15.03485761569738 210.507
15.05736768508665 177.662
15.07987833888692 138.392
15.102372032001655 105.617
15.124883856909658 85.7575
15.14737872204565 77.9256
15.169891721717274 74.9995
15.192405310371893 74.2305
15.214901940621196 73.6682
15.237416709527137 72.933
15.259914520936249 72.719
15.282430473753607 71.9096
15.304947020131227 71.312
15.327446610371178 71.0353
15.349964346154254 70.5761
15.372465126703139 70.3624
15.394984055556009 70.3688
15.417486030076159 70.0677
15.44000615566487 69.8351
15.462526881230803 69.6422
15.485030653812652 69.685
15.507552581617434 69.4288
15.530057557334603 69.5461
15.55258069104857 69.8605
15.575104429329837 69.8404
15.597611216864632 70.1707
15.620136166564563 70.9963
15.6426441664095 74.1395
15.665170331202765 80.6329
15.687697105158826 86.979
15.710206930593545 92.8692
15.732734925158933 96.7684
15.755245972089478 99.4557
15.77777519094324 103.59200000000001
15.800287463046663 110.541
15.822817909869592 120.37799999999999
15.84534897229804 132.208
15.867863089299354 149.414
15.890395385222186 167.90400000000002
15.912910736597423 185.69799999999998
15.935444269699861 191.743
15.957978423016485 178.19799999999998
15.980495633101265 150.5
16.003031029129367 117.836
16.02554948280019 90.124
16.048086125229432 75.0087
16.070623392487107 68.8443
16.09314371869582 66.2124
16.11568223789321 65.0895
16.13820381691126 64.3063
16.160743591742527 63.8546
16.183283996022084 63.4689
16.205807461423195 62.5993
16.228349126881973 61.8798
16.25087385432698 61.9367
16.27341678466365 61.2991
16.29594277784926 61.0643
16.31848697676433 60.6333
16.341031811604868 59.9914
16.36355971058487 59.7928
16.3861058195587 59.6912
16.40863499352978 59.1385
16.431182380342005 59.0074
16.453730407713202 58.6902
16.476261501364792 58.4866
16.498810812136167 58.1117
16.52134319004079 58.1965
16.54389378792203 58.3006
16.566445031001553 58.0737
16.588979342490088 58.0152
16.61153187824822 57.7348
16.634067483263312 57.59
16.656621315414416 57.553000000000004
16.679175797408888 57.3208
16.701713349928728 57.3458
16.72426913389191 57.5134
16.74680798922351 57.4217
16.76936507887444 57.5536
16.791905240734874 57.5357
16.814463639794468 57.3533
16.837022695210294 57.4031
16.859564824093756 57.688
16.882125194503903 57.7431
16.904668639217885 57.838
16.927230328348003 57.6921
16.949792678493612 57.9817
16.972338104193863 58.1297
16.994901778652235 58.01
17.017448529496576 58.4535
17.040013531998152 59.3046
17.06257920018044 60.473
17.0851279459922 62.1069
17.107694947817667 63.2652
17.130245028099072 64.2058
17.15281336730298 65.0362
17.17536478578733 65.8305
17.19793446610687 67.1558
17.220504818648422 68.9133
17.243058251703697 70.5526
17.265629950971032 73.1258
17.288184731571736 76.5754
17.310757781306908 81.0286
17.33333150794385 84.4009
17.355888317140174 85.2317
17.37846339986244 83.8462
17.401021565958885 79.0381
17.42359800851343 72.9472
17.44617513265564 68.1386
17.468735341390783 64.5125
17.491261035594565 62.9954
17.51396340099364 62.3767
17.536490463869136 62.2892
17.559018209820174 62.1235
17.58154663977963 62.5423
17.604251766089718 62.5779
17.626781572227713 62.9024
17.64931206518155 62.8802
17.671843245885103 63.3211
17.69455114821572 63.4716
17.717083712612634 63.8736
17.739616967569667 64.5006
17.762150914021706 65.0224
17.78486160749854 65.1915
17.807396945166804 66.3113
17.829932977143503 68.5641
17.85246970436452 72.2189
17.875183204129467 75.5853
17.897721330097664 79.1887
17.920260154126645 81.6433
17.942799677153296 83.6997
17.9655159983646 85.4136
17.988056927677544 88.2046
18.010598558807683 92.6025
18.033140892692916 98.1148
18.05586005052525 104.311
18.07840379824407 112.542
18.10094825154059 123.397
18.12366954819864 136.382
18.146215420998306 145.097
18.16876200220057 146.005
18.191309292745153 136.395
18.214033452627167 122.434
18.236582170236648 106.604
18.259131600016456 94.8932
18.281681742907335 89.9384
18.304408781233683 89.92200000000001
18.32696035875955 92.1282
18.349512652227624 95.7971
18.372065662579683 101.238
18.394795594587553 105.738
18.41735004715306 106.774
18.43990521943684 103.12299999999999
18.46246111238171 95.5325
18.485193953325208 85.476
18.507751296070428 76.9589
18.530309362314178 71.1051
18.552868153000343 67.913
18.57560391815056 66.0295
18.59816416623245 65.3316
18.620725141597372 64.8464
18.643286845190268 64.3099
18.666025549835414 63.7806
18.688588718427933 63.1845
18.711152618092243 63.0267
18.73389353884365 62.3055
18.75645890921984 62.1096
18.77902501351406 62.0481
18.801591852673102 61.9306
18.824335739722738 61.3376
18.846904057212626 61.1006
18.8694731124168 60.8385
18.89204290628315 60.8227
18.914789774966803 60.6683
18.937361054791623 60.4343
18.959933076131318 60.2117
18.982505839934877 60.0192
19.00525570560582 59.9388
19.027829963004184 59.9112
19.05040496572238 59.958
19.072980714710468 60.3387
19.095733592739563 60.9149
19.11831084296757 61.7278
19.140888842324735 62.4353
19.16346759176222 62.5813
19.18622349753803 62.7201
19.208803755869358 62.9718
19.231384767143577 63.7431
19.253966532312948 64.5545
19.276725481241822 66.0366
19.29930876296784 67.4756
19.3218928014549 68.7768
19.34465404436217 71.0172
19.36723960516257 73.5099
19.389825925592426 75.837
19.412413006605938 77.4517
19.43517731967805 76.7339
19.457765930683355 73.7715
19.48035530514408 69.7694
19.50294544401556 65.2506
19.525712842708348 61.4256
19.54830451925909 58.9832
19.570896963095727 57.6006
19.593490175174704 57.0954
19.616260674962184 57.0144
19.638855432416964 56.4093
19.661450960992624 56.7529
19.68404726164677 56.4434
19.706820878021247 56.3279
19.729418731756834 56.4483
19.752017360452857 56.0929
19.77461676506804 56.6116
19.797393513540218 57.2079
19.819994478951667 57.8067
19.84259622316767 58.5367
19.8651987471481 59.1149
19.887978643247177 59.1909
19.91058273574792 59.325
19.933187610901943 59.8522
19.955969879466828 60.518
19.97857632894404 61.4876
20.00118356396599 62.4038
20.023791585494575 63.8675
20.046577028914875 66.1043
20.069186632506966 67.9712
20.091797025500632 70.2748
20.114408208858933 72.4678
20.137196842715273 73.8875
20.159809615886765 73.7854
20.18242318232135 71.613
20.20503754298326 68.9122
20.227829382875154 66.3933
20.250445341109344 64.7339
20.27306209647285 64.2029
20.29567964993108 64.3009
20.31847471147704 65.3381
20.34109387027612 66.7194
20.363713830075454 67.8933
20.386334591841646 67.759
20.409132890679302 66.2553
20.431755265564437 63.3081
20.454378445325528 60.0631
20.477002430930366 57.4701
20.499803982716553 55.465
20.522429589228004 53.9593
20.54505600449589 53.3588
20.567683229489194 53.2655
20.590488049900088 53.026
20.61311690359731 52.7719
20.63574656993626 52.7725
20.658553853717297 52.1909
20.681185154618298 52.0878
20.703817271080066 52.1592
20.72645020407368 51.9119
20.749260783967177 51.6632
20.771895359337133 51.6209
20.794530754161617 51.5754
20.817166969412938 51.5675
20.83998086114876 51.5321
20.86261872660049 51.3975
20.885257415405402 51.2322
20.90789692853701 51.188
20.930714147864748 51.2828
20.953355319030678 51.401
20.97599731745334 51.643
20.99864014410749 51.412
21.021460706796564 51.4439
21.044105199328826 51.5938
21.06675052302631 51.7212
21.089396678865015 51.79600000000001
21.112220600704806 52.0034
21.134868430275347 52.2999
21.15751709492456 52.367
21.180166595629693 52.2588
21.202993892429635 52.5948
21.22564507473034 53.0156
21.24829709602816 53.3262
21.27112693608965 53.6532
21.293780644891275 54.2986
21.316435195634053 53.7064
21.339090589297417 53.1225
21.361923832041875 52.7545
21.384580921090404 52.1426
21.407238856007325 51.4346
21.429897637773326 51.2834
21.45273429906592 50.9529
21.475394784108598 51.0834
21.498056118951983 51.144
21.520718304578022 51.3514
21.543558400304388 51.4863
21.566222297108816 51.8749
21.58888704765135 52.3401
21.61155265291521 53.0113
21.63439619898156 53.7388
21.657063523335786 53.9831
21.67973170537063 54.3851
21.7024007460706 54.5645
21.72524775840385 55.0296
21.747918526116475 55.7373
21.770590155457388 56.3787
21.79326264741238 57.3662
21.816113141960237 58.7099
21.838787368860547 60.1698
21.861462461341976 61.4726
21.884315579735777 63.3103
21.90699241312273 64.8877
21.92967011506078 66.6391
21.95234868653799 67.6549
21.9752053151131 67.3262
21.997885635446785 65.9863
22.020566828293532 63.7466
22.04324889464272 61.3827
22.066109049404666 59.166000000000004
22.088792872571794 58.0498
22.111477572219204 57.9045
22.1341631493376 57.9933
22.157026846313123 58.2341
22.179714188221507 58.2819
22.202402410582668 57.8566
22.22509151438863 56.4372
22.24795876962584 55.0245
22.270649646204486 53.934
22.293341407213727 52.9027
22.316034053646906 52.0897
22.338904883215342 51.6536
22.36159931041458 51.5009
22.38429462602756 51.1659
22.40699083104897 51.1402
22.429865251039757 51.1006
22.452563244831367 51.1413
22.47526213102522 51.1154
22.49813925616515 51.0514
22.520839937143307 50.9794
22.543541513520587 51.1709
22.56624398629403 50.8903
22.589124730075895 51.1025
22.611829005656723 51.5462
22.63453418063466 51.7339
22.657240256008077 52.11600000000001
22.680124634582935 52.4388
22.70283252079775 52.7163
22.725541310413075 52.9918
22.74825100442868 53.1458
22.771139033969575 53.3531
22.79385054687155 53.3908
22.81656296718292 53.6748
22.83927629590484 54.1344
22.862167992606945 54.8905
22.88488314827121 55.5455
22.907599215359284 56.2699
22.93031619487366 57.0169
22.953211574954405 57.832
22.975930389478226 59.0509
22.998650119445763 59.9239
23.02137076586092 60.0849
23.044269845560063 59.5519
23.06699233506288 58.7045
23.089715744034912 56.8967
23.112617610931565 55.0932
23.135342869061212 53.4398
23.158069049684816 52.2636
23.1807961538087 51.6275
23.20370174880544 51.6119
23.226430710184808 51.8866
23.249160598093425 52.0194
23.271891413539002 52.1542
23.294800752937697 52.3402
23.31753343374794 52.7432
23.340267045128353 52.5244
23.36300158808808 52.8048
23.38591468821339 52.8756
23.408651104658304 52.9483
23.431388455719986 53.357
23.454126742409 53.7697
23.4770436196085 54.2685
23.499783787914662 55.1731
23.522524894889884 55.5035
23.54526694154616 56.2766
23.56818761219047 57.5177
23.59093154860734 58.415
23.613676427751283 59.6282
23.636422250635754 59.8034
23.659346731118656 59.215
23.68209445191868 58.0721
23.704843119509587 55.7712
23.72759273490623 53.6182
23.750521041644767 51.727
23.77327256312355 50.2556
23.796025035462787 49.4401
23.818956224555475 48.6994
23.841710609113413 48.5983
23.86446594758979 48.236999999999995
23.887222241002014 47.9513
23.910157285144578 47.5384
23.932915498962537 47.5509
23.955674670778713 47.4104
23.978434801611975 47.2893
24.001373717286125 47.0303
24.024135776723917 46.8571
24.046898798245582 46.8416
24.06966278287146 46.6234
24.092605586582614 46.4987
24.115371508023642 46.2625
24.1381383956401 46.2577
24.16090625045381 46.1723
24.183852958731244 46.0504
24.206622758582608 45.9513
24.229393528706886 45.7296
24.252165270127392 45.901
24.27511589952438 45.9387
24.297889594216997 45.7856
24.32066426328598 45.5641
24.34343990775613 45.5548
24.36639447485003 45.3503
24.38917208083877 45.4782
24.41195066531332 45.2976
24.43490819850244 45.2301
24.457688750692377 44.9144
24.48047028445616 44.9493
24.503252800821233 45.175
24.526214300784112 45.2077
24.548998793132213 45.2065
24.57178427117417 45.045
24.59457073593893 45.1019
24.617536219319863 44.9924
24.64032466834748 44.9557
24.663114107195035 45.0525
24.685904536893013 44.7399
24.708874020360852 44.7561
24.731666442613744 44.736999999999995
24.754459858818787 44.5329
24.777254270007962 44.5709
24.80022777025625 44.4519
24.82302418230472 44.3716
24.845821592443674 44.5489
24.86862000170663 44.5351
24.891597535453727 44.3478
24.914397953892728 44.5779
24.93719937456671 44.409
24.96000179851076 44.6008
24.98298338249997 44.7644
25.00578782394922 45.1113
25.028593271784167 45.0956
25.05157790644186 45.3284
25.07438537804115 45.2839
25.097193859145293 45.5412
25.120003350792075 45.7085
25.142992065061257 45.9419
25.165803588823465 46.297
25.18861612625217 46.5214
25.211429678386736 46.6235
25.234422489079968 46.7821
25.257238081693636 46.6141
25.280054692141732 46.652
25.3028723214652 46.5581
25.325869245420463 46.5579
25.348688923599397 46.6777
25.371509623787006 46.7983
25.394331347025812 46.8981
25.41733240110666 46.72
25.440156181590016 46.1895
25.46298098826268 45.5931
25.48580682216873 45.0213
25.50881202326435 44.4103
25.53163992281684 43.8977
25.55446885274561 43.5245
25.577298814096377 43.0772
25.600308179121807 42.9031
25.623140214533745 43.0252
25.64597328451537 42.9125
25.66898578564376 42.651
25.691820936010206 42.7713
25.714657124097695 42.7603
25.737494350954734 42.7672
25.760511045684957 42.523
25.783350361364224 42.6413
25.806190718969255 42.692
25.82903211955018 42.7943
25.852053024868923 42.7796
25.874896522722523 42.6742
25.897741066713106 42.4793
25.920586657892454 42.7592
25.943611790812668 42.8319
25.966459487728237 42.9106
25.989308234998564 42.8128
26.01215803367705 43.0927
26.03518741123814 43.1605
26.05803932412957 43.2958
26.080892291600094 43.3165
26.10374631470478 43.4007
26.12677995397268 43.6603
26.14963609978026 43.7803
26.172493304397875 43.6177
26.19535156888223 43.4794
26.218389486949604 43.1171
26.241249882640123 42.8734
26.26411134137826 42.6211
26.28715248187403 42.6798
26.31001607820869 42.4283
26.3328807407756 42.173
26.35574647063438 42.2682
26.37879191991473 42.1912
26.401659795896734 42.3451
26.424528742360263 42.4861
26.447398760366614 42.6261
26.470448535598294 42.5342
26.49332070826805 42.5301
26.516193955675355 42.8704
26.53906827888316 43.0447
26.562122397260108 43.0574
26.584998883685063 43.3374
26.607876449110325 43.4674
26.63075509460056 43.7358
26.65381357334404 43.8604
26.67669439061878 43.9334
26.699576291163382 44.1184
26.722459276044212 44.0229
26.745522132402975 43.8072
26.768407297649354 43.5705
26.791293550442003 43.2682
26.814180891848974 43.0266
26.837248143099337 42.6052
26.860137673466657 42.4866
26.88302829566349 42.3345
26.90592001075963 42.1299
26.92899167420566 42.0213
26.951885586870763 41.8183
26.974780595655517 41.5483
26.99785558178161 41.3512
27.020752794605112 41.1179
27.043651106772522 40.8921
27.06655051935668 40.8745
27.089629948036183 40.6746
27.112531573292053 40.6754
27.135434302194138 40.875
27.158338135817015 40.6498
27.181422024430987 40.6044
27.204328079372566 40.4642
27.22723524226965 40.6052
27.250143514198573 40.5408
27.273231880156334 40.4576
27.296142382065014 40.1997
27.319053996245536 40.2173
27.341966723775965 40.4698
27.365059584515222 40.3755
27.38797455070062 40.4032
27.410890633481237 40.2965
27.433807833936918 40.2735
27.456905206923906 40.3422
27.47982465472398 40.4218
27.502745223449743 40.393
27.525666914182825 40.5412
27.548768816912457 40.4792
27.571692763693633 40.3871
27.59461783573812 40.533
27.617723149491244 40.4033
27.640650484125285 40.3515
27.66357894728264 40.2617
27.686508540048052 40.2481
27.709618414237887 40.0948
27.732550278321757 40.0316
27.755483275279115 39.8283
27.778417406196485 39.8255
27.801531858397514 39.8891
27.824468269376716 39.84
27.847405817586786 39.8171
27.870344504116094 39.8311
27.893463551932008 39.9946
27.916404527281053 40.23
27.93934664422563 40.1666
27.962289903855886 39.9751
27.98541356491974 40.2361
28.00835912214229 40.2803
28.03130582533231 40.423
28.054253675581805 40.6476
28.077381967556104 40.6516
28.100332124185126 40.7797
28.123283431160893 40.9084
28.146235889577238 40.6928
28.169368830154156 40.5626
28.192323603752033 40.3064
28.215279532083304 40.0481
28.238415973016764 39.9723
28.261374223145094 39.7952
28.284333631303806 39.5342
28.307294198589954 39.4232
28.330435319167677 39.129
28.353398217078915 38.9256
28.376362277420153 38.6513
28.39932750129032 38.4803
28.422473319286713 38.2623
28.44544088262495 38.2259
28.468409612800283 38.0916
28.491379510913497 37.8155
28.51453004413313 37.7499
28.53750229057244 37.7254
28.56047570826344 37.5692
28.583450298308804 37.7188
28.606605564586562 37.5245
28.629582511831156 37.6096
28.65256063474956 37.4497
28.675539934446338 37.4906
28.698699951647605 37.2767
28.72168161743193 37.2442
28.74466446331978 37.2434
28.767648490417624 37.1943
28.790813276438353 37.0892
28.813799678527303 37.0998
28.836787265157085 37.0954
28.859955641890075 37.1202
28.882945610203045 37.0742
28.905936766392035 37.004
28.928929111566863 37.0476
28.952102288520145 36.9449
28.975097024308607 36.9726
28.998092952423807 36.7937
29.021090073977508 36.8094
29.04426806913204 36.7954
29.067267590245258 36.6218
29.090268308143695 36.5086
29.11327022394099 36.2742
29.13645305530891 36.2211
29.159457379627167 36.0844
29.18246290519685 36.0095
29.20546963313352 35.9797
29.22865731875826 35.9747
29.25166646419296 35.9249
29.27467681535305 35.7997
29.29768837335608 35.8295
29.320880931312562 35.8437
29.34389491580634 35.9062
29.366910110507334 35.7813
29.38992651653503 35.8085
29.41312396492981 35.8767
29.436142806456754 35.8386
29.45916286268059 35.7387
29.48236399319994 35.6482
29.50538649169417 35.5917
29.528410208259935 35.43
29.55143514402014 35.2339
29.574641196749695 35.0593
29.597668583816574 35.01
29.6206971934585 34.853
29.64372702680042 34.8029
29.666938019934474 34.846
29.689970313635285 34.7522
29.713003834422636 34.671
29.73603858342347 34.5437
29.759254535188578 34.5182
29.78229175361658 34.5178
29.80533020365064 34.4696
29.82836988641968 34.5393
29.85159081507472 34.3982
29.874632976355343 34.2966
29.89767637376955 34.4693
29.920721008448314 34.3273
29.9439469322847 34.2068
29.96699405457564 34.1885
29.9900424175358 34.1747
30.013092022298157 34.2307
30.03632295963995 34.0838
30.059375061131373 34.1108
30.08242840783577 34.1227
30.105483000888153 34.0244
30.128718970092244 33.8805
30.151776069006917 33.964
30.17483441768648 34.0031
30.198074175317235 34.016
30.221135036724256 34.0247
30.24419715131772 33.9099
30.267260520236203 33.8079
30.290505341942243 33.9573
30.313571232750228 34.0538
30.336638381310948 33.978
30.35970678876503 33.9404
30.38295669299435 33.8962
30.40602763151657 33.7965
30.429099832366074 33.8199
30.452173296685572 33.7187
30.47542830191959 33.7107
30.498504306502497 33.6743
30.521581577995562 33.6409
30.544660117543582 33.633
30.56792024229725 33.7044
30.59100133132069 33.7222
30.614083691845494 33.7147
30.637167325018545 33.6964
30.660432587840603 33.699
30.683518779717886 33.645
30.70660624769615 33.6784
30.729694992924372 33.7503
30.75296541239743 33.7749
30.77605672557558 33.784
30.799149319462742 33.734
30.8224236211637 33.579
30.845518789950724 33.5197
30.868615242910597 33.5966
30.891712981195973 33.274
30.91499247215866 33.1343
30.938092794619365 33.1326
30.96119440587579 33.0846
30.984297307082752 32.9558
31.00758200598383 32.861
31.030687500658694 32.7926
31.053794288760695 32.7604
31.076902371446767 32.7092
31.100192296997445 32.7269
31.12330298246119 32.6708
31.14641496599209 32.4477
31.169528248749216 32.551
31.19282341969534 32.4855
31.215939314557186 32.5774
31.239056512134788 32.5878
31.262175013589378 32.5431
31.28547544871168 32.4946
31.30859657161541 32.3288
31.331719001892175 32.3115
31.35484274070538 32.4825
31.378148458819545 32.4113
31.401274828443725 32.3638
31.424402510106933 32.2684
31.447712205419993 32.3409
31.470842524931633 32.255
31.493974159989783 32.2269
31.51710711176168 32.3579
31.54042212308802 32.3154
31.563557722100917 32.3055
31.586694641341655 32.1689
31.609832881979628 32.0873
31.63315322823208 32.0885
31.656294125521327 31.9583
31.679436347728515 31.9456
31.70257989602529 31.8074
31.725905596152327 31.7878
31.74905181052835 31.7197
31.772199354521323 31.7168
31.79534822930507 31.6228
31.818679302290967 31.5874
31.84183085259981 31.6305
31.864983737233473 31.6078
31.88813795736804 31.5577
31.911474422233013 31.4254
31.934631327356435 31.5533
31.9577895715215 31.4702
31.980949155906522 31.4573
32.004291031706956 31.5182
32.027453310562606 31.4037
32.05061693318573 31.2763
32.07396288236386 31.3098
32.09712920658542 31.2929
32.12029687812702 31.1434
32.14346589817093 31.0868
32.166817291729984 31.0139
32.18998902288583 30.8718
32.21316210610336 30.8152
32.23633654256711 30.8202
32.259693399663725 30.6956
32.282870556771144 30.6371
32.30604907069099 30.6295
32.329228942610065 30.5706
32.35259128243769 30.4036
32.375773884550505 30.2419
32.398957848235646 30.3715
32.422143174682176 30.3235
32.445511016471215 30.1922
32.468699082679954 30.1637
32.49188851523011 30.1488
32.51507931531304 30.0595
32.538452678331 30.0815
32.56164622776311 30.0033
32.58484114831493 29.8282
32.60803744118015 29.8234
32.631416344731896 29.9015
32.654615396551876 29.910999999999998
32.67781582427913 29.9311
32.701198898634416 29.7612
32.72440209253756 29.6861
32.747606665947124 29.6484
32.77081262006088 29.5026
32.79420126883317 29.4847
32.81740999876112 29.6049
32.840620112999424 29.4561
32.86383161274818 29.4095
32.88722585534586 29.4432
32.91044014056596 29.4422
32.933655814909734 29.4384
32.95687287957963 29.4767
32.98027273544904 29.3728
33.00349259526636 29.1962
33.026713849030116 29.2542
33.04993649794511 29.1937
33.073341986570746 29.166
33.09656744032826 29.2013
33.11979429286444 29.1864
33.14302254538647 29.0766
33.166433686291185 29.1241
33.18966475336992 29.0458
33.212897224069096 28.9577
33.23613109959831 28.9595
33.259547912343415 28.9388
33.2827846121627 28.9847
33.306022720453775 28.8166
33.32926223842861 28.7878
33.352684742614166 28.8823
33.37592709463173 28.8244
33.399170859982064 28.7174
33.422597648419426 28.6068
33.44584425514446 28.4821
33.46909227885668 28.5309
33.4923417207723 28.3989
33.51577423505344 28.3665
33.539026528130385 28.2163
33.56228024307245 28.1997
33.585535381098246 28.1885
33.60897364093058 28.1411
33.63223163992385 28.0853
33.6554910656699 27.9972
33.678751919389796 28.0799
33.702195944520106 27.897
33.72545966903325 27.8949
33.74872482519663 27.8054
33.771991414233746 27.7827
33.79544122444841 27.8272
33.81871069412428 27.7275
33.84198160035767 27.6257
33.86525394437455 27.6551
33.88870955949969 27.6106
33.911984794020626 27.5152
33.93526147001624 27.6023
33.958539588715006 27.5334
33.98200102861669 27.3745
34.0052820477047 27.3908
34.02856451319451 27.3604
34.05203033759056 27.3279
34.07531571090147 27.2795
34.09860253431845 27.2236
34.121890809074316 27.1858
34.145362493118924 27.1343
34.16865368561615 27.0867
34.191946333164054 27.0894
34.21524043699793 27.0392
34.23871800066799 27.0169
34.26201503218366 26.8531
34.28531352370466 26.9103
34.30861347646881 26.787
34.33209693978188 26.7558
34.3553998301885 26.8374
34.378704185565205 26.7115
34.402010007152356 26.6309
34.42549939016683 26.666
34.44880815937748 26.5417
34.472118398533134 26.4838
34.49543010887669 26.5155
34.51892543169198 26.3285
34.54224009966052 26.3617
34.56555624255917 26.4433
34.58887386163339 26.3345
34.61237514439016 26.2555
34.6356957311114 26.2178
34.65901779775809 26.1629
34.68252356662995 26.0996
34.705848608458616 26.1695
34.72917513396849 26.031
34.75250314440949 26.0302
34.77601490857862 25.9043
34.799345904259795 25.9108
34.82267838863559 25.8732
34.846012362958525 25.8102
34.869530142679984 25.7979
34.89286711232212 25.7759
34.91620557568269 25.7706
34.93954553401677 25.7663
34.9630693495876 25.6921
34.986412313340814 25.7776
35.00975677584668 25.7255
35.033102738362956 25.6553
35.05663261012228 25.5478
35.0799815881786 25.5983
35.10333207003229 25.4926
35.12668405694369 25.4812
35.150220005273056 25.4683
35.17357501786656 25.4327
35.19693153931268 25.3726
35.220289570874385 25.4006
35.24383161619786 25.3418
35.267192683604904 25.2999
35.290555264930376 25.2596
35.314101899412165 25.2181
35.33746752422433 25.1752
35.36083466676374 25.1611
35.38420332829803 25.0979
35.407756095629054 25.1137
35.43112781085063 25.1134
35.45450104888391 25.0569
35.477875810999194 25.1153
35.50143473172161 24.9132
35.52481255774625 25.0219
35.54819191167777 24.9852
35.57157279478914 24.9316
35.595137889488406 24.8821
35.61852184675279 24.9165
35.641907337029984 24.7797
35.665294361595684 24.7202
35.68886565090076 24.6617
35.7122557598848 24.6948
35.73564740699838 24.7446
35.759040593519934 24.6331
35.78261809810353 24.5983
35.80601437933051 24.5063
35.829412203814705 24.4251
35.85281157283719 24.3369
35.876395313415884 24.4026
35.8997977874528 24.2693
35.92320180988546 24.2984
35.946790244133936 24.2323
35.97019737933222 24.249000000000002
35.993606066789866 24.1687
36.01701630779276 24.209
36.04061101440684 24.1708
36.06402437852291 24.1522
36.08743930005611 24.061
36.1108557802951 23.9646
36.13445678011326 23.9391
36.15787639383515 23.9702
36.18129757014299 23.9483
36.20472031032821 23.9211
36.22832762423364 23.8117
36.25175350829375 23.8569
36.275180960119776 23.7758
36.298609981005924 23.7467
36.32222362992669 23.759
36.34565580510207 23.7555
36.36908955323448 23.7443
36.39252487562093 23.621
36.416144880530226 23.5553
36.43958336764275 23.5294
36.463023432914625 23.4782
36.486465077645676 23.4552
36.51009145956204 23.5091
36.53353627947859 23.4611
36.55698268276811 23.4633
36.58043067073321 23.4436
36.60406345072071 23.241999999999997
36.62751462435344 23.3219
36.65096738658405 23.1983
36.67460498210655 23.162
36.69806093788647 23.2101
36.72151848619297 23.1324
36.744977628333636 23.1499
36.76862165890998 23.0621
36.79208400512205 23.0609
36.81554794910557 23.0343
36.83901349217101 22.9335
36.862663978991606 22.8925
36.88613273667352 22.9411
36.90960309738324 22.8489
36.933075062434064 22.8212
36.95673202673572 22.7928
36.98020721697122 22.8006
37.003684015502365 22.7298
37.027162423645365 22.6652
37.050825886711465 22.6274
37.07430753063053 22.5582
37.09779078812467 22.5234
37.121275660513014 22.5241
37.144945643673694 22.4781
37.16843376245278 22.3819
37.19192350009803 22.4382
37.215414857931435 22.3596
37.239091382563885 22.326999999999998
37.262585997426164 22.2904
37.28608223645736 22.3397
37.309763684451696 22.3174
37.33326318851098 22.2229
37.356764320726555 22.2047
37.380267082425526 22.2051
37.40395510942588 22.1858
37.42746114683234 22.086
37.45096881771841 21.9956
37.474478123414166 21.9568
37.49817275092816 21.9399
37.52168534303452 21.8989
37.54519957395567 21.875999999999998
37.568715445024665 21.8384
37.592416694607714 21.8045
37.61593586281424 21.8292
37.63945667518264 21.8287
37.66297913304891 21.7713
37.68668702630454 21.7368
37.710212792059274 21.6402
37.733740207334854 21.6757
37.757269273470364 21.5659
37.780983832050374 21.5615
37.80451621684926 21.5125
37.82805025654007 21.5123
37.851585952464795 21.4862
37.8753071980695 21.4124
37.89884622345676 21.3726
37.92238690911902 21.334
37.94611318753442 21.2608
37.969657210779765 21.2633
37.99320289834801 21.3231
38.016750251586465 21.2263
38.04048325513017 21.1505
38.06403395679343 21.1529
38.087586328183946 21.0698
38.11114037065203 21.1116
38.13488012115898 21.0868
38.1584375229181 20.9967
38.181996599821 21.0265
38.205557353221124 20.9604
38.229303872575656 20.9158
38.2528679961576 20.8608
38.27643380031219 20.8708
38.30000128639589 20.8256
38.32375459653193 20.7919
38.34732546371299 20.7562
38.37089801690786 20.5738
38.39447225747609 20.6795
38.418232380377425 20.6571
38.441810012983396 20.5634
38.46538933705673 20.5206
38.488970353960084 20.4826
38.51273731166058 20.5256
38.536321731567014 20.4591
38.55990784840681 20.4497
38.58367995004091 20.3651
38.60726947812959 20.3561
38.63086070726198 20.324
38.654453638806274 20.3673
38.678232613930824 20.2582
38.70182896773327 20.1611
38.72542702806741 20.1775
38.7490267963045 20.0991
38.77281266709232 20.1723
38.79641586862214 20.1502
38.8200207821842 20.0875
38.843627409152944 20.0594
38.86742019782782 20.1096
38.891030269149255 19.9886
38.914642058016156 19.9607
38.938255565806124 19.9453
38.96205529464307 19.8519
38.98567225787121 19.9325
39.00929094417078 19.8426
39.03291135492255 19.847
39.05671804624804 19.7479
39.080341923549106 19.759
39.103967529460334 19.714000000000002
39.127594865365744 19.6817
39.15140854155791 19.6153
39.17503935514948 19.6103
39.19867190290282 19.5634
39.22249083587951 19.6021
39.24612686969409 19.5763
39.269764641845306 19.5191
39.293404153722804 19.488
39.317230110864074 19.4286
39.34087311998506 19.3925
39.36451787301696 19.4404
39.388164371352595 19.2389
39.41199737518003 19.3054
39.43564738196752 19.2959
39.45929913825317 19.2164
39.48295264543308 19.245
39.506792718520884 19.2021
39.530449745387216 19.1394
39.55410852735203 19.1777
39.57776906581474 19.164
39.60161623079 19.0258
39.625280300200025 19.012999999999998
39.64894613032202 18.8992
39.67261372255866 18.9275
39.6964680021016 18.8901
39.72013913657293 18.9457
39.74381203738292 19.0292
39.76748670593756 18.8737
39.79134812278169 18.8274
39.81502634488497 18.7369
39.83870633896685 18.7703
39.862388106436654 18.7448
39.88625668336918 18.6681
39.90994201572829 18.7405
39.933629125719285 18.6369
39.957503091207826 18.6446
39.9811937746168 18.6542
40.00488623990914 18.5774
40.02858048850006 18.4498
40.05246165409549 18.4479
40.076159487492085 18.3746
40.099859108448875 18.3616
40.123560518384345 18.4144
40.1474489070226 18.4495
40.171153913178564 18.3303
40.194860712584955 18.3692
40.2185693066637 18.3276
40.242464941335314 18.3049
40.26617714307655 18.2168
40.289891143772046 18.2214
40.3136069448471 18.1733
40.33750984859743 18.1279
40.3612292688043 18.1361
40.3849504936829 18.0589
40.40867352466194 18.0478
40.43258372059144 18.0388
40.45631038219906 18.0314
40.48003885420956 17.9445
40.503769138055105 17.9837
40.52768664931955 17.9511
40.55142057531802 17.8897
40.57515631746428 17.8316
40.599079334038514 17.7955
40.62281872700477 17.7576
40.64655994043941 17.7058
40.67030297578061 17.8186
40.69423334835778 17.7272
40.71798004609188 17.6365
40.74172857006355 17.6588
40.76547892171441 17.6369
40.7894166736039 17.5606
40.813170699248566 17.4974
40.83692655691388 17.5595
40.86068424804498 17.6073
40.884629402612525 17.5082
40.908390779366385 17.5217
40.932153993938 17.4095
40.95591904777605 17.366
40.979871628443995 17.3666
41.003640379561936 17.4274
41.02741097430883 17.333
41.05118341413683 17.2916
41.075143444384416 17.340999999999998
41.098919593177826 17.2457
41.1226975914255 17.2792
41.14647744058318 17.206
41.170444943946755 17.1653
41.19422851378379 17.1918
41.218013938914645 17.1248
41.24198706625173 17.0925
41.26577622087193 17.0764
41.289567235177785 17.0215
41.31336011063129 16.9818
41.337340752422875 16.9611
41.361137369129835 16.9341
41.38493585138705 16.839000000000002
41.40873620066004 16.8266
41.43272438060107 16.7835
41.45652848292052 16.825
41.48033445666918 16.745
41.50414230331616 16.7054
41.528138045159764 16.7409
41.551949656675205 16.6336
41.575763145513235 16.6255
41.59957851314666 16.6342
41.62358184070442 16.5912
41.64740098505737 16.5498
41.6712220126409 16.5398
41.69504492493139 16.5106
41.71905586207357 16.4194
41.74288256296395 16.4544
41.766711153007456 16.4014
41.79054163368412 16.4021
41.814560204340054 16.4267
41.838394485526365 16.3773
41.86223066180303 16.3297
41.88625497706819 16.2804
41.910094962812 16.3223
41.93393684811168 16.2222
41.95778063445365 16.153
41.981812625263366 16.1609
42.00566023303407 16.1644
42.029509746323676 16.1654
42.05336116662236 16.1177
42.077400857069705 16.1021
42.10125611078846 16.0381
42.12511327600405 15.9871
42.14897235421036 15.9865
42.173019768448455 15.9338
42.19688269209613 15.9133
42.22074753323349 15.9161
42.24461429335818 15.8864
42.268669455600495 15.8442
42.292540073217886 15.8294
42.31641261433284 15.8315
42.34028708044675 15.8133
42.36435001496739 15.7415
42.38822835065557 15.7701
42.41210861586426 15.7534
42.4359908120986 15.7195
42.46006154323262 15.6846
42.48394762115317 15.6435
42.507835634632315 15.6036
42.531912233047436 15.5764
42.55580413732265 15.5874
42.579697981698 15.4982
42.60359376768525 15.5168
42.62767820545945 15.5131
42.65157789440821 15.4439
42.67547952952185 15.4359
42.699383112316 15.4218
42.72347541395347 15.3425
42.74738291190531 15.3063
42.771292362102166 15.3175
42.795203766063516 15.2713
42.819303956130405 15.2663
42.843219287476536 15.184000000000001
42.86713657716324 15.1399
42.89105582671383 15.2126
42.91516392983864 15.1846
42.939087119032166 15.1279
42.963012272677304 15.1043
42.98693939230129 15.0675
43.01105543317513 15.0445
43.034986504731386 15.0744
43.05891954686589 15.0395
43.08285456110972 14.9739
43.10697856448665 14.9586
43.130917542983475 14.9107
43.15485849820081 14.9319
43.17880143167367 14.8606
43.20293342237094 14.8447
43.226880332449 14.8033
43.25082922540554 14.8434
43.27496722682525 14.78
43.29892010567796 14.6915
43.32287497204102 14.7092
43.34683182745632 14.6971
43.370977859791836 14.6714
43.39493871351105 14.6262
43.41890156092628 14.6318
43.44286640358341 14.6042
43.46702049182749 14.5808
43.49098934522816 14.544
43.51496019852649 14.5019
43.5389330532723 14.5143
43.56309522248204 14.492
43.58707210044314 14.4481
43.61105098451946 14.3867
43.63503187626491 14.3644
43.659202151562134 14.3251
43.68318707902681 14.3496
43.70717401884041 14.307
43.731162972560874 14.2705
43.75534137913236 14.2295
43.779334381108384 14.2505
43.803329401683186 14.2099
43.82732644241872 14.2126
43.8515130055166 14.1778
43.87551410707659 14.1346
43.89951723350145 14.1749
43.923709934595614 14.106
43.94771713129917 14.0641
43.97172635758096 14.0551
43.99573761501002 14.0595
44.0199385169922 14.0184
44.04395385732619 13.9661
44.067971233533086 14.0002
44.09199064718605 13.942
44.11619977548961 13.9296
44.14022328470671 13.8858
44.16424883610785 13.8754
44.18827643127035 13.8634
44.21249381139513 13.7964
44.236525514814076 13.7863
44.26055926674478 13.8179
44.28459506876863 13.7514
44.3088207262813 13.7193
44.33286064928722 13.6871
44.35690262714919 13.6852
44.38094666145278 13.6075
44.4051806219871 13.5851
44.42922879003185 13.5726
44.45327901929361 13.5821
44.477331311362136 13.5446
44.501573600619416 13.5077
44.525630039221795 13.5108
44.54968854541895 13.4957
44.573937102200176 13.4375
44.5979997645541 13.422
44.622064499300315 13.368
44.64613130803592 13.3675
44.67038823869318 13.3589
44.69445921643748 13.3508
44.718532272981385 13.3134
44.742607409926194 13.2451
44.76687274034801 13.2466
44.79095205918753 13.2232
44.81503346325094 13.2314
44.839116954143876 13.1866
44.86339071028742 13.1424
44.88747839599524 13.161
44.91156817336837 13.1051
44.93566004401666 13.0882
44.959942251908146 13.0813
44.984038330325966 13.0379
45.00813650686762 12.9665
45.03223678314731 12.9445
45.05652746888232 12.9568
45.08063196592069 12.9563
45.104738567558705 12.9176
45.128847275414856 12.9331
45.15314646515866 12.8771
45.17725940679741 12.8355
45.20137445952892 12.8683
45.22568004865265 12.8372
45.24979934496396 12.8015
45.27392075725247 12.7732
45.29804428714431 12.7677
45.322358426247604 12.7208
45.346486212804315 12.6851
45.370616121861914 12.7051
45.39474815505086 12.6848
45.41907087049246 12.6578
45.4432071734666 12.5963
45.46734560548283 12.5962
45.49148616817604 12.5838
45.51581748638564 12.5881
45.5399623320197 12.562999999999999
45.56410931325473 12.485
45.58825843173002 12.5315
45.61259837920865 12.4341
45.636751793816 12.4672
45.66090735060093 12.4096
45.68506505120716 12.4138
45.7094136545275 12.3557
45.73357566449271 12.3224
45.75773982322992 12.3942
45.78190613238733 12.335
45.806263418194064 12.2384
45.83043404997326 12.2537
45.85460683713677 12.2337
45.87897065658495 12.205
45.90314777634752 12.2108
45.92732705646868 12.165
45.9515084986045 12.1576
45.97588104735473 12.1524
46.00006683541565 12.0741
46.02425479047904 12.0943
46.04844491420549 12.0684
46.0728262191024 12.0334
46.09702070211635 12.0868
46.12121735879483 12.0519
46.14541619080294 11.9705
46.169806278764455 11.931
46.194009483459034 11.9266
46.21821486849841 11.902000000000001
46.24242243555223 11.8856
46.266821333570014 11.8865
46.29103328674601 11.8443
46.31524742696538 11.8344
46.33946375590237 11.8061
46.36387149104216 11.8037
46.38809221957392 11.7259
46.41231514186606 11.7424
46.436540259597464 11.7159
46.460956858999374 11.7137
46.48518638983522 11.7066
46.509418121166966 11.6775
46.533652054678114 11.6474
46.55807754555709 11.6242
46.58231590571962 11.5671
46.60655647313217 11.5789
46.630988654873654 11.555
46.655233659129024 11.5144
46.67948087571551 11.5245
46.70373030632484 11.4933
46.72817142736393 11.4747
46.752425308428684 11.4699
46.77668140861147 11.4572
46.80093972960865 11.3647
46.82538981736788 11.338
46.849652602470904 11.3599
46.87391761349769 11.3593
46.8981848521493 11.3451
46.9226439341274 11.2735
46.946915650573224 11.2383
46.97118959976749 11.2876
46.99546578341598 11.1845
47.019933887188216 11.1861
47.04421456235744 11.1944
47.06849747711879 11.1734
47.09278263318286 11.1587
47.11725978640143 11.1165
47.14154944775105 11.0664
47.165841355555656 11.0695
47.1901355115306 11.0378
47.214621741924994 11.059000000000001
47.23892041698887 11.0065
47.26322134538975 10.982999999999999
47.28771440635075 10.9826
47.31201986422527 10.9817
47.33632758061436 10.9428
47.360637557241866 10.9254
47.38513974410611 10.8828
47.40945426407847 10.9009
47.43377104948137 10.8803
47.45809010204344 10.821
47.48260144275502 10.828
47.506925052572285 10.8063
47.53125093475548 10.7968
47.55557909103813 10.742
47.58009961361992 10.7274
47.60443234110732 10.7388
47.62876734791564 10.7319
47.65310463578333 10.6757
47.6776343683373 10.6774
47.7019762413987 10.6723
47.72632040075572 10.6283
47.75066684815169 10.6396
47.77520581885936 10.5772
47.799556865477655 10.5693
47.823910205386 10.517000000000001
47.84826584033272 10.5218
47.87281407745551 10.4914
47.89717432569297 10.5005
47.92153687423484 10.4561
47.94609208429692 10.4387
47.97045925671401 10.4198
47.99482873471275 10.3771
48.01920052005013 10.3597
48.04376504619224 10.3922
48.068141469543484 10.3643
48.09252020552573 10.3213
48.11690125590099 10.2988
48.1414751266064 10.3511
48.16586082917454 10.3128
48.19024885144316 10.2511
48.2146391951793 10.249
48.239222439012764 10.2384
48.26361744916137 10.1839
48.28801478610016 10.2243
48.31241445160131 10.2098
48.337007097209366 10.1346
48.36141144338331 10.1356
48.38581812345755 10.0935
48.41022713920929 10.0586
48.434829215320704 10.0576
48.45924292604658 10.0532
48.48365897780325 10.0349
48.50807737237308 10.0244
48.532688907799276 10.0448
48.55711201168574 10.0237
48.581537463754074 9.98061
48.60615611725119 9.9756
48.63058628942721 9.94385
48.65501881516546 9.91825
48.6794536962573 9.90438
48.70408185970339 9.92038
48.72852147531801 9.85704
48.75296345168211 9.855139999999999
48.77740779059232 9.84807
48.80204549302823 9.84901
48.82649458091802 9.80975
48.85094603676547 9.766860000000001
48.87539986237231 9.737789999999999
48.90004713292306 9.73245
48.92450572200832 9.69449
48.94896668628025 9.67458
48.97343002754588 9.671439999999999
48.99808689542115 9.65034
49.02255501470614 9.609110000000001
49.04702551642794 9.63493
49.0714984023988 9.63208
49.096164896893235 9.58769
49.120642575466796 9.56312
49.145122643748394 9.56838
49.16960510355558 9.54232
49.19428125404938 9.50587
49.2187685210852 9.45605
49.243258185121555 9.47177
49.26794160167084 9.445139999999999
49.2924360839405 9.43619
49.31693296869764 9.446439999999999
49.34143225776915 9.41483
49.36612538195438 9.36802
49.39062950396021 9.36843
49.41513603578346 9.35328
49.4396449792564 9.39173
49.46434784069503 9.37262
49.488861631846454 9.26802
49.513377840166804 9.23971
49.537896467493745 9.26712
49.56260909589029 9.2513
49.587132585683285 9.2284
49.611658500018365 9.25469
49.636186840738596 9.18575
49.66090926588511 9.18207
49.685442483902584 9.17051
49.70997813385706 9.17619
49.734516217597076 9.14103
49.75924846937352 9.116439999999999
49.7837914452858 9.101389999999999
49.80833686055187 9.053139999999999
49.83288471702571 9.03228
49.85762682540054 9.05354
49.882179588965734 9.03513
49.9067347993235 8.96193
49.93129245833333 8.97301
49.95604445336378 8.95341
49.98060703442832 8.9373
50.005172069746266 8.95466
50.02993150438364 8.88584
50.05450147301533 8.90647
50.07907390151433 8.87857
50.10364879174981 8.86021
50.12841816587289 8.85009
50.1529980044635 8.81284
50.17758031042124 8.78646
50.20216508562089 8.80816
50.22694442953363 8.77495
50.25153416817468 8.75415
50.27612638170508 8.74485
50.300721072005196 8.73167
50.325510416102105 8.68234
50.350110084975064 8.70027
50.37471223628208 8.69453
50.39931687190919 8.65592
50.424116246675766 8.65448
50.44872587605249 8.6411
50.47333799543065 8.6011
50.49795260670191 8.59272
50.52276204271512 8.574
50.54738166295838 8.53293
50.57200378079314 8.52629
50.596628398116835 8.50682
50.62144792604559 8.50274
50.646077567609396 8.49843
50.670709714377715 8.47172
50.69553683636198 8.494110000000001
50.72017401885922 8.47594
50.7448137122895 8.43752
50.76945591856022 8.43802
50.79429318636823 8.417060000000001
50.818940443716784 8.41237
50.84359021965163 8.38574
50.868242516085964 8.37147
50.893089960641895 8.34468
50.917747323549435 8.3176
50.94240721271973 8.30637
50.96706963007175 8.28858
50.99192728239342 8.26125
51.01659478166073 8.253730000000001
51.04126481489051 8.24451
51.06593738400761 8.210289999999999
51.090805275207074 8.201310000000001
51.11548294172845 8.1768
51.14016314993547 8.16521
51.164845901758845 8.14179
51.18972406304274 8.16736
51.21441192780656 8.13935
51.23910234200271 8.0901
51.2637953075678 8.07848
51.288683770237945 8.04628
51.31338186432707 8.06211
51.33808251561888 8.055069999999999
51.362978729967345 7.993010000000001
51.387684521509755 8.011330000000001
51.41239287610203 8.0181
51.437103795691165 7.96744
51.46201036644977 7.949510000000001
51.486726441956634 7.91695
51.51144508832545 7.92745
51.536166307509156 7.9162
51.56108326624387 7.90733
51.58580965706056 7.89111
51.61053862657523 7.84802
51.635270176746864 7.7989
51.66019755512065 7.795030000000001
51.68493429268881 7.77808
51.70967361681515 7.80439
51.73441552946465 7.755560000000001
51.759353359237934 7.76093
51.7841004750961 7.7770600000000005
51.80885018539685 7.72509
51.833602492111254 7.72315
51.8585508051424 7.6793
51.883308330926425 7.69175
51.90806845906181 7.65332
51.932831191525715 7.643339999999999
51.95779001977161 7.6321699999999995
51.98255798721516 7.600039999999999
52.00732856494335 7.54332
52.03229530577543 7.57759
52.057071130455945 7.559819999999999
52.081849571391054 7.53625
52.106630630568695 7.55129
52.13160794279417 7.50495
52.15639426492067 7.51837
52.18118321127822 7.47911
52.205974783860896 7.46205
52.23096269971011 7.45403
52.255759551287994 7.43734
52.280559035098186 7.40671
52.30536115314103 7.40429
52.33035970494467 7.39885
52.35516711807904 7.38197
52.37997717147198 7.36343
52.40478986713005 7.3505199999999995
52.42979908731974 7.31043
52.454617094216 7.3135699999999995
52.47943774942214 7.255139999999999
52.50426105495102 7.29782
52.529280976059844 7.2713399999999995
52.554109609024096 7.24148
52.57894089837482 7.19875
52.60377484613117 7.2108
52.62880550079408 7.2290399999999995
52.65364479223379 7.1879100000000005
52.67848674816189 7.165489999999999
52.70352547971946 7.14435
52.72837279155837 7.12907
52.753222773982785 7.10969
52.778075429022984 7.12568
52.80312495150885 7.0963899999999995
52.827982978797436 7.086239999999999
52.85284368481815 7.038530000000001
52.87770707160767 7.03638
52.90276741793998 7.0387
52.92763619336701 7.03291
52.952507655698504 7.01882
52.977381806977576 7.02608
53.00245301017842 6.98053
53.02733256653592 6.9389899999999995
53.052214817996074 6.96635
53.077099766608484 6.935919999999999
53.102181859804446 6.92887
53.127072229988265 6.9271
53.15196530349892 6.89531
53.17686108239249 6.8643
53.20195409881522 6.90045
53.22685531582556 6.8628100000000005
53.25175924441303 6.83357
53.27666588664027 6.81889
53.30176985962693 6.80283
53.3266819565689 6.76824
53.35159677336455 6.746989999999999
53.376514312083096 6.7617199999999995
53.40162927507703 6.7663899999999995
53.42655228516116 6.70057
53.45147802340193 6.74045
53.47660125628886 6.70343
53.50153247842639 6.69902
53.52646643496923 6.696460000000001
53.55140312799818 6.68727
53.576537409691696 6.663930000000001
53.60147960336152 6.63824
53.626424539786164 6.615489999999999
53.65137222105307 6.627160000000001
53.67651758529126 6.6199
53.70147078399681 6.557589999999999
53.72642673383343 6.55023
53.75138543689533 6.53552
53.776541917524526 6.53534
53.801506154876755 6.5198
53.826473151763246 6.51535
53.851442910284916 6.4666
53.87661054126026 6.50956
53.9015858509782 6.52721
53.92656392866066 6.48738
53.95154477641532 6.42295
53.976723591801296 6.40032
54.00171000771266 6.4093800000000005
54.02669920004598 6.41819
54.051691170915745 6.3912
54.076881204886796 6.33827
54.101878760928514 6.36245
54.12687910187696 6.31015
54.152077577768296 6.33229
54.1770835166946 6.26979
54.20209224691339 6.293740000000001
54.22710377055121 6.21479
54.25231352511594 6.20254
54.27733066384342 6.18602
54.30235060239643 6.20975
54.32737334290836 6.23281
54.35259441062629 6.13525
54.377622783395324 6.15876
54.40265396455061 6.15196
54.42768795623251 6.12695
54.45292037169559 6.10455
54.477960012857906 6.06757
54.50300247099511 6.07717
54.52804774825457 6.090330000000001
54.55329154616743 6.01125
54.57834249018678 5.97642
54.6033962597977 5.95217
54.6284528571545 5.9297
54.653708072335164 5.86705
54.67877035378786 5.85976
54.70383546947698 5.83405
54.72890342156389 5.84239
54.7541700889442 5.8007800000000005
54.77924374251975 5.8413
54.8043202390049 5.8093900000000005
54.82959552413022 5.71664
54.8546777351945 5.78676
54.87976279569621 5.74072
54.90485070780914 5.77497
54.930137506558005 5.73779
54.95523115074295 5.71051
54.98032765308844 5.64631
55.005427015775496 5.66582
55.03072536339621 5.5709800000000005
55.05583047570572 5.54399
55.080938454927676 5.57334
55.10604930325027 5.59325
55.131359235107396 5.5686599999999995
55.15647585066083 5.48093
55.181595341907496 5.45116
55.20671771104285 5.44005
55.232039262617704 5.43341
55.25716741665048 5.405390000000001
55.28229845518636 5.36848
55.30743238042802 5.2331
55.33276558731939 5.30508
55.357905315183636 5.29009
55.383047936390035 5.228219999999999
55.40819345314859 5.244619999999999
55.433538351073295 5.19775
55.458689688238415 5.1814
55.483843927614096 5.18518
55.509197623043605 5.1708
55.53435769621134 5.18211
55.55952067826466 5.11249
55.5846865714265 5.05943
55.61005202069737 5.031000000000001
55.63522376553902 5.03638
55.66039842818645 4.9849
55.68557601087004 4.98618
55.7109532500271 4.97454
55.73613670233794 4.994619999999999
