TT I
1.2716486653135266 7.80468
1.2939594142134223 7.528289999999999
1.3162702121660406 7.16327
1.3385810600174564 7.072360000000001
1.3608919586137629 7.22169
1.383202908801069 6.72045
1.405513911425503 6.719010000000001
1.4278249673332093 7.1598
1.4501343378461518 6.17462
1.4724455028545926 6.16632
1.4947567236847858 5.87153
1.517068001182951 6.20668
1.5393793361953272 6.17591
1.5616907295681737 5.842569999999999
1.5840021821477681 5.84477
1.60631369478041 5.946219999999999
1.6286252683124185 5.7419400000000005
1.6509369035901333 5.0915300000000006
1.6732468618895553 4.7356
1.695558623192809 5.21548
1.7178704487808514 5.59152
1.7401823395001077 5.38912
1.7625012545597203 5.329
1.7848028405262486 5.84684
1.8071218901122095 5.3715
1.8294236121921872 4.932869999999999
1.8517427996910911 5.1675699999999996
1.8740620574440425 5.15015
1.8963639900671978 4.91741
1.9186833908139995 5.603190000000001
1.9409854680117449 4.92949
1.9633050151394713 5.22699
1.9856246367570705 5.291980000000001
2.0079269371922672 4.4291
2.03024671027244 4.57261
2.0525491637446027 4.566
2.074869091674931 4.40188
2.097171701569106 4.908
2.1194917877373847 5.26346
2.141811954326636 4.99027
2.164114805233074 4.86854
2.186435135143035 4.85749
2.208738150935709 4.59927
2.231058647554722 4.48353
2.2533792288321184 4.00475
2.275682498336085 4.87938
2.298003251406138 4.88173
2.3203066942619714 4.562819999999999
2.3426276225136022 4.7145
2.3649486396617507 4.43844
2.387252348930071 4.2352
2.4095735463442893 4.34659
2.4318774374315884 3.81284
2.4541988185014043 3.87066
2.476502894794693 4.6380300000000005
2.498824462909887 4.53134
2.521146125856138 4.1517800000000005
2.5434504863470337 4.65337
2.5657723414244717 5.13743
2.588076895590662 5.788130000000001
2.610398946189713 5.514959999999999
2.6327210958598384 5.64571
2.6550259469304716 5.188969999999999
2.6773482972090137 5.7897099999999995
2.6996533504259 5.95868
2.7219759047039602 6.97416
2.744298562293959 6.59917
2.7666039251246595 6.36015
2.7889267918020164 6.5537
2.8112323652516555 6.7445699999999995
2.833555444408179 7.3546
2.8558786311183852 7.1770000000000005
2.8781845268938557 8.163310000000001
2.9005079311721484 8.27745
2.9228140460410397 8.70807
2.9451376712799635 8.83486
2.967444008632326 9.21862
2.9897678582247247 10.0002
3.0120918213106695 10.7698
3.0343984987899373 11.3557
3.0567226913198637 11.3527
3.079029599759726 12.1447
3.101354025127254 12.2658
3.123678568232338 13.4303
3.145985829517914 13.4625
3.16831061055229 13.7739
3.1906181112775593 14.2345
3.212943133635653 15.0058
3.2352682779763207 15.0117
3.2575761442691227 15.4401
3.2799015350264273 16.0959
3.302209649240067 16.6509
3.3245352898092655 17.3329
3.3468436553365257 17.4414
3.369169549113219 17.905
3.3914955708171384 18.9556
3.413804319727358 18.7754
3.4361305997334863 18.9502
3.4584396084414553 19.8931
3.4807661501462652 20.6174
3.503092824025881 21.0463
3.5254022288463154 20.9666
3.5477291695206588 21.2856
3.5700388426251948 21.7472
3.5923660534916446 22.4016
3.6146934007816114 22.6204
3.637003482731501 22.5025
3.6593311053109985 23.1253
3.681641464033634 23.0541
3.7039693653009733 23.9991
3.726297407241705 25.0623
3.7486081875460804 24.9228
3.7709365132734978 25.4248
3.793247578841633 26.0903
3.8155761917550093 26.5669
3.8378875459837216 26.5818
3.8602164494827234 27.0339
3.882545499606844 28.0003
3.9048572932539183 28.4376
3.9271866390645718 28.5627
3.9494987298666713 29.0508
3.971828374764527 29.7504
3.9941581705403255 29.9323
4.016470713506008 30.8151
4.038800813471445 31.2486
4.061113662089144 32.1039
4.0834440696459176 32.8952
4.105774632334751 32.9983
4.128087945865126 33.3313
4.150418821249301 34.8113
4.172732448931298 35.3948
4.195063640413578 35.4483
4.2173775856475215 36.5101
4.239709096631102 37.218
4.262040768704612 37.2153
4.284355196706267 38.3444
4.306687193387355 39.0034
4.329001947444346 40.1884
4.35133427213731 40.8433
4.373666762177566 41.6728
4.395982011761091 42.0566
4.418314834921175 43.5739
4.44063041906622 44.0877
4.4629635787515625 44.9402
4.4852969080429785 46.3451
4.5076130004776225 47.3097
4.529946671403969 48.493
4.552263106909177 49.722
4.574597122877047 50.8328
4.596931312711224 51.6051
4.619248269273446 52.6051
4.6415828092605835 54.1663
4.663900117405352 55.4485
4.686235010953232 56.9308
4.708552674085913 58.1587
4.730887924602802 60.2012
4.753223354952695 61.6772
4.775541557023902 62.9461
4.797877349456786 64.1533
4.820195915032126 66.4145
4.842532072957498 68.3557
4.864868414979744 70.3723
4.88718753227192 72.4413
4.909524244902505 74.7709
4.931843734218147 77.3672
4.954180820867835 80.5442
4.976518095879839 84.5648
4.998838149695359 88.1164
5.021175803844231 92.898
5.043496238205739 97.5536
5.065834274903528 103.196
5.088172504230693 110.395
5.1104935158799565 118.897
5.132832132875765 132.872
5.155153533596801 155.697
5.1774925416746225 209.137
5.199814334878411 558.757
5.2221537374521505 1956.78
5.244493338631803 3879.75
5.266815727034316 5865.38
5.289155727832427 8971.22
5.311478517248165 9610.94
5.333818921080011 5804.3
5.356159527788849 1629.88
5.3784829252032536 380.654
5.400823940070432 201.27700000000002
5.423147747031976 159.776
5.445489173474152 138.666
5.467830807066149 127.55
5.490155234831516 120.741
5.512497285125229 115.242
5.534822130975162 112.514
5.557164601388673 109.535
5.579489868738879 106.053
5.601832762690846 103.749
5.6241758697774475 101.79799999999999
5.646501775867269 101.23100000000001
5.668845311622074 100.14
5.691171647754637 99.5357
5.713515615597765 98.2186
5.735859800852677 97.3369
5.758186788542988 96.5132
5.780531411018185 96.8842
5.802858837297399 97.141
5.825203900414495 97.4365
5.8475491852224 98.1403
5.869877275883075 100.124
5.892223006467101 102.99
5.914551544266608 106.839
5.936897724049891 113.305
5.959244129804903 125.133
5.981573344815301 156.36
6.0039202049061 296.499
6.026249875609095 767.5269999999999
6.04859719346037 1411.4
6.070927323278297 2036.92
6.093275102315365 2997.6
6.115623113320588 4046.84
6.137953938319995 3912.46
6.160302415650845 1962.23
6.182633708324452 586.934
6.2049826554078376 190.595
6.227331838745022 116.92399999999999
6.249663839443684 98.4114
6.27201349767565 89.1711
6.294345974611799 83.8755
6.316696111167083 79.0783
6.339046488263839 76.5491
6.361379686074702 74.1915
6.383730546639482 72.3324
6.406064229255215 70.1698
6.428415576718203 69.4667
6.450749747566656 68.2793
6.47310158535871 66.8851
6.495453669698332 65.7346
6.517788579421056 64.8666
6.540141159237969 63.7992
6.562476565766648 63.2999
6.5848296444934045 62.1365
6.607182974060425 61.7616
6.6295191323281015 61.3564
6.651872965955752 60.3288
6.6742096296068985 59.6444
6.6965639707294615 59.6587
6.71891856698715 58.7703
6.741255995248479 58.6941
6.763611104154477 57.9206
6.785949046381137 57.5836
6.808304671371482 57.2987
6.8306605557940046 56.9472
6.852999275508618 56.266999999999996
6.875355681171544 56.232
6.897694923437771 55.985
6.92005185377892 55.9655
6.9423916220322655 55.7867
6.964749080490181 55.1307
6.987106804399774 55.0512
7.009447368180821 54.7019
7.031805625367033 54.3556
7.054146723727803 54.6622
7.076505517631004 54.3091
7.098864581288365 54.2649
7.121206488070854 53.8491
7.143566093607822 53.5886
7.165908543567245 53.6674
7.188268694426048 53.5042
7.2106291193438095 52.8711
7.232972390625943 53.3205
7.255333366030969 53.3622
7.277677189091925 53.3785
7.300038718428332 53.1218
7.322400526130865 53.0617
7.344745183422596 53.34
7.367107550224791 53.6293
7.389452767901992 53.4525
7.411815697249891 53.6214
7.434161478756298 53.1388
7.456524974096713 53.3
7.478888753837185 53.0338
7.501235387657368 54.4588
7.523599738562711 57.1605
7.545946944825532 61.8784
7.568311870344528 62.1782
7.5906770845765665 58.5121
7.613025156078678 55.7931
7.635390950099687 55.0552
7.657739602662809 54.9686
7.680105979923558 54.8219
7.702472650212829 55.4561
7.724822180948224 55.5077
7.747189439655568 55.5112
7.769539560075357 55.8058
7.791907410653562 56.3991
7.81425812420825 56.3361
7.836626570110925 56.6284
7.858995315087906 57.3843
7.881346924933401 57.8118
7.903716270417482 58.4404
7.926068482028405 58.5003
7.948438431475253 59.0845
7.9708086843180235 59.6556
7.993161805171116 60.4097
8.015532667162402 60.597
8.037886398416653 62.1796
8.060257873014221 62.3629
8.082629655331942 63.0102
8.104984308787587 63.5329
8.127356708900503 64.7179
8.149711981398308 65.5189
8.172085002766314 66.1982
8.194458336181368 67.1251
8.216814543847752 68.2809
8.23918850371002 69.8654
8.26154533906492 70.8388
8.283919928836452 72.817
8.306277395339652 73.9175
8.328652618483376 75.3223
8.351028159736202 78.0428
8.373386579575245 80.4419
8.395762759396959 82.6246
8.418121819038275 86.0201
8.440498640894003 90.5055
8.462875785192262 97.5715
8.485235811156207 113.434
8.507613602688501 183.347
8.529974277114228 381.543
8.552352719347912 608.201
8.574731488360351 784.935
8.59709314210385 944.82
8.619472567021075 1213.65
8.64183487789147 1638.07
8.664214962183097 1891.36
8.686577933647762 1515.48
8.708958680784317 820.033
8.731339760774953 359.45599999999996
8.753703729764451 161.319
8.77608547780821 113.936
8.798450116065078 104.209
8.820832535634787 98.2392
8.843215292401656 94.9749
8.865580941199045 92.9623
8.887964374703538 91.0318
8.910330701447199 89.65100000000001
8.932714815164482 88.5767
8.955099270424924 87.4599
8.977466620733543 86.3615
8.999851761421976 85.7359
9.022219798361645 85.2034
9.04460562795561 85.0096
9.066991803441677 84.2294
9.089360876979615 84.1326
9.111747746589993 83.4139
9.13411751544971 83.6347
9.156505082664324 83.0085
9.178875550323522 83.2565
9.20126381862328 84.0343
9.223652438908596 88.6356
9.246023961427412 95.2372
9.26841328802173 94.9471
9.290785518039224 90.7291
9.313175554425882 86.9379
9.335565947154315 84.5862
9.357939245086508 84.1174
9.380330352834827 84.2813
9.40270436697103 84.2199
9.425096193225055 84.072
9.447488380180165 85.1819
9.469863475295412 85.2561
9.492256385987508 85.59899999999999
9.514632206018318 86.1875
9.537025843935714 86.337
9.559402392368193 87.1453
9.581796761000229 88.4841
9.604191496441521 88.662
9.626569144158516 89.23299999999999
9.648964615551032 89.8509
9.671343000390081 90.9745
9.693739211225699 91.9835
9.716135793237463 93.4562
9.738515290448102 94.0609
9.760912617143402 95.0452
9.783292860202891 96.44200000000001
9.805690935076182 97.8582
9.828089385495742 99.1934
9.850470754023561 101.40799999999999
9.872869957865444 103.506
9.89525208097539 106.666
9.917652041736662 110.223
9.940052382417589 116.874
9.962435644102392 135.019
9.984836746950979 197.139
10.007220771957746 356.19699999999995
10.029622640473708 548.339
10.052007432299963 682.703
10.074410069984072 768.073
10.096813093716005 899.049
10.119199042482517 1146.77
10.141602840636468 1483.37
10.163989564971628 1699.94
10.186394141051062 1452.19
10.208799107559706 851.6560000000001
10.231187001965623 405.819
10.253592751657669 190.71099999999998
10.275981430388155 130.114
10.298387966769793 116.79799999999999
10.320794897965431 112.47200000000001
10.343184759907361 109.11
10.36559248305461 107.363
10.387983138083852 107.271
10.410391656691655 109.54299999999999
10.432800574501677 126.573
10.455192425893369 169.722
10.47760214443012 217.93400000000003
10.499994797678786 250.187
10.522405320453982 270.764
10.54479877906917 303.952
10.567210109595656 359.48400000000004
10.5896218454736 442.745
10.612016518879773 511.02
10.634429067781074 475.962
10.656824555333241 343.65
10.679237920773568 203.24
10.701651695961992 125.24
10.724048411481384 98.9389
10.746463008485165 91.2456
10.768860546937125 88.1349
10.791275969274796 85.4686
10.81369180576079 83.999
10.836090585366925 82.3022
10.858507252467449 81.0482
10.88090686379991 79.8843
10.903324365036394 79.0878
10.925724811614439 77.6886
10.948143150509463 77.2251
10.970561909719066 76.3151
10.992963615930844 75.4141
11.015383218085756 74.4598
11.037785768347074 73.5246
11.06020621697282 73.378
11.082627090322113 72.8738
11.105030913430326 71.9253
11.12745263854165 71.154
11.149857314510728 70.4517
11.172279894912576 70.5201
11.194702904450653 69.4799
11.217108866490921 68.6657
11.239532736615194 68.2261
11.26193956033512 68.1298
11.284364294577085 67.95100000000001
11.306789462371718 67.2674
11.329197585398376 67.2421
11.351623622610898 67.0466
11.37403261614354 66.1591
11.396459526308487 66.0555
11.418869393879497 65.8133
11.441297180532617 65.316
11.463725406927658 64.8965
11.486136592353875 64.7859
11.508565700543707 64.1833
11.530977768845315 64.1626
11.553407762368774 63.8508
11.575838200059769 64.1166
11.598251599479612 63.8632
11.620682927815501 63.488
11.64309721895548 63.6923
11.665529441478206 63.0001
11.687962112597958 62.848
11.710377748130886 63.0001
11.732811318753434 63.1392
11.755227854859067 62.8157
11.777662328529495 62.9585
11.800079768750786 62.3296
11.822515149015453 62.5012
11.844950984084935 63.0497
11.867369787303163 62.9555
11.889806534289491 63.1206
11.912226250487029 64.079
11.934663912939751 65.4468
11.9571020346363 66.686
11.979523127133968 66.2096
12.001962169624331 66.0657
12.024384183972964 65.9802
12.046824150809913 69.7479
12.069264581333726 80.0263
12.091687985297767 92.7375
12.11412934550045 102.86399999999999
12.136553680195208 109.63600000000001
12.158995973632788 115.78
12.181438735204349 124.553
12.20386447284199 140.111
12.226308172985636 162.063
12.24873485024193 186.375
12.271179492516982 195.655
12.293607112949127 169.90200000000002
12.316052700916226 127.42299999999999
12.338498763250042 92.8105
12.360927805303868 73.1597
12.383374818673879 66.9616
12.405804812803074 65.1276
12.428252780773262 64.7771
12.45070122756722 64.4878
12.473132656675375 64.352
12.49558206341869 64.626
12.518014453510101 64.7008
12.540464823770117 64.6751
12.562915677315177 64.9063
12.58534951575545 65.2517
12.607801338171472 65.0841
12.630236146511358 65.3921
12.652688941369085 65.8443
12.675124723177234 66.221
12.697578494048786 66.7737
12.720032754458185 67.0282
12.742470003354093 67.1986
12.764925245138771 67.9576
12.787363476431278 68.3725
12.809819703166806 68.628
12.83227642391173 69.4659
12.854716135692716 69.9367
12.877173846755147 70.9467
12.899614549869717 71.2173
12.9220732548287 72.1792
12.94453245827299 73.0438
12.966974655289818 74.0489
12.989434858002571 75.1664
13.011878055298721 76.024
13.034339260862497 76.9859
13.056800969391883 78.4211
13.079245674017244 81.1969
13.101708390774869 83.1705
13.12415410463411 89.0127
13.146617833206086 107.566
13.169064559883248 137.186
13.191529303857127 165.665
13.213994557076367 186.835
13.236442809902437 199.74900000000002
13.258909083908291 213.34400000000002
13.28135835851934 233.338
13.30382565690295 266.238
13.326293469022952 316.643
13.348744283242008 371.664
13.371213125129904 398.44599999999997
13.39366497011003 362.64
13.416134845360597 277.21
13.438605238843131 187.463
13.46105863690397 133.4
13.483530069144786 119.243
13.505984506951902 133.31799999999998
13.528456981549432 155.914
13.550929978879088 172.46099999999998
13.573385983253365 182.862
13.595860028340867 190.22299999999998
13.618317081455832 203.865
13.64079217790333 225.07299999999998
13.663250283359057 257.832
13.685726434770173 302.377
13.708203115221277 342.616
13.730662806148091 337.49699999999996
13.75314054697177 283.981
13.775601299246777 208.86700000000002
13.798080104050406 139.011
13.820559442405358 101.641
13.843021793671388 87.8917
13.865502201420897 83.2737
13.887965623051947 82.0865
13.910447103807167 80.7586
13.932929122629764 78.9231
13.955394156785959 78.5575
13.977877254034569 77.4882
14.000343367582113 76.8976
14.022827546871707 76.1051
14.045294743423524 75.307
14.06778000837062 74.5844
14.090265817715476 74.2733
14.112734645763819 74.0262
14.13522154619454 74.9187
14.157691466286913 74.9263
14.180179461423874 74.2304
14.202668005486178 73.5226
14.22513957064374 72.5541
14.247629214846473 71.9548
14.270101881097517 71.3957
14.29259262906496 70.9813
14.315083930490205 70.8719
14.337558255389705 70.3173
14.360050666019726 70.4538
14.382526101071944 70.1459
14.405019624534942 69.8315
14.427513705993134 69.811
14.449990813291825 69.8139
14.47248601302899 69.8515
14.49496423954951 70.1099
14.517460561197822 69.7741
14.539939910570322 69.2851
14.562437357763558 69.78
14.58493536931253 70.1844
14.607416409993311 70.1893
14.62991555254159 70.4442
14.652397725157423 70.8883
14.674898002342799 71.0358
14.697398848433282 71.166
14.719882725991326 72.333
14.74238471217934 73.117
14.764869730765593 76.3616
14.787372860692983 83.5067
14.809876564079925 96.4797
14.83236330125751 108.25
14.854868153850365 117.012
14.877356041159485 122.167
14.899862046604186 126.18799999999999
14.922351087688757 133.028
14.944858249632887 143.561
14.967365991421232 158.79399999999998
14.989856770231246 179.59
15.012365673994204 202.21200000000002
15.03485761569738 213.43599999999998
15.05736768508665 197.933
15.07987833888692 164.475
15.102372032001655 127.10600000000001
15.124883856909658 96.1926
15.14737872204565 80.4312
15.169891721717274 73.9668
15.192405310371893 72.2327
15.214901940621196 71.3138
15.237416709527137 70.4908
15.259914520936249 70.1577
15.282430473753607 69.315
15.304947020131227 68.8333
15.327446610371178 68.2848
15.349964346154254 67.9233
15.372465126703139 67.8079
15.394984055556009 67.652
15.417486030076159 67.6143
15.44000615566487 67.4539
15.462526881230803 67.1794
15.485030653812652 66.9962
15.507552581617434 66.92399999999999
15.530057557334603 66.8619
15.55258069104857 66.9584
15.575104429329837 67.1588
15.597611216864632 67.0727
15.620136166564563 67.4142
15.6426441664095 68.0609
15.665170331202765 70.1096
15.687697105158826 76.4547
15.710206930593545 86.3665
15.732734925158933 96.1409
15.755245972089478 102.98700000000001
15.77777519094324 107.639
15.800287463046663 110.49600000000001
15.822817909869592 114.917
15.84534897229804 121.28299999999999
15.867863089299354 132.61
15.890395385222186 146.648
15.912910736597423 165.015
15.935444269699861 181.266
15.957978423016485 184.083
15.980495633101265 169.69400000000002
16.003031029129367 140.414
16.02554948280019 106.969
16.048086125229432 83.0054
16.070623392487107 71.1162
16.09314371869582 66.2954
16.11568223789321 63.6594
16.13820381691126 62.6442
16.160743591742527 62.0842
16.183283996022084 61.3567
16.205807461423195 60.6506
16.228349126881973 59.9655
16.25087385432698 59.9011
16.27341678466365 59.2463
16.29594277784926 58.784
16.31848697676433 58.3946
16.341031811604868 57.8966
16.36355971058487 57.8224
16.3861058195587 57.5518
16.40863499352978 56.9731
16.431182380342005 56.7263
16.453730407713202 56.6089
16.476261501364792 56.501999999999995
16.498810812136167 56.1185
16.52134319004079 56.3584
16.54389378792203 55.983000000000004
16.566445031001553 56.0799
16.588979342490088 55.8967
16.61153187824822 55.8181
16.634067483263312 55.4907
16.656621315414416 55.4454
16.679175797408888 55.115
16.701713349928728 55.3824
16.72426913389191 55.4998
16.74680798922351 55.4433
16.76936507887444 55.3764
16.791905240734874 55.4864
16.814463639794468 55.3638
16.837022695210294 55.4021
16.859564824093756 55.5386
16.882125194503903 55.5762
16.904668639217885 55.8482
16.927230328348003 55.7238
16.949792678493612 56.0417
16.972338104193863 55.8739
16.994901778652235 55.9042
17.017448529496576 56.005
17.040013531998152 56.4611
17.06257920018044 56.8212
17.0851279459922 58.1054
17.107694947817667 60.373999999999995
17.130245028099072 62.2945
17.15281336730298 64.0632
17.17536478578733 65.2925
17.19793446610687 65.9263
17.220504818648422 66.5522
17.243058251703697 67.3497
17.265629950971032 69.3874
17.288184731571736 71.6309
17.310757781306908 75.4528
17.33333150794385 78.6264
17.355888317140174 81.8986
17.37846339986244 83.5114
17.401021565958885 80.8698
17.42359800851343 75.54
17.44617513265564 69.9654
17.468735341390783 65.1321
17.491261035594565 61.8467
17.51396340099364 60.7229
17.536490463869136 60.4738
17.559018209820174 60.0872
17.58154663977963 60.2373
17.604251766089718 60.3161
17.626781572227713 60.5675
17.64931206518155 60.6961
17.671843245885103 61.0558
17.69455114821572 61.0781
17.717083712612634 61.3631
17.739616967569667 61.8176
17.762150914021706 62.4325
17.78486160749854 62.6332
17.807396945166804 63.4163
17.829932977143503 63.9344
17.85246970436452 65.3812
17.875183204129467 68.4202
17.897721330097664 73.9738
17.920260154126645 80.0427
17.942799677153296 84.3429
17.9655159983646 87.475
17.988056927677544 89.1352
18.010598558807683 91.0637
18.033140892692916 93.5525
18.05586005052525 97.3302
18.07840379824407 102.95299999999999
18.10094825154059 110.462
18.12366954819864 120.958
18.146215420998306 133.494
18.16876200220057 142.851
18.191309292745153 143.899
18.214033452627167 136.036
18.236582170236648 121.061
18.259131600016456 105.32799999999999
18.281681742907335 93.8932
18.304408781233683 88.7042
18.32696035875955 87.8239
18.349512652227624 89.5804
18.372065662579683 93.9177
18.394795594587553 98.7658
18.41735004715306 102.876
18.43990521943684 103.93299999999999
18.46246111238171 100.492
18.485193953325208 92.2932
18.507751296070428 82.3232
18.530309362314178 74.3832
18.552868153000343 68.7712
18.57560391815056 65.2259
18.59816416623245 63.8727
18.620725141597372 62.9923
18.643286845190268 62.2859
18.666025549835414 61.7502
18.688588718427933 61.1889
18.711152618092243 60.9192
18.73389353884365 60.8332
18.75645890921984 60.355
18.77902501351406 59.9551
18.801591852673102 59.8374
18.824335739722738 59.1908
18.846904057212626 59.1793
18.8694731124168 59.073
18.89204290628315 58.9777
18.914789774966803 58.8959
18.937361054791623 58.5535
18.959933076131318 58.1939
18.982505839934877 58.0208
19.00525570560582 57.9679
19.027829963004184 57.8871
19.05040496572238 57.8401
19.072980714710468 57.9216
19.095733592739563 57.6574
19.11831084296757 58.511
19.140888842324735 59.5423
19.16346759176222 60.6754
19.18622349753803 61.6054
19.208803755869358 62.5282
19.231384767143577 63.1589
19.253966532312948 63.38399999999999
19.276725481241822 63.8678
19.29930876296784 64.6992
19.3218928014549 65.7875
19.34465404436217 67.2577
19.36723960516257 69.1731
19.389825925592426 71.336
19.412413006605938 73.604
19.43517731967805 74.9891
19.457765930683355 74.419
19.48035530514408 71.5732
19.50294544401556 67.2899
19.525712842708348 62.8019
19.54830451925909 59.3271
19.570896963095727 56.7064
19.593490175174704 55.5352
19.616260674962184 55.1407
19.638855432416964 54.6444
19.661450960992624 54.7296
19.68404726164677 54.7021
19.706820878021247 54.3301
19.729418731756834 54.5787
19.752017360452857 54.294
19.77461676506804 54.5748
19.797393513540218 54.5219
19.819994478951667 54.6902
19.84259622316767 55.8935
19.8651987471481 56.9402
19.887978643247177 57.7605
19.91058273574792 58.3883
19.933187610901943 58.8539
19.955969879466828 59.3519
19.97857632894404 59.5528
20.00118356396599 59.9132
20.023791585494575 60.6725
20.046577028914875 62.1024
20.069186632506966 63.8011
20.091797025500632 66.2175
20.114408208858933 68.8497
20.137196842715273 71.5404
20.159809615886765 73.2446
20.18242318232135 72.665
20.20503754298326 70.2472
20.227829382875154 67.7214
20.250445341109344 65.2831
20.27306209647285 63.0502
20.29567964993108 62.1176
20.31847471147704 62.2412
20.34109387027612 63.5935
20.363713830075454 64.8523
20.386334591841646 65.7018
20.409132890679302 65.7389
20.431755265564437 64.2553
20.454378445325528 61.3864
20.477002430930366 58.3561
20.499803982716553 55.8126
20.522429589228004 53.5707
20.54505600449589 52.3066
20.567683229489194 51.7094
20.590488049900088 51.5497
20.61311690359731 51.2508
20.63574656993626 51.0736
20.658553853717297 50.784
20.681185154618298 50.5305
20.703817271080066 50.4457
20.72645020407368 50.3002
20.749260783967177 50.167
20.771895359337133 49.9329
20.794530754161617 50.0078
20.817166969412938 50.0237
20.83998086114876 49.9331
20.86261872660049 49.8557
20.885257415405402 49.8863
20.90789692853701 49.593999999999994
20.930714147864748 49.5226
20.953355319030678 49.6847
20.97599731745334 49.7641
20.99864014410749 49.6322
21.021460706796564 49.8024
21.044105199328826 50.0386
21.06675052302631 50.281000000000006
21.089396678865015 50.3519
21.112220600704806 50.4739
21.134868430275347 50.5649
21.15751709492456 50.4702
21.180166595629693 50.4182
21.202993892429635 50.86
21.22564507473034 50.9556
21.24829709602816 51.4837
21.27112693608965 51.8791
21.293780644891275 52.36
21.316435195634053 52.2473
21.339090589297417 52.0174
21.361923832041875 51.8253
21.384580921090404 51.0177
21.407238856007325 50.0573
21.429897637773326 49.9767
21.45273429906592 49.6757
21.475394784108598 49.5536
21.498056118951983 49.3935
21.520718304578022 49.6449
21.543558400304388 49.6482
21.566222297108816 49.8706
21.58888704765135 49.9455
21.61155265291521 50.4049
21.63439619898156 51.2891
21.657063523335786 52.2607
21.67973170537063 53.1777
21.7024007460706 53.8926
21.72524775840385 54.2596
21.747918526116475 54.7331
21.770590155457388 55.053000000000004
21.79326264741238 55.5175
21.816113141960237 56.2766
21.838787368860547 57.1842
21.861462461341976 58.4525
21.884315579735777 60.2526
21.90699241312273 61.784
21.92967011506078 63.6729
21.95234868653799 65.3291
21.9752053151131 66.5541
21.997885635446785 66.5019
22.020566828293532 65.1992
22.04324889464272 62.7266
22.066109049404666 60.0883
22.088792872571794 58.0101
22.111477572219204 56.8056
22.1341631493376 56.6105
22.157026846313123 56.6962
22.179714188221507 57.0518
22.202402410582668 57.0452
22.22509151438863 56.3533
22.24795876962584 55.0916
22.270649646204486 53.979
22.293341407213727 52.5645
22.316034053646906 51.4709
22.338904883215342 50.7929
22.36159931041458 50.3298
22.38429462602756 50.0811
22.40699083104897 49.6017
22.429865251039757 49.7529
22.452563244831367 49.6912
22.47526213102522 49.7269
22.49813925616515 49.5972
22.520839937143307 49.5699
22.543541513520587 49.7251
22.56624398629403 49.5727
22.589124730075895 49.5145
22.611829005656723 49.7748
22.63453418063466 49.748999999999995
22.657240256008077 50.0079
22.680124634582935 50.5001
22.70283252079775 51.2331
22.725541310413075 51.7132
22.74825100442868 52.2316
22.771139033969575 52.7591
22.79385054687155 52.6001
22.81656296718292 52.6436
22.83927629590484 53.0047
22.862167992606945 53.3275
22.88488314827121 53.743
22.907599215359284 54.008
22.93031619487366 54.6224
22.953211574954405 55.4103
22.975930389478226 56.25899999999999
22.998650119445763 57.4269
23.02137076586092 58.238
23.044269845560063 58.7885
23.06699233506288 58.5175
23.089715744034912 57.4748
23.112617610931565 55.6039
23.135342869061212 53.7662
23.158069049684816 52.1643
23.1807961538087 50.9884
23.20370174880544 50.3017
23.226430710184808 50.2453
23.249160598093425 50.0804
23.271891413539002 50.0503
23.294800752937697 50.523
23.31753343374794 51.2342
23.340267045128353 51.6118
23.36300158808808 52.0712
23.38591468821339 52.4081
23.408651104658304 52.3896
23.431388455719986 52.5536
23.454126742409 52.494
23.4770436196085 52.8107
23.499783787914662 53.2981
23.522524894889884 53.5217
23.54526694154616 54.1481
23.56818761219047 55.1229
23.59093154860734 55.8687
23.613676427751283 57.17100000000001
23.636422250635754 57.971000000000004
23.659346731118656 58.4423
23.68209445191868 58.09
23.704843119509587 56.66
23.72759273490623 54.805
23.750521041644767 52.6566
23.77327256312355 50.6415
23.796025035462787 49.0639
23.818956224555475 47.9477
23.841710609113413 47.4105
23.86446594758979 47.1355
23.887222241002014 46.8043
23.910157285144578 46.4336
23.932915498962537 46.3888
23.955674670778713 46.3318
23.978434801611975 46.0333
24.001373717286125 45.856
24.024135776723917 45.7171
24.046898798245582 45.6292
24.06966278287146 45.5211
24.092605586582614 45.2567
24.115371508023642 45.1698
24.1381383956401 45.0711
24.16090625045381 45.0146
24.183852958731244 44.8536
24.206622758582608 44.7625
24.229393528706886 44.6592
24.252165270127392 44.6397
24.27511589952438 44.6805
24.297889594216997 44.5269
24.32066426328598 44.3157
24.34343990775613 44.2654
24.36639447485003 44.1895
24.38917208083877 44.0955
24.41195066531332 43.9326
24.43490819850244 44.1063
24.457688750692377 43.9143
24.48047028445616 43.8492
24.503252800821233 44.0419
24.526214300784112 43.9494
24.548998793132213 43.8217
24.57178427117417 43.6349
24.59457073593893 43.6422
24.617536219319863 43.6499
24.64032466834748 43.8384
24.663114107195035 43.8704
24.685904536893013 43.4565
24.708874020360852 43.538000000000004
24.731666442613744 43.5438
24.754459858818787 43.4786
24.777254270007962 43.2425
24.80022777025625 43.2451
24.82302418230472 43.1152
24.845821592443674 43.2496
24.86862000170663 43.3869
24.891597535453727 43.2474
24.914397953892728 43.4706
24.93719937456671 43.2319
24.96000179851076 43.4612
24.98298338249997 43.4683
25.00578782394922 43.6133
25.028593271784167 43.8677
25.05157790644186 44.1907
25.07438537804115 44.2718
25.097193859145293 44.4656
25.120003350792075 44.6723
25.142992065061257 44.931999999999995
25.165803588823465 45.0771
25.18861612625217 45.2332
25.211429678386736 45.336000000000006
25.234422489079968 45.5213
25.257238081693636 45.568999999999996
25.280054692141732 45.6978
25.3028723214652 45.5394
25.325869245420463 45.5231
25.348688923599397 45.3577
25.371509623787006 45.559
25.394331347025812 45.5748
25.41733240110666 45.5268
25.440156181590016 45.4061
25.46298098826268 45.0872
25.48580682216873 44.6515
25.50881202326435 43.9259
25.53163992281684 43.3501
25.55446885274561 42.8096
25.577298814096377 42.3167
25.600308179121807 42.0213
25.623140214533745 41.9559
25.64597328451537 41.8313
25.66898578564376 41.4796
25.691820936010206 41.5159
25.714657124097695 41.3759
25.737494350954734 41.3472
25.760511045684957 41.5387
25.783350361364224 41.7339
25.806190718969255 41.5632
25.82903211955018 41.6719
25.852053024868923 41.6513
25.874896522722523 41.6891
25.897741066713106 41.5835
25.920586657892454 41.553000000000004
25.943611790812668 41.711000000000006
25.966459487728237 41.7211
25.989308234998564 41.56100000000001
26.01215803367705 41.8716
26.03518741123814 41.9441
26.05803932412957 42.0326
26.080892291600094 41.9428
26.10374631470478 42.1379
26.12677995397268 42.3423
26.14963609978026 42.4887
26.172493304397875 42.5742
26.19535156888223 42.5665
26.218389486949604 42.3421
26.241249882640123 42.1889
26.26411134137826 41.6922
26.28715248187403 41.8441
26.31001607820869 41.4803
26.3328807407756 41.2426
26.35574647063438 41.4244
26.37879191991473 41.3151
26.401659795896734 41.4526
26.424528742360263 41.519
26.447398760366614 41.556999999999995
26.470448535598294 41.4808
26.49332070826805 41.5222
26.516193955675355 41.6719
26.53906827888316 41.8238
26.562122397260108 41.9738
26.584998883685063 42.096000000000004
26.607876449110325 42.313
26.63075509460056 42.4155
26.65381357334404 42.5442
26.67669439061878 42.7453
26.699576291163382 43.0149
26.722459276044212 43.2088
26.745522132402975 43.2174
26.768407297649354 43.1706
26.791293550442003 42.6357
26.814180891848974 42.3527
26.837248143099337 41.8798
26.860137673466657 41.7254
26.88302829566349 41.3044
26.90592001075963 41.2663
26.92899167420566 41.29
26.951885586870763 40.943000000000005
26.974780595655517 40.6534
26.99785558178161 40.5305
27.020752794605112 40.3182
27.043651106772522 40.0199
27.06655051935668 39.8618
27.089629948036183 39.8095
27.112531573292053 39.6496
27.135434302194138 39.7246
27.158338135817015 39.5393
27.181422024430987 39.4998
27.204328079372566 39.4986
27.22723524226965 39.5443
27.250143514198573 39.5974
27.273231880156334 39.5126
27.296142382065014 39.3157
27.319053996245536 39.3411
27.341966723775965 39.4366
27.365059584515222 39.2469
27.38797455070062 39.3625
27.410890633481237 39.3732
27.433807833936918 39.2439
27.456905206923906 39.3358
27.47982465472398 39.3323
27.502745223449743 39.3254
27.525666914182825 39.4399
27.548768816912457 39.449
27.571692763693633 39.3717
27.59461783573812 39.3033
27.617723149491244 39.2266
27.640650484125285 39.3542
27.66357894728264 39.2369
27.686508540048052 39.301
27.709618414237887 39.2014
27.732550278321757 39.0008
27.755483275279115 38.9367
27.778417406196485 39.0219
27.801531858397514 39.0241
27.824468269376716 38.8532
27.847405817586786 38.6554
27.870344504116094 38.7873
27.893463551932008 39.0488
27.916404527281053 39.1618
27.93934664422563 39.1029
27.962289903855886 39.1034
27.98541356491974 39.1861
28.00835912214229 39.2953
28.03130582533231 39.6229
28.054253675581805 39.6954
28.077381967556104 39.8056
28.100332124185126 39.8112
28.123283431160893 39.8887
28.146235889577238 39.9689
28.169368830154156 39.8838
28.192323603752033 39.7005
28.215279532083304 39.4804
28.238415973016764 39.1929
28.261374223145094 39.0774
28.284333631303806 38.7053
28.307294198589954 38.751
28.330435319167677 38.4518
28.353398217078915 38.3265
28.376362277420153 38.0009
28.39932750129032 37.8683
28.422473319286713 37.6234
28.44544088262495 37.535
28.468409612800283 37.2808
28.491379510913497 36.9821
28.51453004413313 36.9216
28.53750229057244 36.7705
28.56047570826344 36.6933
28.583450298308804 36.7513
28.606605564586562 36.6385
28.629582511831156 36.7333
28.65256063474956 36.5727
28.675539934446338 36.5343
28.698699951647605 36.4405
28.72168161743193 36.2792
28.74466446331978 36.2748
28.767648490417624 36.2357
28.790813276438353 36.1617
28.813799678527303 36.1454
28.836787265157085 36.1233
28.859955641890075 36.0804
28.882945610203045 36.091
28.905936766392035 36.0428
28.928929111566863 36.1248
28.952102288520145 36.1207
28.975097024308607 35.9347
28.998092952423807 35.9294
29.021090073977508 35.9649
29.04426806913204 35.8046
29.067267590245258 35.6109
29.090268308143695 35.5964
29.11327022394099 35.4625
29.13645305530891 35.3635
29.159457379627167 35.2637
29.18246290519685 35.2374
29.20546963313352 35.0587
29.22865731875826 35.1523
29.25166646419296 35.1024
29.27467681535305 34.9302
29.29768837335608 35.0113
29.320880931312562 34.9929
29.34389491580634 34.8286
29.366910110507334 34.7287
29.38992651653503 34.8214
29.41312396492981 34.8564
29.436142806456754 34.9469
29.45916286268059 34.8061
29.48236399319994 34.8154
29.50538649169417 34.6919
29.528410208259935 34.5036
29.55143514402014 34.6135
29.574641196749695 34.367
29.597668583816574 34.2701
29.6206971934585 33.9447
29.64372702680042 34.0608
29.666938019934474 33.9483
29.689970313635285 33.7578
29.713003834422636 33.715
29.73603858342347 33.5918
29.759254535188578 33.6016
29.78229175361658 33.5695
29.80533020365064 33.6028
29.82836988641968 33.6091
29.85159081507472 33.4545
29.874632976355343 33.4317
29.89767637376955 33.6128
29.920721008448314 33.4363
29.9439469322847 33.3066
29.96699405457564 33.2257
29.9900424175358 33.3658
30.013092022298157 33.3011
30.03632295963995 33.2108
30.059375061131373 33.2364
30.08242840783577 33.1752
30.105483000888153 33.0829
30.128718970092244 33.1094
30.151776069006917 33.0352
30.17483441768648 32.9858
30.198074175317235 33.001
30.221135036724256 33.0397
30.24419715131772 32.9656
30.267260520236203 32.9708
30.290505341942243 32.9696
30.313571232750228 33.1615
30.336638381310948 33.2235
30.35970678876503 33.0207
30.38295669299435 32.955999999999996
30.40602763151657 32.9405
30.429099832366074 32.9988
30.452173296685572 32.8729
30.47542830191959 32.9278
30.498504306502497 32.8237
30.521581577995562 32.8574
30.544660117543582 32.8555
30.56792024229725 32.8507
30.59100133132069 32.8251
30.614083691845494 32.7903
30.637167325018545 32.7892
30.660432587840603 32.861999999999995
30.683518779717886 32.8297
30.70660624769615 32.9476
30.729694992924372 32.8161
30.75296541239743 32.9218
30.77605672557558 32.9263
30.799149319462742 33.0158
30.8224236211637 32.8477
30.845518789950724 32.7269
30.868615242910597 32.7034
30.891712981195973 32.6078
30.91499247215866 32.4608
30.938092794619365 32.398
30.96119440587579 32.3242
30.984297307082752 32.2921
31.00758200598383 32.0932
31.030687500658694 32.1233
31.053794288760695 32.039
31.076902371446767 31.8413
31.100192296997445 31.9301
31.12330298246119 31.9542
31.14641496599209 31.6772
31.169528248749216 31.7915
31.19282341969534 31.7552
31.215939314557186 31.7256
31.239056512134788 31.7725
31.262175013589378 31.673000000000002
31.28547544871168 31.603
31.30859657161541 31.5305
31.331719001892175 31.5461
31.35484274070538 31.5971
31.378148458819545 31.5894
31.401274828443725 31.5376
31.424402510106933 31.5277
31.447712205419993 31.5399
31.470842524931633 31.3976
31.493974159989783 31.4383
31.51710711176168 31.4712
31.54042212308802 31.5335
31.563557722100917 31.5841
31.586694641341655 31.3198
31.609832881979628 31.3276
31.63315322823208 31.373
31.656294125521327 31.2629
31.679436347728515 31.1959
31.70257989602529 31.0924
31.725905596152327 30.980999999999998
31.74905181052835 30.8636
31.772199354521323 30.9029
31.79534822930507 30.9341
31.818679302290967 30.7946
31.84183085259981 30.8094
31.864983737233473 30.7859
31.88813795736804 30.7713
31.911474422233013 30.6659
31.934631327356435 30.84
31.9577895715215 30.6996
31.980949155906522 30.7336
32.004291031706956 30.7295
32.027453310562606 30.6621
32.05061693318573 30.511
32.07396288236386 30.6805
32.09712920658542 30.5639
32.12029687812702 30.5015
32.14346589817093 30.3861
32.166817291729984 30.2606
32.18998902288583 30.2505
32.21316210610336 30.1451
32.23633654256711 30.006999999999998
32.259693399663725 29.9885
32.282870556771144 29.9828
32.30604907069099 29.9384
32.329228942610065 29.8177
32.35259128243769 29.7439
32.375773884550505 29.7337
32.398957848235646 29.6777
32.422143174682176 29.5774
32.445511016471215 29.4363
32.468699082679954 29.3965
32.49188851523011 29.4118
32.51507931531304 29.3388
32.538452678331 29.2972
32.56164622776311 29.2232
32.58484114831493 29.2227
32.60803744118015 29.2135
32.631416344731896 29.0829
32.654615396551876 29.0372
32.67781582427913 29.0203
32.701198898634416 28.893
32.72440209253756 28.9415
32.747606665947124 28.9861
32.77081262006088 28.8854
32.79420126883317 28.8292
32.81740999876112 28.8255
32.840620112999424 28.7515
32.86383161274818 28.677
32.88722585534586 28.7709
32.91044014056596 28.831
32.933655814909734 28.6979
32.95687287957963 28.6808
32.98027273544904 28.6406
33.00349259526636 28.5021
33.026713849030116 28.5618
33.04993649794511 28.4793
33.073341986570746 28.289
33.09656744032826 28.3894
33.11979429286444 28.4357
33.14302254538647 28.3911
33.166433686291185 28.3007
33.18966475336992 28.2948
33.212897224069096 28.2166
33.23613109959831 28.2454
33.259547912343415 28.1737
33.2827846121627 28.2416
33.306022720453775 28.2096
33.32926223842861 28.0451
33.352684742614166 28.0645
33.37592709463173 28.0512
33.399170859982064 27.971
33.422597648419426 27.9514
33.44584425514446 27.7563
33.46909227885668 27.79
33.4923417207723 27.6907
33.51577423505344 27.6592
33.539026528130385 27.5952
33.56228024307245 27.5134
33.585535381098246 27.4811
33.60897364093058 27.3503
33.63223163992385 27.3461
33.6554910656699 27.2414
33.678751919389796 27.2155
33.702195944520106 27.1799
33.72545966903325 27.2223
33.74872482519663 27.1325
33.771991414233746 27.1247
33.79544122444841 27.0154
33.81871069412428 26.9979
33.84198160035767 26.9631
33.86525394437455 26.9277
33.88870955949969 26.8551
33.911984794020626 26.8385
33.93526147001624 26.8715
33.958539588715006 26.8861
33.98200102861669 26.7539
34.0052820477047 26.7687
34.02856451319451 26.7575
34.05203033759056 26.6862
34.07531571090147 26.5966
34.09860253431845 26.5271
34.121890809074316 26.4954
34.145362493118924 26.4344
34.16865368561615 26.4411
34.191946333164054 26.3352
34.21524043699793 26.3321
34.23871800066799 26.2671
34.26201503218366 26.1702
34.28531352370466 26.1563
34.30861347646881 26.0668
34.33209693978188 26.0762
34.3553998301885 26.096999999999998
34.378704185565205 26.0133
34.402010007152356 25.8882
34.42549939016683 25.8611
34.44880815937748 25.8592
34.472118398533134 25.8593
34.49543010887669 25.8019
34.51892543169198 25.6372
34.54224009966052 25.6639
34.56555624255917 25.6315
34.58887386163339 25.5649
34.61237514439016 25.5592
34.6356957311114 25.6003
34.65901779775809 25.4815
34.68252356662995 25.4335
34.705848608458616 25.4412
34.72917513396849 25.371
34.75250314440949 25.316999999999997
34.77601490857862 25.2952
34.799345904259795 25.2401
34.82267838863559 25.2718
34.846012362958525 25.2146
34.869530142679984 25.1902
34.89286711232212 25.1648
34.91620557568269 25.1248
34.93954553401677 25.0921
34.9630693495876 25.0471
34.986412313340814 24.9962
35.00975677584668 25.0491
35.033102738362956 24.8925
35.05663261012228 24.8682
35.0799815881786 24.9024
35.10333207003229 24.8458
35.12668405694369 24.8255
35.150220005273056 24.78
35.17357501786656 24.8444
35.19693153931268 24.7882
35.220289570874385 24.7194
35.24383161619786 24.7213
35.267192683604904 24.7062
35.290555264930376 24.6132
35.314101899412165 24.5897
35.33746752422433 24.5205
35.36083466676374 24.535999999999998
35.38420332829803 24.5109
35.407756095629054 24.5063
35.43112781085063 24.506999999999998
35.45450104888391 24.4204
35.477875810999194 24.3835
35.50143473172161 24.4381
35.52481255774625 24.4314
35.54819191167777 24.3723
35.57157279478914 24.3075
35.595137889488406 24.2429
35.61852184675279 24.3176
35.641907337029984 24.162
35.665294361595684 24.1779
35.68886565090076 24.0482
35.7122557598848 24.0007
35.73564740699838 24.0481
35.759040593519934 23.9923
35.78261809810353 23.9818
35.80601437933051 23.8565
35.829412203814705 23.7922
35.85281157283719 23.8049
35.876395313415884 23.7874
35.8997977874528 23.6799
35.92320180988546 23.6964
35.946790244133936 23.605
35.97019737933222 23.6501
35.993606066789866 23.6011
36.01701630779276 23.554000000000002
36.04061101440684 23.5546
36.06402437852291 23.5461
36.08743930005611 23.5765
36.1108557802951 23.4877
36.13445678011326 23.3815
36.15787639383515 23.3274
36.18129757014299 23.2458
36.20472031032821 23.3095
36.22832762423364 23.2229
36.25175350829375 23.2132
36.275180960119776 23.1847
36.298609981005924 23.2313
36.32222362992669 23.1846
36.34565580510207 23.1845
36.36908955323448 23.146
36.39252487562093 22.9749
36.416144880530226 22.9993
36.43958336764275 22.9071
36.463023432914625 22.8755
36.486465077645676 22.840999999999998
36.51009145956204 22.9623
36.53353627947859 22.9164
36.55698268276811 22.8774
36.58043067073321 22.7772
36.60406345072071 22.6684
36.62751462435344 22.6675
36.65096738658405 22.7293
36.67460498210655 22.624000000000002
36.69806093788647 22.6701
36.72151848619297 22.5991
36.744977628333636 22.551
36.76862165890998 22.4782
36.79208400512205 22.5222
36.81554794910557 22.5053
36.83901349217101 22.4252
36.862663978991606 22.3623
36.88613273667352 22.3545
36.90960309738324 22.2608
36.933075062434064 22.2191
36.95673202673572 22.2577
36.98020721697122 22.1915
37.003684015502365 22.1084
37.027162423645365 22.0685
37.050825886711465 22.0185
37.07430753063053 21.9919
37.09779078812467 21.9469
37.121275660513014 21.9489
37.144945643673694 21.8442
37.16843376245278 21.8417
37.19192350009803 21.8819
37.215414857931435 21.8527
37.239091382563885 21.7878
37.262585997426164 21.7006
37.28608223645736 21.7728
37.309763684451696 21.7003
37.33326318851098 21.6984
37.356764320726555 21.6129
37.380267082425526 21.662
37.40395510942588 21.5835
37.42746114683234 21.4819
37.45096881771841 21.4607
37.474478123414166 21.4585
37.49817275092816 21.4377
37.52168534303452 21.3865
37.54519957395567 21.3171
37.568715445024665 21.3111
37.592416694607714 21.2473
37.61593586281424 21.3013
37.63945667518264 21.3148
37.66297913304891 21.1561
37.68668702630454 21.1691
37.710212792059274 21.0851
37.733740207334854 21.123
37.757269273470364 21.0377
37.780983832050374 20.971999999999998
37.80451621684926 20.9931
37.82805025654007 20.9317
37.851585952464795 20.9066
37.8753071980695 20.807
37.89884622345676 20.7993
37.92238690911902 20.7621
37.94611318753442 20.6784
37.969657210779765 20.7989
37.99320289834801 20.7346
38.016750251586465 20.6201
38.04048325513017 20.65
38.06403395679343 20.587
38.087586328183946 20.5416
38.11114037065203 20.5372
38.13488012115898 20.5289
38.1584375229181 20.4291
38.181996599821 20.4011
38.205557353221124 20.4191
38.229303872575656 20.4121
38.2528679961576 20.3979
38.27643380031219 20.3714
38.30000128639589 20.3231
38.32375459653193 20.317
38.34732546371299 20.2575
38.37089801690786 20.0439
38.39447225747609 20.1297
38.418232380377425 20.1556
38.441810012983396 20.0731
38.46538933705673 19.9878
38.488970353960084 20.0113
38.51273731166058 20.0133
38.536321731567014 19.9269
38.55990784840681 19.8943
38.58367995004091 19.8067
38.60726947812959 19.7799
38.63086070726198 19.8321
38.654453638806274 19.8456
38.678232613930824 19.733
38.70182896773327 19.7508
38.72542702806741 19.6955
38.7490267963045 19.6662
38.77281266709232 19.6158
38.79641586862214 19.5884
38.8200207821842 19.5572
38.843627409152944 19.5686
38.86742019782782 19.522000000000002
38.891030269149255 19.5004
38.914642058016156 19.4459
38.938255565806124 19.4644
38.96205529464307 19.3605
38.98567225787121 19.3539
39.00929094417078 19.3623
39.03291135492255 19.338
39.05671804624804 19.2914
39.080341923549106 19.2482
39.103967529460334 19.1937
39.127594865365744 19.1659
39.15140854155791 19.1067
39.17503935514948 19.1062
39.19867190290282 19.1471
39.22249083587951 19.0377
39.24612686969409 19.0536
39.269764641845306 19.0683
39.293404153722804 18.9904
39.317230110864074 18.9422
39.34087311998506 18.9089
39.36451787301696 18.8704
39.388164371352595 18.8235
39.41199737518003 18.7779
39.43564738196752 18.7553
39.45929913825317 18.7388
39.48295264543308 18.6921
39.506792718520884 18.6722
39.530449745387216 18.6708
39.55410852735203 18.628
39.57776906581474 18.6197
39.60161623079 18.5709
39.625280300200025 18.5651
39.64894613032202 18.509
39.67261372255866 18.5087
39.6964680021016 18.4367
39.72013913657293 18.3772
39.74381203738292 18.4483
39.76748670593756 18.4304
39.79134812278169 18.3591
39.81502634488497 18.2975
39.83870633896685 18.3095
39.862388106436654 18.2279
39.88625668336918 18.2392
39.90994201572829 18.2082
39.933629125719285 18.0982
39.957503091207826 18.1102
39.9811937746168 18.1765
40.00488623990914 18.0889
40.02858048850006 18.0202
40.05246165409549 17.9661
40.076159487492085 17.9583
40.099859108448875 17.9751
40.123560518384345 17.9793
40.1474489070226 17.98
40.171153913178564 17.8427
40.194860712584955 17.7919
40.2185693066637 17.8114
40.242464941335314 17.8023
40.26617714307655 17.7957
40.289891143772046 17.727999999999998
40.3136069448471 17.7257
40.33750984859743 17.6564
40.3612292688043 17.6835
40.3849504936829 17.5563
40.40867352466194 17.5715
40.43258372059144 17.5673
40.45631038219906 17.5811
40.48003885420956 17.5124
40.503769138055105 17.5642
40.52768664931955 17.4762
40.55142057531802 17.4609
40.57515631746428 17.4517
40.599079334038514 17.3997
40.62281872700477 17.285999999999998
40.64655994043941 17.3116
40.67030297578061 17.2801
40.69423334835778 17.2945
40.71798004609188 17.2371
40.74172857006355 17.1788
40.76547892171441 17.1791
40.7894166736039 17.14
40.813170699248566 17.1283
40.83692655691388 17.0956
40.86068424804498 17.116
40.884629402612525 17.0094
40.908390779366385 17.0645
40.932153993938 16.9948
40.95591904777605 16.9154
40.979871628443995 16.9967
41.003640379561936 16.917
41.02741097430883 16.8882
41.05118341413683 16.8877
41.075143444384416 16.8579
41.098919593177826 16.8686
41.1226975914255 16.765
41.14647744058318 16.7191
41.170444943946755 16.7003
41.19422851378379 16.7351
41.218013938914645 16.6759
41.24198706625173 16.5819
41.26577622087193 16.5457
41.289567235177785 16.5696
41.31336011063129 16.5366
41.337340752422875 16.5248
41.361137369129835 16.4785
41.38493585138705 16.4932
41.40873620066004 16.4476
41.43272438060107 16.4541
41.45652848292052 16.3758
41.48033445666918 16.3016
41.50414230331616 16.3326
41.528138045159764 16.3152
41.551949656675205 16.204
41.575763145513235 16.2451
41.59957851314666 16.2264
41.62358184070442 16.1939
41.64740098505737 16.1705
41.6712220126409 16.0796
41.69504492493139 16.1156
41.71905586207357 16.0862
41.74288256296395 16.0742
41.766711153007456 16.0337
41.79054163368412 15.9711
41.814560204340054 16.0154
41.838394485526365 15.9862
41.86223066180303 15.9151
41.88625497706819 15.8919
41.910094962812 15.8967
41.93393684811168 15.8601
41.95778063445365 15.7994
41.981812625263366 15.7543
42.00566023303407 15.7856
42.029509746323676 15.7322
42.05336116662236 15.7041
42.077400857069705 15.714
42.10125611078846 15.6924
42.12511327600405 15.595
42.14897235421036 15.5887
42.173019768448455 15.5903
42.19688269209613 15.5389
42.22074753323349 15.5186
42.24461429335818 15.43
42.268669455600495 15.4431
42.292540073217886 15.433
42.31641261433284 15.4479
42.34028708044675 15.3951
42.36435001496739 15.3498
42.38822835065557 15.3683
42.41210861586426 15.3498
42.4359908120986 15.3129
42.46006154323262 15.2698
42.48394762115317 15.2391
42.507835634632315 15.2508
42.531912233047436 15.1728
42.55580413732265 15.1963
42.579697981698 15.0831
42.60359376768525 15.0766
42.62767820545945 15.0745
42.65157789440821 15.0636
42.67547952952185 15.0174
42.699383112316 15.0332
42.72347541395347 14.9643
42.74738291190531 14.9327
42.771292362102166 14.964
42.795203766063516 14.9412
42.819303956130405 14.8708
42.843219287476536 14.8694
42.86713657716324 14.8127
42.89105582671383 14.7948
42.91516392983864 14.7673
42.939087119032166 14.7838
42.963012272677304 14.7347
42.98693939230129 14.7213
43.01105543317513 14.6834
43.034986504731386 14.7025
43.05891954686589 14.6341
43.08285456110972 14.6545
43.10697856448665 14.54
43.130917542983475 14.4581
43.15485849820081 14.5221
43.17880143167367 14.5073
43.20293342237094 14.4502
43.226880332449 14.4229
43.25082922540554 14.4426
43.27496722682525 14.3985
43.29892010567796 14.3298
43.32287497204102 14.377
43.34683182745632 14.2976
43.370977859791836 14.3101
43.39493871351105 14.3216
43.41890156092628 14.2599
43.44286640358341 14.1917
43.46702049182749 14.214
43.49098934522816 14.1668
43.51496019852649 14.1867
43.5389330532723 14.1373
43.56309522248204 14.1264
43.58707210044314 14.1193
43.61105098451946 14.0389
43.63503187626491 14.0
43.659202151562134 13.9995
43.68318707902681 13.9947
43.70717401884041 13.9319
43.731162972560874 13.9433
43.75534137913236 13.9126
43.779334381108384 13.8324
43.803329401683186 13.8486
43.82732644241872 13.8803
43.8515130055166 13.8326
43.87551410707659 13.7642
43.89951723350145 13.786
43.923709934595614 13.7509
43.94771713129917 13.6986
43.97172635758096 13.7004
43.99573761501002 13.6742
44.0199385169922 13.6448
44.04395385732619 13.6237
44.067971233533086 13.6413
44.09199064718605 13.6046
44.11619977548961 13.6062
44.14022328470671 13.549000000000001
44.16424883610785 13.5087
44.18827643127035 13.4837
44.21249381139513 13.4581
44.236525514814076 13.4247
44.26055926674478 13.4381
44.28459506876863 13.4159
44.3088207262813 13.3507
44.33286064928722 13.3022
44.35690262714919 13.3475
44.38094666145278 13.3438
44.4051806219871 13.3437
44.42922879003185 13.2508
44.45327901929361 13.2277
44.477331311362136 13.2624
44.501573600619416 13.1901
44.525630039221795 13.1502
44.54968854541895 13.1599
44.573937102200176 13.1218
44.5979997645541 13.064
44.622064499300315 13.0572
44.64613130803592 13.065999999999999
44.67038823869318 13.0402
44.69445921643748 12.9954
44.718532272981385 12.9447
44.742607409926194 12.9946
44.76687274034801 12.9385
44.79095205918753 12.9102
44.81503346325094 12.9282
44.839116954143876 12.8928
44.86339071028742 12.8811
44.88747839599524 12.8225
44.91156817336837 12.7532
44.93566004401666 12.7657
44.959942251908146 12.8104
44.984038330325966 12.7221
45.00813650686762 12.6266
45.03223678314731 12.6833
45.05652746888232 12.66
45.08063196592069 12.6241
45.104738567558705 12.6161
45.128847275414856 12.6131
45.15314646515866 12.5587
45.17725940679741 12.5543
45.20137445952892 12.5459
45.22568004865265 12.5416
45.24979934496396 12.4765
45.27392075725247 12.4643
45.29804428714431 12.4363
45.322358426247604 12.4206
45.346486212804315 12.4048
45.370616121861914 12.3634
45.39474815505086 12.3534
45.41907087049246 12.283
45.4432071734666 12.2768
45.46734560548283 12.3198
45.49148616817604 12.2972
45.51581748638564 12.2646
45.5399623320197 12.2288
45.56410931325473 12.244000000000002
45.58825843173002 12.2166
45.61259837920865 12.1409
45.636751793816 12.1351
45.66090735060093 12.1104
45.68506505120716 12.0832
45.7094136545275 12.0426
45.73357566449271 12.0381
45.75773982322992 12.0139
45.78190613238733 12.0229
45.806263418194064 11.9332
45.83043404997326 11.9898
45.85460683713677 11.9531
45.87897065658495 11.9209
45.90314777634752 11.8741
45.92732705646868 11.8342
45.9515084986045 11.802999999999999
45.97588104735473 11.8432
46.00006683541565 11.7802
46.02425479047904 11.7616
46.04844491420549 11.8067
46.0728262191024 11.7616
46.09702070211635 11.7198
46.12121735879483 11.7179
46.14541619080294 11.7351
46.169806278764455 11.735999999999999
46.194009483459034 11.6556
46.21821486849841 11.5947
46.24242243555223 11.5516
46.266821333570014 11.5836
46.29103328674601 11.5205
46.31524742696538 11.5679
46.33946375590237 11.5222
46.36387149104216 11.4783
46.38809221957392 11.4378
46.41231514186606 11.439
46.436540259597464 11.4372
46.460956858999374 11.4282
46.48518638983522 11.3829
46.509418121166966 11.380999999999998
46.533652054678114 11.3454
46.55807754555709 11.2899
46.58231590571962 11.3045
46.60655647313217 11.2821
46.630988654873654 11.2302
46.655233659129024 11.2154
46.67948087571551 11.1869
46.70373030632484 11.1976
46.72817142736393 11.1861
46.752425308428684 11.1607
46.77668140861147 11.1313
46.80093972960865 11.045
46.82538981736788 11.0857
46.849652602470904 11.0554
46.87391761349769 11.0178
46.8981848521493 11.0251
46.9226439341274 11.0202
46.946915650573224 10.9682
46.97118959976749 10.9299
46.99546578341598 10.9307
47.019933887188216 10.929
47.04421456235744 10.9167
47.06849747711879 10.8857
47.09278263318286 10.8383
47.11725978640143 10.8468
47.14154944775105 10.84
47.165841355555656 10.8124
47.1901355115306 10.7218
47.214621741924994 10.747
47.23892041698887 10.7567
47.26322134538975 10.7126
47.28771440635075 10.6867
47.31201986422527 10.6885
47.33632758061436 10.6538
47.360637557241866 10.628
47.38513974410611 10.6283
47.40945426407847 10.6011
47.43377104948137 10.5937
47.45809010204344 10.575999999999999
47.48260144275502 10.5423
47.506925052572285 10.5578
47.53125093475548 10.519
47.55557909103813 10.5032
47.58009961361992 10.4696
47.60443234110732 10.4449
47.62876734791564 10.4141
47.65310463578333 10.4005
47.6776343683373 10.3673
47.7019762413987 10.338
47.72632040075572 10.3713
47.75066684815169 10.3218
47.77520581885936 10.3319
47.799556865477655 10.3018
47.823910205386 10.2913
47.84826584033272 10.2447
47.87281407745551 10.245999999999999
47.89717432569297 10.2311
47.92153687423484 10.1826
47.94609208429692 10.152999999999999
47.97045925671401 10.1473
47.99482873471275 10.1502
48.01920052005013 10.1622
48.04376504619224 10.1617
48.068141469543484 10.1312
48.09252020552573 10.0954
48.11690125590099 10.0558
48.1414751266064 10.0264
48.16586082917454 10.0207
48.19024885144316 10.0228
48.2146391951793 10.0025
48.239222439012764 9.994489999999999
48.26361744916137 9.9436
48.28801478610016 9.96021
48.31241445160131 9.94614
48.337007097209366 9.93149
48.36141144338331 9.914010000000001
48.38581812345755 9.85314
48.41022713920929 9.824710000000001
48.434829215320704 9.831010000000001
48.45924292604658 9.81656
48.48365897780325 9.80317
48.50807737237308 9.77604
48.532688907799276 9.75573
48.55711201168574 9.74491
48.581537463754074 9.72335
48.60615611725119 9.73545
48.63058628942721 9.73928
48.65501881516546 9.66779
48.6794536962573 9.643930000000001
48.70408185970339 9.62288
48.72852147531801 9.5916
48.75296345168211 9.59112
48.77740779059232 9.58865
48.80204549302823 9.60635
48.82649458091802 9.55483
48.85094603676547 9.55973
48.87539986237231 9.49545
48.90004713292306 9.4985
48.92450572200832 9.481589999999999
48.94896668628025 9.44082
48.97343002754588 9.45009
48.99808689542115 9.38078
49.02255501470614 9.44352
49.04702551642794 9.40775
49.0714984023988 9.391910000000001
49.096164896893235 9.36133
49.120642575466796 9.3542
49.145122643748394 9.361180000000001
49.16960510355558 9.29435
49.19428125404938 9.28412
49.2187685210852 9.29348
49.243258185121555 9.27158
49.26794160167084 9.23046
49.2924360839405 9.19802
49.31693296869764 9.2124
49.34143225776915 9.14766
49.36612538195438 9.16597
49.39062950396021 9.18797
49.41513603578346 9.13295
49.4396449792564 9.12135
49.46434784069503 9.11427
49.488861631846454 9.08341
49.513377840166804 9.06902
49.537896467493745 9.01605
49.56260909589029 8.971160000000001
49.587132585683285 8.994019999999999
49.611658500018365 8.987689999999999
49.636186840738596 8.95933
49.66090926588511 8.969339999999999
49.685442483902584 8.91467
49.70997813385706 8.89002
49.734516217597076 8.87703
49.75924846937352 8.87567
49.7837914452858 8.88053
49.80833686055187 8.82742
49.83288471702571 8.81841
49.85762682540054 8.79331
49.882179588965734 8.76572
49.9067347993235 8.7687
49.93129245833333 8.766110000000001
49.95604445336378 8.75755
49.98060703442832 8.705589999999999
50.005172069746266 8.721919999999999
50.02993150438364 8.705739999999999
50.05450147301533 8.70283
50.07907390151433 8.672039999999999
50.10364879174981 8.67853
50.12841816587289 8.636460000000001
50.1529980044635 8.56682
50.17758031042124 8.6024
50.20216508562089 8.585410000000001
50.22694442953363 8.55291
50.25153416817468 8.58799
50.27612638170508 8.53865
50.300721072005196 8.48815
50.325510416102105 8.503039999999999
50.350110084975064 8.50084
50.37471223628208 8.494860000000001
50.39931687190919 8.451319999999999
50.424116246675766 8.43965
50.44872587605249 8.39811
50.47333799543065 8.39592
50.49795260670191 8.39601
50.52276204271512 8.35656
50.54738166295838 8.31953
50.57200378079314 8.34796
50.596628398116835 8.33252
50.62144792604559 8.32853
50.646077567609396 8.290280000000001
50.670709714377715 8.30213
50.69553683636198 8.25954
50.72017401885922 8.240680000000001
50.7448137122895 8.267380000000001
50.76945591856022 8.23488
50.79429318636823 8.1885
50.818940443716784 8.184569999999999
50.84359021965163 8.175189999999999
50.868242516085964 8.148430000000001
50.893089960641895 8.14997
50.917747323549435 8.11364
50.94240721271973 8.13299
50.96706963007175 8.06264
50.99192728239342 8.06274
51.01659478166073 8.07698
51.04126481489051 8.0471
51.06593738400761 8.04279
51.090805275207074 7.99711
51.11548294172845 8.02876
51.14016314993547 7.99633
51.164845901758845 7.98073
51.18972406304274 7.961539999999999
51.21441192780656 7.90763
51.23910234200271 7.92132
51.2637953075678 7.88311
51.288683770237945 7.866910000000001
51.31338186432707 7.8430100000000005
51.33808251561888 7.80808
51.362978729967345 7.81262
51.387684521509755 7.82322
51.41239287610203 7.80319
51.437103795691165 7.77842
51.46201036644977 7.764360000000001
51.486726441956634 7.7553
51.51144508832545 7.73425
51.536166307509156 7.736619999999999
51.56108326624387 7.6997100000000005
51.58580965706056 7.66251
51.61053862657523 7.64345
51.635270176746864 7.615360000000001
51.66019755512065 7.63395
51.68493429268881 7.64187
51.70967361681515 7.622719999999999
51.73441552946465 7.61493
51.759353359237934 7.565930000000001
51.7841004750961 7.55685
51.80885018539685 7.54125
51.833602492111254 7.580089999999999
51.8585508051424 7.52497
51.883308330926425 7.48185
51.90806845906181 7.521380000000001
51.932831191525715 7.46152
51.95779001977161 7.43818
51.98255798721516 7.42212
52.00732856494335 7.35495
52.03229530577543 7.38249
52.057071130455945 7.36985
52.081849571391054 7.36203
52.106630630568695 7.349069999999999
52.13160794279417 7.3315600000000005
52.15639426492067 7.3158199999999995
52.18118321127822 7.33259
52.205974783860896 7.28127
52.23096269971011 7.26606
52.255759551287994 7.2576
52.280559035098186 7.25593
52.30536115314103 7.20268
52.33035970494467 7.18618
52.35516711807904 7.21285
52.37997717147198 7.17042
52.40478986713005 7.16815
52.42979908731974 7.159860000000001
52.454617094216 7.100910000000001
52.47943774942214 7.118460000000001
52.50426105495102 7.112889999999999
52.529280976059844 7.08807
52.554109609024096 7.0734
52.57894089837482 7.047789999999999
52.60377484613117 7.06014
52.62880550079408 7.0492
52.65364479223379 7.032839999999999
52.67848674816189 7.0072399999999995
52.70352547971946 7.029660000000001
52.72837279155837 7.01907
52.753222773982785 7.01015
52.778075429022984 6.96708
52.80312495150885 6.956180000000001
52.827982978797436 6.94186
52.85284368481815 6.91575
52.87770707160767 6.85853
52.90276741793998 6.9035
52.92763619336701 6.88318
52.952507655698504 6.8375
52.977381806977576 6.8304100000000005
53.00245301017842 6.810630000000001
53.02733256653592 6.811210000000001
53.052214817996074 6.84197
53.077099766608484 6.75628
53.102181859804446 6.7404
53.127072229988265 6.74498
53.15196530349892 6.75663
53.17686108239249 6.71926
53.20195409881522 6.67885
53.22685531582556 6.68905
53.25175924441303 6.71057
53.27666588664027 6.66701
53.30176985962693 6.62437
53.3266819565689 6.63282
53.35159677336455 6.631139999999999
53.376514312083096 6.59238
53.40162927507703 6.60537
53.42655228516116 6.5945
53.45147802340193 6.5508
53.47660125628886 6.55094
53.50153247842639 6.55
53.52646643496923 6.54039
53.55140312799818 6.52418
53.576537409691696 6.51385
53.60147960336152 6.50197
53.626424539786164 6.46138
53.65137222105307 6.4484
53.67651758529126 6.46914
53.70147078399681 6.405819999999999
53.72642673383343 6.4493599999999995
53.75138543689533 6.43329
53.776541917524526 6.40103
53.801506154876755 6.35171
53.826473151763246 6.32377
53.851442910284916 6.32377
53.87661054126026 6.3251800000000005
53.9015858509782 6.304069999999999
53.92656392866066 6.32965
53.95154477641532 6.29686
53.976723591801296 6.264469999999999
54.00171000771266 6.261
54.02669920004598 6.25203
54.051691170915745 6.27499
54.076881204886796 6.19426
54.101878760928514 6.20348
54.12687910187696 6.18214
54.152077577768296 6.16274
54.1770835166946 6.1327
54.20209224691339 6.12408
54.22710377055121 6.13565
54.25231352511594 6.11955
54.27733066384342 6.05175
54.30235060239643 6.09667
54.32737334290836 6.079680000000001
54.35259441062629 5.98625
54.377622783395324 6.00778
54.40265396455061 6.01866
54.42768795623251 5.983569999999999
54.45292037169559 5.93452
54.477960012857906 5.92675
54.50300247099511 5.88877
54.52804774825457 5.9123
54.55329154616743 5.89925
54.57834249018678 5.85693
54.6033962597977 5.82532
54.6284528571545 5.7865
54.653708072335164 5.78415
54.67877035378786 5.7426699999999995
54.70383546947698 5.69998
54.72890342156389 5.68846
54.7541700889442 5.65839
54.77924374251975 5.66556
54.8043202390049 5.65222
54.82959552413022 5.63483
54.8546777351945 5.60003
54.87976279569621 5.59047
54.90485070780914 5.60245
54.930137506558005 5.52059
54.95523115074295 5.59105
54.98032765308844 5.49756
55.005427015775496 5.52426
55.03072536339621 5.47867
55.05583047570572 5.41085
55.080938454927676 5.3843
55.10604930325027 5.40477
55.131359235107396 5.39658
55.15647585066083 5.35142
55.181595341907496 5.31091
55.20671771104285 5.2933900000000005
55.232039262617704 5.28176
55.25716741665048 5.28936
55.28229845518636 5.2733099999999995
55.30743238042802 5.17899
55.33276558731939 5.17891
55.357905315183636 5.1399300000000006
55.383047936390035 5.10625
55.40819345314859 5.04275
55.433538351073295 5.0788
55.458689688238415 5.125369999999999
55.483843927614096 5.044230000000001
55.509197623043605 4.99222
55.53435769621134 4.93724
55.55952067826466 4.9246099999999995
55.5846865714265 4.97607
55.61005202069737 4.88582
55.63522376553902 4.90833
55.66039842818645 4.9145
55.68557601087004 4.85485
55.7109532500271 4.79502
55.73613670233794 4.85798
