TT I
1.2716486653135266 7.782889999999999
1.2939594142134223 7.7885
1.3162702121660406 7.29657
1.3385810600174564 7.37741
1.3608919586137629 7.0102
1.383202908801069 6.22933
1.405513911425503 6.81168
1.4278249673332093 6.3212
1.4501343378461518 6.5187
1.4724455028545926 6.15705
1.4947567236847858 6.55256
1.517068001182951 5.9834
1.5393793361953272 6.28257
1.5616907295681737 5.26146
1.5840021821477681 5.08411
1.60631369478041 5.1893
1.6286252683124185 6.17572
1.6509369035901333 5.376469999999999
1.6732468618895553 5.89515
1.695558623192809 5.41512
1.7178704487808514 5.08854
1.7401823395001077 4.66606
1.7625012545597203 5.15838
1.7848028405262486 5.075880000000001
1.8071218901122095 5.1419
1.8294236121921872 4.8331
1.8517427996910911 5.03846
1.8740620574440425 4.940230000000001
1.8963639900671978 5.01264
1.9186833908139995 4.88019
1.9409854680117449 5.31153
1.9633050151394713 4.42507
1.9856246367570705 4.33447
2.0079269371922672 4.55468
2.03024671027244 4.68317
2.0525491637446027 4.12322
2.074869091674931 4.33477
2.097171701569106 5.0951699999999995
2.1194917877373847 5.0490900000000005
2.141811954326636 4.94373
2.164114805233074 5.1489
2.186435135143035 5.59175
2.208738150935709 13.7256
2.231058647554722 25.6215
2.2533792288321184 19.5722
2.275682498336085 9.31268
2.298003251406138 5.72221
2.3203066942619714 4.97532
2.3426276225136022 4.63341
2.3649486396617507 5.04305
2.387252348930071 4.8272699999999995
2.4095735463442893 5.47335
2.4318774374315884 5.5491
2.4541988185014043 5.652019999999999
2.476502894794693 6.32064
2.498824462909887 5.605230000000001
2.521146125856138 5.92984
2.5434504863470337 6.42023
2.5657723414244717 6.402430000000001
2.588076895590662 7.01244
2.610398946189713 7.525689999999999
2.6327210958598384 6.99373
2.6550259469304716 6.72665
2.6773482972090137 7.510860000000001
2.6996533504259 7.49682
2.7219759047039602 7.39682
2.744298562293959 7.11417
2.7666039251246595 7.756360000000001
2.7889267918020164 8.17276
2.8112323652516555 7.4537
2.833555444408179 7.888719999999999
2.8558786311183852 7.60923
2.8781845268938557 8.36467
2.9005079311721484 8.600589999999999
2.9228140460410397 8.86656
2.9451376712799635 8.95097
2.967444008632326 10.1242
2.9897678582247247 10.0143
3.0120918213106695 10.5971
3.0343984987899373 10.9575
3.0567226913198637 11.0656
3.079029599759726 11.7179
3.101354025127254 12.302999999999999
3.123678568232338 12.7273
3.145985829517914 13.0779
3.16831061055229 13.5801
3.1906181112775593 13.9526
3.212943133635653 14.8587
3.2352682779763207 15.4854
3.2575761442691227 15.613
3.2799015350264273 16.1352
3.302209649240067 16.6107
3.3245352898092655 17.2776
3.3468436553365257 17.6758
3.369169549113219 17.8113
3.3914955708171384 18.3681
3.413804319727358 18.8722
3.4361305997334863 19.3904
3.4584396084414553 19.6329
3.4807661501462652 20.7005
3.503092824025881 21.5898
3.5254022288463154 21.55
3.5477291695206588 22.1162
3.5700388426251948 22.8764
3.5923660534916446 24.461
3.6146934007816114 38.148
3.637003482731501 84.5599
3.6593311053109985 92.0107
3.681641464033634 54.3386
3.7039693653009733 30.8249
3.726297407241705 26.5334
3.7486081875460804 26.0849
3.7709365132734978 26.5476
3.793247578841633 26.8153
3.8155761917550093 27.2556
3.8378875459837216 27.4333
3.8602164494827234 27.9586
3.882545499606844 29.0424
3.9048572932539183 29.4703
3.9271866390645718 29.8654
3.9494987298666713 30.7586
3.971828374764527 30.9992
3.9941581705403255 31.331
4.016470713506008 31.8735
4.038800813471445 32.7883
4.061113662089144 33.0263
4.0834440696459176 34.3407
4.105774632334751 34.6799
4.128087945865126 35.7329
4.150418821249301 36.8452
4.172732448931298 37.8283
4.195063640413578 39.9513
4.2173775856475215 43.9572
4.239709096631102 74.9997
4.262040768704612 224.873
4.284355196706267 294.007
4.306687193387355 190.752
4.329001947444346 78.488
4.35133427213731 49.1927
4.373666762177566 45.599
4.395982011761091 45.3128
4.418314834921175 46.6859
4.44063041906622 53.7857
4.4629635787515625 64.0764
4.4852969080429785 64.0286
4.5076130004776225 55.1664
4.529946671403969 52.4669
4.552263106909177 52.28
4.574597122877047 52.8572
4.596931312711224 53.9446
4.619248269273446 54.5889
4.6415828092605835 55.6352
4.663900117405352 56.592
4.686235010953232 58.3618
4.708552674085913 59.2422
4.730887924602802 60.993
4.753223354952695 62.5925
4.775541557023902 64.6525
4.797877349456786 66.2356
4.820195915032126 67.8642
4.842532072957498 68.9919
4.864868414979744 71.4807
4.88718753227192 73.9261
4.909524244902505 75.8943
4.931843734218147 77.3761
4.954180820867835 80.4317
4.976518095879839 84.14200000000001
4.998838149695359 86.7397
5.021175803844231 90.2841
5.043496238205739 93.9039
5.065834274903528 99.0232
5.088172504230693 105.02600000000001
5.1104935158799565 113.09100000000001
5.132832132875765 138.205
5.155153533596801 183.25099999999998
5.1774925416746225 231.993
5.199814334878411 481.78
5.2221537374521505 1351.72
5.244493338631803 3326.25
5.266815727034316 7243.36
5.289155727832427 11262.3
5.311478517248165 8887.74
5.333818921080011 3541.29
5.356159527788849 767.367
5.3784829252032536 224.798
5.400823940070432 161.967
5.423147747031976 139.545
5.445489173474152 127.4
5.467830807066149 121.36200000000001
5.490155234831516 116.36
5.512497285125229 110.76100000000001
5.534822130975162 108.867
5.557164601388673 106.57799999999999
5.579489868738879 103.735
5.601832762690846 102.302
5.6241758697774475 101.185
5.646501775867269 100.01700000000001
5.668845311622074 99.1002
5.691171647754637 97.7918
5.713515615597765 96.4906
5.735859800852677 95.8462
5.758186788542988 95.7568
5.780531411018185 96.3403
5.802858837297399 95.7722
5.825203900414495 96.2799
5.8475491852224 96.5415
5.869877275883075 96.6492
5.892223006467101 98.2171
5.914551544266608 99.6952
5.936897724049891 103.14200000000001
5.959244129804903 110.95100000000001
5.981573344815301 137.559
6.0039202049061 261.89599999999996
6.026249875609095 575.495
6.04859719346037 1161.01
6.070927323278297 2250.21
6.093275102315365 4019.77
6.115623113320588 4953.64
6.137953938319995 3513.35
6.160302415650845 1247.82
6.182633708324452 310.067
6.2049826554078376 131.292
6.227331838745022 101.0
6.249663839443684 90.9183
6.27201349767565 86.6924
6.294345974611799 91.4667
6.316696111167083 101.694
6.339046488263839 95.7273
6.361379686074702 81.5906
6.383730546639482 74.3126
6.406064229255215 71.3104
6.428415576718203 70.8644
6.450749747566656 69.3337
6.47310158535871 68.3255
6.495453669698332 67.2154
6.517788579421056 66.655
6.540141159237969 65.8008
6.562476565766648 65.1934
6.5848296444934045 64.6924
6.607182974060425 64.5313
6.6295191323281015 64.5162
6.651872965955752 67.5437
6.6742096296068985 91.5536
6.6965639707294615 134.10299999999998
6.71891856698715 132.644
6.741255995248479 92.4384
6.763611104154477 68.6757
6.785949046381137 61.9227
6.808304671371482 60.3524
6.8306605557940046 59.9928
6.852999275508618 59.2115
6.875355681171544 58.5157
6.897694923437771 58.0669
6.92005185377892 58.3487
6.9423916220322655 58.2378
6.964749080490181 57.4374
6.987106804399774 56.9953
7.009447368180821 57.3705
7.031805625367033 56.8706
7.054146723727803 57.1666
7.076505517631004 56.5384
7.098864581288365 56.7402
7.121206488070854 56.1905
7.143566093607822 56.6289
7.165908543567245 56.7332
7.188268694426048 56.7953
7.2106291193438095 56.9536
7.232972390625943 58.3322
7.255333366030969 70.6789
7.277677189091925 120.205
7.300038718428332 163.759
7.322400526130865 136.534
7.344745183422596 87.1961
7.367107550224791 62.827
7.389452767901992 57.8098
7.411815697249891 56.9884
7.434161478756298 55.9182
7.456524974096713 56.0978
7.478888753837185 55.5496
7.501235387657368 55.8961
7.523599738562711 56.122
7.545946944825532 56.2901
7.568311870344528 57.0027
7.5906770845765665 57.0416
7.613025156078678 58.2484
7.635390950099687 59.3771
7.657739602662809 58.7685
7.680105979923558 57.31
7.702472650212829 57.8475
7.724822180948224 57.6901
7.747189439655568 57.7213
7.769539560075357 57.3824
7.791907410653562 58.1199
7.81425812420825 58.042
7.836626570110925 58.2158
7.858995315087906 59.1658
7.881346924933401 59.4467
7.903716270417482 59.9545
7.926068482028405 60.1539
7.948438431475253 61.1915
7.9708086843180235 61.5861
7.993161805171116 62.4356
8.015532667162402 62.4617
8.037886398416653 63.3428
8.060257873014221 64.0577
8.082629655331942 64.8474
8.104984308787587 65.5578
8.127356708900503 68.87899999999999
8.149711981398308 74.4964
8.172085002766314 76.4785
8.194458336181368 73.6854
8.216814543847752 71.167
8.23918850371002 71.6742
8.26154533906492 72.3936
8.283919928836452 74.0216
8.306277395339652 74.5824
8.328652618483376 76.5298
8.351028159736202 78.5406
8.373386579575245 80.9572
8.395762759396959 83.11399999999999
8.418121819038275 88.09
8.440498640894003 101.351
8.462875785192262 116.512
8.485235811156207 134.533
8.507613602688501 189.938
8.529974277114228 299.20099999999996
8.552352719347912 454.491
8.574731488360351 716.447
8.59709314210385 1176.5
8.619472567021075 1705.15
8.64183487789147 2078.45
8.664214962183097 1849.85
8.686577933647762 1159.42
8.708958680784317 471.093
8.731339760774953 196.945
8.753703729764451 122.42299999999999
8.77608547780821 104.99799999999999
8.798450116065078 100.023
8.820832535634787 96.4628
8.843215292401656 94.4148
8.865580941199045 93.09100000000001
8.887964374703538 91.9303
8.910330701447199 93.0678
8.932714815164482 94.9154
8.955099270424924 93.4633
8.977466620733543 90.2121
8.999851761421976 87.7068
9.022219798361645 86.1454
9.04460562795561 86.0996
9.066991803441677 85.6539
9.089360876979615 85.3196
9.111747746589993 85.1813
9.13411751544971 84.4524
9.156505082664324 84.4954
9.178875550323522 84.3886
9.20126381862328 84.3511
9.223652438908596 85.0722
9.246023961427412 85.2812
9.26841328802173 84.2218
9.290785518039224 84.4292
9.313175554425882 85.4187
9.335565947154315 85.3629
9.357939245086508 85.5924
9.380330352834827 85.8226
9.40270436697103 85.8998
9.425096193225055 85.6298
9.447488380180165 86.3674
9.469863475295412 86.4875
9.492256385987508 87.1195
9.514632206018318 87.8218
9.537025843935714 87.8835
9.559402392368193 89.0038
9.581796761000229 90.2815
9.604191496441521 91.3751
9.626569144158516 94.4741
9.648964615551032 98.8064
9.671343000390081 100.257
9.693739211225699 98.2862
9.716135793237463 96.1672
9.738515290448102 95.6754
9.760912617143402 97.0079
9.783292860202891 98.3962
9.805690935076182 99.6602
9.828089385495742 100.58200000000001
9.850470754023561 102.863
9.872869957865444 110.854
9.89525208097539 125.256
9.917652041736662 137.69
9.940052382417589 139.075
9.962435644102392 153.717
9.984836746950979 200.56099999999998
10.007220771957746 282.718
10.029622640473708 401.425
10.052007432299963 581.97
10.074410069984072 843.0980000000001
10.096813093716005 1214.08
10.119199042482517 1604.11
10.141602840636468 1816.92
10.163989564971628 1694.75
10.186394141051062 1083.65
10.208799107559706 514.747
10.231187001965623 242.614
10.253592751657669 144.031
10.275981430388155 120.09899999999999
10.298387966769793 117.652
10.320794897965431 119.85600000000001
10.343184759907361 117.59299999999999
10.36559248305461 111.714
10.387983138083852 108.586
10.410391656691655 113.348
10.432800574501677 127.419
10.455192425893369 147.75
10.47760214443012 177.28599999999997
10.499994797678786 219.72299999999998
10.522405320453982 290.85900000000004
10.54479877906917 387.149
10.567210109595656 480.499
10.5896218454736 539.337
10.612016518879773 517.106
10.634429067781074 382.358
10.656824555333241 227.893
10.679237920773568 137.82399999999998
10.701651695961992 102.40899999999999
10.724048411481384 93.1628
10.746463008485165 89.5543
10.768860546937125 87.8492
10.791275969274796 85.8699
10.81369180576079 84.671
10.836090585366925 83.4299
10.858507252467449 82.3124
10.88090686379991 81.1944
10.903324365036394 80.5552
10.925724811614439 80.5113
10.948143150509463 81.9714
10.970561909719066 80.9681
10.992963615930844 79.28399999999999
11.015383218085756 76.8454
11.037785768347074 75.3408
11.06020621697282 74.77600000000001
11.082627090322113 74.4581
11.105030913430326 73.9743
11.12745263854165 74.327
11.149857314510728 77.4946
11.172279894912576 83.0736
11.194702904450653 83.1861
11.217108866490921 79.4882
11.239532736615194 75.2351
11.26193956033512 73.1607
11.284364294577085 71.8856
11.306789462371718 69.7595
11.329197585398376 69.0597
11.351623622610898 68.7189
11.37403261614354 67.8019
11.396459526308487 67.6416
11.418869393879497 67.7158
11.441297180532617 67.1161
11.463725406927658 66.8427
11.486136592353875 66.5526
11.508565700543707 66.7581
11.530977768845315 68.8715
11.553407762368774 69.6292
11.575838200059769 68.7104
11.598251599479612 66.8989
11.620682927815501 65.4984
11.64309721895548 65.37899999999999
11.665529441478206 65.1668
11.687962112597958 64.7693
11.710377748130886 64.8131
11.732811318753434 64.7261
11.755227854859067 64.7333
11.777662328529495 64.6228
11.800079768750786 64.4505
11.822515149015453 64.2407
11.844950984084935 64.4821
11.867369787303163 64.0747
11.889806534289491 64.1666
11.912226250487029 64.5912
11.934663912939751 64.7168
11.9571020346363 64.7682
11.979523127133968 64.902
12.001962169624331 65.7572
12.024384183972964 67.0026
12.046824150809913 71.0772
12.069264581333726 77.2385
12.091687985297767 84.3393
12.11412934550045 93.4286
12.136553680195208 107.177
12.158995973632788 126.43299999999999
12.181438735204349 150.375
12.20386447284199 175.847
12.226308172985636 197.21200000000002
12.24873485024193 201.963
12.271179492516982 176.166
12.293607112949127 139.945
12.316052700916226 105.514
12.338498763250042 82.6663
12.360927805303868 72.2657
12.383374818673879 68.2806
12.405804812803074 66.5297
12.428252780773262 66.2762
12.45070122756722 66.1588
12.473132656675375 66.0498
12.49558206341869 66.2173
12.518014453510101 66.3153
12.540464823770117 66.4403
12.562915677315177 66.5872
12.58534951575545 67.2714
12.607801338171472 69.2704
12.630236146511358 74.3223
12.652688941369085 78.4886
12.675124723177234 78.9064
12.697578494048786 75.2536
12.720032754458185 71.1314
12.742470003354093 69.9648
12.764925245138771 69.4913
12.787363476431278 70.0235
12.809819703166806 70.3483
12.83227642391173 71.0595
12.854716135692716 71.7527
12.877173846755147 72.7068
12.899614549869717 73.1982
12.9220732548287 74.0364
12.94453245827299 74.4662
12.966974655289818 75.515
12.989434858002571 76.39699999999999
13.011878055298721 76.9879
13.034339260862497 78.1547
13.056800969391883 79.4864
13.079245674017244 81.6006
13.101708390774869 84.7409
13.12415410463411 93.4065
13.146617833206086 106.83
13.169064559883248 121.104
13.191529303857127 137.939
13.213994557076367 160.19299999999998
13.236442809902437 194.321
13.258909083908291 241.435
13.28135835851934 295.51099999999997
13.30382565690295 350.215
13.326293469022952 401.42400000000004
13.348744283242008 420.691
13.371213125129904 378.86199999999997
13.39366497011003 295.742
13.416134845360597 203.378
13.438605238843131 140.71200000000002
13.46105863690397 115.251
13.483530069144786 113.552
13.505984506951902 119.535
13.528456981549432 130.789
13.550929978879088 145.17700000000002
13.573385983253365 166.908
13.595860028340867 199.507
13.618317081455832 242.88099999999997
13.64079217790333 286.69599999999997
13.663250283359057 327.23900000000003
13.685726434770173 353.92400000000004
13.708203115221277 342.66900000000004
13.730662806148091 284.197
13.75314054697177 210.12400000000002
13.775601299246777 144.62
13.798080104050406 106.521
13.820559442405358 89.729
13.843021793671388 84.8741
13.865502201420897 82.7355
13.887965623051947 82.2209
13.910447103807167 80.9716
13.932929122629764 79.675
13.955394156785959 79.1274
13.977877254034569 78.0509
14.000343367582113 77.206
14.022827546871707 76.532
14.045294743423524 75.5973
14.06778000837062 75.0487
14.090265817715476 74.9182
14.112734645763819 74.3906
14.13522154619454 74.3152
14.157691466286913 74.4167
14.180179461423874 74.25399999999999
14.202668005486178 73.3842
14.22513957064374 72.811
14.247629214846473 72.2588
14.270101881097517 72.1404
14.29259262906496 72.5334
14.315083930490205 72.9932
14.337558255389705 73.5282
14.360050666019726 73.0453
14.382526101071944 72.1544
14.405019624534942 71.4426
14.427513705993134 70.9999
14.449990813291825 71.0555
14.47248601302899 70.7903
14.49496423954951 70.8747
14.517460561197822 70.7252
14.539939910570322 70.5729
14.562437357763558 71.0316
14.58493536931253 72.087
14.607416409993311 72.9207
14.62991555254159 73.8428
14.652397725157423 73.3658
14.674898002342799 73.1316
14.697398848433282 72.7407
14.719882725991326 73.5208
14.74238471217934 74.758
14.764869730765593 78.6652
14.787372860692983 82.8928
14.809876564079925 88.3356
14.83236330125751 94.86200000000001
14.854868153850365 103.29700000000001
14.877356041159485 115.815
14.899862046604186 132.465
14.922351087688757 153.345
14.944858249632887 175.958
14.967365991421232 197.854
14.989856770231246 211.71200000000002
15.012365673994204 214.453
15.03485761569738 195.78799999999998
15.05736768508665 160.85
15.07987833888692 126.961
15.102372032001655 98.4367
15.124883856909658 81.4119
15.14737872204565 75.5309
15.169891721717274 72.9684
15.192405310371893 72.8495
15.214901940621196 73.0283
15.237416709527137 73.092
15.259914520936249 73.0112
15.282430473753607 72.1658
15.304947020131227 70.8237
15.327446610371178 69.7819
15.349964346154254 69.0021
15.372465126703139 68.7303
15.394984055556009 68.4456
15.417486030076159 68.3253
15.44000615566487 68.0307
15.462526881230803 68.031
15.485030653812652 68.3087
15.507552581617434 68.0482
15.530057557334603 68.2518
15.55258069104857 67.9974
15.575104429329837 68.095
15.597611216864632 67.6323
15.620136166564563 67.9961
15.6426441664095 69.1965
15.665170331202765 72.0531
15.687697105158826 76.0305
15.710206930593545 80.1731
15.732734925158933 84.9801
15.755245972089478 91.0369
15.77777519094324 99.5756
15.800287463046663 111.697
15.822817909869592 127.40100000000001
15.84534897229804 144.518
15.867863089299354 164.523
15.890395385222186 178.523
15.912910736597423 188.66
15.935444269699861 185.135
15.957978423016485 166.298
15.980495633101265 135.611
16.003031029129367 105.626
16.02554948280019 84.333
16.048086125229432 72.328
16.070623392487107 67.8143
16.09314371869582 66.594
16.11568223789321 65.6195
16.13820381691126 64.1936
16.160743591742527 63.1889
16.183283996022084 62.1353
16.205807461423195 61.2661
16.228349126881973 60.7036
16.25087385432698 60.4943
16.27341678466365 59.9962
16.29594277784926 60.0992
16.31848697676433 60.2233
16.341031811604868 60.5381
16.36355971058487 60.7376
16.3861058195587 60.0781
16.40863499352978 59.1029
16.431182380342005 58.3621
16.453730407713202 57.869
16.476261501364792 57.44
16.498810812136167 57.015
16.52134319004079 57.2274
16.54389378792203 57.2449
16.566445031001553 56.9832
16.588979342490088 56.6509
16.61153187824822 56.5972
16.634067483263312 56.6073
16.656621315414416 56.4879
16.679175797408888 56.1152
16.701713349928728 55.9873
16.72426913389191 56.3733
16.74680798922351 56.4114
16.76936507887444 56.387
16.791905240734874 56.6176
16.814463639794468 56.3951
16.837022695210294 56.2873
16.859564824093756 56.8564
16.882125194503903 57.3818
16.904668639217885 58.1235
16.927230328348003 58.2965
16.949792678493612 58.1657
16.972338104193863 57.7274
16.994901778652235 57.1654
17.017448529496576 57.1851
17.040013531998152 57.4206
17.06257920018044 57.9007
17.0851279459922 58.8571
17.107694947817667 59.8073
17.130245028099072 60.8213
17.15281336730298 62.3047
17.17536478578733 63.8146
17.19793446610687 65.9435
17.220504818648422 68.4503
17.243058251703697 71.0939
17.265629950971032 74.9898
17.288184731571736 78.3784
17.310757781306908 81.9975
17.33333150794385 83.8401
17.355888317140174 83.4241
17.37846339986244 79.8256
17.401021565958885 74.2587
17.42359800851343 68.8224
17.44617513265564 64.8783
17.468735341390783 62.3026
17.491261035594565 61.2734
17.51396340099364 60.8211
17.536490463869136 60.7572
17.559018209820174 60.8611
17.58154663977963 60.8076
17.604251766089718 61.2554
17.626781572227713 61.1794
17.64931206518155 61.6643
17.671843245885103 62.1537
17.69455114821572 62.4363
17.717083712612634 62.6008
17.739616967569667 62.9005
17.762150914021706 63.0194
17.78486160749854 63.0459
17.807396945166804 63.7904
17.829932977143503 64.8856
17.85246970436452 66.5524
17.875183204129467 68.8125
17.897721330097664 71.3308
17.920260154126645 74.0016
17.942799677153296 77.5246
17.9655159983646 80.9769
17.988056927677544 85.94
18.010598558807683 92.8445
18.033140892692916 100.928
18.05586005052525 109.624
18.07840379824407 118.81299999999999
18.10094825154059 127.859
18.12366954819864 136.089
18.146215420998306 140.075
18.16876200220057 136.122
18.191309292745153 124.685
18.214033452627167 112.316
18.236582170236648 99.2169
18.259131600016456 91.3745
18.281681742907335 89.6741
18.304408781233683 91.8668
18.32696035875955 95.2424
18.349512652227624 98.85
18.372065662579683 102.971
18.394795594587553 105.021
18.41735004715306 104.00200000000001
18.43990521943684 99.2301
18.46246111238171 91.5962
18.485193953325208 82.1618
18.507751296070428 73.9116
18.530309362314178 68.9223
18.552868153000343 65.8826
18.57560391815056 64.2338
18.59816416623245 63.7235
18.620725141597372 63.0141
18.643286845190268 62.471000000000004
18.666025549835414 62.0725
18.688588718427933 61.4448
18.711152618092243 61.5759
18.73389353884365 61.2748
18.75645890921984 60.8047
18.77902501351406 60.4116
18.801591852673102 60.2457
18.824335739722738 59.7878
18.846904057212626 59.714
18.8694731124168 59.3341
18.89204290628315 59.4907
18.914789774966803 59.2018
18.937361054791623 58.7726
18.959933076131318 58.6312
18.982505839934877 58.566
19.00525570560582 58.7001
19.027829963004184 58.5112
19.05040496572238 58.6468
19.072980714710468 58.7897
19.095733592739563 58.7431
19.11831084296757 59.4423
19.140888842324735 60.0618
19.16346759176222 60.3389
19.18622349753803 60.7902
19.208803755869358 61.7497
19.231384767143577 62.5793
19.253966532312948 63.8462
19.276725481241822 65.7549
19.29930876296784 67.8074
19.3218928014549 69.9452
19.34465404436217 72.4226
19.36723960516257 75.1193
19.389825925592426 76.4421
19.412413006605938 76.5701
19.43517731967805 74.6542
19.457765930683355 70.709
19.48035530514408 66.4764
19.50294544401556 62.2443
19.525712842708348 59.0127
19.54830451925909 57.2683
19.570896963095727 55.988
19.593490175174704 55.6263
19.616260674962184 55.4578
19.638855432416964 55.192
19.661450960992624 55.3426
19.68404726164677 55.0302
19.706820878021247 54.6728
19.729418731756834 55.0128
19.752017360452857 54.9379
19.77461676506804 55.0255
19.797393513540218 55.1542
19.819994478951667 55.6492
19.84259622316767 56.1836
19.8651987471481 56.6451
19.887978643247177 56.8522
19.91058273574792 57.4586
19.933187610901943 58.0207
19.955969879466828 59.1127
19.97857632894404 60.5175
20.00118356396599 61.8711
20.023791585494575 63.596000000000004
20.046577028914875 65.8277
20.069186632506966 67.6812
20.091797025500632 69.4229
20.114408208858933 70.6945
20.137196842715273 71.0592
20.159809615886765 70.4214
20.18242318232135 68.3811
20.20503754298326 66.5098
20.227829382875154 64.8053
20.250445341109344 63.8991
20.27306209647285 64.0502
20.29567964993108 64.6087
20.31847471147704 65.2513
20.34109387027612 66.0905
20.363713830075454 66.5193
20.386334591841646 65.6865
20.409132890679302 63.64
20.431755265564437 60.739
20.454378445325528 57.9393
20.477002430930366 55.7842
20.499803982716553 54.3203
20.522429589228004 53.3406
20.54505600449589 52.7236
20.567683229489194 52.4206
20.590488049900088 51.9488
20.61311690359731 51.6594
20.63574656993626 51.4882
20.658553853717297 51.0828
20.681185154618298 51.1845
20.703817271080066 50.9616
20.72645020407368 50.4988
20.749260783967177 50.5041
20.771895359337133 50.5189
20.794530754161617 50.3323
20.817166969412938 50.2292
20.83998086114876 50.1851
20.86261872660049 50.0248
20.885257415405402 50.2175
20.90789692853701 50.1077
20.930714147864748 50.2066
20.953355319030678 50.0921
20.97599731745334 49.9971
20.99864014410749 49.9287
21.021460706796564 50.0983
21.044105199328826 50.2319
21.06675052302631 50.4865
21.089396678865015 50.8099
21.112220600704806 50.9189
21.134868430275347 51.1692
21.15751709492456 51.3047
21.180166595629693 51.5831
21.202993892429635 51.8899
21.22564507473034 52.2062
21.24829709602816 52.6479
21.27112693608965 52.7358
21.293780644891275 52.6998
21.316435195634053 52.0958
21.339090589297417 51.5839
21.361923832041875 51.1705
21.384580921090404 50.4158
21.407238856007325 49.9359
21.429897637773326 49.6589
21.45273429906592 49.7347
21.475394784108598 49.7077
21.498056118951983 49.7147
21.520718304578022 49.7422
21.543558400304388 49.9447
21.566222297108816 50.1567
21.58888704765135 50.3925
21.61155265291521 50.7599
21.63439619898156 51.3175
21.657063523335786 51.5603
21.67973170537063 52.1203
21.7024007460706 52.6276
21.72524775840385 53.3108
21.747918526116475 54.2469
21.770590155457388 55.3947
21.79326264741238 56.815
21.816113141960237 58.3401
21.838787368860547 59.7309
21.861462461341976 61.4118
21.884315579735777 63.1547
21.90699241312273 64.5054
21.92967011506078 65.2869
21.95234868653799 66.0563
21.9752053151131 65.2904
21.997885635446785 63.8985
22.020566828293532 61.8822
22.04324889464272 60.0048
22.066109049404666 58.4267
22.088792872571794 57.4698
22.111477572219204 57.2844
22.1341631493376 57.1177
22.157026846313123 57.2212
22.179714188221507 56.8928
22.202402410582668 55.9603
22.22509151438863 54.685
22.24795876962584 53.3867
22.270649646204486 52.4793
22.293341407213727 51.6564
22.316034053646906 50.9136
22.338904883215342 50.6079
22.36159931041458 50.4121
22.38429462602756 50.3664
22.40699083104897 50.2563
22.429865251039757 50.3267
22.452563244831367 50.373999999999995
22.47526213102522 50.2809
22.49813925616515 50.1349
22.520839937143307 50.0382
22.543541513520587 50.0697
22.56624398629403 49.9123
22.589124730075895 49.9928
22.611829005656723 50.2012
22.63453418063466 50.056000000000004
22.657240256008077 50.4045
22.680124634582935 50.4666
22.70283252079775 50.8074
22.725541310413075 51.0969
22.74825100442868 51.4315
22.771139033969575 51.8423
22.79385054687155 51.9662
22.81656296718292 52.5409
22.83927629590484 53.3759
22.862167992606945 54.2771
22.88488314827121 55.3096
22.907599215359284 55.9798
22.93031619487366 57.0396
22.953211574954405 57.7591
22.975930389478226 58.3723
22.998650119445763 58.9931
23.02137076586092 58.6291
23.044269845560063 57.7656
23.06699233506288 56.5053
23.089715744034912 54.8461
23.112617610931565 53.1529
23.135342869061212 51.9337
23.158069049684816 50.7571
23.1807961538087 50.3221
23.20370174880544 50.3175
23.226430710184808 50.2443
23.249160598093425 50.3019
23.271891413539002 50.3246
23.294800752937697 50.299
23.31753343374794 50.5115
23.340267045128353 50.6624
23.36300158808808 51.2138
23.38591468821339 51.4067
23.408651104658304 51.7289
23.431388455719986 52.2693
23.454126742409 52.9975
23.4770436196085 53.8758
23.499783787914662 54.8786
23.522524894889884 55.5529
23.54526694154616 56.3056
23.56818761219047 57.4225
23.59093154860734 57.9308
23.613676427751283 58.6171
23.636422250635754 58.3722
23.659346731118656 57.2996
23.68209445191868 55.8256
23.704843119509587 53.5952
23.72759273490623 51.6616
23.750521041644767 50.266999999999996
23.77327256312355 48.9511
23.796025035462787 48.1524
23.818956224555475 47.5716
23.841710609113413 47.576
23.86446594758979 47.1688
23.887222241002014 47.0008
23.910157285144578 46.5844
23.932915498962537 46.6923
23.955674670778713 46.3671
23.978434801611975 46.3432
24.001373717286125 45.9115
24.024135776723917 45.9462
24.046898798245582 45.9712
24.06966278287146 45.7857
24.092605586582614 45.5448
24.115371508023642 45.4015
24.1381383956401 45.2493
24.16090625045381 45.1853
24.183852958731244 45.1936
24.206622758582608 44.9058
24.229393528706886 44.8001
24.252165270127392 44.8446
24.27511589952438 44.8162
24.297889594216997 44.7921
24.32066426328598 44.4178
24.34343990775613 44.4818
24.36639447485003 44.4674
24.38917208083877 44.4045
24.41195066531332 44.3517
24.43490819850244 44.2909
24.457688750692377 44.1209
24.48047028445616 44.1212
24.503252800821233 44.336999999999996
24.526214300784112 44.2481
24.548998793132213 44.1679
24.57178427117417 44.0659
24.59457073593893 44.1873
24.617536219319863 44.272
24.64032466834748 44.2178
24.663114107195035 44.2332
24.685904536893013 43.8899
24.708874020360852 43.7819
24.731666442613744 43.7865
24.754459858818787 43.6582
24.777254270007962 43.5243
24.80022777025625 43.4487
24.82302418230472 43.3529
24.845821592443674 43.4468
24.86862000170663 43.4765
24.891597535453727 43.2765
24.914397953892728 43.5257
24.93719937456671 43.3973
24.96000179851076 43.6383
24.98298338249997 43.7531
25.00578782394922 43.9244
25.028593271784167 44.0621
25.05157790644186 44.4959
25.07438537804115 44.6165
25.097193859145293 44.7065
25.120003350792075 44.7915
25.142992065061257 45.2127
25.165803588823465 45.382
25.18861612625217 45.6851
25.211429678386736 45.7982
25.234422489079968 45.9844
25.257238081693636 46.0517
25.280054692141732 45.9987
25.3028723214652 45.9779
25.325869245420463 45.8753
25.348688923599397 45.8345
25.371509623787006 45.8376
25.394331347025812 45.7092
25.41733240110666 45.4389
25.440156181590016 45.0054
25.46298098826268 44.5425
25.48580682216873 43.9584
25.50881202326435 43.3139
25.53163992281684 42.9076
25.55446885274561 42.4708
25.577298814096377 42.0839
25.600308179121807 42.0401
25.623140214533745 42.0954
25.64597328451537 41.9164
25.66898578564376 41.6754
25.691820936010206 41.6929
25.714657124097695 41.7219
25.737494350954734 41.7091
25.760511045684957 41.5166
25.783350361364224 41.6553
25.806190718969255 41.6225
25.82903211955018 41.6175
25.852053024868923 41.7152
25.874896522722523 41.8924
25.897741066713106 41.7412
25.920586657892454 41.8505
25.943611790812668 41.94
25.966459487728237 41.9817
25.989308234998564 41.9993
26.01215803367705 42.3367
26.03518741123814 42.3329
26.05803932412957 42.4721
26.080892291600094 42.5783
26.10374631470478 42.6128
26.12677995397268 42.7777
26.14963609978026 42.8529
26.172493304397875 42.586999999999996
26.19535156888223 42.4076
26.218389486949604 42.0542
26.241249882640123 41.8787
26.26411134137826 41.5332
26.28715248187403 41.4024
26.31001607820869 41.3049
26.3328807407756 41.2631
26.35574647063438 41.3091
26.37879191991473 41.2411
26.401659795896734 41.2227
26.424528742360263 41.4217
26.447398760366614 41.71
26.470448535598294 41.7011
26.49332070826805 41.9674
26.516193955675355 42.3183
26.53906827888316 42.3333
26.562122397260108 42.4172
26.584998883685063 42.7215
26.607876449110325 42.878
26.63075509460056 43.0737
26.65381357334404 42.9374
26.67669439061878 43.086000000000006
26.699576291163382 43.1095
26.722459276044212 43.1992
26.745522132402975 42.9012
26.768407297649354 42.7076
26.791293550442003 42.2798
26.814180891848974 42.1081
26.837248143099337 41.6394
26.860137673466657 41.5984
26.88302829566349 41.2979
26.90592001075963 41.1257
26.92899167420566 41.1101
26.951885586870763 40.7795
26.974780595655517 40.5116
26.99785558178161 40.3987
27.020752794605112 40.2695
27.043651106772522 40.052
27.06655051935668 40.0775
27.089629948036183 39.9108
27.112531573292053 39.8776
27.135434302194138 39.9391
27.158338135817015 39.6477
27.181422024430987 39.6558
27.204328079372566 39.6071
27.22723524226965 39.5541
27.250143514198573 39.6183
27.273231880156334 39.7054
27.296142382065014 39.4892
27.319053996245536 39.3548
27.341966723775965 39.5146
27.365059584515222 39.616
27.38797455070062 39.6818
27.410890633481237 39.5299
27.433807833936918 39.4814
27.456905206923906 39.5792
27.47982465472398 39.5469
27.502745223449743 39.6591
27.525666914182825 39.6436
27.548768816912457 39.6759
27.571692763693633 39.6063
27.59461783573812 39.3921
27.617723149491244 39.2703
27.640650484125285 39.303000000000004
27.66357894728264 39.3193
27.686508540048052 39.2243
27.709618414237887 39.2374
27.732550278321757 39.0224
27.755483275279115 38.9499
27.778417406196485 39.0533
27.801531858397514 38.9326
27.824468269376716 38.912
27.847405817586786 38.8643
27.870344504116094 38.9788
27.893463551932008 39.188
27.916404527281053 39.4611
27.93934664422563 39.3194
27.962289903855886 39.2975
27.98541356491974 39.6192
28.00835912214229 39.525999999999996
28.03130582533231 39.8114
28.054253675581805 39.9265
28.077381967556104 39.9154
28.100332124185126 39.9815
28.123283431160893 40.0017
28.146235889577238 40.0483
28.169368830154156 39.6626
28.192323603752033 39.4865
28.215279532083304 39.3442
28.238415973016764 38.9721
28.261374223145094 38.8409
28.284333631303806 38.6678
28.307294198589954 38.6936
28.330435319167677 38.3843
28.353398217078915 38.0234
28.376362277420153 37.7996
28.39932750129032 37.741
28.422473319286713 37.4949
28.44544088262495 37.5152
28.468409612800283 37.3115
28.491379510913497 37.1226
28.51453004413313 37.0213
28.53750229057244 36.8976
28.56047570826344 36.9532
28.583450298308804 36.9523
28.606605564586562 36.595
28.629582511831156 36.6233
28.65256063474956 36.5863
28.675539934446338 36.5631
28.698699951647605 36.5722
28.72168161743193 36.4272
28.74466446331978 36.4746
28.767648490417624 36.5077
28.790813276438353 36.4066
28.813799678527303 36.4313
28.836787265157085 36.3633
28.859955641890075 36.4044
28.882945610203045 36.4862
28.905936766392035 36.2704
28.928929111566863 36.3318
28.952102288520145 36.3033
28.975097024308607 36.2026
28.998092952423807 36.1179
29.021090073977508 35.9195
29.04426806913204 35.7825
29.067267590245258 35.6008
29.090268308143695 35.6064
29.11327022394099 35.4982
29.13645305530891 35.408
29.159457379627167 35.4367
29.18246290519685 35.3129
29.20546963313352 35.1791
29.22865731875826 35.2548
29.25166646419296 35.313
29.27467681535305 35.1327
29.29768837335608 35.285
29.320880931312562 35.1685
29.34389491580634 35.1915
29.366910110507334 35.135999999999996
29.38992651653503 35.09
29.41312396492981 34.9901
29.436142806456754 35.0639
29.45916286268059 34.9988
29.48236399319994 34.8531
29.50538649169417 34.7473
29.528410208259935 34.6244
29.55143514402014 34.4994
29.574641196749695 34.4693
29.597668583816574 34.3356
29.6206971934585 34.1644
29.64372702680042 34.1387
29.666938019934474 33.9545
29.689970313635285 33.9378
29.713003834422636 33.923
29.73603858342347 33.9225
29.759254535188578 33.7054
29.78229175361658 33.8103
29.80533020365064 33.8122
29.82836988641968 33.8652
29.85159081507472 33.6592
29.874632976355343 33.6865
29.89767637376955 33.6982
29.920721008448314 33.5393
29.9439469322847 33.4541
29.96699405457564 33.5396
29.9900424175358 33.5799
30.013092022298157 33.5588
30.03632295963995 33.2733
30.059375061131373 33.3824
30.08242840783577 33.5063
30.105483000888153 33.501999999999995
30.128718970092244 33.3185
30.151776069006917 33.2847
30.17483441768648 33.2933
30.198074175317235 33.2039
30.221135036724256 33.2479
30.24419715131772 33.1689
30.267260520236203 33.2207
30.290505341942243 33.2551
30.313571232750228 33.3072
30.336638381310948 33.2308
30.35970678876503 33.0859
30.38295669299435 33.0404
30.40602763151657 33.0609
30.429099832366074 33.0955
30.452173296685572 33.0133
30.47542830191959 32.9811
30.498504306502497 32.9958
30.521581577995562 32.9916
30.544660117543582 33.0134
30.56792024229725 32.9847
30.59100133132069 33.0575
30.614083691845494 32.9793
30.637167325018545 33.0468
30.660432587840603 33.1067
30.683518779717886 32.9826
30.70660624769615 33.0254
30.729694992924372 33.1034
30.75296541239743 33.0573
30.77605672557558 32.9703
30.799149319462742 33.0015
30.8224236211637 32.8785
30.845518789950724 32.7563
30.868615242910597 32.8747
30.891712981195973 32.6455
30.91499247215866 32.4878
30.938092794619365 32.4678
30.96119440587579 32.3962
30.984297307082752 32.2202
31.00758200598383 32.1522
31.030687500658694 32.1556
31.053794288760695 32.056999999999995
31.076902371446767 31.8792
31.100192296997445 32.0075
31.12330298246119 31.9868
31.14641496599209 31.8306
31.169528248749216 31.8074
31.19282341969534 31.7726
31.215939314557186 31.7288
31.239056512134788 31.9148
31.262175013589378 31.781999999999996
31.28547544871168 31.7465
31.30859657161541 31.6567
31.331719001892175 31.8062
31.35484274070538 31.826
31.378148458819545 31.7609
31.401274828443725 31.7656
31.424402510106933 31.79
31.447712205419993 31.748
31.470842524931633 31.5569
31.493974159989783 31.6312
31.51710711176168 31.6356
31.54042212308802 31.6678
31.563557722100917 31.5752
31.586694641341655 31.4237
31.609832881979628 31.433000000000003
31.63315322823208 31.3587
31.656294125521327 31.1941
31.679436347728515 31.0312
31.70257989602529 31.0734
31.725905596152327 31.1379
31.74905181052835 31.0027
31.772199354521323 31.1992
31.79534822930507 31.0163
31.818679302290967 30.9121
31.84183085259981 30.9036
31.864983737233473 30.8902
31.88813795736804 30.9568
31.911474422233013 30.9286
31.934631327356435 30.9283
31.9577895715215 30.8518
31.980949155906522 30.8098
32.004291031706956 30.9085
32.027453310562606 30.7579
32.05061693318573 30.5496
32.07396288236386 30.6351
32.09712920658542 30.5927
32.12029687812702 30.4115
32.14346589817093 30.3025
32.166817291729984 30.2986
32.18998902288583 30.3146
32.21316210610336 30.2068
32.23633654256711 30.1407
32.259693399663725 30.0799
32.282870556771144 29.9552
32.30604907069099 30.0038
32.329228942610065 30.0262
32.35259128243769 29.8212
32.375773884550505 29.7771
32.398957848235646 29.7817
32.422143174682176 29.7168
32.445511016471215 29.5662
32.468699082679954 29.5409
32.49188851523011 29.5491
32.51507931531304 29.4572
32.538452678331 29.3487
32.56164622776311 29.3591
32.58484114831493 29.2645
32.60803744118015 29.2741
32.631416344731896 29.2876
32.654615396551876 29.2487
32.67781582427913 29.1511
32.701198898634416 29.1687
32.72440209253756 29.0713
32.747606665947124 29.0968
32.77081262006088 28.9625
32.79420126883317 28.934
32.81740999876112 28.9443
32.840620112999424 28.8944
32.86383161274818 28.8161
32.88722585534586 28.7932
32.91044014056596 28.9537
32.933655814909734 28.8791
32.95687287957963 28.8158
32.98027273544904 28.6745
33.00349259526636 28.685
33.026713849030116 28.697
33.04993649794511 28.6699
33.073341986570746 28.576
33.09656744032826 28.5937
33.11979429286444 28.5825
33.14302254538647 28.5691
33.166433686291185 28.4973
33.18966475336992 28.3283
33.212897224069096 28.3136
33.23613109959831 28.3012
33.259547912343415 28.3502
33.2827846121627 28.3012
33.306022720453775 28.1955
33.32926223842861 28.1637
33.352684742614166 28.1072
33.37592709463173 28.1616
33.399170859982064 28.0988
33.422597648419426 27.9551
33.44584425514446 27.8106
33.46909227885668 27.8626
33.4923417207723 27.6901
33.51577423505344 27.7192
33.539026528130385 27.7124
33.56228024307245 27.7008
33.585535381098246 27.5476
33.60897364093058 27.4988
33.63223163992385 27.519000000000002
33.6554910656699 27.4221
33.678751919389796 27.4405
33.702195944520106 27.3796
33.72545966903325 27.3676
33.74872482519663 27.2273
33.771991414233746 27.3115
33.79544122444841 27.2908
33.81871069412428 27.1054
33.84198160035767 27.0502
33.86525394437455 27.0581
33.88870955949969 27.0655
33.911984794020626 27.0341
33.93526147001624 26.979
33.958539588715006 26.9915
33.98200102861669 26.8291
34.0052820477047 26.7659
34.02856451319451 26.6924
34.05203033759056 26.660999999999998
34.07531571090147 26.6999
34.09860253431845 26.6336
34.121890809074316 26.6485
34.145362493118924 26.6123
34.16865368561615 26.5641
34.191946333164054 26.5
34.21524043699793 26.4378
34.23871800066799 26.4403
34.26201503218366 26.3239
34.28531352370466 26.4242
34.30861347646881 26.2898
34.33209693978188 26.2468
34.3553998301885 26.2952
34.378704185565205 26.2038
34.402010007152356 26.0744
34.42549939016683 26.0346
34.44880815937748 25.9596
34.472118398533134 26.0163
34.49543010887669 25.932
34.51892543169198 25.8412
34.54224009966052 25.8635
34.56555624255917 25.8594
34.58887386163339 25.7436
34.61237514439016 25.6772
34.6356957311114 25.6084
34.65901779775809 25.6223
34.68252356662995 25.6192
34.705848608458616 25.5572
34.72917513396849 25.4917
34.75250314440949 25.5115
34.77601490857862 25.4341
34.799345904259795 25.3765
34.82267838863559 25.3853
34.846012362958525 25.4077
34.869530142679984 25.3202
34.89286711232212 25.2501
34.91620557568269 25.2425
34.93954553401677 25.2206
34.9630693495876 25.1976
34.986412313340814 25.2093
35.00975677584668 25.2203
35.033102738362956 25.0462
35.05663261012228 25.0212
35.0799815881786 24.9854
35.10333207003229 24.939
35.12668405694369 24.9405
35.150220005273056 24.9686
35.17357501786656 24.9002
35.19693153931268 24.8855
35.220289570874385 24.7686
35.24383161619786 24.8478
35.267192683604904 24.8028
35.290555264930376 24.7763
35.314101899412165 24.6643
35.33746752422433 24.7259
35.36083466676374 24.7198
35.38420332829803 24.6091
35.407756095629054 24.6269
35.43112781085063 24.6749
35.45450104888391 24.5775
35.477875810999194 24.6014
35.50143473172161 24.5723
35.52481255774625 24.5102
35.54819191167777 24.4622
35.57157279478914 24.485
35.595137889488406 24.3826
35.61852184675279 24.2592
35.641907337029984 24.2254
35.665294361595684 24.2288
35.68886565090076 24.1542
35.7122557598848 24.0881
35.73564740699838 24.1095
35.759040593519934 24.0627
35.78261809810353 24.0413
35.80601437933051 23.9341
35.829412203814705 23.926
35.85281157283719 23.8439
35.876395313415884 23.9373
35.8997977874528 23.818
35.92320180988546 23.7731
35.946790244133936 23.6589
35.97019737933222 23.7666
35.993606066789866 23.7311
36.01701630779276 23.6526
36.04061101440684 23.6444
36.06402437852291 23.6211
36.08743930005611 23.6017
36.1108557802951 23.503
36.13445678011326 23.4804
36.15787639383515 23.4399
36.18129757014299 23.4133
36.20472031032821 23.3471
36.22832762423364 23.2842
36.25175350829375 23.2967
36.275180960119776 23.1829
36.298609981005924 23.2745
36.32222362992669 23.3748
36.34565580510207 23.2517
36.36908955323448 23.2132
36.39252487562093 23.0625
36.416144880530226 23.0209
36.43958336764275 23.1038
36.463023432914625 23.0206
36.486465077645676 23.011
36.51009145956204 23.033
36.53353627947859 23.0155
36.55698268276811 22.9771
36.58043067073321 22.8853
36.60406345072071 22.7592
36.62751462435344 22.8177
36.65096738658405 22.7858
36.67460498210655 22.7087
36.69806093788647 22.7321
36.72151848619297 22.6453
36.744977628333636 22.623
36.76862165890998 22.5714
36.79208400512205 22.5396
36.81554794910557 22.5053
36.83901349217101 22.4624
36.862663978991606 22.4347
36.88613273667352 22.4115
36.90960309738324 22.4062
36.933075062434064 22.3075
36.95673202673572 22.3053
36.98020721697122 22.205
37.003684015502365 22.1673
37.027162423645365 22.1793
37.050825886711465 22.0896
37.07430753063053 22.0985
37.09779078812467 22.1151
37.121275660513014 22.0529
37.144945643673694 22.0251
37.16843376245278 21.9813
37.19192350009803 22.0325
37.215414857931435 21.9848
37.239091382563885 21.8132
37.262585997426164 21.7883
37.28608223645736 21.7459
37.309763684451696 21.8333
37.33326318851098 21.724
37.356764320726555 21.7292
37.380267082425526 21.7442
37.40395510942588 21.686999999999998
37.42746114683234 21.584
37.45096881771841 21.5611
37.474478123414166 21.5892
37.49817275092816 21.5271
37.52168534303452 21.4743
37.54519957395567 21.3938
37.568715445024665 21.384
37.592416694607714 21.3481
37.61593586281424 21.3835
37.63945667518264 21.3516
37.66297913304891 21.2582
37.68668702630454 21.2418
37.710212792059274 21.1254
37.733740207334854 21.1458
37.757269273470364 21.1764
37.780983832050374 21.1221
37.80451621684926 21.1393
37.82805025654007 21.0491
37.851585952464795 20.9731
37.8753071980695 20.9507
37.89884622345676 20.8334
37.92238690911902 20.863000000000003
37.94611318753442 20.8368
37.969657210779765 20.8254
37.99320289834801 20.8214
38.016750251586465 20.7813
38.04048325513017 20.7806
38.06403395679343 20.6681
38.087586328183946 20.6443
38.11114037065203 20.6259
38.13488012115898 20.6856
38.1584375229181 20.5635
38.181996599821 20.4887
38.205557353221124 20.5302
38.229303872575656 20.5531
38.2528679961576 20.4886
38.27643380031219 20.4006
38.30000128639589 20.3276
38.32375459653193 20.3573
38.34732546371299 20.3675
38.37089801690786 20.2762
38.39447225747609 20.2588
38.418232380377425 20.213
38.441810012983396 20.246
38.46538933705673 20.1791
38.488970353960084 20.1224
38.51273731166058 20.1055
38.536321731567014 20.102
38.55990784840681 20.0298
38.58367995004091 19.9628
38.60726947812959 19.9251
38.63086070726198 19.8952
38.654453638806274 19.9128
38.678232613930824 19.8796
38.70182896773327 19.7915
38.72542702806741 19.7704
38.7490267963045 19.7818
38.77281266709232 19.7658
38.79641586862214 19.7294
38.8200207821842 19.6498
38.843627409152944 19.6393
38.86742019782782 19.6418
38.891030269149255 19.5906
38.914642058016156 19.5371
38.938255565806124 19.5417
38.96205529464307 19.4763
38.98567225787121 19.4808
39.00929094417078 19.4356
39.03291135492255 19.4545
39.05671804624804 19.3532
39.080341923549106 19.2983
39.103967529460334 19.3059
39.127594865365744 19.2643
39.15140854155791 19.2143
39.17503935514948 19.1843
39.19867190290282 19.1826
39.22249083587951 19.1341
39.24612686969409 19.1092
39.269764641845306 19.1217
39.293404153722804 19.08
39.317230110864074 19.0014
39.34087311998506 18.9131
39.36451787301696 18.9854
39.388164371352595 18.8897
39.41199737518003 18.8988
39.43564738196752 18.8518
39.45929913825317 18.8031
39.48295264543308 18.7671
39.506792718520884 18.7935
39.530449745387216 18.7138
39.55410852735203 18.6971
39.57776906581474 18.747
39.60161623079 18.6997
39.625280300200025 18.66
39.64894613032202 18.5662
39.67261372255866 18.5491
39.6964680021016 18.6042
39.72013913657293 18.5777
39.74381203738292 18.5909
39.76748670593756 18.4727
39.79134812278169 18.3895
39.81502634488497 18.3951
39.83870633896685 18.3622
39.862388106436654 18.3377
39.88625668336918 18.287
39.90994201572829 18.2652
39.933629125719285 18.2071
39.957503091207826 18.227999999999998
39.9811937746168 18.2348
40.00488623990914 18.1764
40.02858048850006 18.0775
40.05246165409549 18.0956
40.076159487492085 18.0096
40.099859108448875 18.0102
40.123560518384345 18.0357
40.1474489070226 18.0445
40.171153913178564 17.9817
40.194860712584955 17.9073
40.2185693066637 17.9256
40.242464941335314 17.8498
40.26617714307655 17.848
40.289891143772046 17.8459
40.3136069448471 17.7923
40.33750984859743 17.7438
40.3612292688043 17.7696
40.3849504936829 17.6833
40.40867352466194 17.7732
40.43258372059144 17.6742
40.45631038219906 17.65
40.48003885420956 17.5779
40.503769138055105 17.6485
40.52768664931955 17.5771
40.55142057531802 17.5563
40.57515631746428 17.5637
40.599079334038514 17.483
40.62281872700477 17.4041
40.64655994043941 17.3556
40.67030297578061 17.3072
40.69423334835778 17.3863
40.71798004609188 17.3352
40.74172857006355 17.2521
40.76547892171441 17.2663
40.7894166736039 17.1959
40.813170699248566 17.1547
40.83692655691388 17.1509
40.86068424804498 17.2092
40.884629402612525 17.1604
40.908390779366385 17.0778
40.932153993938 17.0801
40.95591904777605 17.0533
40.979871628443995 17.0689
41.003640379561936 17.0012
41.02741097430883 16.98
41.05118341413683 16.9461
41.075143444384416 16.9465
41.098919593177826 16.9415
41.1226975914255 16.8951
41.14647744058318 16.8313
41.170444943946755 16.7748
41.19422851378379 16.8118
41.218013938914645 16.695
41.24198706625173 16.7336
41.26577622087193 16.7155
41.289567235177785 16.6719
41.31336011063129 16.6336
41.337340752422875 16.631
41.361137369129835 16.6215
41.38493585138705 16.5262
41.40873620066004 16.5464
41.43272438060107 16.4653
41.45652848292052 16.4297
41.48033445666918 16.4239
41.50414230331616 16.4115
41.528138045159764 16.4584
41.551949656675205 16.3646
41.575763145513235 16.282
41.59957851314666 16.2838
41.62358184070442 16.2903
41.64740098505737 16.1879
41.6712220126409 16.2306
41.69504492493139 16.2389
41.71905586207357 16.1736
41.74288256296395 16.1052
41.766711153007456 16.0805
41.79054163368412 16.0816
41.814560204340054 16.08
41.838394485526365 16.0352
41.86223066180303 15.9999
41.88625497706819 15.988
41.910094962812 15.9572
41.93393684811168 15.9198
41.95778063445365 15.8379
41.981812625263366 15.8507
42.00566023303407 15.7963
42.029509746323676 15.7917
42.05336116662236 15.821
42.077400857069705 15.7737
42.10125611078846 15.7413
42.12511327600405 15.6278
42.14897235421036 15.6477
42.173019768448455 15.6972
42.19688269209613 15.5622
42.22074753323349 15.5982
42.24461429335818 15.6008
42.268669455600495 15.5371
42.292540073217886 15.5311
42.31641261433284 15.5391
42.34028708044675 15.4836
42.36435001496739 15.460999999999999
42.38822835065557 15.4012
42.41210861586426 15.3685
42.4359908120986 15.3818
42.46006154323262 15.3487
42.48394762115317 15.312999999999999
42.507835634632315 15.2982
42.531912233047436 15.2455
42.55580413732265 15.2279
42.579697981698 15.284
42.60359376768525 15.1944
42.62767820545945 15.1655
42.65157789440821 15.1614
42.67547952952185 15.1375
42.699383112316 15.0816
42.72347541395347 15.0029
42.74738291190531 15.0041
42.771292362102166 15.0246
42.795203766063516 14.9661
42.819303956130405 14.963
42.843219287476536 14.927
42.86713657716324 14.9388
42.89105582671383 14.8615
42.91516392983864 14.8682
42.939087119032166 14.8428
42.963012272677304 14.7679
42.98693939230129 14.7914
43.01105543317513 14.7952
43.034986504731386 14.7523
43.05891954686589 14.718
43.08285456110972 14.7078
43.10697856448665 14.6824
43.130917542983475 14.5967
43.15485849820081 14.6098
43.17880143167367 14.5778
43.20293342237094 14.5188
43.226880332449 14.5311
43.25082922540554 14.4826
43.27496722682525 14.4695
43.29892010567796 14.4528
43.32287497204102 14.4745
43.34683182745632 14.401
43.370977859791836 14.3727
43.39493871351105 14.379000000000001
43.41890156092628 14.3687
43.44286640358341 14.2938
43.46702049182749 14.2356
43.49098934522816 14.1969
43.51496019852649 14.2557
43.5389330532723 14.2308
43.56309522248204 14.1852
43.58707210044314 14.1867
43.61105098451946 14.1198
43.63503187626491 14.0804
43.659202151562134 14.0872
43.68318707902681 14.0551
43.70717401884041 14.0159
43.731162972560874 13.998
43.75534137913236 14.0073
43.779334381108384 13.9485
43.803329401683186 13.914000000000001
43.82732644241872 13.9065
43.8515130055166 13.9264
43.87551410707659 13.8851
43.89951723350145 13.8984
43.923709934595614 13.8223
43.94771713129917 13.8466
43.97172635758096 13.7949
43.99573761501002 13.7288
44.0199385169922 13.720999999999998
44.04395385732619 13.6909
44.067971233533086 13.6692
44.09199064718605 13.6302
44.11619977548961 13.6054
44.14022328470671 13.5477
44.16424883610785 13.552
44.18827643127035 13.5778
44.21249381139513 13.5419
44.236525514814076 13.5405
44.26055926674478 13.4992
44.28459506876863 13.4564
44.3088207262813 13.4291
44.33286064928722 13.4132
44.35690262714919 13.3869
44.38094666145278 13.3386
44.4051806219871 13.3595
44.42922879003185 13.324000000000002
44.45327901929361 13.3177
44.477331311362136 13.2887
44.501573600619416 13.2093
44.525630039221795 13.1841
44.54968854541895 13.1827
44.573937102200176 13.2372
44.5979997645541 13.1922
44.622064499300315 13.1225
44.64613130803592 13.1152
44.67038823869318 13.1122
44.69445921643748 13.0451
44.718532272981385 13.0094
44.742607409926194 13.0192
44.76687274034801 12.9836
44.79095205918753 12.9758
44.81503346325094 12.9271
44.839116954143876 12.9352
44.86339071028742 12.9086
44.88747839599524 12.8489
44.91156817336837 12.7846
44.93566004401666 12.7996
44.959942251908146 12.8249
44.984038330325966 12.7986
45.00813650686762 12.7736
45.03223678314731 12.7651
45.05652746888232 12.7153
45.08063196592069 12.6967
45.104738567558705 12.7147
45.128847275414856 12.7027
45.15314646515866 12.6333
45.17725940679741 12.6442
45.20137445952892 12.5974
45.22568004865265 12.5417
45.24979934496396 12.5702
45.27392075725247 12.4871
45.29804428714431 12.5101
45.322358426247604 12.493
45.346486212804315 12.4951
45.370616121861914 12.4319
45.39474815505086 12.4303
45.41907087049246 12.4396
45.4432071734666 12.3684
45.46734560548283 12.3506
45.49148616817604 12.3134
45.51581748638564 12.3019
45.5399623320197 12.2786
45.56410931325473 12.2676
45.58825843173002 12.2925
45.61259837920865 12.2463
45.636751793816 12.2112
45.66090735060093 12.155999999999999
45.68506505120716 12.1197
45.7094136545275 12.0911
45.73357566449271 12.0686
45.75773982322992 12.0345
45.78190613238733 12.088
45.806263418194064 11.9962
45.83043404997326 12.0136
45.85460683713677 12.0226
45.87897065658495 11.959000000000001
45.90314777634752 11.9459
45.92732705646868 11.927
45.9515084986045 11.913
45.97588104735473 11.9164
46.00006683541565 11.913
46.02425479047904 11.8959
46.04844491420549 11.8783
46.0728262191024 11.8529
46.09702070211635 11.8181
46.12121735879483 11.7882
46.14541619080294 11.7635
46.169806278764455 11.7331
46.194009483459034 11.7367
46.21821486849841 11.665
46.24242243555223 11.6265
46.266821333570014 11.6281
46.29103328674601 11.6097
46.31524742696538 11.6146
46.33946375590237 11.5998
46.36387149104216 11.575999999999999
46.38809221957392 11.540999999999999
46.41231514186606 11.543
46.436540259597464 11.5416
46.460956858999374 11.4953
46.48518638983522 11.4464
46.509418121166966 11.3868
46.533652054678114 11.4075
46.55807754555709 11.3963
46.58231590571962 11.3912
46.60655647313217 11.3226
46.630988654873654 11.3135
46.655233659129024 11.295
46.67948087571551 11.3032
46.70373030632484 11.2765
46.72817142736393 11.2251
46.752425308428684 11.2263
46.77668140861147 11.2036
46.80093972960865 11.1253
46.82538981736788 11.13
46.849652602470904 11.1322
46.87391761349769 11.1365
46.8981848521493 11.0802
46.9226439341274 11.0709
46.946915650573224 11.0421
46.97118959976749 10.9969
46.99546578341598 11.0157
47.019933887188216 10.9859
47.04421456235744 10.9771
47.06849747711879 10.9934
47.09278263318286 10.9758
47.11725978640143 10.8787
47.14154944775105 10.8683
47.165841355555656 10.8509
47.1901355115306 10.872
47.214621741924994 10.8727
47.23892041698887 10.8337
47.26322134538975 10.7644
47.28771440635075 10.7782
47.31201986422527 10.7376
47.33632758061436 10.6875
47.360637557241866 10.7379
47.38513974410611 10.7326
47.40945426407847 10.6809
47.43377104948137 10.68
47.45809010204344 10.6311
47.48260144275502 10.6137
47.506925052572285 10.5937
47.53125093475548 10.5908
47.55557909103813 10.5471
47.58009961361992 10.5139
47.60443234110732 10.5176
47.62876734791564 10.4614
47.65310463578333 10.4375
47.6776343683373 10.4616
47.7019762413987 10.4152
47.72632040075572 10.3857
47.75066684815169 10.4109
47.77520581885936 10.4016
47.799556865477655 10.3657
47.823910205386 10.3451
47.84826584033272 10.324000000000002
47.87281407745551 10.315
47.89717432569297 10.3343
47.92153687423484 10.2857
47.94609208429692 10.2623
47.97045925671401 10.2376
47.99482873471275 10.2112
48.01920052005013 10.1794
48.04376504619224 10.1498
48.068141469543484 10.1718
48.09252020552573 10.1865
48.11690125590099 10.1431
48.1414751266064 10.0991
48.16586082917454 10.0952
48.19024885144316 10.0704
48.2146391951793 10.0271
48.239222439012764 10.0198
48.26361744916137 10.0078
48.28801478610016 10.0269
48.31241445160131 10.0139
48.337007097209366 9.970989999999999
48.36141144338331 9.93175
48.38581812345755 9.909510000000001
48.41022713920929 9.886660000000001
48.434829215320704 9.89209
48.45924292604658 9.866719999999999
48.48365897780325 9.878960000000001
48.50807737237308 9.833639999999999
48.532688907799276 9.839360000000001
48.55711201168574 9.82393
48.581537463754074 9.807789999999999
48.60615611725119 9.7812
48.63058628942721 9.75562
48.65501881516546 9.70233
48.6794536962573 9.69321
48.70408185970339 9.666910000000001
48.72852147531801 9.66009
48.75296345168211 9.627
48.77740779059232 9.662469999999999
48.80204549302823 9.6334
48.82649458091802 9.60524
48.85094603676547 9.57392
48.87539986237231 9.552589999999999
48.90004713292306 9.52973
48.92450572200832 9.54905
48.94896668628025 9.4983
48.97343002754588 9.51106
48.99808689542115 9.46675
49.02255501470614 9.432960000000001
49.04702551642794 9.45228
49.0714984023988 9.426210000000001
49.096164896893235 9.4259
49.120642575466796 9.40428
49.145122643748394 9.37862
49.16960510355558 9.35555
49.19428125404938 9.357619999999999
49.2187685210852 9.32288
49.243258185121555 9.26512
49.26794160167084 9.285060000000001
49.2924360839405 9.22707
49.31693296869764 9.23437
49.34143225776915 9.2306
49.36612538195438 9.180639999999999
49.39062950396021 9.18925
49.41513603578346 9.16543
49.4396449792564 9.13275
49.46434784069503 9.12241
49.488861631846454 9.11409
49.513377840166804 9.09534
49.537896467493745 9.07807
49.56260909589029 9.07671
49.587132585683285 9.07961
49.611658500018365 9.04541
49.636186840738596 8.99115
49.66090926588511 8.97761
49.685442483902584 8.98956
49.70997813385706 8.94909
49.734516217597076 8.928339999999999
49.75924846937352 8.92378
49.7837914452858 8.86473
49.80833686055187 8.88926
49.83288471702571 8.871260000000001
49.85762682540054 8.87097
49.882179588965734 8.845839999999999
49.9067347993235 8.81443
49.93129245833333 8.79326
49.95604445336378 8.76559
49.98060703442832 8.806230000000001
50.005172069746266 8.80287
50.02993150438364 8.75805
50.05450147301533 8.72713
50.07907390151433 8.71274
50.10364879174981 8.67583
50.12841816587289 8.67845
50.1529980044635 8.69471
50.17758031042124 8.61866
50.20216508562089 8.656939999999999
50.22694442953363 8.63043
50.25153416817468 8.58105
50.27612638170508 8.576189999999999
50.300721072005196 8.53628
50.325510416102105 8.5187
50.350110084975064 8.51138
50.37471223628208 8.52245
50.39931687190919 8.48497
50.424116246675766 8.46332
50.44872587605249 8.47213
50.47333799543065 8.46033
50.49795260670191 8.41409
50.52276204271512 8.39045
50.54738166295838 8.38866
50.57200378079314 8.40064
50.596628398116835 8.379430000000001
50.62144792604559 8.37553
50.646077567609396 8.35298
50.670709714377715 8.317160000000001
50.69553683636198 8.25493
50.72017401885922 8.267999999999999
50.7448137122895 8.262880000000001
50.76945591856022 8.2612
50.79429318636823 8.22918
50.818940443716784 8.21033
50.84359021965163 8.20573
50.868242516085964 8.23673
50.893089960641895 8.17874
50.917747323549435 8.15773
50.94240721271973 8.15094
50.96706963007175 8.0996
50.99192728239342 8.132819999999999
51.01659478166073 8.13677
51.04126481489051 8.07655
51.06593738400761 8.05863
51.090805275207074 8.02073
51.11548294172845 8.05247
51.14016314993547 8.03892
51.164845901758845 8.0304
51.18972406304274 8.00687
51.21441192780656 7.95166
51.23910234200271 7.965660000000001
51.2637953075678 7.92333
51.288683770237945 7.901680000000001
51.31338186432707 7.86689
51.33808251561888 7.8891800000000005
51.362978729967345 7.8723399999999994
51.387684521509755 7.84258
51.41239287610203 7.82863
51.437103795691165 7.822
51.46201036644977 7.7805800000000005
51.486726441956634 7.7686399999999995
51.51144508832545 7.76925
51.536166307509156 7.762910000000001
51.56108326624387 7.75307
51.58580965706056 7.71824
51.61053862657523 7.72465
51.635270176746864 7.6544300000000005
51.66019755512065 7.65555
51.68493429268881 7.654489999999999
51.70967361681515 7.6167300000000004
51.73441552946465 7.64393
51.759353359237934 7.6275699999999995
51.7841004750961 7.588419999999999
51.80885018539685 7.5971
51.833602492111254 7.56261
51.8585508051424 7.5444
51.883308330926425 7.528389999999999
51.90806845906181 7.496239999999999
51.932831191525715 7.4744399999999995
51.95779001977161 7.45966
51.98255798721516 7.459410000000001
52.00732856494335 7.401339999999999
52.03229530577543 7.423189999999999
52.057071130455945 7.45173
52.081849571391054 7.426660000000001
52.106630630568695 7.4059800000000005
52.13160794279417 7.3346100000000005
52.15639426492067 7.3449
52.18118321127822 7.34324
52.205974783860896 7.31836
52.23096269971011 7.28742
52.255759551287994 7.3162
52.280559035098186 7.264239999999999
52.30536115314103 7.283810000000001
52.33035970494467 7.28206
52.35516711807904 7.268789999999999
52.37997717147198 7.22625
52.40478986713005 7.206160000000001
52.42979908731974 7.1836
52.454617094216 7.14871
52.47943774942214 7.16368
52.50426105495102 7.1212
52.529280976059844 7.11862
52.554109609024096 7.130210000000001
52.57894089837482 7.10411
52.60377484613117 7.100289999999999
52.62880550079408 7.06617
52.65364479223379 7.055280000000001
52.67848674816189 7.030930000000001
52.70352547971946 7.02101
52.72837279155837 7.01018
52.753222773982785 6.99828
52.778075429022984 7.01748
52.80312495150885 6.978860000000001
52.827982978797436 6.96183
52.85284368481815 6.91068
52.87770707160767 6.94186
52.90276741793998 6.89469
52.92763619336701 6.89107
52.952507655698504 6.863760000000001
52.977381806977576 6.875369999999999
53.00245301017842 6.8490899999999995
53.02733256653592 6.8097
53.052214817996074 6.8373
53.077099766608484 6.83235
53.102181859804446 6.77387
53.127072229988265 6.822489999999999
53.15196530349892 6.760260000000001
53.17686108239249 6.7533
53.20195409881522 6.736039999999999
53.22685531582556 6.723839999999999
53.25175924441303 6.69532
53.27666588664027 6.678669999999999
53.30176985962693 6.6548300000000005
53.3266819565689 6.64475
53.35159677336455 6.6691
53.376514312083096 6.607419999999999
53.40162927507703 6.6126
53.42655228516116 6.561439999999999
53.45147802340193 6.5788899999999995
53.47660125628886 6.60981
53.50153247842639 6.57245
53.52646643496923 6.5766800000000005
53.55140312799818 6.54408
53.576537409691696 6.533930000000001
53.60147960336152 6.51001
53.626424539786164 6.47091
53.65137222105307 6.44156
53.67651758529126 6.5255
53.70147078399681 6.42248
53.72642673383343 6.45924
53.75138543689533 6.4483
53.776541917524526 6.40878
53.801506154876755 6.36744
53.826473151763246 6.33505
53.851442910284916 6.37522
53.87661054126026 6.359
53.9015858509782 6.33659
53.92656392866066 6.30866
53.95154477641532 6.3183300000000004
53.976723591801296 6.2527
54.00171000771266 6.26621
54.02669920004598 6.2863
54.051691170915745 6.26382
54.076881204886796 6.22605
54.101878760928514 6.20774
54.12687910187696 6.22396
54.152077577768296 6.1784099999999995
54.1770835166946 6.14968
54.20209224691339 6.17515
54.22710377055121 6.152819999999999
54.25231352511594 6.18136
54.27733066384342 6.15529
54.30235060239643 6.1435
54.32737334290836 6.09011
54.35259441062629 6.05023
54.377622783395324 5.99683
54.40265396455061 6.04269
54.42768795623251 5.9785699999999995
54.45292037169559 5.9435400000000005
54.477960012857906 5.98433
54.50300247099511 5.98434
54.52804774825457 5.95355
54.55329154616743 5.945
54.57834249018678 5.88016
54.6033962597977 5.87986
54.6284528571545 5.85913
54.653708072335164 5.845280000000001
54.67877035378786 5.81585
54.70383546947698 5.795780000000001
54.72890342156389 5.77381
54.7541700889442 5.76204
54.77924374251975 5.7260800000000005
54.8043202390049 5.729030000000001
54.82959552413022 5.715380000000001
54.8546777351945 5.70242
54.87976279569621 5.6731
54.90485070780914 5.70226
54.930137506558005 5.64925
54.95523115074295 5.64279
54.98032765308844 5.57244
55.005427015775496 5.60006
55.03072536339621 5.55722
55.05583047570572 5.50243
55.080938454927676 5.5164800000000005
55.10604930325027 5.51053
55.131359235107396 5.52271
55.15647585066083 5.43639
55.181595341907496 5.4168400000000005
55.20671771104285 5.3878900000000005
55.232039262617704 5.42483
55.25716741665048 5.38507
55.28229845518636 5.38669
55.30743238042802 5.28011
55.33276558731939 5.24823
55.357905315183636 5.248480000000001
55.383047936390035 5.1944
55.40819345314859 5.21686
55.433538351073295 5.22131
55.458689688238415 5.1665
55.483843927614096 5.11586
55.509197623043605 5.144769999999999
55.53435769621134 5.08882
55.55952067826466 5.05207
55.5846865714265 5.0435300000000005
55.61005202069737 4.99769
55.63522376553902 5.02566
55.66039842818645 5.007219999999999
55.68557601087004 4.99613
55.7109532500271 4.93637
55.73613670233794 4.92091
