TT I
1.2716486653135266 7.35173
1.2939594142134223 6.949739999999999
1.3162702121660406 6.5117400000000005
1.3385810600174564 6.72673
1.3608919586137629 6.561710000000001
1.383202908801069 5.62524
1.405513911425503 5.88289
1.4278249673332093 6.04247
1.4501343378461518 6.07795
1.4724455028545926 5.38287
1.4947567236847858 5.7927599999999995
1.517068001182951 5.96812
1.5393793361953272 5.57714
1.5616907295681737 5.30779
1.5840021821477681 5.0359300000000005
1.60631369478041 4.73385
1.6286252683124185 5.16306
1.6509369035901333 5.21339
1.6732468618895553 5.041580000000001
1.695558623192809 5.04614
1.7178704487808514 5.72199
1.7401823395001077 4.97835
1.7625012545597203 5.20729
1.7848028405262486 5.3171
1.8071218901122095 5.20224
1.8294236121921872 4.49884
1.8517427996910911 4.38933
1.8740620574440425 4.29253
1.8963639900671978 4.31754
1.9186833908139995 4.76803
1.9409854680117449 4.74844
1.9633050151394713 5.08914
1.9856246367570705 4.93454
2.0079269371922672 4.75103
2.03024671027244 4.63037
2.0525491637446027 4.72918
2.074869091674931 4.02136
2.097171701569106 4.30026
2.1194917877373847 4.82067
2.141811954326636 5.186380000000001
2.164114805233074 5.19405
2.186435135143035 5.4732
2.208738150935709 8.825619999999999
2.231058647554722 12.5052
2.2533792288321184 10.1161
2.275682498336085 6.74291
2.298003251406138 5.67205
2.3203066942619714 5.86483
2.3426276225136022 5.2298
2.3649486396617507 5.76163
2.387252348930071 6.07782
2.4095735463442893 6.37764
2.4318774374315884 6.49253
2.4541988185014043 6.66332
2.476502894794693 7.075069999999999
2.498824462909887 7.076460000000001
2.521146125856138 7.57448
2.5434504863470337 7.531460000000001
2.5657723414244717 7.7285699999999995
2.588076895590662 8.591660000000001
2.610398946189713 8.73207
2.6327210958598384 8.44085
2.6550259469304716 8.33569
2.6773482972090137 8.599269999999999
2.6996533504259 8.66615
2.7219759047039602 8.38255
2.744298562293959 7.8879600000000005
2.7666039251246595 7.734260000000001
2.7889267918020164 8.33348
2.8112323652516555 8.15784
2.833555444408179 8.46265
2.8558786311183852 8.77749
2.8781845268938557 8.2004
2.9005079311721484 9.2201
2.9228140460410397 9.029060000000001
2.9451376712799635 9.40377
2.967444008632326 9.43329
2.9897678582247247 9.65361
3.0120918213106695 10.1132
3.0343984987899373 10.8821
3.0567226913198637 11.392999999999999
3.079029599759726 11.5046
3.101354025127254 11.9262
3.123678568232338 12.6541
3.145985829517914 12.874
3.16831061055229 13.6262
3.1906181112775593 14.5121
3.212943133635653 15.2625
3.2352682779763207 15.458
3.2575761442691227 15.2262
3.2799015350264273 15.5682
3.302209649240067 16.3749
3.3245352898092655 16.7066
3.3468436553365257 17.4917
3.369169549113219 17.5558
3.3914955708171384 18.4954
3.413804319727358 19.0583
3.4361305997334863 18.8585
3.4584396084414553 19.1925
3.4807661501462652 19.9278
3.503092824025881 20.5584
3.5254022288463154 20.4424
3.5477291695206588 21.1241
3.5700388426251948 22.1373
3.5923660534916446 23.3784
3.6146934007816114 28.4041
3.637003482731501 45.2605
3.6593311053109985 48.43600000000001
3.681641464033634 34.6989
3.7039693653009733 26.2963
3.726297407241705 25.1138
3.7486081875460804 25.0933
3.7709365132734978 25.2334
3.793247578841633 26.0275
3.8155761917550093 26.3245
3.8378875459837216 26.7126
3.8602164494827234 27.1097
3.882545499606844 27.8478
3.9048572932539183 28.5883
3.9271866390645718 28.4891
3.9494987298666713 29.2559
3.971828374764527 30.1633
3.9941581705403255 30.1676
4.016470713506008 30.4655
4.038800813471445 31.3782
4.061113662089144 32.1538
4.0834440696459176 32.8023
4.105774632334751 32.9562
4.128087945865126 33.9521
4.150418821249301 34.8519
4.172732448931298 35.0895
4.195063640413578 36.2625
4.2173775856475215 38.2987
4.239709096631102 50.891999999999996
4.262040768704612 107.462
4.284355196706267 130.66899999999998
4.306687193387355 93.3428
4.329001947444346 54.1991
4.35133427213731 43.6363
4.373666762177566 42.3494
4.395982011761091 42.9266
4.418314834921175 44.0346
4.44063041906622 47.2991
4.4629635787515625 52.1357
4.4852969080429785 52.7588
4.5076130004776225 52.3946
4.529946671403969 58.1419
4.552263106909177 62.8709
4.574597122877047 59.4038
4.596931312711224 54.8683
4.619248269273446 53.6431
4.6415828092605835 54.1673
4.663900117405352 55.0515
4.686235010953232 56.1588
4.708552674085913 57.588
4.730887924602802 59.1016
4.753223354952695 61.0116
4.775541557023902 65.3389
4.797877349456786 68.5025
4.820195915032126 69.3642
4.842532072957498 67.9144
4.864868414979744 70.6171
4.88718753227192 75.4958
4.909524244902505 77.3064
4.931843734218147 76.3506
4.954180820867835 77.6927
4.976518095879839 79.9431
4.998838149695359 82.6505
5.021175803844231 86.0489
5.043496238205739 89.1169
5.065834274903528 93.3259
5.088172504230693 98.2058
5.1104935158799565 104.584
5.132832132875765 124.26299999999999
5.155153533596801 153.549
5.1774925416746225 190.22400000000002
5.199814334878411 369.999
5.2221537374521505 946.4110000000001
5.244493338631803 2767.98
5.266815727034316 8029.89
5.289155727832427 13562.3
5.311478517248165 8867.01
5.333818921080011 2705.65
5.356159527788849 506.728
5.3784829252032536 194.393
5.400823940070432 154.998
5.423147747031976 130.063
5.445489173474152 119.23299999999999
5.467830807066149 119.839
5.490155234831516 120.74799999999999
5.512497285125229 112.93
5.534822130975162 105.275
5.557164601388673 101.1
5.579489868738879 98.1049
5.601832762690846 97.1077
5.6241758697774475 95.8716
5.646501775867269 94.6704
5.668845311622074 93.7136
5.691171647754637 93.0394
5.713515615597765 92.3632
5.735859800852677 91.8614
5.758186788542988 94.0841
5.780531411018185 98.6448
5.802858837297399 99.3081
5.825203900414495 99.2057
5.8475491852224 103.119
5.869877275883075 102.40100000000001
5.892223006467101 96.7884
5.914551544266608 94.0392
5.936897724049891 95.6652
5.959244129804903 102.288
5.981573344815301 127.478
6.0039202049061 227.435
6.026249875609095 444.699
6.04859719346037 910.47
6.070927323278297 2210.76
6.093275102315365 4660.85
6.115623113320588 5195.46
6.137953938319995 2975.39
6.160302415650845 814.422
6.182633708324452 192.958
6.2049826554078376 104.50200000000001
6.227331838745022 88.0188
6.249663839443684 81.8971
6.27201349767565 78.5887
6.294345974611799 79.3439
6.316696111167083 81.1733
6.339046488263839 78.6953
6.361379686074702 72.2442
6.383730546639482 69.4918
6.406064229255215 69.4898
6.428415576718203 70.7794
6.450749747566656 69.6161
6.47310158535871 66.5326
6.495453669698332 64.5443
6.517788579421056 63.516000000000005
6.540141159237969 62.7231
6.562476565766648 61.6535
6.5848296444934045 61.7492
6.607182974060425 62.8316
6.6295191323281015 62.6991
6.651872965955752 62.553999999999995
6.6742096296068985 70.4467
6.6965639707294615 85.4463
6.71891856698715 83.9459
6.741255995248479 69.4924
6.763611104154477 61.0793
6.785949046381137 58.2568
6.808304671371482 59.5471
6.8306605557940046 61.2526
6.852999275508618 60.3321
6.875355681171544 57.8586
6.897694923437771 56.1682
6.92005185377892 55.4256
6.9423916220322655 55.1139
6.964749080490181 54.7752
6.987106804399774 55.1128
7.009447368180821 56.0318
7.031805625367033 55.5958
7.054146723727803 55.0342
7.076505517631004 54.2328
7.098864581288365 54.3423
7.121206488070854 53.994
7.143566093607822 54.6355
7.165908543567245 55.876000000000005
7.188268694426048 56.2384
7.2106291193438095 54.8253
7.232972390625943 54.4934
7.255333366030969 58.8712
7.277677189091925 77.1288
7.300038718428332 91.788
7.322400526130865 82.4185
7.344745183422596 64.968
7.367107550224791 55.9593
7.389452767901992 54.295
7.411815697249891 53.6659
7.434161478756298 53.0934
7.456524974096713 52.9296
7.478888753837185 52.7636
7.501235387657368 53.2551
7.523599738562711 53.42100000000001
7.545946944825532 54.1674
7.568311870344528 54.3007
7.5906770845765665 54.2563
7.613025156078678 54.8509
7.635390950099687 55.2743
7.657739602662809 55.1965
7.680105979923558 55.6044
7.702472650212829 56.4486
7.724822180948224 56.3667
7.747189439655568 55.8951
7.769539560075357 55.2732
7.791907410653562 55.7111
7.81425812420825 55.3807
7.836626570110925 55.6655
7.858995315087906 56.5249
7.881346924933401 56.7497
7.903716270417482 57.2992
7.926068482028405 57.4636
7.948438431475253 58.457
7.9708086843180235 58.8951
7.993161805171116 59.376000000000005
8.015532667162402 60.0747
8.037886398416653 61.4807
8.060257873014221 62.0111
8.082629655331942 62.7076
8.104984308787587 63.3467
8.127356708900503 65.7839
8.149711981398308 70.4265
8.172085002766314 72.4108
8.194458336181368 70.0905
8.216814543847752 68.3488
8.23918850371002 68.3663
8.26154533906492 69.3474
8.283919928836452 70.8982
8.306277395339652 71.7842
8.328652618483376 73.188
8.351028159736202 75.1736
8.373386579575245 77.2
8.395762759396959 78.9215
8.418121819038275 82.0597
8.440498640894003 89.0785
8.462875785192262 99.7456
8.485235811156207 123.113
8.507613602688501 170.53599999999997
8.529974277114228 243.713
8.552352719347912 364.676
8.574731488360351 622.0509999999999
8.59709314210385 1205.7
8.619472567021075 1949.56
8.64183487789147 2222.05
8.664214962183097 1700.5
8.686577933647762 835.457
8.708958680784317 296.133
8.731339760774953 139.715
8.753703729764451 104.81299999999999
8.77608547780821 95.8157
8.798450116065078 92.9935
8.820832535634787 91.586
8.843215292401656 91.4886
8.865580941199045 92.3478
8.887964374703538 92.1957
8.910330701447199 92.4011
8.932714815164482 91.71799999999999
8.955099270424924 88.8943
8.977466620733543 85.9271
8.999851761421976 84.0627
9.022219798361645 83.1784
9.04460562795561 83.1759
9.066991803441677 82.9591
9.089360876979615 83.6254
9.111747746589993 83.6429
9.13411751544971 82.3154
9.156505082664324 81.1195
9.178875550323522 80.8483
9.20126381862328 81.0486
9.223652438908596 81.5885
9.246023961427412 81.5142
9.26841328802173 81.4255
9.290785518039224 81.6353
9.313175554425882 84.3947
9.335565947154315 86.4096
9.357939245086508 86.8303
9.380330352834827 86.0919
9.40270436697103 85.9215
9.425096193225055 84.9907
9.447488380180165 84.6513
9.469863475295412 83.6943
9.492256385987508 83.7877
9.514632206018318 84.4175
9.537025843935714 84.5929
9.559402392368193 85.9639
9.581796761000229 89.2149
9.604191496441521 91.2589
9.626569144158516 94.4968
9.648964615551032 95.9715
9.671343000390081 94.6757
9.693739211225699 92.5476
9.716135793237463 91.5788
9.738515290448102 92.1395
9.760912617143402 93.712
9.783292860202891 96.2039
9.805690935076182 98.7458
9.828089385495742 100.12899999999999
9.850470754023561 100.565
9.872869957865444 103.84700000000001
9.89525208097539 110.10600000000001
9.917652041736662 116.40700000000001
9.940052382417589 124.429
9.962435644102392 147.27700000000002
9.984836746950979 183.796
10.007220771957746 238.615
10.029622640473708 329.526
10.052007432299963 506.981
10.074410069984072 825.2410000000001
10.096813093716005 1300.66
10.119199042482517 1842.91
10.141602840636468 1974.86
10.163989564971628 1458.3
10.186394141051062 764.6089999999999
10.208799107559706 325.026
10.231187001965623 162.18
10.253592751657669 118.41799999999999
10.275981430388155 109.055
10.298387966769793 107.119
10.320794897965431 107.37
10.343184759907361 106.161
10.36559248305461 103.149
10.387983138083852 103.135
10.410391656691655 109.219
10.432800574501677 119.47200000000001
10.455192425893369 132.47799999999998
10.47760214443012 157.975
10.499994797678786 204.16099999999997
10.522405320453982 289.675
10.54479877906917 412.70099999999996
10.567210109595656 544.559
10.5896218454736 588.512
10.612016518879773 481.343
10.634429067781074 313.935
10.656824555333241 177.335
10.679237920773568 111.427
10.701651695961992 92.0617
10.724048411481384 87.3516
10.746463008485165 84.9401
10.768860546937125 83.5337
10.791275969274796 82.1936
10.81369180576079 81.2133
10.836090585366925 79.7674
10.858507252467449 78.4564
10.88090686379991 77.4582
10.903324365036394 77.2282
10.925724811614439 77.112
10.948143150509463 77.4659
10.970561909719066 77.1254
10.992963615930844 76.297
11.015383218085756 74.6135
11.037785768347074 72.7626
11.06020621697282 71.5681
11.082627090322113 71.0399
11.105030913430326 70.5502
11.12745263854165 70.1719
11.149857314510728 70.8908
11.172279894912576 72.7095
11.194702904450653 72.438
11.217108866490921 70.4987
11.239532736615194 68.8036
11.26193956033512 68.0202
11.284364294577085 67.3151
11.306789462371718 66.2866
11.329197585398376 65.7697
11.351623622610898 65.735
11.37403261614354 65.0526
11.396459526308487 65.0898
11.418869393879497 64.64399999999999
11.441297180532617 64.3077
11.463725406927658 63.8334
11.486136592353875 63.5417
11.508565700543707 63.4408
11.530977768845315 64.2811
11.553407762368774 64.3167
11.575838200059769 63.7793
11.598251599479612 62.794
11.620682927815501 62.3375
11.64309721895548 62.2717
11.665529441478206 62.1105
11.687962112597958 61.9625
11.710377748130886 61.8803
11.732811318753434 61.6849
11.755227854859067 61.7261
11.777662328529495 61.4499
11.800079768750786 61.5113
11.822515149015453 61.8571
11.844950984084935 62.2221
11.867369787303163 61.533
11.889806534289491 61.477
11.912226250487029 61.7252
11.934663912939751 61.8315
11.9571020346363 61.974
11.979523127133968 62.4256
12.001962169624331 63.419
12.024384183972964 64.7757
12.046824150809913 67.7117
12.069264581333726 71.5279
12.091687985297767 76.8951
12.11412934550045 85.9876
12.136553680195208 101.705
12.158995973632788 126.60700000000001
12.181438735204349 159.248
12.20386447284199 189.127
12.226308172985636 209.828
12.24873485024193 200.703
12.271179492516982 153.429
12.293607112949127 113.586
12.316052700916226 85.6417
12.338498763250042 70.7587
12.360927805303868 65.2837
12.383374818673879 63.8356
12.405804812803074 62.9361
12.428252780773262 62.9239
12.45070122756722 63.1718
12.473132656675375 63.1995
12.49558206341869 63.9906
12.518014453510101 64.0446
12.540464823770117 63.9763
12.562915677315177 63.8554
12.58534951575545 64.5269
12.607801338171472 65.0144
12.630236146511358 66.7274
12.652688941369085 68.4493
12.675124723177234 68.9277
12.697578494048786 68.2213
12.720032754458185 66.98100000000001
12.742470003354093 66.5408
12.764925245138771 66.7135
12.787363476431278 66.8566
12.809819703166806 67.4723
12.83227642391173 68.1265
12.854716135692716 69.1041
12.877173846755147 70.1391
12.899614549869717 70.5178
12.9220732548287 71.5628
12.94453245827299 72.1661
12.966974655289818 72.8487
12.989434858002571 73.6666
13.011878055298721 74.1355
13.034339260862497 75.0807
13.056800969391883 76.7462
13.079245674017244 79.6531
13.101708390774869 83.2896
13.12415410463411 91.2648
13.146617833206086 99.772
13.169064559883248 108.963
13.191529303857127 122.678
13.213994557076367 145.517
13.236442809902437 185.09799999999998
13.258909083908291 245.924
13.28135835851934 317.376
13.30382565690295 393.17699999999996
13.326293469022952 445.68199999999996
13.348744283242008 419.144
13.371213125129904 331.75800000000004
13.39366497011003 227.89700000000002
13.416134845360597 151.90200000000002
13.438605238843131 114.17299999999999
13.46105863690397 102.93299999999999
13.483530069144786 103.87100000000001
13.505984506951902 108.316
13.528456981549432 117.57600000000001
13.550929978879088 132.624
13.573385983253365 157.957
13.595860028340867 201.201
13.618317081455832 259.621
13.64079217790333 324.967
13.663250283359057 373.284
13.685726434770173 381.7
13.708203115221277 323.514
13.730662806148091 239.767
13.75314054697177 166.05700000000002
13.775601299246777 115.255
13.798080104050406 91.5301
13.820559442405358 82.9441
13.843021793671388 80.0788
13.865502201420897 78.53
13.887965623051947 78.3238
13.910447103807167 77.2015
13.932929122629764 75.9136
13.955394156785959 75.4922
13.977877254034569 74.6637
14.000343367582113 73.7404
14.022827546871707 73.1408
14.045294743423524 72.5795
14.06778000837062 71.9608
14.090265817715476 71.6265
14.112734645763819 71.1208
14.13522154619454 70.7427
14.157691466286913 70.7233
14.180179461423874 70.676
14.202668005486178 70.0775
14.22513957064374 69.7644
14.247629214846473 69.4049
14.270101881097517 68.8075
14.29259262906496 68.8355
14.315083930490205 69.4329
14.337558255389705 69.0971
14.360050666019726 68.9642
14.382526101071944 68.36399999999999
14.405019624534942 68.1916
14.427513705993134 67.9331
14.449990813291825 68.0448
14.47248601302899 67.7495
14.49496423954951 67.7335
14.517460561197822 67.7192
14.539939910570322 67.6084
14.562437357763558 67.7786
14.58493536931253 68.551
14.607416409993311 68.91
14.62991555254159 69.3123
14.652397725157423 69.1239
14.674898002342799 69.1923
14.697398848433282 69.6631
14.719882725991326 71.115
14.74238471217934 72.667
14.764869730765593 75.6991
14.787372860692983 78.0701
14.809876564079925 81.8387
14.83236330125751 87.1
14.854868153850365 95.9489
14.877356041159485 110.585
14.899862046604186 131.453
14.922351087688757 159.811
14.944858249632887 192.19099999999997
14.967365991421232 220.692
14.989856770231246 229.205
15.012365673994204 213.22099999999998
15.03485761569738 178.424
15.05736768508665 136.57
15.07987833888692 103.434
15.102372032001655 84.053
15.124883856909658 73.846
15.14737872204565 70.5676
15.169891721717274 69.2876
15.192405310371893 69.0409
15.214901940621196 68.8379
15.237416709527137 68.2978
15.259914520936249 68.3472
15.282430473753607 67.3407
15.304947020131227 66.4597
15.327446610371178 66.2478
15.349964346154254 65.9776
15.372465126703139 65.8682
15.394984055556009 65.4773
15.417486030076159 65.5287
15.44000615566487 64.8981
15.462526881230803 64.8699
15.485030653812652 64.8067
15.507552581617434 64.6249
15.530057557334603 64.7229
15.55258069104857 64.8488
15.575104429329837 65.0339
15.597611216864632 64.8221
15.620136166564563 65.4838
15.6426441664095 67.1284
15.665170331202765 69.1833
15.687697105158826 71.5558
15.710206930593545 74.4439
15.732734925158933 78.5897
15.755245972089478 84.906
15.77777519094324 93.7209
15.800287463046663 107.64200000000001
15.822817909869592 128.118
15.84534897229804 152.827
15.867863089299354 177.44
15.890395385222186 195.81799999999998
15.912910736597423 195.247
15.935444269699861 177.53900000000002
15.957978423016485 145.477
15.980495633101265 111.49600000000001
16.003031029129367 87.0367
16.02554948280019 71.2493
16.048086125229432 64.5697
16.070623392487107 62.7327
16.09314371869582 62.0045
16.11568223789321 61.1196
16.13820381691126 60.1464
16.160743591742527 59.7034
16.183283996022084 59.1859
16.205807461423195 58.2342
16.228349126881973 57.8539
16.25087385432698 57.7311
16.27341678466365 57.1055
16.29594277784926 57.0236
16.31848697676433 56.9455
16.341031811604868 56.5783
16.36355971058487 56.5983
16.3861058195587 56.4093
16.40863499352978 55.5293
16.431182380342005 55.102
16.453730407713202 54.9474
16.476261501364792 54.7442
16.498810812136167 54.3081
16.52134319004079 54.6183
16.54389378792203 54.4153
16.566445031001553 54.2381
16.588979342490088 54.1059
16.61153187824822 54.0497
16.634067483263312 53.9237
16.656621315414416 53.8815
16.679175797408888 53.5412
16.701713349928728 53.6713
16.72426913389191 53.9259
16.74680798922351 53.8885
16.76936507887444 53.7728
16.791905240734874 53.7762
16.814463639794468 53.6118
16.837022695210294 53.8342
16.859564824093756 54.013000000000005
16.882125194503903 54.2611
16.904668639217885 54.5588
16.927230328348003 54.5041
16.949792678493612 54.6602
16.972338104193863 54.4117
16.994901778652235 54.4249
17.017448529496576 54.7625
17.040013531998152 55.1348
17.06257920018044 55.7198
17.0851279459922 56.3168
17.107694947817667 56.7993
17.130245028099072 57.7887
17.15281336730298 58.9673
17.17536478578733 60.6988
17.19793446610687 62.9415
17.220504818648422 66.2158
17.243058251703697 69.8993
17.265629950971032 74.8801
17.288184731571736 80.5684
17.310757781306908 83.0973
17.33333150794385 83.3555
17.355888317140174 80.2551
17.37846339986244 74.1038
17.401021565958885 67.6731
17.42359800851343 63.0405
17.44617513265564 60.1672
17.468735341390783 58.8616
17.491261035594565 58.2788
17.51396340099364 58.1387
17.536490463869136 58.1816
17.559018209820174 58.0748
17.58154663977963 58.1628
17.604251766089718 58.4273
17.626781572227713 58.6291
17.64931206518155 58.9293
17.671843245885103 59.2812
17.69455114821572 59.3302
17.717083712612634 59.5554
17.739616967569667 60.0018
17.762150914021706 60.5099
17.78486160749854 60.6098
17.807396945166804 61.53
17.829932977143503 62.7792
17.85246970436452 64.197
17.875183204129467 65.3598
17.897721330097664 67.2352
17.920260154126645 69.4498
17.942799677153296 72.3204
17.9655159983646 76.2059
17.988056927677544 81.7786
18.010598558807683 90.0471
18.033140892692916 101.223
18.05586005052525 113.723
18.07840379824407 126.68700000000001
18.10094825154059 136.355
18.12366954819864 140.668
18.146215420998306 136.74
18.16876200220057 125.63
18.191309292745153 110.43700000000001
18.214033452627167 96.9068
18.236582170236648 86.8574
18.259131600016456 83.6799
18.281681742907335 85.316
18.304408781233683 90.7129
18.32696035875955 96.6969
18.349512652227624 101.656
18.372065662579683 106.12799999999999
18.394795594587553 104.885
18.41735004715306 98.8311
18.43990521943684 90.4901
18.46246111238171 81.1311
18.485193953325208 72.6752
18.507751296070428 66.6972
18.530309362314178 63.7002
18.552868153000343 62.0296
18.57560391815056 60.966
18.59816416623245 60.356
18.620725141597372 60.0031
18.643286845190268 59.4502
18.666025549835414 59.1702
18.688588718427933 58.6041
18.711152618092243 58.582
18.73389353884365 58.3313
18.75645890921984 57.9038
18.77902501351406 57.83
18.801591852673102 57.643
18.824335739722738 57.0237
18.846904057212626 56.9631
18.8694731124168 56.7134
18.89204290628315 56.7854
18.914789774966803 56.6668
18.937361054791623 56.3849
18.959933076131318 55.9729
18.982505839934877 56.0905
19.00525570560582 56.1629
19.027829963004184 55.7638
19.05040496572238 55.7214
19.072980714710468 56.1014
19.095733592739563 56.0735
19.11831084296757 56.1007
19.140888842324735 56.3707
19.16346759176222 56.7397
19.18622349753803 57.2712
19.208803755869358 58.239
19.231384767143577 59.4171
19.253966532312948 61.1924
19.276725481241822 63.5102
19.29930876296784 66.5655
19.3218928014549 69.5363
19.34465404436217 72.3134
19.36723960516257 74.8922
19.389825925592426 74.8964
19.412413006605938 72.9421
19.43517731967805 68.9144
19.457765930683355 64.626
19.48035530514408 60.3422
19.50294544401556 56.9468
19.525712842708348 55.0829
19.54830451925909 53.8694
19.570896963095727 53.0733
19.593490175174704 52.8653
19.616260674962184 52.8444
19.638855432416964 52.6617
19.661450960992624 52.6608
19.68404726164677 52.5308
19.706820878021247 52.4711
19.729418731756834 52.5481
19.752017360452857 52.2807
19.77461676506804 52.7308
19.797393513540218 52.9294
19.819994478951667 52.9932
19.84259622316767 53.2449
19.8651987471481 53.604
19.887978643247177 54.038999999999994
19.91058273574792 54.5964
19.933187610901943 55.3464
19.955969879466828 56.5586
19.97857632894404 58.2229
20.00118356396599 60.0949
20.023791585494575 62.5638
20.046577028914875 65.2884
20.069186632506966 67.5869
20.091797025500632 69.0847
20.114408208858933 69.3977
20.137196842715273 68.1441
20.159809615886765 66.2658
20.18242318232135 63.4043
20.20503754298326 61.523
20.227829382875154 60.9586
20.250445341109344 61.4828
20.27306209647285 62.6089
20.29567964993108 63.8527
20.31847471147704 65.317
20.34109387027612 65.2877
20.363713830075454 64.5146
20.386334591841646 62.4059
20.409132890679302 59.3181
20.431755265564437 56.0816
20.454378445325528 53.4173
20.477002430930366 51.9107
20.499803982716553 50.896
20.522429589228004 50.1189
20.54505600449589 49.7989
20.567683229489194 49.6721
20.590488049900088 49.4597
20.61311690359731 49.1905
20.63574656993626 48.9955
20.658553853717297 48.7505
20.681185154618298 48.7502
20.703817271080066 48.5732
20.72645020407368 48.3084
20.749260783967177 48.1225
20.771895359337133 48.1318
20.794530754161617 48.1606
20.817166969412938 47.994
20.83998086114876 48.0578
20.86261872660049 47.8367
20.885257415405402 47.7858
20.90789692853701 47.9091
20.930714147864748 47.8431
20.953355319030678 47.6884
20.97599731745334 47.9777
20.99864014410749 47.7368
21.021460706796564 47.7644
21.044105199328826 48.1772
21.06675052302631 48.3175
21.089396678865015 48.1483
21.112220600704806 48.5929
21.134868430275347 48.9502
21.15751709492456 49.2672
21.180166595629693 49.6996
21.202993892429635 50.2999
21.22564507473034 50.4546
21.24829709602816 50.7559
21.27112693608965 50.6334
21.293780644891275 50.4297
21.316435195634053 49.7759
21.339090589297417 49.1167
21.361923832041875 48.5177
21.384580921090404 47.8535
21.407238856007325 47.4385
21.429897637773326 47.6237
21.45273429906592 47.6606
21.475394784108598 47.628
21.498056118951983 47.6316
21.520718304578022 47.8941
21.543558400304388 47.9607
21.566222297108816 48.1921
21.58888704765135 48.5136
21.61155265291521 48.5668
21.63439619898156 49.028999999999996
21.657063523335786 49.0162
21.67973170537063 49.4236
21.7024007460706 50.0816
21.72524775840385 50.8336
21.747918526116475 51.8834
21.770590155457388 53.1459
21.79326264741238 54.8922
21.816113141960237 56.9241
21.838787368860547 58.8958
21.861462461341976 61.1846
21.884315579735777 63.1975
21.90699241312273 64.0942
21.92967011506078 64.199
21.95234868653799 63.0287
21.9752053151131 61.2296
21.997885635446785 59.1948
22.020566828293532 57.323
22.04324889464272 56.122
22.066109049404666 55.4521
22.088792872571794 55.4885
22.111477572219204 55.4815
22.1341631493376 55.6081
22.157026846313123 55.1152
22.179714188221507 54.085
22.202402410582668 52.8352
22.22509151438863 51.2019
22.24795876962584 50.0646
22.270649646204486 49.2557
22.293341407213727 48.7953
22.316034053646906 48.2722
22.338904883215342 48.042
22.36159931041458 48.214
22.38429462602756 48.1105
22.40699083104897 47.7387
22.429865251039757 47.7241
22.452563244831367 47.8158
22.47526213102522 47.7808
22.49813925616515 47.7229
22.520839937143307 47.6881
22.543541513520587 47.8279
22.56624398629403 47.7566
22.589124730075895 47.7428
22.611829005656723 47.9452
22.63453418063466 47.8217
22.657240256008077 48.211999999999996
22.680124634582935 48.0676
22.70283252079775 48.2057
22.725541310413075 48.4889
22.74825100442868 48.855
22.771139033969575 49.4421
22.79385054687155 49.70399999999999
22.81656296718292 50.3673
22.83927629590484 51.1873
22.862167992606945 52.5602
22.88488314827121 53.5732
22.907599215359284 54.5372
22.93031619487366 55.9562
22.953211574954405 56.896
22.975930389478226 57.246
22.998650119445763 57.161
23.02137076586092 56.0326
23.044269845560063 54.4632
23.06699233506288 52.762
23.089715744034912 51.1027
23.112617610931565 49.6724
23.135342869061212 48.6812
23.158069049684816 48.0416
23.1807961538087 47.7949
23.20370174880544 48.0668
23.226430710184808 48.0965
23.249160598093425 48.0745
23.271891413539002 48.0023
23.294800752937697 48.078
23.31753343374794 48.2112
23.340267045128353 48.3227
23.36300158808808 48.6626
23.38591468821339 48.995
23.408651104658304 49.5176
23.431388455719986 49.9681
23.454126742409 50.9572
23.4770436196085 52.1422
23.499783787914662 53.4732
23.522524894889884 54.6746
23.54526694154616 55.9655
23.56818761219047 56.8826
23.59093154860734 57.3593
23.613676427751283 57.2522
23.636422250635754 55.7708
23.659346731118656 53.8664
23.68209445191868 51.8748
23.704843119509587 49.7788
23.72759273490623 48.0748
23.750521041644767 46.9392
23.77327256312355 45.9774
23.796025035462787 45.7428
23.818956224555475 45.2446
23.841710609113413 45.0293
23.86446594758979 44.7997
23.887222241002014 44.6275
23.910157285144578 44.3124
23.932915498962537 44.4777
23.955674670778713 44.3136
23.978434801611975 44.0728
24.001373717286125 43.8723
24.024135776723917 43.9855
24.046898798245582 43.8584
24.06966278287146 43.5948
24.092605586582614 43.3184
24.115371508023642 43.2583
24.1381383956401 43.1385
24.16090625045381 43.0106
24.183852958731244 43.0861
24.206622758582608 43.0964
24.229393528706886 42.9864
24.252165270127392 43.0601
24.27511589952438 42.8045
24.297889594216997 42.7143
24.32066426328598 42.4547
24.34343990775613 42.5473
24.36639447485003 42.4691
24.38917208083877 42.3642
24.41195066531332 42.2616
24.43490819850244 42.3895
24.457688750692377 42.3611
24.48047028445616 42.1452
24.503252800821233 42.3992
24.526214300784112 42.4504
24.548998793132213 42.4941
24.57178427117417 42.4711
24.59457073593893 42.4104
24.617536219319863 42.2244
24.64032466834748 42.2121
24.663114107195035 42.0653
24.685904536893013 41.927
24.708874020360852 41.7194
24.731666442613744 41.6376
24.754459858818787 41.743
24.777254270007962 41.7206
24.80022777025625 41.5418
24.82302418230472 41.4405
24.845821592443674 41.438
24.86862000170663 41.4861
24.891597535453727 41.41
24.914397953892728 41.69
24.93719937456671 41.4648
24.96000179851076 41.651
24.98298338249997 41.8521
25.00578782394922 42.0415
25.028593271784167 42.2007
25.05157790644186 42.4443
25.07438537804115 42.727
25.097193859145293 42.8413
25.120003350792075 43.2449
25.142992065061257 43.5103
25.165803588823465 43.7761
25.18861612625217 44.0561
25.211429678386736 43.9243
25.234422489079968 43.9439
25.257238081693636 44.1358
25.280054692141732 44.2513
25.3028723214652 44.2903
25.325869245420463 44.3893
25.348688923599397 44.349
25.371509623787006 44.2328
25.394331347025812 43.7971
25.41733240110666 43.1486
25.440156181590016 42.4226
25.46298098826268 41.9943
25.48580682216873 41.4458
25.50881202326435 40.9369
25.53163992281684 40.7645
25.55446885274561 40.5218
25.577298814096377 40.2505
25.600308179121807 40.1127
25.623140214533745 40.1415
25.64597328451537 40.1063
25.66898578564376 39.8449
25.691820936010206 39.9464
25.714657124097695 39.8286
25.737494350954734 39.7625
25.760511045684957 39.7483
25.783350361364224 39.8258
25.806190718969255 39.7768
25.82903211955018 39.782
25.852053024868923 39.8799
25.874896522722523 39.9569
25.897741066713106 39.8722
25.920586657892454 40.0206
25.943611790812668 40.2505
25.966459487728237 40.417
25.989308234998564 40.4457
26.01215803367705 40.7427
26.03518741123814 41.003
26.05803932412957 41.0646
26.080892291600094 41.0937
26.10374631470478 41.0632
26.12677995397268 41.1791
26.14963609978026 41.044
26.172493304397875 40.5804
26.19535156888223 40.4028
26.218389486949604 39.9043
26.241249882640123 39.7278
26.26411134137826 39.3814
26.28715248187403 39.4974
26.31001607820869 39.4422
26.3328807407756 39.2391
26.35574647063438 39.3279
26.37879191991473 39.3025
26.401659795896734 39.3132
26.424528742360263 39.5444
26.447398760366614 39.6616
26.470448535598294 39.8754
26.49332070826805 40.1554
26.516193955675355 40.6197
26.53906827888316 40.5876
26.562122397260108 40.734
26.584998883685063 41.0467
26.607876449110325 41.3784
26.63075509460056 41.5457
26.65381357334404 41.5974
26.67669439061878 41.5782
26.699576291163382 41.3182
26.722459276044212 41.1786
26.745522132402975 40.889
26.768407297649354 40.56
26.791293550442003 40.2362
26.814180891848974 40.1034
26.837248143099337 39.7982
26.860137673466657 39.7195
26.88302829566349 39.3632
26.90592001075963 39.1849
26.92899167420566 39.0487
26.951885586870763 38.7359
26.974780595655517 38.5751
26.99785558178161 38.593
27.020752794605112 38.3622
27.043651106772522 38.0957
27.06655051935668 38.1863
27.089629948036183 38.0885
27.112531573292053 38.2121
27.135434302194138 38.1014
27.158338135817015 37.994
27.181422024430987 38.0134
27.204328079372566 37.8624
27.22723524226965 37.9421
27.250143514198573 37.9596
27.273231880156334 37.9064
27.296142382065014 37.7272
27.319053996245536 37.676
27.341966723775965 37.777
27.365059584515222 37.9629
27.38797455070062 37.8008
27.410890633481237 37.7819
27.433807833936918 37.9347
27.456905206923906 37.9897
27.47982465472398 38.0277
27.502745223449743 38.0381
27.525666914182825 38.0217
27.548768816912457 37.9418
27.571692763693633 37.7986
27.59461783573812 37.6978
27.617723149491244 37.4105
27.640650484125285 37.3684
27.66357894728264 37.4062
27.686508540048052 37.4041
27.709618414237887 37.3854
27.732550278321757 37.1638
27.755483275279115 37.1814
27.778417406196485 37.2369
27.801531858397514 37.1958
27.824468269376716 37.2285
27.847405817586786 37.0814
27.870344504116094 37.2789
27.893463551932008 37.3412
27.916404527281053 37.6372
27.93934664422563 37.6768
27.962289903855886 37.9202
27.98541356491974 38.1632
28.00835912214229 38.1719
28.03130582533231 38.4173
28.054253675581805 38.5258
28.077381967556104 38.5045
28.100332124185126 38.2689
28.123283431160893 38.1915
28.146235889577238 38.0642
28.169368830154156 37.9679
28.192323603752033 37.9288
28.215279532083304 37.5076
28.238415973016764 37.259
28.261374223145094 37.1959
28.284333631303806 36.8677
28.307294198589954 36.7598
28.330435319167677 36.5155
28.353398217078915 36.1616
28.376362277420153 35.8806
28.39932750129032 35.8301
28.422473319286713 35.8191
28.44544088262495 35.7679
28.468409612800283 35.6227
28.491379510913497 35.3988
28.51453004413313 35.3288
28.53750229057244 35.3046
28.56047570826344 35.1817
28.583450298308804 35.2291
28.606605564586562 35.093
28.629582511831156 35.0981
28.65256063474956 35.0627
28.675539934446338 35.0682
28.698699951647605 34.9581
28.72168161743193 34.8246
28.74466446331978 34.8525
28.767648490417624 34.8931
28.790813276438353 34.9247
28.813799678527303 34.6969
28.836787265157085 34.9062
28.859955641890075 34.9248
28.882945610203045 34.6867
28.905936766392035 34.7053
28.928929111566863 34.7238
28.952102288520145 34.675
28.975097024308607 34.554
28.998092952423807 34.4213
29.021090073977508 34.3084
29.04426806913204 34.2645
29.067267590245258 34.0506
29.090268308143695 33.9378
29.11327022394099 33.9559
29.13645305530891 33.8628
29.159457379627167 33.8211
29.18246290519685 33.7148
29.20546963313352 33.7208
29.22865731875826 33.7433
29.25166646419296 33.7656
29.27467681535305 33.6811
29.29768837335608 33.7457
29.320880931312562 33.6893
29.34389491580634 33.6119
29.366910110507334 33.6314
29.38992651653503 33.7497
29.41312396492981 33.6474
29.436142806456754 33.5564
29.45916286268059 33.4127
29.48236399319994 33.2495
29.50538649169417 33.1706
29.528410208259935 33.2218
29.55143514402014 32.9389
29.574641196749695 32.7574
29.597668583816574 32.7296
29.6206971934585 32.4711
29.64372702680042 32.5053
29.666938019934474 32.5357
29.689970313635285 32.3652
29.713003834422636 32.3948
29.73603858342347 32.3043
29.759254535188578 32.2355
29.78229175361658 32.2532
29.80533020365064 32.3536
29.82836988641968 32.3644
29.85159081507472 32.2176
29.874632976355343 32.0863
29.89767637376955 32.2708
29.920721008448314 32.1205
29.9439469322847 32.0531
29.96699405457564 31.9843
29.9900424175358 31.9394
30.013092022298157 31.9478
30.03632295963995 31.8841
30.059375061131373 31.8851
30.08242840783577 31.9572
30.105483000888153 31.9447
30.128718970092244 31.896
30.151776069006917 31.9019
30.17483441768648 31.9344
30.198074175317235 31.8736
30.221135036724256 31.8883
30.24419715131772 31.8531
30.267260520236203 31.7463
30.290505341942243 31.7991
30.313571232750228 31.7999
30.336638381310948 31.8023
30.35970678876503 31.6154
30.38295669299435 31.5466
30.40602763151657 31.6607
30.429099832366074 31.5949
30.452173296685572 31.5777
30.47542830191959 31.4697
30.498504306502497 31.4774
30.521581577995562 31.6157
30.544660117543582 31.7591
30.56792024229725 31.6806
30.59100133132069 31.625
30.614083691845494 31.5377
30.637167325018545 31.7427
30.660432587840603 31.7812
30.683518779717886 31.6852
30.70660624769615 31.7538
30.729694992924372 31.6662
30.75296541239743 31.588
30.77605672557558 31.5889
30.799149319462742 31.5483
30.8224236211637 31.4185
30.845518789950724 31.3809
30.868615242910597 31.2887
30.891712981195973 31.0243
30.91499247215866 31.073
30.938092794619365 31.015
30.96119440587579 30.9031
30.984297307082752 30.855999999999998
31.00758200598383 30.8038
31.030687500658694 30.7551
31.053794288760695 30.5706
31.076902371446767 30.4964
31.100192296997445 30.6421
31.12330298246119 30.5757
31.14641496599209 30.4074
31.169528248749216 30.4568
31.19282341969534 30.4161
31.215939314557186 30.5211
31.239056512134788 30.4682
31.262175013589378 30.3513
31.28547544871168 30.3769
31.30859657161541 30.2879
31.331719001892175 30.305999999999997
31.35484274070538 30.38
31.378148458819545 30.3435
31.401274828443725 30.4577
31.424402510106933 30.4372
31.447712205419993 30.4281
31.470842524931633 30.4699
31.493974159989783 30.3392
31.51710711176168 30.2207
31.54042212308802 30.2261
31.563557722100917 30.1694
31.586694641341655 30.0799
31.609832881979628 30.0033
31.63315322823208 29.8009
31.656294125521327 29.7667
31.679436347728515 29.8618
31.70257989602529 29.744
31.725905596152327 29.723000000000003
31.74905181052835 29.6814
31.772199354521323 29.6749
31.79534822930507 29.7046
31.818679302290967 29.6664
31.84183085259981 29.5549
31.864983737233473 29.5599
31.88813795736804 29.6409
31.911474422233013 29.5803
31.934631327356435 29.6025
31.9577895715215 29.5853
31.980949155906522 29.5785
32.004291031706956 29.6265
32.027453310562606 29.4137
32.05061693318573 29.3428
32.07396288236386 29.3069
32.09712920658542 29.1841
32.12029687812702 29.0337
32.14346589817093 29.0199
32.166817291729984 29.0315
32.18998902288583 28.971999999999998
32.21316210610336 28.9231
32.23633654256711 28.7377
32.259693399663725 28.6348
32.282870556771144 28.717
32.30604907069099 28.7005
32.329228942610065 28.6878
32.35259128243769 28.4702
32.375773884550505 28.427
32.398957848235646 28.5096
32.422143174682176 28.391
32.445511016471215 28.3289
32.468699082679954 28.1531
32.49188851523011 28.151
32.51507931531304 28.148000000000003
32.538452678331 28.1689
32.56164622776311 27.9842
32.58484114831493 27.9815
32.60803744118015 28.0615
32.631416344731896 27.9582
32.654615396551876 27.9813
32.67781582427913 27.9252
32.701198898634416 27.869
32.72440209253756 27.8202
32.747606665947124 27.7331
32.77081262006088 27.6432
32.79420126883317 27.6716
32.81740999876112 27.5835
32.840620112999424 27.5673
32.86383161274818 27.6111
32.88722585534586 27.4869
32.91044014056596 27.5462
32.933655814909734 27.480999999999998
32.95687287957963 27.6099
32.98027273544904 27.4881
33.00349259526636 27.3953
33.026713849030116 27.4105
33.04993649794511 27.396
33.073341986570746 27.3597
33.09656744032826 27.2873
33.11979429286444 27.2504
33.14302254538647 27.3195
33.166433686291185 27.1951
33.18966475336992 27.1655
33.212897224069096 27.0818
33.23613109959831 27.0635
33.259547912343415 27.0863
33.2827846121627 27.1787
33.306022720453775 27.0252
33.32926223842861 26.953000000000003
33.352684742614166 26.9714
33.37592709463173 26.9187
33.399170859982064 26.8435
33.422597648419426 26.8594
33.44584425514446 26.6891
33.46909227885668 26.5849
33.4923417207723 26.5292
33.51577423505344 26.5371
33.539026528130385 26.4391
33.56228024307245 26.4685
33.585535381098246 26.3036
33.60897364093058 26.2988
33.63223163992385 26.3667
33.6554910656699 26.2224
33.678751919389796 26.1541
33.702195944520106 26.0562
33.72545966903325 26.1671
33.74872482519663 26.090999999999998
33.771991414233746 26.0414
33.79544122444841 26.0725
33.81871069412428 26.0051
33.84198160035767 25.8906
33.86525394437455 25.9581
33.88870955949969 25.9389
33.911984794020626 25.8259
33.93526147001624 25.8633
33.958539588715006 25.8241
33.98200102861669 25.7266
34.0052820477047 25.6425
34.02856451319451 25.6353
34.05203033759056 25.5328
34.07531571090147 25.4313
34.09860253431845 25.5352
34.121890809074316 25.455
34.145362493118924 25.4466
34.16865368561615 25.3393
34.191946333164054 25.2921
34.21524043699793 25.3446
34.23871800066799 25.3429
34.26201503218366 25.2919
34.28531352370466 25.2422
34.30861347646881 25.1051
34.33209693978188 25.1235
34.3553998301885 25.0603
34.378704185565205 25.0236
34.402010007152356 25.0208
34.42549939016683 24.9643
34.44880815937748 24.7619
34.472118398533134 24.8084
34.49543010887669 24.7974
34.51892543169198 24.6059
34.54224009966052 24.6744
34.56555624255917 24.7336
34.58887386163339 24.5993
34.61237514439016 24.5743
34.6356957311114 24.5282
34.65901779775809 24.5864
34.68252356662995 24.4539
34.705848608458616 24.443
34.72917513396849 24.3857
34.75250314440949 24.4128
34.77601490857862 24.3233
34.799345904259795 24.2687
34.82267838863559 24.3147
34.846012362958525 24.2417
34.869530142679984 24.1229
34.89286711232212 24.1715
34.91620557568269 24.2313
34.93954553401677 24.1689
34.9630693495876 24.0912
34.986412313340814 24.2009
35.00975677584668 24.1741
35.033102738362956 24.026999999999997
35.05663261012228 23.8936
35.0799815881786 23.9403
35.10333207003229 23.9087
35.12668405694369 23.864
35.150220005273056 23.9091
35.17357501786656 23.8698
35.19693153931268 23.8476
35.220289570874385 23.7301
35.24383161619786 23.7575
35.267192683604904 23.7206
35.290555264930376 23.6247
35.314101899412165 23.6649
35.33746752422433 23.6222
35.36083466676374 23.6229
35.38420332829803 23.6162
35.407756095629054 23.6279
35.43112781085063 23.5837
35.45450104888391 23.6123
35.477875810999194 23.5693
35.50143473172161 23.4984
35.52481255774625 23.4671
35.54819191167777 23.468000000000004
35.57157279478914 23.3055
35.595137889488406 23.3142
35.61852184675279 23.3476
35.641907337029984 23.3183
35.665294361595684 23.2334
35.68886565090076 23.1653
35.7122557598848 23.0809
35.73564740699838 23.0987
35.759040593519934 23.0749
35.78261809810353 23.0183
35.80601437933051 22.9646
35.829412203814705 22.9411
35.85281157283719 22.8593
35.876395313415884 22.8653
35.8997977874528 22.7897
35.92320180988546 22.8218
35.946790244133936 22.7301
35.97019737933222 22.7926
35.993606066789866 22.6779
36.01701630779276 22.7193
36.04061101440684 22.5386
36.06402437852291 22.6207
36.08743930005611 22.5601
36.1108557802951 22.4734
36.13445678011326 22.4809
36.15787639383515 22.4316
36.18129757014299 22.3679
36.20472031032821 22.3726
36.22832762423364 22.3627
36.25175350829375 22.2958
36.275180960119776 22.213
36.298609981005924 22.2829
36.32222362992669 22.2969
36.34565580510207 22.2601
36.36908955323448 22.1636
36.39252487562093 22.0606
36.416144880530226 22.0564
36.43958336764275 22.0717
36.463023432914625 22.0469
36.486465077645676 21.9732
36.51009145956204 22.0683
36.53353627947859 22.0263
36.55698268276811 21.9201
36.58043067073321 21.908
36.60406345072071 21.7666
36.62751462435344 21.79
36.65096738658405 21.764
36.67460498210655 21.7404
36.69806093788647 21.695999999999998
36.72151848619297 21.6469
36.744977628333636 21.7061
36.76862165890998 21.592
36.79208400512205 21.6604
36.81554794910557 21.6069
36.83901349217101 21.4783
36.862663978991606 21.4917
36.88613273667352 21.441999999999997
36.90960309738324 21.5018
36.933075062434064 21.3928
36.95673202673572 21.3394
36.98020721697122 21.2806
37.003684015502365 21.2188
37.027162423645365 21.2596
37.050825886711465 21.2417
37.07430753063053 21.1987
37.09779078812467 21.1737
37.121275660513014 21.0977
37.144945643673694 20.9947
37.16843376245278 21.0288
37.19192350009803 21.0272
37.215414857931435 21.0255
37.239091382563885 20.9446
37.262585997426164 20.8774
37.28608223645736 20.9306
37.309763684451696 20.8596
37.33326318851098 20.8239
37.356764320726555 20.7716
37.380267082425526 20.7873
37.40395510942588 20.7201
37.42746114683234 20.6591
37.45096881771841 20.6174
37.474478123414166 20.6394
37.49817275092816 20.5894
37.52168534303452 20.5654
37.54519957395567 20.46
37.568715445024665 20.4604
37.592416694607714 20.4603
37.61593586281424 20.4851
37.63945667518264 20.5051
37.66297913304891 20.3473
37.68668702630454 20.375
37.710212792059274 20.2281
37.733740207334854 20.2234
37.757269273470364 20.1767
37.780983832050374 20.1532
37.80451621684926 20.1535
37.82805025654007 20.1242
37.851585952464795 20.0885
37.8753071980695 20.011
37.89884622345676 20.0945
37.92238690911902 20.0168
37.94611318753442 19.904
37.969657210779765 19.864
37.99320289834801 19.893
38.016750251586465 19.8697
38.04048325513017 19.7804
38.06403395679343 19.7651
38.087586328183946 19.7334
38.11114037065203 19.7174
38.13488012115898 19.715
38.1584375229181 19.6373
38.181996599821 19.5742
38.205557353221124 19.6143
38.229303872575656 19.6319
38.2528679961576 19.5401
38.27643380031219 19.5296
38.30000128639589 19.4818
38.32375459653193 19.4938
38.34732546371299 19.4707
38.37089801690786 19.4053
38.39447225747609 19.3743
38.418232380377425 19.2978
38.441810012983396 19.3388
38.46538933705673 19.276
38.488970353960084 19.2473
38.51273731166058 19.3103
38.536321731567014 19.1735
38.55990784840681 19.1101
38.58367995004091 19.139
38.60726947812959 19.0412
38.63086070726198 19.0238
38.654453638806274 19.0313
38.678232613930824 19.0
38.70182896773327 18.9247
38.72542702806741 18.8711
38.7490267963045 18.8611
38.77281266709232 18.8217
38.79641586862214 18.8421
38.8200207821842 18.778
38.843627409152944 18.8372
38.86742019782782 18.7566
38.891030269149255 18.7483
38.914642058016156 18.73
38.938255565806124 18.7237
38.96205529464307 18.6302
38.98567225787121 18.6122
39.00929094417078 18.6203
39.03291135492255 18.5851
39.05671804624804 18.5488
39.080341923549106 18.4785
39.103967529460334 18.4398
39.127594865365744 18.4367
39.15140854155791 18.4027
39.17503935514948 18.368
39.19867190290282 18.331
39.22249083587951 18.2554
39.24612686969409 18.3067
39.269764641845306 18.3065
39.293404153722804 18.241
39.317230110864074 18.1882
39.34087311998506 18.1705
39.36451787301696 18.1402
39.388164371352595 18.0157
39.41199737518003 18.0161
39.43564738196752 18.0232
39.45929913825317 17.998
39.48295264543308 18.0108
39.506792718520884 17.9572
39.530449745387216 17.9664
39.55410852735203 17.894000000000002
39.57776906581474 17.8838
39.60161623079 17.8885
39.625280300200025 17.8017
39.64894613032202 17.7707
39.67261372255866 17.7659
39.6964680021016 17.6865
39.72013913657293 17.7245
39.74381203738292 17.7341
39.76748670593756 17.6873
39.79134812278169 17.687
39.81502634488497 17.6345
39.83870633896685 17.5767
39.862388106436654 17.5395
39.88625668336918 17.5461
39.90994201572829 17.5157
39.933629125719285 17.4663
39.957503091207826 17.4131
39.9811937746168 17.4514
40.00488623990914 17.3762
40.02858048850006 17.3063
40.05246165409549 17.3057
40.076159487492085 17.2952
40.099859108448875 17.2952
40.123560518384345 17.256
40.1474489070226 17.2494
40.171153913178564 17.2119
40.194860712584955 17.1512
40.2185693066637 17.2025
40.242464941335314 17.0839
40.26617714307655 17.1207
40.289891143772046 17.1159
40.3136069448471 17.0692
40.33750984859743 17.0553
40.3612292688043 17.0206
40.3849504936829 16.9276
40.40867352466194 16.9403
40.43258372059144 16.9226
40.45631038219906 16.8848
40.48003885420956 16.8728
40.503769138055105 16.8196
40.52768664931955 16.8315
40.55142057531802 16.815
40.57515631746428 16.7303
40.599079334038514 16.7168
40.62281872700477 16.7038
40.64655994043941 16.6539
40.67030297578061 16.6298
40.69423334835778 16.6076
40.71798004609188 16.5898
40.74172857006355 16.5303
40.76547892171441 16.5793
40.7894166736039 16.5041
40.813170699248566 16.445
40.83692655691388 16.4607
40.86068424804498 16.4581
40.884629402612525 16.3757
40.908390779366385 16.3972
40.932153993938 16.3481
40.95591904777605 16.3145
40.979871628443995 16.3635
41.003640379561936 16.274
41.02741097430883 16.246
41.05118341413683 16.2148
41.075143444384416 16.1661
41.098919593177826 16.1267
41.1226975914255 16.146
41.14647744058318 16.0986
41.170444943946755 16.0583
41.19422851378379 16.0698
41.218013938914645 16.0131
41.24198706625173 16.0034
41.26577622087193 15.9918
41.289567235177785 15.9594
41.31336011063129 15.8903
41.337340752422875 15.8358
41.361137369129835 15.8752
41.38493585138705 15.8174
41.40873620066004 15.7794
41.43272438060107 15.8299
41.45652848292052 15.7415
41.48033445666918 15.6524
41.50414230331616 15.6513
41.528138045159764 15.6272
41.551949656675205 15.5864
41.575763145513235 15.6098
41.59957851314666 15.6707
41.62358184070442 15.593
41.64740098505737 15.5079
41.6712220126409 15.4958
41.69504492493139 15.4396
41.71905586207357 15.4565
41.74288256296395 15.4418
41.766711153007456 15.3817
41.79054163368412 15.4103
41.814560204340054 15.4313
41.838394485526365 15.3556
41.86223066180303 15.3129
41.88625497706819 15.2625
41.910094962812 15.3048
41.93393684811168 15.2922
41.95778063445365 15.1687
41.981812625263366 15.1691
42.00566023303407 15.1573
42.029509746323676 15.1591
42.05336116662236 15.1504
42.077400857069705 15.1163
42.10125611078846 15.0694
42.12511327600405 15.0372
42.14897235421036 14.98
42.173019768448455 14.9323
42.19688269209613 14.948
42.22074753323349 14.9642
42.24461429335818 14.8602
42.268669455600495 14.8688
42.292540073217886 14.9131
42.31641261433284 14.8363
42.34028708044675 14.7865
42.36435001496739 14.7516
42.38822835065557 14.7675
42.41210861586426 14.7443
42.4359908120986 14.7911
42.46006154323262 14.7612
42.48394762115317 14.6645
42.507835634632315 14.652000000000001
42.531912233047436 14.6357
42.55580413732265 14.6068
42.579697981698 14.5459
42.60359376768525 14.5533
42.62767820545945 14.5456
42.65157789440821 14.5414
42.67547952952185 14.4895
42.699383112316 14.4685
42.72347541395347 14.3562
42.74738291190531 14.314
42.771292362102166 14.3839
42.795203766063516 14.3486
42.819303956130405 14.3402
42.843219287476536 14.2341
42.86713657716324 14.2251
42.89105582671383 14.215
42.91516392983864 14.1978
42.939087119032166 14.2549
42.963012272677304 14.1909
42.98693939230129 14.1229
43.01105543317513 14.0941
43.034986504731386 14.0869
43.05891954686589 14.0356
43.08285456110972 14.1085
43.10697856448665 14.0495
43.130917542983475 14.0217
43.15485849820081 13.9698
43.17880143167367 13.9216
43.20293342237094 13.9211
43.226880332449 13.8961
43.25082922540554 13.9096
43.27496722682525 13.8728
43.29892010567796 13.8615
43.32287497204102 13.7851
43.34683182745632 13.7383
43.370977859791836 13.6896
43.39493871351105 13.6593
43.41890156092628 13.6748
43.44286640358341 13.6539
43.46702049182749 13.6176
43.49098934522816 13.6148
43.51496019852649 13.6516
43.5389330532723 13.6091
43.56309522248204 13.5255
43.58707210044314 13.5496
43.61105098451946 13.5391
43.63503187626491 13.5067
43.659202151562134 13.5149
43.68318707902681 13.4619
43.70717401884041 13.450999999999999
43.731162972560874 13.4114
43.75534137913236 13.3831
43.779334381108384 13.3279
43.803329401683186 13.3909
43.82732644241872 13.3384
43.8515130055166 13.311
43.87551410707659 13.2908
43.89951723350145 13.2976
43.923709934595614 13.2216
43.94771713129917 13.1992
43.97172635758096 13.1889
43.99573761501002 13.1947
44.0199385169922 13.1193
44.04395385732619 13.1163
44.067971233533086 13.1014
44.09199064718605 13.0526
44.11619977548961 13.0397
44.14022328470671 12.9871
44.16424883610785 12.9955
44.18827643127035 12.98
44.21249381139513 12.9707
44.236525514814076 12.9232
44.26055926674478 12.9272
44.28459506876863 12.9287
44.3088207262813 12.8381
44.33286064928722 12.8368
44.35690262714919 12.8318
44.38094666145278 12.7715
44.4051806219871 12.7919
44.42922879003185 12.7537
44.45327901929361 12.7163
44.477331311362136 12.7435
44.501573600619416 12.6433
44.525630039221795 12.7016
44.54968854541895 12.6457
44.573937102200176 12.6063
44.5979997645541 12.6008
44.622064499300315 12.5695
44.64613130803592 12.5788
44.67038823869318 12.5572
44.69445921643748 12.5271
44.718532272981385 12.4515
44.742607409926194 12.4726
44.76687274034801 12.4644
44.79095205918753 12.3729
44.81503346325094 12.3681
44.839116954143876 12.3987
44.86339071028742 12.349
44.88747839599524 12.3606
44.91156817336837 12.2974
44.93566004401666 12.2843
44.959942251908146 12.2819
44.984038330325966 12.2562
45.00813650686762 12.1845
45.03223678314731 12.187999999999999
45.05652746888232 12.1596
45.08063196592069 12.1401
45.104738567558705 12.097999999999999
45.128847275414856 12.1275
45.15314646515866 12.0704
45.17725940679741 12.0467
45.20137445952892 12.0378
45.22568004865265 12.0237
45.24979934496396 12.0457
45.27392075725247 11.9769
45.29804428714431 11.9417
45.322358426247604 11.9564
45.346486212804315 11.9398
45.370616121861914 11.9077
45.39474815505086 11.8327
45.41907087049246 11.8056
45.4432071734666 11.8051
45.46734560548283 11.8312
45.49148616817604 11.8258
45.51581748638564 11.8028
45.5399623320197 11.7439
45.56410931325473 11.7076
45.58825843173002 11.7123
45.61259837920865 11.669
45.636751793816 11.6905
45.66090735060093 11.6404
45.68506505120716 11.6001
45.7094136545275 11.6053
45.73357566449271 11.5211
45.75773982322992 11.5163
45.78190613238733 11.5396
45.806263418194064 11.4788
45.83043404997326 11.4986
45.85460683713677 11.4805
45.87897065658495 11.4314
45.90314777634752 11.4088
45.92732705646868 11.4173
45.9515084986045 11.3928
45.97588104735473 11.3625
46.00006683541565 11.3537
46.02425479047904 11.3572
46.04844491420549 11.2952
46.0728262191024 11.3184
46.09702070211635 11.2916
46.12121735879483 11.2841
46.14541619080294 11.2627
46.169806278764455 11.2512
46.194009483459034 11.2398
46.21821486849841 11.2051
46.24242243555223 11.1761
46.266821333570014 11.122
46.29103328674601 11.1055
46.31524742696538 11.1104
46.33946375590237 11.0909
46.36387149104216 11.0907
46.38809221957392 11.0327
46.41231514186606 11.0532
46.436540259597464 10.9986
46.460956858999374 10.9468
46.48518638983522 10.9336
46.509418121166966 10.9203
46.533652054678114 10.927999999999999
46.55807754555709 10.9071
46.58231590571962 10.882
46.60655647313217 10.8426
46.630988654873654 10.7996
46.655233659129024 10.7875
46.67948087571551 10.773
46.70373030632484 10.7768
46.72817142736393 10.7671
46.752425308428684 10.7268
46.77668140861147 10.7601
46.80093972960865 10.6903
46.82538981736788 10.6824
46.849652602470904 10.6595
46.87391761349769 10.6092
46.8981848521493 10.612
46.9226439341274 10.6052
46.946915650573224 10.617
46.97118959976749 10.5864
46.99546578341598 10.5497
47.019933887188216 10.5098
47.04421456235744 10.5061
47.06849747711879 10.4795
47.09278263318286 10.4453
47.11725978640143 10.4266
47.14154944775105 10.4153
47.165841355555656 10.3995
47.1901355115306 10.3726
47.214621741924994 10.3615
47.23892041698887 10.3363
47.26322134538975 10.3048
47.28771440635075 10.2929
47.31201986422527 10.3144
47.33632758061436 10.2798
47.360637557241866 10.2583
47.38513974410611 10.2522
47.40945426407847 10.224
47.43377104948137 10.2286
47.45809010204344 10.1817
47.48260144275502 10.1779
47.506925052572285 10.1378
47.53125093475548 10.1092
47.55557909103813 10.0962
47.58009961361992 10.0602
47.60443234110732 10.0664
47.62876734791564 10.0623
47.65310463578333 10.0144
47.6776343683373 9.9848
47.7019762413987 9.97523
47.72632040075572 9.9611
47.75066684815169 9.98671
47.77520581885936 9.945260000000001
47.799556865477655 9.91863
47.823910205386 9.9064
47.84826584033272 9.88918
47.87281407745551 9.84796
47.89717432569297 9.86151
47.92153687423484 9.86744
47.94609208429692 9.84418
47.97045925671401 9.77599
47.99482873471275 9.73955
48.01920052005013 9.7689
48.04376504619224 9.701260000000001
48.068141469543484 9.72493
48.09252020552573 9.71901
48.11690125590099 9.70005
48.1414751266064 9.653369999999999
48.16586082917454 9.65008
48.19024885144316 9.63809
48.2146391951793 9.60827
48.239222439012764 9.59539
48.26361744916137 9.5788
48.28801478610016 9.5897
48.31241445160131 9.54637
48.337007097209366 9.52794
48.36141144338331 9.54727
48.38581812345755 9.47403
48.41022713920929 9.474169999999999
48.434829215320704 9.463460000000001
48.45924292604658 9.461219999999999
48.48365897780325 9.47902
48.50807737237308 9.426169999999999
48.532688907799276 9.40183
48.55711201168574 9.396469999999999
48.581537463754074 9.36035
48.60615611725119 9.361410000000001
48.63058628942721 9.35713
48.65501881516546 9.30925
48.6794536962573 9.276530000000001
48.70408185970339 9.27162
48.72852147531801 9.26269
48.75296345168211 9.20824
48.77740779059232 9.21596
48.80204549302823 9.22981
48.82649458091802 9.21217
48.85094603676547 9.1476
48.87539986237231 9.15144
48.90004713292306 9.14808
48.92450572200832 9.13401
48.94896668628025 9.106589999999999
48.97343002754588 9.10064
48.99808689542115 9.07607
49.02255501470614 9.060830000000001
49.04702551642794 9.04819
49.0714984023988 9.04698
49.096164896893235 9.02029
49.120642575466796 8.9843
49.145122643748394 8.93034
49.16960510355558 8.93793
49.19428125404938 8.91708
49.2187685210852 8.90873
49.243258185121555 8.91198
49.26794160167084 8.90671
49.2924360839405 8.8813
49.31693296869764 8.827580000000001
49.34143225776915 8.793280000000001
49.36612538195438 8.799430000000001
49.39062950396021 8.76635
49.41513603578346 8.79875
49.4396449792564 8.74549
49.46434784069503 8.75009
49.488861631846454 8.740969999999999
49.513377840166804 8.6935
49.537896467493745 8.66817
49.56260909589029 8.654710000000001
49.587132585683285 8.66893
49.611658500018365 8.64321
49.636186840738596 8.61168
49.66090926588511 8.61162
49.685442483902584 8.58876
49.70997813385706 8.56542
49.734516217597076 8.53616
49.75924846937352 8.51121
49.7837914452858 8.50023
49.80833686055187 8.510689999999999
49.83288471702571 8.504480000000001
49.85762682540054 8.50757
49.882179588965734 8.46435
49.9067347993235 8.473889999999999
49.93129245833333 8.42116
49.95604445336378 8.42634
49.98060703442832 8.3974
50.005172069746266 8.39289
50.02993150438364 8.34695
50.05450147301533 8.34887
50.07907390151433 8.30594
50.10364879174981 8.32245
50.12841816587289 8.28355
50.1529980044635 8.31418
50.17758031042124 8.27416
50.20216508562089 8.276489999999999
50.22694442953363 8.22452
50.25153416817468 8.233839999999999
50.27612638170508 8.20073
50.300721072005196 8.19684
50.325510416102105 8.16973
50.350110084975064 8.15059
50.37471223628208 8.15201
50.39931687190919 8.11176
50.424116246675766 8.10115
50.44872587605249 8.07145
50.47333799543065 8.06139
50.49795260670191 8.052610000000001
50.52276204271512 8.043280000000001
50.54738166295838 8.02904
50.57200378079314 8.02317
50.596628398116835 7.98223
50.62144792604559 7.967039999999999
50.646077567609396 7.94723
50.670709714377715 7.956169999999999
50.69553683636198 7.93744
50.72017401885922 7.917619999999999
50.7448137122895 7.90775
50.76945591856022 7.89233
50.79429318636823 7.865
50.818940443716784 7.87523
50.84359021965163 7.87005
50.868242516085964 7.82295
50.893089960641895 7.812180000000001
50.917747323549435 7.75475
50.94240721271973 7.772419999999999
50.96706963007175 7.7450399999999995
50.99192728239342 7.759810000000001
51.01659478166073 7.78097
51.04126481489051 7.724069999999999
51.06593738400761 7.73415
51.090805275207074 7.6836899999999995
51.11548294172845 7.6894800000000005
51.14016314993547 7.67126
51.164845901758845 7.63404
51.18972406304274 7.610339999999999
51.21441192780656 7.591410000000001
51.23910234200271 7.5889
51.2637953075678 7.586069999999999
51.288683770237945 7.56263
51.31338186432707 7.54246
51.33808251561888 7.52595
51.362978729967345 7.552910000000001
51.387684521509755 7.499339999999999
51.41239287610203 7.53234
51.437103795691165 7.48782
51.46201036644977 7.461119999999999
51.486726441956634 7.4438
51.51144508832545 7.41047
51.536166307509156 7.44343
51.56108326624387 7.39465
51.58580965706056 7.3708800000000005
51.61053862657523 7.37052
51.635270176746864 7.348610000000001
51.66019755512065 7.343030000000001
51.68493429268881 7.33568
51.70967361681515 7.34714
51.73441552946465 7.30337
51.759353359237934 7.29661
51.7841004750961 7.26483
51.80885018539685 7.25258
51.833602492111254 7.2574
51.8585508051424 7.205010000000001
51.883308330926425 7.21197
51.90806845906181 7.197489999999999
51.932831191525715 7.1421
51.95779001977161 7.1924600000000005
51.98255798721516 7.150939999999999
52.00732856494335 7.12448
52.03229530577543 7.146039999999999
52.057071130455945 7.08074
52.081849571391054 7.103339999999999
52.106630630568695 7.048189999999999
52.13160794279417 7.06272
52.15639426492067 7.059710000000001
52.18118321127822 7.00068
52.205974783860896 6.97898
52.23096269971011 6.98491
52.255759551287994 7.01048
52.280559035098186 6.96179
52.30536115314103 6.94862
52.33035970494467 6.941110000000001
52.35516711807904 6.93266
52.37997717147198 6.88029
52.40478986713005 6.909510000000001
52.42979908731974 6.879
52.454617094216 6.877789999999999
52.47943774942214 6.84285
52.50426105495102 6.8578399999999995
52.529280976059844 6.8425899999999995
52.554109609024096 6.80081
52.57894089837482 6.81848
52.60377484613117 6.7983199999999995
52.62880550079408 6.75925
52.65364479223379 6.74685
52.67848674816189 6.7246
52.70352547971946 6.7224699999999995
52.72837279155837 6.7286
52.753222773982785 6.66725
52.778075429022984 6.682580000000001
52.80312495150885 6.665080000000001
52.827982978797436 6.63212
52.85284368481815 6.634119999999999
52.87770707160767 6.632860000000001
52.90276741793998 6.62927
52.92763619336701 6.59307
52.952507655698504 6.60093
52.977381806977576 6.5643199999999995
53.00245301017842 6.58247
53.02733256653592 6.566610000000001
53.052214817996074 6.54146
53.077099766608484 6.5210300000000005
53.102181859804446 6.522390000000001
53.127072229988265 6.51995
53.15196530349892 6.4890300000000005
53.17686108239249 6.4588
53.20195409881522 6.4487
53.22685531582556 6.428640000000001
53.25175924441303 6.36589
53.27666588664027 6.39266
53.30176985962693 6.36827
53.3266819565689 6.38649
53.35159677336455 6.39255
53.376514312083096 6.38021
53.40162927507703 6.3462
53.42655228516116 6.34169
53.45147802340193 6.3373
53.47660125628886 6.31304
53.50153247842639 6.27533
53.52646643496923 6.31504
53.55140312799818 6.30954
53.576537409691696 6.25213
53.60147960336152 6.23615
53.626424539786164 6.23342
53.65137222105307 6.21266
53.67651758529126 6.18262
53.70147078399681 6.16788
53.72642673383343 6.15327
53.75138543689533 6.1372599999999995
53.776541917524526 6.11977
53.801506154876755 6.15332
53.826473151763246 6.0913
53.851442910284916 6.07634
53.87661054126026 6.09171
53.9015858509782 6.06393
53.92656392866066 6.09192
53.95154477641532 6.09299
53.976723591801296 6.06011
54.00171000771266 6.04989
54.02669920004598 6.0256
54.051691170915745 6.01232
54.076881204886796 5.99174
54.101878760928514 5.99881
54.12687910187696 5.95258
54.152077577768296 5.96212
54.1770835166946 5.89403
54.20209224691339 5.8981900000000005
54.22710377055121 5.92203
54.25231352511594 5.90333
54.27733066384342 5.8265199999999995
54.30235060239643 5.88121
54.32737334290836 5.85455
54.35259441062629 5.80729
54.377622783395324 5.77916
54.40265396455061 5.799869999999999
54.42768795623251 5.822780000000001
54.45292037169559 5.77506
54.477960012857906 5.738230000000001
54.50300247099511 5.71694
54.52804774825457 5.71387
54.55329154616743 5.63849
54.57834249018678 5.68304
54.6033962597977 5.64996
54.6284528571545 5.68662
54.653708072335164 5.58641
54.67877035378786 5.58023
54.70383546947698 5.53326
54.72890342156389 5.5412
54.7541700889442 5.56556
54.77924374251975 5.5006900000000005
54.8043202390049 5.48581
54.82959552413022 5.48271
54.8546777351945 5.4612099999999995
54.87976279569621 5.43646
54.90485070780914 5.38525
54.930137506558005 5.35311
54.95523115074295 5.36495
54.98032765308844 5.35415
55.005427015775496 5.30855
55.03072536339621 5.32304
55.05583047570572 5.31464
55.080938454927676 5.27217
55.10604930325027 5.26778
55.131359235107396 5.29641
55.15647585066083 5.2161599999999995
55.181595341907496 5.18035
55.20671771104285 5.1418800000000005
55.232039262617704 5.13335
55.25716741665048 5.16449
55.28229845518636 5.12539
55.30743238042802 5.060969999999999
55.33276558731939 5.03528
55.357905315183636 5.05435
55.383047936390035 4.99656
55.40819345314859 5.00376
55.433538351073295 4.98829
55.458689688238415 4.98169
55.483843927614096 4.887630000000001
55.509197623043605 4.88946
55.53435769621134 4.85412
55.55952067826466 4.78345
55.5846865714265 4.80771
55.61005202069737 4.80344
55.63522376553902 4.84753
55.66039842818645 4.8022800000000005
55.68557601087004 4.80083
55.7109532500271 4.70987
55.73613670233794 4.7609
