TT I
1.2716486653135266 7.546589999999999
1.2939594142134223 7.40888
1.3162702121660406 6.650580000000001
1.3385810600174564 6.40196
1.3608919586137629 6.377269999999999
1.383202908801069 6.71692
1.405513911425503 6.6662
1.4278249673332093 6.3198099999999995
1.4501343378461518 6.25132
1.4724455028545926 6.01386
1.4947567236847858 5.82105
1.517068001182951 6.39741
1.5393793361953272 6.1245400000000005
1.5616907295681737 5.68662
1.5840021821477681 5.460459999999999
1.60631369478041 5.57712
1.6286252683124185 5.67822
1.6509369035901333 5.25441
1.6732468618895553 5.4050199999999995
1.695558623192809 5.00305
1.7178704487808514 4.77961
1.7401823395001077 4.67099
1.7625012545597203 5.1011
1.7848028405262486 4.5858099999999995
1.8071218901122095 4.929869999999999
1.8294236121921872 4.45761
1.8517427996910911 4.44944
1.8740620574440425 4.37236
1.8963639900671978 4.81642
1.9186833908139995 5.04063
1.9409854680117449 4.62333
1.9633050151394713 4.490130000000001
1.9856246367570705 4.36745
2.0079269371922672 4.65983
2.03024671027244 5.1097
2.0525491637446027 4.83151
2.074869091674931 5.20319
2.097171701569106 4.42052
2.1194917877373847 4.9056
2.141811954326636 4.72125
2.164114805233074 5.7196
2.186435135143035 6.55421
2.208738150935709 13.2275
2.231058647554722 27.4324
2.2533792288321184 20.7109
2.275682498336085 9.869019999999999
2.298003251406138 5.6188400000000005
2.3203066942619714 5.93671
2.3426276225136022 5.52575
2.3649486396617507 5.24955
2.387252348930071 6.07365
2.4095735463442893 6.555610000000001
2.4318774374315884 6.592960000000001
2.4541988185014043 6.5625
2.476502894794693 7.05317
2.498824462909887 7.17275
2.521146125856138 7.12482
2.5434504863470337 7.41189
2.5657723414244717 7.563739999999999
2.588076895590662 8.00458
2.610398946189713 8.323310000000001
2.6327210958598384 7.967739999999999
2.6550259469304716 7.891439999999999
2.6773482972090137 8.148
2.6996533504259 8.67602
2.7219759047039602 8.28839
2.744298562293959 8.40512
2.7666039251246595 8.147960000000001
2.7889267918020164 8.15288
2.8112323652516555 8.01113
2.833555444408179 8.063839999999999
2.8558786311183852 8.25406
2.8781845268938557 9.17411
2.9005079311721484 9.00279
2.9228140460410397 8.88946
2.9451376712799635 9.65852
2.967444008632326 9.98049
2.9897678582247247 10.2546
3.0120918213106695 10.2701
3.0343984987899373 10.6687
3.0567226913198637 11.1646
3.079029599759726 12.2332
3.101354025127254 12.3458
3.123678568232338 12.5535
3.145985829517914 13.5755
3.16831061055229 13.8407
3.1906181112775593 14.2556
3.212943133635653 14.7424
3.2352682779763207 14.8964
3.2575761442691227 15.6418
3.2799015350264273 16.0547
3.302209649240067 16.4987
3.3245352898092655 16.8882
3.3468436553365257 16.8857
3.369169549113219 17.3436
3.3914955708171384 18.0524
3.413804319727358 18.6505
3.4361305997334863 19.1539
3.4584396084414553 19.7729
3.4807661501462652 20.3039
3.503092824025881 20.6199
3.5254022288463154 20.9941
3.5477291695206588 21.9316
3.5700388426251948 22.3444
3.5923660534916446 23.5516
3.6146934007816114 37.7556
3.637003482731501 85.5924
3.6593311053109985 94.0714
3.681641464033634 54.4984
3.7039693653009733 30.533
3.726297407241705 26.176
3.7486081875460804 25.3585
3.7709365132734978 26.0791
3.793247578841633 26.6309
3.8155761917550093 26.7018
3.8378875459837216 27.0617
3.8602164494827234 27.5501
3.882545499606844 27.9477
3.9048572932539183 29.0398
3.9271866390645718 29.2317
3.9494987298666713 29.7634
3.971828374764527 30.298000000000002
3.9941581705403255 30.8308
4.016470713506008 31.4912
4.038800813471445 32.4011
4.061113662089144 32.7803
4.0834440696459176 33.7784
4.105774632334751 33.8843
4.128087945865126 34.4586
4.150418821249301 35.0532
4.172732448931298 36.5572
4.195063640413578 38.3417
4.2173775856475215 42.5695
4.239709096631102 73.3914
4.262040768704612 226.77
4.284355196706267 305.295
4.306687193387355 199.27599999999998
4.329001947444346 79.8931
4.35133427213731 48.088
4.373666762177566 44.9848
4.395982011761091 44.4857
4.418314834921175 45.9269
4.44063041906622 52.8077
4.4629635787515625 62.9182
4.4852969080429785 64.0211
4.5076130004776225 53.6302
4.529946671403969 49.9691
4.552263106909177 50.2422
4.574597122877047 51.1273
4.596931312711224 52.3225
4.619248269273446 53.1943
4.6415828092605835 54.3143
4.663900117405352 55.2172
4.686235010953232 56.7042
4.708552674085913 57.6688
4.730887924602802 59.3493
4.753223354952695 60.6146
4.775541557023902 62.4429
4.797877349456786 63.6134
4.820195915032126 65.9933
4.842532072957498 66.972
4.864868414979744 68.9757
4.88718753227192 71.2146
4.909524244902505 72.783
4.931843734218147 74.4835
4.954180820867835 76.9523
4.976518095879839 80.2967
4.998838149695359 83.0302
5.021175803844231 86.1161
5.043496238205739 89.2226
5.065834274903528 94.0537
5.088172504230693 98.5629
5.1104935158799565 104.521
5.132832132875765 125.573
5.155153533596801 165.952
5.1774925416746225 197.283
5.199814334878411 325.423
5.2221537374521505 923.38
5.244493338631803 2803.3
5.266815727034316 7680.97
5.289155727832427 12596.8
5.311478517248165 8945.13
5.333818921080011 2881.52
5.356159527788849 553.378
5.3784829252032536 184.585
5.400823940070432 143.536
5.423147747031976 127.632
5.445489173474152 117.917
5.467830807066149 113.169
5.490155234831516 109.257
5.512497285125229 105.711
5.534822130975162 103.96
5.557164601388673 101.897
5.579489868738879 99.0704
5.601832762690846 98.1002
5.6241758697774475 97.2814
5.646501775867269 95.9044
5.668845311622074 94.4657
5.691171647754637 94.19200000000001
5.713515615597765 93.0038
5.735859800852677 92.0115
5.758186788542988 91.2084
5.780531411018185 91.0984
5.802858837297399 90.553
5.825203900414495 90.4665
5.8475491852224 90.4478
5.869877275883075 91.0133
5.892223006467101 92.1637
5.914551544266608 93.1185
5.936897724049891 95.7723
5.959244129804903 100.471
5.981573344815301 115.76100000000001
6.0039202049061 195.112
6.026249875609095 418.593
6.04859719346037 921.7719999999999
6.070927323278297 2210.97
6.093275102315365 4534.9
6.115623113320588 5149.33
6.137953938319995 3211.47
6.160302415650845 980.7260000000001
6.182633708324452 237.74
6.2049826554078376 114.241
6.227331838745022 92.2175
6.249663839443684 84.9578
6.27201349767565 82.4668
6.294345974611799 88.0462
6.316696111167083 98.8566
6.339046488263839 93.6851
6.361379686074702 79.085
6.383730546639482 71.87
6.406064229255215 68.8249
6.428415576718203 68.3243
6.450749747566656 67.0387
6.47310158535871 66.2966
6.495453669698332 65.0033
6.517788579421056 64.8817
6.540141159237969 63.9486
6.562476565766648 63.4101
6.5848296444934045 62.898999999999994
6.607182974060425 62.5182
6.6295191323281015 62.4854
6.651872965955752 66.0461
6.6742096296068985 91.2151
6.6965639707294615 134.89600000000002
6.71891856698715 134.697
6.741255995248479 92.8246
6.763611104154477 67.8535
6.785949046381137 59.9717
6.808304671371482 57.9269
6.8306605557940046 58.1463
6.852999275508618 57.3687
6.875355681171544 57.2995
6.897694923437771 56.6085
6.92005185377892 56.3461
6.9423916220322655 55.9735
6.964749080490181 55.3998
6.987106804399774 55.6167
7.009447368180821 55.7598
7.031805625367033 55.4834
7.054146723727803 55.3193
7.076505517631004 55.0625
7.098864581288365 55.2089
7.121206488070854 54.6628
7.143566093607822 54.7476
7.165908543567245 54.7445
7.188268694426048 55.2542
7.2106291193438095 55.3142
7.232972390625943 56.9509
7.255333366030969 69.0004
7.277677189091925 120.345
7.300038718428332 166.47400000000002
7.322400526130865 138.787
7.344745183422596 86.9373
7.367107550224791 61.7664
7.389452767901992 56.2736
7.411815697249891 55.3253
7.434161478756298 54.1856
7.456524974096713 54.2865
7.478888753837185 54.5572
7.501235387657368 54.8252
7.523599738562711 54.2373
7.545946944825532 54.733000000000004
7.568311870344528 54.9393
7.5906770845765665 55.3645
7.613025156078678 56.7351
7.635390950099687 57.6914
7.657739602662809 56.8095
7.680105979923558 56.0638
7.702472650212829 56.1451
7.724822180948224 55.7551
7.747189439655568 55.6803
7.769539560075357 56.3705
7.791907410653562 56.4852
7.81425812420825 56.7246
7.836626570110925 56.5666
7.858995315087906 57.6156
7.881346924933401 57.9629
7.903716270417482 58.3822
7.926068482028405 58.3835
7.948438431475253 59.2757
7.9708086843180235 59.8597
7.993161805171116 60.2884
8.015532667162402 60.5689
8.037886398416653 61.7034
8.060257873014221 62.0499
8.082629655331942 62.761
8.104984308787587 63.4201
8.127356708900503 66.6969
8.149711981398308 72.1001
8.172085002766314 74.3633
8.194458336181368 71.6131
8.216814543847752 68.8468
8.23918850371002 69.2444
8.26154533906492 69.9454
8.283919928836452 71.418
8.306277395339652 72.4771
8.328652618483376 73.6694
8.351028159736202 75.6521
8.373386579575245 78.1595
8.395762759396959 79.6764
8.418121819038275 84.3677
8.440498640894003 97.1409
8.462875785192262 110.25299999999999
8.485235811156207 120.302
8.507613602688501 155.585
8.529974277114228 236.165
8.552352719347912 369.131
8.574731488360351 641.13
8.59709314210385 1176.0
8.619472567021075 1869.92
8.64183487789147 2165.79
8.664214962183097 1796.76
8.686577933647762 973.403
8.708958680784317 376.917
8.731339760774953 165.21200000000002
8.753703729764451 111.432
8.77608547780821 99.0781
8.798450116065078 95.0777
8.820832535634787 92.2492
8.843215292401656 90.5474
8.865580941199045 89.23899999999999
8.887964374703538 88.3095
8.910330701447199 89.441
8.932714815164482 91.8457
8.955099270424924 90.7572
8.977466620733543 87.6779
8.999851761421976 85.0029
9.022219798361645 83.4702
9.04460562795561 83.2162
9.066991803441677 82.7382
9.089360876979615 82.425
9.111747746589993 82.1143
9.13411751544971 81.4273
9.156505082664324 81.2082
9.178875550323522 81.7915
9.20126381862328 82.3914
9.223652438908596 82.665
9.246023961427412 82.1705
9.26841328802173 81.5367
9.290785518039224 81.4662
9.313175554425882 81.7959
9.335565947154315 82.0338
9.357939245086508 82.2732
9.380330352834827 82.5671
9.40270436697103 82.7131
9.425096193225055 82.9481
9.447488380180165 83.6182
9.469863475295412 83.7342
9.492256385987508 84.4039
9.514632206018318 84.9026
9.537025843935714 85.0232
9.559402392368193 85.9997
9.581796761000229 86.9207
9.604191496441521 87.8075
9.626569144158516 91.6108
9.648964615551032 95.7326
9.671343000390081 97.1577
9.693739211225699 95.5023
9.716135793237463 93.2784
9.738515290448102 92.9717
9.760912617143402 93.7611
9.783292860202891 94.7133
9.805690935076182 96.3238
9.828089385495742 97.0463
9.850470754023561 99.5825
9.872869957865444 106.649
9.89525208097539 121.439
9.917652041736662 133.217
9.940052382417589 131.916
9.962435644102392 136.735
9.984836746950979 168.875
10.007220771957746 229.525
10.029622640473708 331.969
10.052007432299963 511.17400000000004
10.074410069984072 814.71
10.096813093716005 1269.87
10.119199042482517 1762.82
10.141602840636468 1968.44
10.163989564971628 1598.22
10.186394141051062 910.128
10.208799107559706 410.631
10.231187001965623 190.643
10.253592751657669 126.391
10.275981430388155 113.34299999999999
10.298387966769793 112.209
10.320794897965431 114.652
10.343184759907361 113.314
10.36559248305461 107.91
10.387983138083852 103.874
10.410391656691655 105.825
10.432800574501677 115.463
10.455192425893369 131.83
10.47760214443012 157.014
10.499994797678786 201.28099999999998
10.522405320453982 283.755
10.54479877906917 410.714
10.567210109595656 516.774
10.5896218454736 578.313
10.612016518879773 512.484
10.634429067781074 357.48900000000003
10.656824555333241 207.111
10.679237920773568 127.04299999999999
10.701651695961992 96.5199
10.724048411481384 89.17200000000001
10.746463008485165 86.1592
10.768860546937125 84.7185
10.791275969274796 82.8815
10.81369180576079 81.9524
10.836090585366925 80.6761
10.858507252467449 79.7353
10.88090686379991 78.5212
10.903324365036394 78.2369
10.925724811614439 78.1957
10.948143150509463 79.2436
10.970561909719066 78.4562
10.992963615930844 76.7063
11.015383218085756 74.5948
11.037785768347074 73.0927
11.06020621697282 72.3671
11.082627090322113 72.2744
11.105030913430326 71.5568
11.12745263854165 71.8891
11.149857314510728 75.0278
11.172279894912576 81.1241
11.194702904450653 81.6257
11.217108866490921 77.709
11.239532736615194 73.5348
11.26193956033512 71.2813
11.284364294577085 69.7621
11.306789462371718 68.1701
11.329197585398376 66.691
11.351623622610898 66.9709
11.37403261614354 65.8568
11.396459526308487 65.8883
11.418869393879497 65.6532
11.441297180532617 65.1933
11.463725406927658 64.8196
11.486136592353875 64.6965
11.508565700543707 65.075
11.530977768845315 66.8324
11.553407762368774 67.5191
11.575838200059769 66.9737
11.598251599479612 65.1942
11.620682927815501 63.6728
11.64309721895548 63.5158
11.665529441478206 62.769
11.687962112597958 62.5399
11.710377748130886 62.8967
11.732811318753434 62.6672
11.755227854859067 62.7672
11.777662328529495 62.5938
11.800079768750786 62.253
11.822515149015453 62.2047
11.844950984084935 62.5303
11.867369787303163 62.247
11.889806534289491 62.2624
11.912226250487029 62.5064
11.934663912939751 62.6064
11.9571020346363 62.6236
11.979523127133968 62.6174
12.001962169624331 63.339
12.024384183972964 64.1609
12.046824150809913 67.0612
12.069264581333726 71.717
12.091687985297767 77.3566
12.11412934550045 86.7063
12.136553680195208 102.053
12.158995973632788 124.831
12.181438735204349 154.483
12.20386447284199 179.457
12.226308172985636 201.19099999999997
12.24873485024193 196.72799999999998
12.271179492516982 163.618
12.293607112949127 126.00399999999999
12.316052700916226 97.4027
12.338498763250042 78.9324
12.360927805303868 70.2386
12.383374818673879 66.5825
12.405804812803074 64.4263
12.428252780773262 63.9435
12.45070122756722 64.065
12.473132656675375 63.95399999999999
12.49558206341869 64.1575
12.518014453510101 63.8274
12.540464823770117 64.1523
12.562915677315177 64.6424
12.58534951575545 65.2963
12.607801338171472 67.2871
12.630236146511358 72.2427
12.652688941369085 76.9826
12.675124723177234 76.9643
12.697578494048786 73.6217
12.720032754458185 69.4322
12.742470003354093 67.5943
12.764925245138771 67.3524
12.787363476431278 67.4685
12.809819703166806 68.0253
12.83227642391173 68.6651
12.854716135692716 69.5527
12.877173846755147 70.4149
12.899614549869717 70.8796
12.9220732548287 71.4551
12.94453245827299 71.9004
12.966974655289818 73.1742
12.989434858002571 73.7088
13.011878055298721 74.4449
13.034339260862497 75.7429
13.056800969391883 76.6991
13.079245674017244 78.4961
13.101708390774869 80.5641
13.12415410463411 86.6993
13.146617833206086 97.3965
13.169064559883248 109.01700000000001
13.191529303857127 123.27
13.213994557076367 146.447
13.236442809902437 184.13099999999997
13.258909083908291 240.298
13.28135835851934 304.019
13.30382565690295 370.42699999999996
13.326293469022952 420.103
13.348744283242008 414.899
13.371213125129904 357.13800000000003
13.39366497011003 264.775
13.416134845360597 178.46400000000003
13.438605238843131 127.14
13.46105863690397 105.70299999999999
13.483530069144786 103.934
13.505984506951902 108.734
13.528456981549432 117.945
13.550929978879088 132.596
13.573385983253365 157.149
13.595860028340867 196.517
13.618317081455832 249.285
13.64079217790333 303.621
13.663250283359057 348.407
13.685726434770173 368.162
13.708203115221277 333.18699999999995
13.730662806148091 259.171
13.75314054697177 186.053
13.775601299246777 128.619
13.798080104050406 97.5001
13.820559442405358 85.4789
13.843021793671388 81.5366
13.865502201420897 79.7169
13.887965623051947 79.1237
13.910447103807167 78.0822
13.932929122629764 76.9161
13.955394156785959 76.6047
13.977877254034569 75.5214
14.000343367582113 74.8448
14.022827546871707 74.2481
14.045294743423524 73.4292
14.06778000837062 72.56
14.090265817715476 72.6883
14.112734645763819 72.4598
14.13522154619454 71.9723
14.157691466286913 72.0951
14.180179461423874 71.8827
14.202668005486178 71.2324
14.22513957064374 70.7418
14.247629214846473 70.0429
14.270101881097517 70.0524
14.29259262906496 70.1902
14.315083930490205 71.042
14.337558255389705 71.0491
14.360050666019726 70.8405
14.382526101071944 69.9292
14.405019624534942 68.9542
14.427513705993134 68.7984
14.449990813291825 68.7241
14.47248601302899 68.45100000000001
14.49496423954951 68.5094
14.517460561197822 68.7155
14.539939910570322 68.5404
14.562437357763558 68.657
14.58493536931253 69.8925
14.607416409993311 70.7171
14.62991555254159 71.3731
14.652397725157423 71.1052
14.674898002342799 70.5333
14.697398848433282 70.2845
14.719882725991326 70.5013
14.74238471217934 71.3617
14.764869730765593 74.2788
14.787372860692983 77.7499
14.809876564079925 82.3187
14.83236330125751 87.7893
14.854868153850365 96.4085
14.877356041159485 110.155
14.899862046604186 128.651
14.922351087688757 154.673
14.944858249632887 182.767
14.967365991421232 208.25099999999998
14.989856770231246 218.85
15.012365673994204 213.671
15.03485761569738 187.014
15.05736768508665 148.484
15.07987833888692 115.579
15.102372032001655 91.0424
15.124883856909658 77.1456
15.14737872204565 72.3584
15.169891721717274 70.2792
15.192405310371893 70.1274
15.214901940621196 70.5671
15.237416709527137 70.4795
15.259914520936249 70.6702
15.282430473753607 69.7491
15.304947020131227 68.8601
15.327446610371178 67.8454
15.349964346154254 66.99600000000001
15.372465126703139 66.5619
15.394984055556009 66.3305
15.417486030076159 66.2103
15.44000615566487 66.0831
15.462526881230803 66.1544
15.485030653812652 66.1813
15.507552581617434 66.0224
15.530057557334603 66.0728
15.55258069104857 65.872
15.575104429329837 65.8063
15.597611216864632 65.3634
15.620136166564563 65.4308
15.6426441664095 66.36
15.665170331202765 68.3975
15.687697105158826 70.958
15.710206930593545 74.4325
15.732734925158933 78.6766
15.755245972089478 84.8978
15.77777519094324 94.3324
15.800287463046663 107.71700000000001
15.822817909869592 128.099
15.84534897229804 150.513
15.867863089299354 172.66
15.890395385222186 188.87099999999998
15.912910736597423 192.715
15.935444269699861 181.84400000000002
15.957978423016485 154.281
15.980495633101265 124.54
16.003031029129367 97.8355
16.02554948280019 77.7715
16.048086125229432 68.2446
16.070623392487107 65.2974
16.09314371869582 64.3278
16.11568223789321 63.214
16.13820381691126 62.2518
16.160743591742527 61.373000000000005
16.183283996022084 60.2787
16.205807461423195 59.4294
16.228349126881973 58.8528
16.25087385432698 58.5325
16.27341678466365 58.0261
16.29594277784926 58.0868
16.31848697676433 58.3441
16.341031811604868 58.516000000000005
16.36355971058487 58.9111
16.3861058195587 58.7461
16.40863499352978 57.5075
16.431182380342005 56.5435
16.453730407713202 56.0466
16.476261501364792 55.6446
16.498810812136167 55.297
16.52134319004079 55.3477
16.54389378792203 55.2626
16.566445031001553 55.246
16.588979342490088 54.9824
16.61153187824822 54.7986
16.634067483263312 54.6606
16.656621315414416 54.6911
16.679175797408888 54.2253
16.701713349928728 54.5505
16.72426913389191 54.6637
16.74680798922351 54.696999999999996
16.76936507887444 54.7378
16.791905240734874 54.78
16.814463639794468 54.5393
16.837022695210294 54.6649
16.859564824093756 55.1577
16.882125194503903 55.6666
16.904668639217885 56.3727
16.927230328348003 56.4037
16.949792678493612 56.4738
16.972338104193863 55.9446
16.994901778652235 55.3696
17.017448529496576 55.0974
17.040013531998152 55.7425
17.06257920018044 56.0764
17.0851279459922 56.6061
17.107694947817667 57.5617
17.130245028099072 58.0878
17.15281336730298 59.6228
17.17536478578733 61.4022
17.19793446610687 63.7239
17.220504818648422 66.7046
17.243058251703697 70.0292
17.265629950971032 74.5996
17.288184731571736 79.306
17.310757781306908 82.8723
17.33333150794385 84.1525
17.355888317140174 81.8099
17.37846339986244 76.4392
17.401021565958885 70.8221
17.42359800851343 65.6013
17.44617513265564 62.0184
17.468735341390783 59.9653
17.491261035594565 59.0606
17.51396340099364 58.6979
17.536490463869136 59.03
17.559018209820174 58.8507
17.58154663977963 58.9368
17.604251766089718 58.9916
17.626781572227713 59.3411
17.64931206518155 59.611999999999995
17.671843245885103 60.0862
17.69455114821572 60.1888
17.717083712612634 60.5812
17.739616967569667 60.7445
17.762150914021706 61.2069
17.78486160749854 61.1754
17.807396945166804 61.4047
17.829932977143503 62.5035
17.85246970436452 63.6114
17.875183204129467 65.3454
17.897721330097664 67.6133
17.920260154126645 70.0926
17.942799677153296 73.0366
17.9655159983646 77.0056
17.988056927677544 82.1382
18.010598558807683 89.8869
18.033140892692916 100.459
18.05586005052525 111.396
18.07840379824407 122.598
18.10094825154059 132.484
18.12366954819864 139.17600000000002
18.146215420998306 137.639
18.16876200220057 130.376
18.191309292745153 116.76
18.214033452627167 103.259
18.236582170236648 92.115
18.259131600016456 86.9856
18.281681742907335 86.9624
18.304408781233683 90.7825
18.32696035875955 95.4581
18.349512652227624 99.9343
18.372065662579683 104.025
18.394795594587553 104.666
18.41735004715306 101.42399999999999
18.43990521943684 95.193
18.46246111238171 86.5941
18.485193953325208 77.0666
18.507751296070428 70.0113
18.530309362314178 65.9146
18.552868153000343 63.3255
18.57560391815056 62.1086
18.59816416623245 61.6527
18.620725141597372 61.0592
18.643286845190268 60.8045
18.666025549835414 60.1984
18.688588718427933 59.7872
18.711152618092243 59.6541
18.73389353884365 59.2766
18.75645890921984 58.8329
18.77902501351406 58.2659
18.801591852673102 58.3565
18.824335739722738 57.9369
18.846904057212626 58.0089
18.8694731124168 57.515
18.89204290628315 57.5393
18.914789774966803 57.3934
18.937361054791623 57.028999999999996
18.959933076131318 56.9739
18.982505839934877 56.912
19.00525570560582 57.0152
19.027829963004184 56.7045
19.05040496572238 56.688
19.072980714710468 56.5361
19.095733592739563 56.8055
19.11831084296757 57.0903
19.140888842324735 57.6356
19.16346759176222 57.8933
19.18622349753803 58.2276
19.208803755869358 59.2358
19.231384767143577 60.3824
19.253966532312948 61.9532
19.276725481241822 64.2862
19.29930876296784 66.8758
19.3218928014549 69.8046
19.34465404436217 72.5687
19.36723960516257 74.9191
19.389825925592426 75.6033
19.412413006605938 74.7459
19.43517731967805 71.4137
19.457765930683355 67.5018
19.48035530514408 63.1103
19.50294544401556 59.5565
19.525712842708348 56.6978
19.54830451925909 55.1865
19.570896963095727 53.8616
19.593490175174704 53.7295
19.616260674962184 53.824
19.638855432416964 53.2649
19.661450960992624 53.6482
19.68404726164677 53.4067
19.706820878021247 53.1465
19.729418731756834 53.4801
19.752017360452857 53.0918
19.77461676506804 53.3466
19.797393513540218 53.4797
19.819994478951667 53.5823
19.84259622316767 54.2599
19.8651987471481 54.8035
19.887978643247177 54.9394
19.91058273574792 55.1806
19.933187610901943 56.023
19.955969879466828 57.2236
19.97857632894404 58.5949
20.00118356396599 60.3154
20.023791585494575 62.6443
20.046577028914875 65.3516
20.069186632506966 67.3851
20.091797025500632 68.9436
20.114408208858933 69.8262
20.137196842715273 68.9466
20.159809615886765 67.7911
20.18242318232135 65.3722
20.20503754298326 63.4309
20.227829382875154 62.3372
20.250445341109344 62.3662
20.27306209647285 63.1436
20.29567964993108 64.07
20.31847471147704 64.9214
20.34109387027612 65.4296
20.363713830075454 64.7221
20.386334591841646 63.3553
20.409132890679302 61.0114
20.431755265564437 58.3037
20.454378445325528 55.5816
20.477002430930366 53.7412
20.499803982716553 52.23
20.522429589228004 51.4931
20.54505600449589 51.0676
20.567683229489194 50.7983
20.590488049900088 50.427
20.61311690359731 50.0528
20.63574656993626 50.0216
20.658553853717297 49.6047
20.681185154618298 49.4633
20.703817271080066 49.4827
20.72645020407368 49.2044
20.749260783967177 49.163999999999994
20.771895359337133 48.9882
20.794530754161617 48.7763
20.817166969412938 48.6926
20.83998086114876 48.8759
20.86261872660049 48.7116
20.885257415405402 48.5974
20.90789692853701 48.4537
20.930714147864748 48.3944
20.953355319030678 48.4278
20.97599731745334 48.5886
20.99864014410749 48.3953
21.021460706796564 48.4727
21.044105199328826 48.736999999999995
21.06675052302631 48.8276
21.089396678865015 49.1596
21.112220600704806 49.4301
21.134868430275347 49.5658
21.15751709492456 50.0323
21.180166595629693 50.3503
21.202993892429635 50.7119
21.22564507473034 51.0202
21.24829709602816 51.382
21.27112693608965 51.3025
21.293780644891275 51.2201
21.316435195634053 50.5036
21.339090589297417 49.7628
21.361923832041875 49.467
21.384580921090404 48.7465
21.407238856007325 48.3119
21.429897637773326 48.18600000000001
21.45273429906592 48.3613
21.475394784108598 48.1349
21.498056118951983 48.1734
21.520718304578022 48.2677
21.543558400304388 48.4069
21.566222297108816 48.711000000000006
21.58888704765135 48.7929
21.61155265291521 49.0128
21.63439619898156 49.4542
21.657063523335786 49.5952
21.67973170537063 50.0239
21.7024007460706 50.5464
21.72524775840385 51.2352
21.747918526116475 52.4816
21.770590155457388 53.5938
21.79326264741238 55.1701
21.816113141960237 57.1569
21.838787368860547 58.9777
21.861462461341976 60.6885
21.884315579735777 62.6824
21.90699241312273 63.9533
21.92967011506078 64.471
21.95234868653799 64.2576
21.9752053151131 63.0967
21.997885635446785 61.3862
22.020566828293532 59.5525
22.04324889464272 58.0685
22.066109049404666 56.7366
22.088792872571794 56.0851
22.111477572219204 56.0323
22.1341631493376 55.8501
22.157026846313123 55.5803
22.179714188221507 55.0736
22.202402410582668 54.2006
22.22509151438863 52.6316
22.24795876962584 51.5052
22.270649646204486 50.3928
22.293341407213727 49.8403
22.316034053646906 49.2393
22.338904883215342 48.9095
22.36159931041458 48.9125
22.38429462602756 48.8529
22.40699083104897 48.7781
22.429865251039757 48.6589
22.452563244831367 48.8133
22.47526213102522 48.7831
22.49813925616515 48.5176
22.520839937143307 48.4877
22.543541513520587 48.4337
22.56624398629403 48.4289
22.589124730075895 48.2561
22.611829005656723 48.5154
22.63453418063466 48.6361
22.657240256008077 48.8265
22.680124634582935 48.8625
22.70283252079775 49.1794
22.725541310413075 49.4578
22.74825100442868 49.4127
22.771139033969575 49.9054
22.79385054687155 50.2765
22.81656296718292 51.0411
22.83927629590484 51.8081
22.862167992606945 52.8092
22.88488314827121 54.166000000000004
22.907599215359284 55.0544
22.93031619487366 56.1745
22.953211574954405 56.9988
22.975930389478226 57.6171
22.998650119445763 57.7131
23.02137076586092 57.0913
23.044269845560063 55.8086
23.06699233506288 54.2484
23.089715744034912 52.726000000000006
23.112617610931565 51.0826
23.135342869061212 49.9544
23.158069049684816 49.1638
23.1807961538087 48.903
23.20370174880544 48.6242
23.226430710184808 48.504
23.249160598093425 48.565
23.271891413539002 48.6396
23.294800752937697 48.6663
23.31753343374794 48.9674
23.340267045128353 48.9311
23.36300158808808 49.2097
23.38591468821339 49.6202
23.408651104658304 50.0756
23.431388455719986 50.6474
23.454126742409 51.5007
23.4770436196085 52.6872
23.499783787914662 53.8086
23.522524894889884 54.8007
23.54526694154616 55.8145
23.56818761219047 56.9021
23.59093154860734 57.3032
23.613676427751283 57.5855
23.636422250635754 56.7549
23.659346731118656 55.2097
23.68209445191868 53.415
23.704843119509587 51.4249
23.72759273490623 49.6043
23.750521041644767 48.2865
23.77327256312355 47.2368
23.796025035462787 46.4512
23.818956224555475 45.9151
23.841710609113413 45.7946
23.86446594758979 45.6425
23.887222241002014 45.3447
23.910157285144578 45.1041
23.932915498962537 45.2366
23.955674670778713 45.0659
23.978434801611975 44.7978
24.001373717286125 44.6226
24.024135776723917 44.5172
24.046898798245582 44.5667
24.06966278287146 44.3852
24.092605586582614 44.1451
24.115371508023642 44.0986
24.1381383956401 43.9248
24.16090625045381 43.8846
24.183852958731244 43.9694
24.206622758582608 43.7385
24.229393528706886 43.5798
24.252165270127392 43.5797
24.27511589952438 43.3933
24.297889594216997 43.3585
24.32066426328598 43.3507
24.34343990775613 43.3075
24.36639447485003 43.095
24.38917208083877 43.099
24.41195066531332 42.8464
24.43490819850244 42.9703
24.457688750692377 42.9224
24.48047028445616 42.8933
24.503252800821233 43.1543
24.526214300784112 42.9248
24.548998793132213 43.0643
24.57178427117417 42.818000000000005
24.59457073593893 42.8037
24.617536219319863 42.6975
24.64032466834748 42.6923
24.663114107195035 42.7428
24.685904536893013 42.4964
24.708874020360852 42.4015
24.731666442613744 42.3346
24.754459858818787 42.2655
24.777254270007962 42.1272
24.80022777025625 42.1052
24.82302418230472 42.13
24.845821592443674 42.0935
24.86862000170663 42.0645
24.891597535453727 41.861000000000004
24.914397953892728 42.1368
24.93719937456671 42.0163
24.96000179851076 42.2309
24.98298338249997 42.3178
25.00578782394922 42.5381
25.028593271784167 42.6438
25.05157790644186 43.0086
25.07438537804115 43.2159
25.097193859145293 43.4496
25.120003350792075 43.5493
25.142992065061257 43.9855
25.165803588823465 44.2047
25.18861612625217 44.3709
25.211429678386736 44.5795
25.234422489079968 44.6302
25.257238081693636 44.6932
25.280054692141732 44.8981
25.3028723214652 44.6158
25.325869245420463 44.7827
25.348688923599397 44.721000000000004
25.371509623787006 44.7801
25.394331347025812 44.4737
25.41733240110666 43.9856
25.440156181590016 43.4533
25.46298098826268 42.9262
25.48580682216873 42.34
25.50881202326435 41.8001
25.53163992281684 41.3387
25.55446885274561 41.181999999999995
25.577298814096377 40.8586
25.600308179121807 40.7395
25.623140214533745 40.7191
25.64597328451537 40.704
25.66898578564376 40.4252
25.691820936010206 40.4377
25.714657124097695 40.3798
25.737494350954734 40.3693
25.760511045684957 40.3047
25.783350361364224 40.3789
25.806190718969255 40.4448
25.82903211955018 40.4846
25.852053024868923 40.5948
25.874896522722523 40.6595
25.897741066713106 40.5178
25.920586657892454 40.5186
25.943611790812668 40.658
25.966459487728237 40.942
25.989308234998564 40.7583
26.01215803367705 41.257
26.03518741123814 41.391999999999996
26.05803932412957 41.5318
26.080892291600094 41.6143
26.10374631470478 41.489
26.12677995397268 41.4577
26.14963609978026 41.6421
26.172493304397875 41.1818
26.19535156888223 41.1591
26.218389486949604 40.6817
26.241249882640123 40.5348
26.26411134137826 40.2349
26.28715248187403 40.1888
26.31001607820869 39.9637
26.3328807407756 39.8172
26.35574647063438 40.0431
26.37879191991473 39.9498
26.401659795896734 39.9319
26.424528742360263 40.056999999999995
26.447398760366614 40.1854
26.470448535598294 40.3992
26.49332070826805 40.6219
26.516193955675355 40.9566
26.53906827888316 41.1399
26.562122397260108 41.3118
26.584998883685063 41.5968
26.607876449110325 41.8198
26.63075509460056 41.8515
26.65381357334404 42.0318
26.67669439061878 42.0202
26.699576291163382 41.8424
26.722459276044212 41.7913
26.745522132402975 41.6401
26.768407297649354 41.365
26.791293550442003 41.011
26.814180891848974 40.7802
26.837248143099337 40.4311
26.860137673466657 40.365
26.88302829566349 40.0941
26.90592001075963 39.9002
26.92899167420566 39.7717
26.951885586870763 39.3473
26.974780595655517 39.223
26.99785558178161 39.0337
27.020752794605112 38.9895
27.043651106772522 38.7751
27.06655051935668 38.8282
27.089629948036183 38.5837
27.112531573292053 38.5066
27.135434302194138 38.6223
27.158338135817015 38.586999999999996
27.181422024430987 38.522
27.204328079372566 38.3992
27.22723524226965 38.4528
27.250143514198573 38.5421
27.273231880156334 38.5056
27.296142382065014 38.2249
27.319053996245536 38.2745
27.341966723775965 38.39
27.365059584515222 38.4348
27.38797455070062 38.4712
27.410890633481237 38.3168
27.433807833936918 38.2776
27.456905206923906 38.3741
27.47982465472398 38.42
27.502745223449743 38.4668
27.525666914182825 38.5509
27.548768816912457 38.4349
27.571692763693633 38.3092
27.59461783573812 38.2435
27.617723149491244 38.1811
27.640650484125285 38.0127
27.66357894728264 37.9798
27.686508540048052 37.9165
27.709618414237887 37.9203
27.732550278321757 37.8533
27.755483275279115 37.878
27.778417406196485 37.7524
27.801531858397514 37.7237
27.824468269376716 37.8303
27.847405817586786 37.6745
27.870344504116094 37.9003
27.893463551932008 38.0451
27.916404527281053 38.2786
27.93934664422563 38.3511
27.962289903855886 38.3814
27.98541356491974 38.5056
28.00835912214229 38.6488
28.03130582533231 38.8982
28.054253675581805 39.0616
28.077381967556104 39.0233
28.100332124185126 38.9072
28.123283431160893 38.8625
28.146235889577238 38.6721
28.169368830154156 38.547
28.192323603752033 38.4004
28.215279532083304 38.0414
28.238415973016764 37.8802
28.261374223145094 37.7831
28.284333631303806 37.6263
28.307294198589954 37.4333
28.330435319167677 37.0636
28.353398217078915 36.8872
28.376362277420153 36.5704
28.39932750129032 36.5178
28.422473319286713 36.4813
28.44544088262495 36.4284
28.468409612800283 36.132
28.491379510913497 35.8534
28.51453004413313 35.8523
28.53750229057244 35.8033
28.56047570826344 35.8158
28.583450298308804 35.8011
28.606605564586562 35.5516
28.629582511831156 35.6528
28.65256063474956 35.5494
28.675539934446338 35.5917
28.698699951647605 35.6063
28.72168161743193 35.4092
28.74466446331978 35.4081
28.767648490417624 35.3292
28.790813276438353 35.2484
28.813799678527303 35.4727
28.836787265157085 35.4728
28.859955641890075 35.3766
28.882945610203045 35.3757
28.905936766392035 35.278
28.928929111566863 35.1362
28.952102288520145 35.0694
28.975097024308607 34.9444
28.998092952423807 34.9889
29.021090073977508 34.8542
29.04426806913204 34.7037
29.067267590245258 34.5519
29.090268308143695 34.5844
29.11327022394099 34.5232
29.13645305530891 34.3765
29.159457379627167 34.2574
29.18246290519685 34.2721
29.20546963313352 34.3607
29.22865731875826 34.2937
29.25166646419296 34.3006
29.27467681535305 34.1709
29.29768837335608 34.2424
29.320880931312562 34.2781
29.34389491580634 34.1928
29.366910110507334 34.139
29.38992651653503 34.1042
29.41312396492981 34.0601
29.436142806456754 34.0876
29.45916286268059 33.9751
29.48236399319994 33.8847
29.50538649169417 33.6805
29.528410208259935 33.6501
29.55143514402014 33.4887
29.574641196749695 33.269
29.597668583816574 33.2024
29.6206971934585 33.0642
29.64372702680042 33.0981
29.666938019934474 33.0161
29.689970313635285 32.8386
29.713003834422636 33.022
29.73603858342347 33.0419
29.759254535188578 32.7171
29.78229175361658 32.7933
29.80533020365064 32.7839
29.82836988641968 32.8548
29.85159081507472 32.7547
29.874632976355343 32.6997
29.89767637376955 32.6575
29.920721008448314 32.5914
29.9439469322847 32.5696
29.96699405457564 32.4345
29.9900424175358 32.4141
30.013092022298157 32.4221
30.03632295963995 32.4436
30.059375061131373 32.3231
30.08242840783577 32.4212
30.105483000888153 32.3381
30.128718970092244 32.2263
30.151776069006917 32.303000000000004
30.17483441768648 32.4162
30.198074175317235 32.2942
30.221135036724256 32.2452
30.24419715131772 32.2321
30.267260520236203 32.1905
30.290505341942243 32.1747
30.313571232750228 32.1825
30.336638381310948 32.3207
30.35970678876503 32.2954
30.38295669299435 32.1703
30.40602763151657 32.1776
30.429099832366074 32.1226
30.452173296685572 32.0277
30.47542830191959 32.0098
30.498504306502497 31.916999999999998
30.521581577995562 31.9737
30.544660117543582 32.0421
30.56792024229725 32.0808
30.59100133132069 32.0717
30.614083691845494 32.1445
30.637167325018545 32.2043
30.660432587840603 32.1341
30.683518779717886 32.1229
30.70660624769615 32.0837
30.729694992924372 32.1409
30.75296541239743 32.1284
30.77605672557558 32.0156
30.799149319462742 31.9307
30.8224236211637 31.8967
30.845518789950724 31.7402
30.868615242910597 31.7857
30.891712981195973 31.5826
30.91499247215866 31.5548
30.938092794619365 31.4908
30.96119440587579 31.3337
30.984297307082752 31.2577
31.00758200598383 31.1764
31.030687500658694 31.1016
31.053794288760695 31.0278
31.076902371446767 31.011999999999997
31.100192296997445 31.084
31.12330298246119 31.0153
31.14641496599209 30.9527
31.169528248749216 30.9158
31.19282341969534 30.9359
31.215939314557186 30.8018
31.239056512134788 30.8686
31.262175013589378 30.8437
31.28547544871168 30.8148
31.30859657161541 30.7075
31.331719001892175 30.7732
31.35484274070538 30.9413
31.378148458819545 30.899
31.401274828443725 30.9146
31.424402510106933 30.8003
31.447712205419993 30.8003
31.470842524931633 30.6916
31.493974159989783 30.7381
31.51710711176168 30.6974
31.54042212308802 30.7343
31.563557722100917 30.7656
31.586694641341655 30.4572
31.609832881979628 30.4213
31.63315322823208 30.4361
31.656294125521327 30.3013
31.679436347728515 30.2556
31.70257989602529 30.1957
31.725905596152327 30.0823
31.74905181052835 30.0529
31.772199354521323 30.1332
31.79534822930507 30.0984
31.818679302290967 30.0253
31.84183085259981 30.0361
31.864983737233473 30.1108
31.88813795736804 30.1506
31.911474422233013 30.0104
31.934631327356435 30.06
31.9577895715215 30.0196
31.980949155906522 29.9026
32.004291031706956 29.921
32.027453310562606 29.8198
32.05061693318573 29.7549
32.07396288236386 29.7975
32.09712920658542 29.6639
32.12029687812702 29.5041
32.14346589817093 29.4663
32.166817291729984 29.4884
32.18998902288583 29.3716
32.21316210610336 29.2627
32.23633654256711 29.2061
32.259693399663725 29.21
32.282870556771144 29.1755
32.30604907069099 29.1453
32.329228942610065 29.0716
32.35259128243769 28.9078
32.375773884550505 28.8671
32.398957848235646 28.8327
32.422143174682176 28.7561
32.445511016471215 28.6887
32.468699082679954 28.71
32.49188851523011 28.622
32.51507931531304 28.5871
32.538452678331 28.5915
32.56164622776311 28.4887
32.58484114831493 28.3791
32.60803744118015 28.4378
32.631416344731896 28.3855
32.654615396551876 28.4104
32.67781582427913 28.456999999999997
32.701198898634416 28.2671
32.72440209253756 28.1534
32.747606665947124 28.2256
32.77081262006088 28.2252
32.79420126883317 28.058000000000003
32.81740999876112 28.0258
32.840620112999424 27.9693
32.86383161274818 27.9604
32.88722585534586 28.0092
32.91044014056596 28.0548
32.933655814909734 27.9554
32.95687287957963 27.9423
32.98027273544904 27.8063
33.00349259526636 27.7795
33.026713849030116 27.8895
33.04993649794511 27.8291
33.073341986570746 27.6914
33.09656744032826 27.7003
33.11979429286444 27.7298
33.14302254538647 27.6696
33.166433686291185 27.6438
33.18966475336992 27.7074
33.212897224069096 27.5776
33.23613109959831 27.6442
33.259547912343415 27.4663
33.2827846121627 27.4992
33.306022720453775 27.3613
33.32926223842861 27.2816
33.352684742614166 27.3134
33.37592709463173 27.3307
33.399170859982064 27.2704
33.422597648419426 27.1741
33.44584425514446 27.0175
33.46909227885668 26.9711
33.4923417207723 26.9279
33.51577423505344 26.9095
33.539026528130385 26.9072
33.56228024307245 26.8433
33.585535381098246 26.6673
33.60897364093058 26.6545
33.63223163992385 26.755
33.6554910656699 26.6207
33.678751919389796 26.601999999999997
33.702195944520106 26.5464
33.72545966903325 26.5643
33.74872482519663 26.3221
33.771991414233746 26.4369
33.79544122444841 26.3886
33.81871069412428 26.307
33.84198160035767 26.2764
33.86525394437455 26.3427
33.88870955949969 26.2305
33.911984794020626 26.2743
33.93526147001624 26.1876
33.958539588715006 26.123
33.98200102861669 26.0366
34.0052820477047 25.9389
34.02856451319451 26.0452
34.05203033759056 25.9393
34.07531571090147 25.9099
34.09860253431845 25.8236
34.121890809074316 25.7785
34.145362493118924 25.7823
34.16865368561615 25.7358
34.191946333164054 25.741999999999997
34.21524043699793 25.711
34.23871800066799 25.7008
34.26201503218366 25.5747
34.28531352370466 25.5888
34.30861347646881 25.5324
34.33209693978188 25.4865
34.3553998301885 25.4823
34.378704185565205 25.3979
34.402010007152356 25.35
34.42549939016683 25.3115
34.44880815937748 25.2802
34.472118398533134 25.1745
34.49543010887669 25.2519
34.51892543169198 25.1393
34.54224009966052 25.112
34.56555624255917 25.0765
34.58887386163339 25.0144
34.61237514439016 24.9282
34.6356957311114 24.9175
34.65901779775809 24.9586
34.68252356662995 24.915
34.705848608458616 24.8089
34.72917513396849 24.778000000000002
34.75250314440949 24.7682
34.77601490857862 24.6496
34.799345904259795 24.5731
34.82267838863559 24.5984
34.846012362958525 24.6685
34.869530142679984 24.5661
34.89286711232212 24.5934
34.91620557568269 24.5409
34.93954553401677 24.5165
34.9630693495876 24.4727
34.986412313340814 24.4378
35.00975677584668 24.3531
35.033102738362956 24.3597
35.05663261012228 24.3253
35.0799815881786 24.3514
35.10333207003229 24.2676
35.12668405694369 24.2803
35.150220005273056 24.1562
35.17357501786656 24.1881
35.19693153931268 24.1811
35.220289570874385 24.0946
35.24383161619786 24.1186
35.267192683604904 24.1149
35.290555264930376 24.053
35.314101899412165 23.9932
35.33746752422433 24.0308
35.36083466676374 24.108
35.38420332829803 23.9557
35.407756095629054 23.9123
35.43112781085063 23.9075
35.45450104888391 23.8758
35.477875810999194 23.7807
35.50143473172161 23.8133
35.52481255774625 23.8396
35.54819191167777 23.7396
35.57157279478914 23.7043
35.595137889488406 23.674
35.61852184675279 23.7123
35.641907337029984 23.5923
35.665294361595684 23.5882
35.68886565090076 23.4732
35.7122557598848 23.4061
35.73564740699838 23.4644
35.759040593519934 23.4359
35.78261809810353 23.4588
35.80601437933051 23.2806
35.829412203814705 23.2223
35.85281157283719 23.2449
35.876395313415884 23.2691
35.8997977874528 23.1471
35.92320180988546 23.1497
35.946790244133936 23.0879
35.97019737933222 23.0826
35.993606066789866 23.1289
36.01701630779276 22.9959
36.04061101440684 22.9492
36.06402437852291 22.9828
36.08743930005611 22.9078
36.1108557802951 22.8224
36.13445678011326 22.8559
36.15787639383515 22.767
36.18129757014299 22.7659
36.20472031032821 22.7406
36.22832762423364 22.5853
36.25175350829375 22.6249
36.275180960119776 22.5772
36.298609981005924 22.5706
36.32222362992669 22.5893
36.34565580510207 22.5917
36.36908955323448 22.4964
36.39252487562093 22.3655
36.416144880530226 22.4042
36.43958336764275 22.3451
36.463023432914625 22.3968
36.486465077645676 22.2864
36.51009145956204 22.3495
36.53353627947859 22.3144
36.55698268276811 22.3293
36.58043067073321 22.3286
36.60406345072071 22.156
36.62751462435344 22.1634
36.65096738658405 22.1202
36.67460498210655 22.083000000000002
36.69806093788647 22.0418
36.72151848619297 21.9996
36.744977628333636 21.9572
36.76862165890998 21.9454
36.79208400512205 21.9824
36.81554794910557 21.9502
36.83901349217101 21.8018
36.862663978991606 21.7905
36.88613273667352 21.7575
36.90960309738324 21.7492
36.933075062434064 21.6706
36.95673202673572 21.6359
36.98020721697122 21.6689
37.003684015502365 21.6186
37.027162423645365 21.5147
37.050825886711465 21.5571
37.07430753063053 21.4506
37.09779078812467 21.4278
37.121275660513014 21.4589
37.144945643673694 21.4063
37.16843376245278 21.379
37.19192350009803 21.3537
37.215414857931435 21.2786
37.239091382563885 21.2536
37.262585997426164 21.2107
37.28608223645736 21.1469
37.309763684451696 21.0961
37.33326318851098 21.1347
37.356764320726555 21.129
37.380267082425526 21.1033
37.40395510942588 21.0315
37.42746114683234 21.0019
37.45096881771841 20.9823
37.474478123414166 20.9075
37.49817275092816 20.894000000000002
37.52168534303452 20.9672
37.54519957395567 20.8455
37.568715445024665 20.7952
37.592416694607714 20.7587
37.61593586281424 20.7474
37.63945667518264 20.7437
37.66297913304891 20.6761
37.68668702630454 20.6716
37.710212792059274 20.5016
37.733740207334854 20.5706
37.757269273470364 20.5085
37.780983832050374 20.4834
37.80451621684926 20.4537
37.82805025654007 20.4679
37.851585952464795 20.3712
37.8753071980695 20.3958
37.89884622345676 20.3119
37.92238690911902 20.243
37.94611318753442 20.241
37.969657210779765 20.2412
37.99320289834801 20.2367
38.016750251586465 20.1895
38.04048325513017 20.1601
38.06403395679343 20.037
38.087586328183946 20.0239
38.11114037065203 20.025
38.13488012115898 20.0993
38.1584375229181 19.9804
38.181996599821 19.9275
38.205557353221124 19.9113
38.229303872575656 19.8745
38.2528679961576 19.7807
38.27643380031219 19.7825
38.30000128639589 19.7805
38.32375459653193 19.8231
38.34732546371299 19.7963
38.37089801690786 19.7024
38.39447225747609 19.6472
38.418232380377425 19.6736
38.441810012983396 19.5988
38.46538933705673 19.5582
38.488970353960084 19.5729
38.51273731166058 19.5355
38.536321731567014 19.4887
38.55990784840681 19.4453
38.58367995004091 19.407
38.60726947812959 19.3862
38.63086070726198 19.3372
38.654453638806274 19.354
38.678232613930824 19.3008
38.70182896773327 19.2225
38.72542702806741 19.2049
38.7490267963045 19.1622
38.77281266709232 19.1867
38.79641586862214 19.1649
38.8200207821842 19.1197
38.843627409152944 19.1471
38.86742019782782 19.0593
38.891030269149255 18.9762
38.914642058016156 18.9637
38.938255565806124 18.941
38.96205529464307 18.9528
38.98567225787121 18.8963
39.00929094417078 18.9182
39.03291135492255 18.8471
39.05671804624804 18.8192
39.080341923549106 18.7951
39.103967529460334 18.8035
39.127594865365744 18.7136
39.15140854155791 18.7054
39.17503935514948 18.7025
39.19867190290282 18.6309
39.22249083587951 18.6102
39.24612686969409 18.5594
39.269764641845306 18.5342
39.293404153722804 18.5259
39.317230110864074 18.4121
39.34087311998506 18.3869
39.36451787301696 18.4349
39.388164371352595 18.3321
39.41199737518003 18.3361
39.43564738196752 18.3196
39.45929913825317 18.2767
39.48295264543308 18.2834
39.506792718520884 18.2502
39.530449745387216 18.2214
39.55410852735203 18.197
39.57776906581474 18.1692
39.60161623079 18.1445
39.625280300200025 18.1485
39.64894613032202 18.1108
39.67261372255866 18.0514
39.6964680021016 18.0694
39.72013913657293 18.0638
39.74381203738292 17.9364
39.76748670593756 17.9562
39.79134812278169 17.8952
39.81502634488497 17.8982
39.83870633896685 17.8803
39.862388106436654 17.8043
39.88625668336918 17.8573
39.90994201572829 17.8138
39.933629125719285 17.7235
39.957503091207826 17.689
39.9811937746168 17.6915
40.00488623990914 17.648
40.02858048850006 17.6233
40.05246165409549 17.5956
40.076159487492085 17.5372
40.099859108448875 17.5599
40.123560518384345 17.5116
40.1474489070226 17.491
40.171153913178564 17.4133
40.194860712584955 17.4441
40.2185693066637 17.4109
40.242464941335314 17.3451
40.26617714307655 17.3659
40.289891143772046 17.3616
40.3136069448471 17.3367
40.33750984859743 17.2803
40.3612292688043 17.2572
40.3849504936829 17.2072
40.40867352466194 17.1972
40.43258372059144 17.1278
40.45631038219906 17.146
40.48003885420956 17.0707
40.503769138055105 17.0526
40.52768664931955 17.0929
40.55142057531802 17.0387
40.57515631746428 16.9872
40.599079334038514 16.9444
40.62281872700477 16.8348
40.64655994043941 16.87
40.67030297578061 16.9089
40.69423334835778 16.8487
40.71798004609188 16.7956
40.74172857006355 16.7965
40.76547892171441 16.7493
40.7894166736039 16.7657
40.813170699248566 16.756
40.83692655691388 16.6902
40.86068424804498 16.6815
40.884629402612525 16.6436
40.908390779366385 16.6025
40.932153993938 16.6505
40.95591904777605 16.5274
40.979871628443995 16.5511
41.003640379561936 16.5325
41.02741097430883 16.4558
41.05118341413683 16.4626
41.075143444384416 16.4659
41.098919593177826 16.3823
41.1226975914255 16.3633
41.14647744058318 16.3111
41.170444943946755 16.2985
41.19422851378379 16.3333
41.218013938914645 16.2597
41.24198706625173 16.2278
41.26577622087193 16.1825
41.289567235177785 16.1443
41.31336011063129 16.1767
41.337340752422875 16.1725
41.361137369129835 16.1315
41.38493585138705 16.1184
41.40873620066004 16.0557
41.43272438060107 15.9925
41.45652848292052 16.012
41.48033445666918 15.94
41.50414230331616 15.9363
41.528138045159764 15.9031
41.551949656675205 15.8862
41.575763145513235 15.8421
41.59957851314666 15.841
41.62358184070442 15.8298
41.64740098505737 15.8141
41.6712220126409 15.7271
41.69504492493139 15.7196
41.71905586207357 15.6937
41.74288256296395 15.7026
41.766711153007456 15.6578
41.79054163368412 15.6581
41.814560204340054 15.620999999999999
41.838394485526365 15.602
41.86223066180303 15.5337
41.88625497706819 15.5548
41.910094962812 15.5338
41.93393684811168 15.4598
41.95778063445365 15.4117
41.981812625263366 15.3931
42.00566023303407 15.4311
42.029509746323676 15.3605
42.05336116662236 15.3647
42.077400857069705 15.344000000000001
42.10125611078846 15.2686
42.12511327600405 15.282
42.14897235421036 15.2575
42.173019768448455 15.1587
42.19688269209613 15.1718
42.22074753323349 15.1592
42.24461429335818 15.1297
42.268669455600495 15.1538
42.292540073217886 15.0845
42.31641261433284 15.0588
42.34028708044675 14.9918
42.36435001496739 15.0148
42.38822835065557 15.0359
42.41210861586426 14.9606
42.4359908120986 14.9565
42.46006154323262 14.8969
42.48394762115317 14.8306
42.507835634632315 14.8861
42.531912233047436 14.8415
42.55580413732265 14.8278
42.579697981698 14.7926
42.60359376768525 14.7405
42.62767820545945 14.7645
42.65157789440821 14.7581
42.67547952952185 14.7189
42.699383112316 14.6726
42.72347541395347 14.6167
42.74738291190531 14.6077
42.771292362102166 14.5931
42.795203766063516 14.5367
42.819303956130405 14.5473
42.843219287476536 14.5235
42.86713657716324 14.4517
42.89105582671383 14.4756
42.91516392983864 14.468
42.939087119032166 14.4447
42.963012272677304 14.3862
42.98693939230129 14.3871
43.01105543317513 14.3783
43.034986504731386 14.3466
43.05891954686589 14.2696
43.08285456110972 14.2659
43.10697856448665 14.210999999999999
43.130917542983475 14.1692
43.15485849820081 14.2137
43.17880143167367 14.1881
43.20293342237094 14.2001
43.226880332449 14.1042
43.25082922540554 14.0181
43.27496722682525 14.1011
43.29892010567796 14.0815
43.32287497204102 14.0242
43.34683182745632 13.9877
43.370977859791836 13.9647
43.39493871351105 13.9551
43.41890156092628 13.9134
43.44286640358341 13.9017
43.46702049182749 13.8643
43.49098934522816 13.856
43.51496019852649 13.8308
43.5389330532723 13.8099
43.56309522248204 13.7598
43.58707210044314 13.7888
43.61105098451946 13.7197
43.63503187626491 13.7146
43.659202151562134 13.6934
43.68318707902681 13.7095
43.70717401884041 13.6481
43.731162972560874 13.5757
43.75534137913236 13.555
43.779334381108384 13.6031
43.803329401683186 13.5881
43.82732644241872 13.5107
43.8515130055166 13.5025
43.87551410707659 13.5077
43.89951723350145 13.5174
43.923709934595614 13.4293
43.94771713129917 13.4448
43.97172635758096 13.4425
43.99573761501002 13.3489
44.0199385169922 13.3448
44.04395385732619 13.3102
44.067971233533086 13.2842
44.09199064718605 13.2648
44.11619977548961 13.1809
44.14022328470671 13.2025
44.16424883610785 13.2116
44.18827643127035 13.2129
44.21249381139513 13.1213
44.236525514814076 13.1113
44.26055926674478 13.1537
44.28459506876863 13.1124
44.3088207262813 13.0125
44.33286064928722 13.027999999999999
44.35690262714919 13.0302
44.38094666145278 12.9642
44.4051806219871 12.9946
44.42922879003185 12.9707
44.45327901929361 12.8744
44.477331311362136 12.8743
44.501573600619416 12.8981
44.525630039221795 12.8981
44.54968854541895 12.8953
44.573937102200176 12.8447
44.5979997645541 12.7822
44.622064499300315 12.761
44.64613130803592 12.6893
44.67038823869318 12.7087
44.69445921643748 12.6944
44.718532272981385 12.6387
44.742607409926194 12.6835
44.76687274034801 12.6625
44.79095205918753 12.5996
44.81503346325094 12.6257
44.839116954143876 12.5707
44.86339071028742 12.5567
44.88747839599524 12.5319
44.91156817336837 12.4878
44.93566004401666 12.5234
44.959942251908146 12.4694
44.984038330325966 12.4446
45.00813650686762 12.382
45.03223678314731 12.3948
45.05652746888232 12.3754
45.08063196592069 12.325999999999999
45.104738567558705 12.3084
45.128847275414856 12.2991
45.15314646515866 12.2369
45.17725940679741 12.2636
45.20137445952892 12.2507
45.22568004865265 12.231
45.24979934496396 12.2045
45.27392075725247 12.1946
45.29804428714431 12.1672
45.322358426247604 12.1154
45.346486212804315 12.1527
45.370616121861914 12.1204
45.39474815505086 12.0864
45.41907087049246 12.0016
45.4432071734666 12.0209
45.46734560548283 12.0449
45.49148616817604 11.975999999999999
45.51581748638564 11.9673
45.5399623320197 11.9268
45.56410931325473 11.9251
45.58825843173002 11.8769
45.61259837920865 11.8446
45.636751793816 11.8513
45.66090735060093 11.7948
45.68506505120716 11.8234
45.7094136545275 11.8249
45.73357566449271 11.7867
45.75773982322992 11.7196
45.78190613238733 11.7333
45.806263418194064 11.6424
45.83043404997326 11.6985
45.85460683713677 11.7042
45.87897065658495 11.6268
45.90314777634752 11.5935
45.92732705646868 11.59
45.9515084986045 11.5729
45.97588104735473 11.5657
46.00006683541565 11.5189
46.02425479047904 11.5309
46.04844491420549 11.5282
46.0728262191024 11.4995
46.09702070211635 11.4943
46.12121735879483 11.4517
46.14541619080294 11.4428
46.169806278764455 11.4484
46.194009483459034 11.405
46.21821486849841 11.3749
46.24242243555223 11.321
46.266821333570014 11.3254
46.29103328674601 11.3132
46.31524742696538 11.3137
46.33946375590237 11.2698
46.36387149104216 11.2327
46.38809221957392 11.2214
46.41231514186606 11.1884
46.436540259597464 11.2191
46.460956858999374 11.1808
46.48518638983522 11.1714
46.509418121166966 11.145
46.533652054678114 11.1372
46.55807754555709 11.0762
46.58231590571962 11.0587
46.60655647313217 11.0113
46.630988654873654 11.0057
46.655233659129024 10.9871
46.67948087571551 10.9775
46.70373030632484 10.9484
46.72817142736393 10.9476
46.752425308428684 10.923
46.77668140861147 10.898
46.80093972960865 10.8734
46.82538981736788 10.8479
46.849652602470904 10.8455
46.87391761349769 10.8114
46.8981848521493 10.7966
46.9226439341274 10.7611
46.946915650573224 10.7464
46.97118959976749 10.7613
46.99546578341598 10.7108
47.019933887188216 10.7062
47.04421456235744 10.6701
47.06849747711879 10.6509
47.09278263318286 10.619000000000002
47.11725978640143 10.582
47.14154944775105 10.5406
47.165841355555656 10.5646
47.1901355115306 10.5417
47.214621741924994 10.5606
47.23892041698887 10.5113
47.26322134538975 10.4798
47.28771440635075 10.4516
47.31201986422527 10.4616
47.33632758061436 10.4378
47.360637557241866 10.4318
47.38513974410611 10.4224
47.40945426407847 10.3879
47.43377104948137 10.3403
47.45809010204344 10.3415
47.48260144275502 10.3241
47.506925052572285 10.3046
47.53125093475548 10.2447
47.55557909103813 10.2598
47.58009961361992 10.2246
47.60443234110732 10.2272
47.62876734791564 10.1955
47.65310463578333 10.2076
47.6776343683373 10.1544
47.7019762413987 10.1222
47.72632040075572 10.1412
47.75066684815169 10.0946
47.77520581885936 10.0538
47.799556865477655 10.0637
47.823910205386 10.0661
47.84826584033272 10.0318
47.87281407745551 10.0042
47.89717432569297 10.0396
47.92153687423484 9.995289999999999
47.94609208429692 9.938839999999999
47.97045925671401 9.93746
47.99482873471275 9.911489999999999
48.01920052005013 9.941310000000001
48.04376504619224 9.90883
48.068141469543484 9.8811
48.09252020552573 9.87642
48.11690125590099 9.85304
48.1414751266064 9.787239999999999
48.16586082917454 9.802
48.19024885144316 9.79012
48.2146391951793 9.745510000000001
48.239222439012764 9.76373
48.26361744916137 9.73292
48.28801478610016 9.71001
48.31241445160131 9.72371
48.337007097209366 9.69844
48.36141144338331 9.6433
48.38581812345755 9.633989999999999
48.41022713920929 9.672
48.434829215320704 9.645560000000001
48.45924292604658 9.61476
48.48365897780325 9.61321
48.50807737237308 9.58894
48.532688907799276 9.56904
48.55711201168574 9.51975
48.581537463754074 9.482000000000001
48.60615611725119 9.52944
48.63058628942721 9.52251
48.65501881516546 9.46905
48.6794536962573 9.43248
48.70408185970339 9.42128
48.72852147531801 9.40599
48.75296345168211 9.3737
48.77740779059232 9.35318
48.80204549302823 9.370460000000001
48.82649458091802 9.34167
48.85094603676547 9.32868
48.87539986237231 9.28927
48.90004713292306 9.28647
48.92450572200832 9.28848
48.94896668628025 9.23747
48.97343002754588 9.2089
48.99808689542115 9.19235
49.02255501470614 9.22184
49.04702551642794 9.15966
49.0714984023988 9.15956
49.096164896893235 9.1284
49.120642575466796 9.126669999999999
49.145122643748394 9.11617
49.16960510355558 9.04124
49.19428125404938 9.05826
49.2187685210852 9.06752
49.243258185121555 9.0277
49.26794160167084 8.99847
49.2924360839405 9.037519999999999
49.31693296869764 8.98305
49.34143225776915 8.96795
49.36612538195438 8.9614
49.39062950396021 8.94448
49.41513603578346 8.88578
49.4396449792564 8.90183
49.46434784069503 8.918330000000001
49.488861631846454 8.86077
49.513377840166804 8.8222
49.537896467493745 8.84019
49.56260909589029 8.80563
49.587132585683285 8.80681
49.611658500018365 8.74745
49.636186840738596 8.72406
49.66090926588511 8.74953
49.685442483902584 8.67579
49.70997813385706 8.71392
49.734516217597076 8.70214
49.75924846937352 8.70835
49.7837914452858 8.69546
49.80833686055187 8.6385
49.83288471702571 8.60525
49.85762682540054 8.635480000000001
49.882179588965734 8.60257
49.9067347993235 8.568539999999999
49.93129245833333 8.548639999999999
49.95604445336378 8.55943
49.98060703442832 8.49206
50.005172069746266 8.5177
50.02993150438364 8.497819999999999
50.05450147301533 8.48347
50.07907390151433 8.457410000000001
50.10364879174981 8.46668
50.12841816587289 8.4228
50.1529980044635 8.40535
50.17758031042124 8.38555
50.20216508562089 8.39744
50.22694442953363 8.35144
50.25153416817468 8.34757
50.27612638170508 8.34275
50.300721072005196 8.30142
50.325510416102105 8.30057
50.350110084975064 8.3072
50.37471223628208 8.30066
50.39931687190919 8.29073
50.424116246675766 8.25406
50.44872587605249 8.22471
50.47333799543065 8.21712
50.49795260670191 8.18486
50.52276204271512 8.16111
50.54738166295838 8.15793
50.57200378079314 8.18269
50.596628398116835 8.13082
50.62144792604559 8.13215
50.646077567609396 8.11024
50.670709714377715 8.12231
50.69553683636198 8.11926
50.72017401885922 8.04397
50.7448137122895 8.06265
50.76945591856022 8.03209
50.79429318636823 8.01775
50.818940443716784 7.999280000000001
50.84359021965163 7.95667
50.868242516085964 7.96022
50.893089960641895 7.92439
50.917747323549435 7.93544
50.94240721271973 7.901689999999999
50.96706963007175 7.8894
50.99192728239342 7.856489999999999
51.01659478166073 7.86832
51.04126481489051 7.88075
51.06593738400761 7.8758
51.090805275207074 7.838260000000001
51.11548294172845 7.80523
51.14016314993547 7.78344
51.164845901758845 7.7740800000000005
51.18972406304274 7.76479
51.21441192780656 7.76155
51.23910234200271 7.695
51.2637953075678 7.69239
51.288683770237945 7.678789999999999
51.31338186432707 7.68434
51.33808251561888 7.636760000000001
51.362978729967345 7.69652
51.387684521509755 7.67259
51.41239287610203 7.62165
51.437103795691165 7.59112
51.46201036644977 7.5858300000000005
51.486726441956634 7.552039999999999
51.51144508832545 7.57349
51.536166307509156 7.5473
51.56108326624387 7.535639999999999
51.58580965706056 7.51967
51.61053862657523 7.5026
51.635270176746864 7.484439999999999
51.66019755512065 7.46122
51.68493429268881 7.4258
51.70967361681515 7.4134
51.73441552946465 7.395589999999999
51.759353359237934 7.4035
51.7841004750961 7.40442
51.80885018539685 7.36878
51.833602492111254 7.33823
51.8585508051424 7.320410000000001
51.883308330926425 7.33438
51.90806845906181 7.289619999999999
51.932831191525715 7.277360000000001
51.95779001977161 7.239789999999999
51.98255798721516 7.2583
52.00732856494335 7.24166
52.03229530577543 7.23042
52.057071130455945 7.1890600000000004
52.081849571391054 7.162669999999999
52.106630630568695 7.169919999999999
52.13160794279417 7.123310000000001
52.15639426492067 7.1658100000000005
52.18118321127822 7.162089999999999
52.205974783860896 7.1369
52.23096269971011 7.09686
52.255759551287994 7.08553
52.280559035098186 7.081689999999999
52.30536115314103 7.0437899999999996
52.33035970494467 7.047460000000001
52.35516711807904 7.0518600000000005
52.37997717147198 7.02933
52.40478986713005 7.02198
52.42979908731974 7.00576
52.454617094216 6.94787
52.47943774942214 6.951219999999999
52.50426105495102 6.98315
52.529280976059844 6.9205
52.554109609024096 6.902880000000001
52.57894089837482 6.89717
52.60377484613117 6.86838
52.62880550079408 6.91529
52.65364479223379 6.8796100000000004
52.67848674816189 6.8503
52.70352547971946 6.825760000000001
52.72837279155837 6.8209100000000005
52.753222773982785 6.78614
52.778075429022984 6.815639999999999
52.80312495150885 6.79347
52.827982978797436 6.75612
52.85284368481815 6.7432300000000005
52.87770707160767 6.69164
52.90276741793998 6.72935
52.92763619336701 6.71829
52.952507655698504 6.712510000000001
52.977381806977576 6.6915
53.00245301017842 6.67059
53.02733256653592 6.67542
53.052214817996074 6.667160000000001
53.077099766608484 6.624460000000001
53.102181859804446 6.58626
53.127072229988265 6.59656
53.15196530349892 6.603680000000001
53.17686108239249 6.56042
53.20195409881522 6.56791
53.22685531582556 6.56106
53.25175924441303 6.5368900000000005
53.27666588664027 6.53285
53.30176985962693 6.51714
53.3266819565689 6.46718
53.35159677336455 6.4486300000000005
53.376514312083096 6.44956
53.40162927507703 6.44862
53.42655228516116 6.44464
53.45147802340193 6.36963
53.47660125628886 6.39257
53.50153247842639 6.37054
53.52646643496923 6.358219999999999
53.55140312799818 6.34005
53.576537409691696 6.3785099999999995
53.60147960336152 6.349880000000001
53.626424539786164 6.35227
53.65137222105307 6.3263300000000005
53.67651758529126 6.3175
53.70147078399681 6.26486
53.72642673383343 6.2334
53.75138543689533 6.267519999999999
53.776541917524526 6.27378
53.801506154876755 6.2218
53.826473151763246 6.18936
53.851442910284916 6.17241
53.87661054126026 6.16142
53.9015858509782 6.2015400000000005
53.92656392866066 6.16305
53.95154477641532 6.1556
53.976723591801296 6.11275
54.00171000771266 6.12159
54.02669920004598 6.10463
54.051691170915745 6.0671800000000005
54.076881204886796 6.10492
54.101878760928514 6.0993
54.12687910187696 6.0176
54.152077577768296 6.04603
54.1770835166946 5.979030000000001
54.20209224691339 5.99696
54.22710377055121 5.999709999999999
54.25231352511594 6.01605
54.27733066384342 5.95536
54.30235060239643 5.99161
54.32737334290836 5.91814
54.35259441062629 5.88159
54.377622783395324 5.8731
54.40265396455061 5.90027
54.42768795623251 5.887490000000001
54.45292037169559 5.790369999999999
54.477960012857906 5.81862
54.50300247099511 5.81747
54.52804774825457 5.81606
54.55329154616743 5.80385
54.57834249018678 5.74832
54.6033962597977 5.68708
54.6284528571545 5.682869999999999
54.653708072335164 5.67194
54.67877035378786 5.7243
54.70383546947698 5.67694
54.72890342156389 5.6150199999999995
54.7541700889442 5.66101
54.77924374251975 5.55055
54.8043202390049 5.57854
54.82959552413022 5.51662
54.8546777351945 5.52809
54.87976279569621 5.47754
54.90485070780914 5.49096
54.930137506558005 5.44501
54.95523115074295 5.5096099999999995
54.98032765308844 5.43918
55.005427015775496 5.37908
55.03072536339621 5.44799
55.05583047570572 5.43085
55.080938454927676 5.34082
55.10604930325027 5.32228
55.131359235107396 5.32867
55.15647585066083 5.31679
55.181595341907496 5.31303
55.20671771104285 5.23345
55.232039262617704 5.26694
55.25716741665048 5.2228
55.28229845518636 5.17762
55.30743238042802 5.15735
55.33276558731939 5.12098
55.357905315183636 5.1085400000000005
55.383047936390035 5.05236
55.40819345314859 5.06816
55.433538351073295 5.01731
55.458689688238415 5.027480000000001
55.483843927614096 4.985469999999999
55.509197623043605 4.99482
55.53435769621134 4.92785
55.55952067826466 4.94347
55.5846865714265 4.93462
55.61005202069737 4.88483
55.63522376553902 4.94733
55.66039842818645 4.88664
55.68557601087004 4.81316
55.7109532500271 4.768269999999999
55.73613670233794 4.85367
