TT I
1.2716486653135266 6.7695300000000005
1.2939594142134223 6.2317
1.3162702121660406 6.2734
1.3385810600174564 6.3987300000000005
1.3608919586137629 6.3705300000000005
1.383202908801069 6.04978
1.405513911425503 5.96581
1.4278249673332093 6.32567
1.4501343378461518 5.73468
1.4724455028545926 5.50535
1.4947567236847858 5.48914
1.517068001182951 5.4328
1.5393793361953272 5.5438
1.5616907295681737 5.20073
1.5840021821477681 5.1435900000000006
1.60631369478041 5.437880000000001
1.6286252683124185 5.22895
1.6509369035901333 5.32984
1.6732468618895553 4.14385
1.695558623192809 4.31342
1.7178704487808514 4.7276
1.7401823395001077 3.7891
1.7625012545597203 3.70491
1.7848028405262486 4.6087
1.8071218901122095 4.39979
1.8294236121921872 4.16485
1.8517427996910911 4.65423
1.8740620574440425 4.88127
1.8963639900671978 4.26881
1.9186833908139995 4.20454
1.9409854680117449 4.76187
1.9633050151394713 4.8995
1.9856246367570705 4.7792699999999995
2.0079269371922672 4.28686
2.03024671027244 4.40238
2.0525491637446027 4.23161
2.074869091674931 3.8523
2.097171701569106 4.26077
2.1194917877373847 3.63553
2.141811954326636 4.2397800000000005
2.164114805233074 4.27784
2.186435135143035 4.32008
2.208738150935709 4.78875
2.231058647554722 6.46133
2.2533792288321184 6.70105
2.275682498336085 5.33758
2.298003251406138 5.56985
2.3203066942619714 5.3650199999999995
2.3426276225136022 5.56919
2.3649486396617507 5.49062
2.387252348930071 6.01947
2.4095735463442893 6.366280000000001
2.4318774374315884 5.7857
2.4541988185014043 6.50031
2.476502894794693 6.930210000000001
2.498824462909887 7.287780000000001
2.521146125856138 7.15665
2.5434504863470337 7.467689999999999
2.5657723414244717 7.2374
2.588076895590662 8.03782
2.610398946189713 8.44122
2.6327210958598384 8.058810000000001
2.6550259469304716 8.13598
2.6773482972090137 8.90847
2.6996533504259 8.409089999999999
2.7219759047039602 8.718
2.744298562293959 8.36187
2.7666039251246595 8.457230000000001
2.7889267918020164 8.00755
2.8112323652516555 7.776160000000001
2.833555444408179 8.37031
2.8558786311183852 8.33969
2.8781845268938557 8.61928
2.9005079311721484 9.0197
2.9228140460410397 8.91426
2.9451376712799635 9.04394
2.967444008632326 9.88151
2.9897678582247247 10.133
3.0120918213106695 10.3076
3.0343984987899373 10.3778
3.0567226913198637 10.6013
3.079029599759726 11.0241
3.101354025127254 12.1991
3.123678568232338 12.5151
3.145985829517914 12.4635
3.16831061055229 13.0931
3.1906181112775593 13.6798
3.212943133635653 14.0789
3.2352682779763207 14.9456
3.2575761442691227 15.1288
3.2799015350264273 15.2855
3.302209649240067 15.835
3.3245352898092655 16.011
3.3468436553365257 16.5253
3.369169549113219 16.9757
3.3914955708171384 17.8577
3.413804319727358 18.4233
3.4361305997334863 18.3223
3.4584396084414553 18.4882
3.4807661501462652 19.2252
3.503092824025881 19.7242
3.5254022288463154 19.9198
3.5477291695206588 20.1326
3.5700388426251948 20.1878
3.5923660534916446 21.3048
3.6146934007816114 22.4024
3.637003482731501 27.5418
3.6593311053109985 29.6968
3.681641464033634 26.4828
3.7039693653009733 24.2559
3.726297407241705 24.1373
3.7486081875460804 23.6778
3.7709365132734978 24.5821
3.793247578841633 25.1975
3.8155761917550093 25.2908
3.8378875459837216 25.5169
3.8602164494827234 25.9038
3.882545499606844 26.6629
3.9048572932539183 27.6032
3.9271866390645718 27.5812
3.9494987298666713 28.244
3.971828374764527 28.7385
3.9941581705403255 28.9423
4.016470713506008 29.0648
4.038800813471445 30.3922
4.061113662089144 31.2594
4.0834440696459176 31.8035
4.105774632334751 31.5935
4.128087945865126 32.1237
4.150418821249301 32.6745
4.172732448931298 33.6294
4.195063640413578 34.1779
4.2173775856475215 35.7464
4.239709096631102 38.1975
4.262040768704612 52.0317
4.284355196706267 63.4585
4.306687193387355 56.2482
4.329001947444346 44.0196
4.35133427213731 40.5009
4.373666762177566 40.5641
4.395982011761091 41.0571
4.418314834921175 42.0841
4.44063041906622 43.4673
4.4629635787515625 45.4394
4.4852969080429785 46.4237
4.5076130004776225 46.7235
4.529946671403969 46.9024
4.552263106909177 47.1436
4.574597122877047 48.516000000000005
4.596931312711224 50.0757
4.619248269273446 50.9716
4.6415828092605835 51.3935
4.663900117405352 52.7027
4.686235010953232 54.6701
4.708552674085913 55.4488
4.730887924602802 56.8727
4.753223354952695 58.3932
4.775541557023902 59.5393
4.797877349456786 60.7494
4.820195915032126 62.7386
4.842532072957498 64.0844
4.864868414979744 66.2954
4.88718753227192 67.7447
4.909524244902505 69.7726
4.931843734218147 71.9506
4.954180820867835 74.5098
4.976518095879839 76.6906
4.998838149695359 80.0226
5.021175803844231 82.8859
5.043496238205739 86.2455
5.065834274903528 89.8331
5.088172504230693 93.3751
5.1104935158799565 97.8243
5.132832132875765 106.08
5.155153533596801 118.46799999999999
5.1774925416746225 137.14700000000002
5.199814334878411 231.417
5.2221537374521505 808.66
5.244493338631803 2516.42
5.266815727034316 7201.93
5.289155727832427 13685.2
5.311478517248165 9621.65
5.333818921080011 3338.36
5.356159527788849 679.0110000000001
5.3784829252032536 206.169
5.400823940070432 144.063
5.423147747031976 123.584
5.445489173474152 113.605
5.467830807066149 107.863
5.490155234831516 104.322
5.512497285125229 101.163
5.534822130975162 99.7267
5.557164601388673 97.2724
5.579489868738879 94.8597
5.601832762690846 93.1789
5.6241758697774475 92.1529
5.646501775867269 91.4641
5.668845311622074 90.5475
5.691171647754637 89.5384
5.713515615597765 88.5591
5.735859800852677 87.9618
5.758186788542988 87.1433
5.780531411018185 86.9618
5.802858837297399 86.5056
5.825203900414495 86.6311
5.8475491852224 86.6313
5.869877275883075 86.8239
5.892223006467101 88.1323
5.914551544266608 88.824
5.936897724049891 91.2876
5.959244129804903 95.3826
5.981573344815301 106.939
6.0039202049061 164.804
6.026249875609095 397.025
6.04859719346037 893.158
6.070927323278297 2059.41
6.093275102315365 4484.47
6.115623113320588 5554.88
6.137953938319995 3640.83
6.160302415650845 1077.5
6.182633708324452 237.81599999999997
6.2049826554078376 109.40899999999999
6.227331838745022 87.1816
6.249663839443684 79.8294
6.27201349767565 76.00399999999999
6.294345974611799 73.7305
6.316696111167083 72.9113
6.339046488263839 71.8943
6.361379686074702 68.7864
6.383730546639482 66.7747
6.406064229255215 65.054
6.428415576718203 64.6654
6.450749747566656 63.6447
6.47310158535871 62.854
6.495453669698332 61.681999999999995
6.517788579421056 61.1333
6.540141159237969 59.9356
6.562476565766648 59.6386
6.5848296444934045 59.078
6.607182974060425 58.7496
6.6295191323281015 58.245
6.651872965955752 57.5621
6.6742096296068985 58.805
6.6965639707294615 63.2083
6.71891856698715 63.9576
6.741255995248479 59.9059
6.763611104154477 56.4283
6.785949046381137 55.3408
6.808304671371482 54.4635
6.8306605557940046 54.3576
6.852999275508618 53.9211
6.875355681171544 53.6778
6.897694923437771 53.7285
6.92005185377892 53.0448
6.9423916220322655 53.1347
6.964749080490181 52.7309
6.987106804399774 52.5322
7.009447368180821 52.0612
7.031805625367033 52.2886
7.054146723727803 52.4332
7.076505517631004 52.1102
7.098864581288365 52.2753
7.121206488070854 52.2207
7.143566093607822 51.5527
7.165908543567245 51.7204
7.188268694426048 51.415
7.2106291193438095 51.0833
7.232972390625943 51.1643
7.255333366030969 52.0254
7.277677189091925 56.0433
7.300038718428332 62.3584
7.322400526130865 60.9867
7.344745183422596 56.0443
7.367107550224791 52.4102
7.389452767901992 51.5254
7.411815697249891 51.792
7.434161478756298 51.4368
7.456524974096713 51.5539
7.478888753837185 51.5909
7.501235387657368 52.7914
7.523599738562711 58.2192
7.545946944825532 68.1823
7.568311870344528 71.7673
7.5906770845765665 64.4067
7.613025156078678 56.2231
7.635390950099687 53.7133
7.657739602662809 52.5936
7.680105979923558 52.5288
7.702472650212829 52.979
7.724822180948224 53.3102
7.747189439655568 53.3733
7.769539560075357 53.3466
7.791907410653562 53.7423
7.81425812420825 53.7223
7.836626570110925 54.0706
7.858995315087906 54.783
7.881346924933401 54.7824
7.903716270417482 55.4558
7.926068482028405 55.626000000000005
7.948438431475253 56.4167
7.9708086843180235 56.5835
7.993161805171116 57.525
8.015532667162402 57.7704
8.037886398416653 58.8976
8.060257873014221 59.2211
8.082629655331942 59.7099
8.104984308787587 60.7319
8.127356708900503 61.7142
8.149711981398308 62.4279
8.172085002766314 63.3932
8.194458336181368 63.8561
8.216814543847752 64.6903
8.23918850371002 65.8452
8.26154533906492 66.4618
8.283919928836452 67.9739
8.306277395339652 68.9387
8.328652618483376 70.3597
8.351028159736202 72.1641
8.373386579575245 74.0948
8.395762759396959 75.6855
8.418121819038275 77.8956
8.440498640894003 81.111
8.462875785192262 86.3594
8.485235811156207 94.462
8.507613602688501 129.259
8.529974277114228 230.507
8.552352719347912 379.724
8.574731488360351 619.587
8.59709314210385 1110.9
8.619472567021075 1845.24
8.64183487789147 2292.96
8.664214962183097 1964.23
8.686577933647762 1096.52
8.708958680784317 414.64
8.731339760774953 172.08599999999998
8.753703729764451 108.994
8.77608547780821 95.1039
8.798450116065078 91.212
8.820832535634787 88.5385
8.843215292401656 86.7964
8.865580941199045 85.5714
8.887964374703538 84.3366
8.910330701447199 83.6087
8.932714815164482 83.1458
8.955099270424924 82.3732
8.977466620733543 81.5651
8.999851761421976 81.2753
9.022219798361645 80.4747
9.04460562795561 80.5862
9.066991803441677 79.6812
9.089360876979615 79.6254
9.111747746589993 79.6228
9.13411751544971 79.1969
9.156505082664324 79.153
9.178875550323522 79.4333
9.20126381862328 81.6169
9.223652438908596 90.4051
9.246023961427412 105.185
9.26841328802173 110.86200000000001
9.290785518039224 100.823
9.313175554425882 88.6837
9.335565947154315 81.2486
9.357939245086508 80.0885
9.380330352834827 79.7858
9.40270436697103 80.1672
9.425096193225055 79.8489
9.447488380180165 80.6747
9.469863475295412 80.965
9.492256385987508 81.1324
9.514632206018318 82.0178
9.537025843935714 81.9634
9.559402392368193 82.6895
9.581796761000229 83.2825
9.604191496441521 83.81200000000001
9.626569144158516 84.4514
9.648964615551032 85.5723
9.671343000390081 86.7355
9.693739211225699 87.4177
9.716135793237463 87.7572
9.738515290448102 88.5684
9.760912617143402 89.7526
9.783292860202891 90.4938
9.805690935076182 91.7483
9.828089385495742 92.696
9.850470754023561 94.1537
9.872869957865444 95.6514
9.89525208097539 98.7274
9.917652041736662 102.955
9.940052382417589 106.389
9.962435644102392 115.522
9.984836746950979 147.221
10.007220771957746 228.14700000000002
10.029622640473708 350.61199999999997
10.052007432299963 520.22
10.074410069984072 779.2260000000001
10.096813093716005 1207.45
10.119199042482517 1774.53
10.141602840636468 2083.8
10.163989564971628 1702.96
10.186394141051062 1019.98
10.208799107559706 444.398
10.231187001965623 199.649
10.253592751657669 125.324
10.275981430388155 107.61
10.298387966769793 103.23899999999999
10.320794897965431 102.208
10.343184759907361 101.086
10.36559248305461 99.235
10.387983138083852 98.3381
10.410391656691655 99.3781
10.432800574501677 107.94200000000001
10.455192425893369 129.78
10.47760214443012 162.645
10.499994797678786 204.976
10.522405320453982 273.829
10.54479877906917 386.07099999999997
10.567210109595656 512.498
10.5896218454736 592.127
10.612016518879773 570.378
10.634429067781074 401.103
10.656824555333241 230.332
10.679237920773568 140.132
10.701651695961992 103.06299999999999
10.724048411481384 92.0927
10.746463008485165 85.8299
10.768860546937125 82.3834
10.791275969274796 80.2021
10.81369180576079 78.85600000000001
10.836090585366925 77.9775
10.858507252467449 76.6962
10.88090686379991 75.5301
10.903324365036394 74.7895
10.925724811614439 73.6244
10.948143150509463 73.6793
10.970561909719066 72.6748
10.992963615930844 71.8154
11.015383218085756 70.7814
11.037785768347074 70.3168
11.06020621697282 69.4302
11.082627090322113 68.9135
11.105030913430326 68.4162
11.12745263854165 67.9724
11.149857314510728 67.2715
11.172279894912576 67.6774
11.194702904450653 67.1614
11.217108866490921 66.4664
11.239532736615194 65.6002
11.26193956033512 65.2056
11.284364294577085 65.0792
11.306789462371718 64.2488
11.329197585398376 63.9115
11.351623622610898 63.8167
11.37403261614354 62.9872
11.396459526308487 63.1022
11.418869393879497 62.5177
11.441297180532617 62.4408
11.463725406927658 62.3525
11.486136592353875 61.85
11.508565700543707 61.2831
11.530977768845315 61.6258
11.553407762368774 61.3428
11.575838200059769 61.3762
11.598251599479612 60.9678
11.620682927815501 60.8551
11.64309721895548 60.5445
11.665529441478206 60.3515
11.687962112597958 60.1393
11.710377748130886 60.1352
11.732811318753434 59.9135
11.755227854859067 60.1546
11.777662328529495 59.9163
11.800079768750786 59.7211
11.822515149015453 59.7505
11.844950984084935 60.1809
11.867369787303163 60.001000000000005
11.889806534289491 60.1983
11.912226250487029 61.9109
11.934663912939751 64.9535
11.9571020346363 67.9535
11.979523127133968 68.0952
12.001962169624331 66.0499
12.024384183972964 63.4676
12.046824150809913 64.1409
12.069264581333726 69.8517
12.091687985297767 76.9582
12.11412934550045 86.3679
12.136553680195208 99.7737
12.158995973632788 120.601
12.181438735204349 147.106
12.20386447284199 178.747
12.226308172985636 203.757
12.24873485024193 209.565
12.271179492516982 175.84099999999998
12.293607112949127 135.416
12.316052700916226 97.177
12.338498763250042 74.45
12.360927805303868 64.9028
12.383374818673879 61.9747
12.405804812803074 61.31100000000001
12.428252780773262 61.3674
12.45070122756722 61.2012
12.473132656675375 61.273999999999994
12.49558206341869 61.4739
12.518014453510101 61.4058
12.540464823770117 61.3479
12.562915677315177 61.5576
12.58534951575545 62.1944
12.607801338171472 62.2207
12.630236146511358 62.7745
12.652688941369085 63.2567
12.675124723177234 63.9546
12.697578494048786 64.3087
12.720032754458185 63.8605
12.742470003354093 64.0575
12.764925245138771 64.5409
12.787363476431278 65.1234
12.809819703166806 65.3058
12.83227642391173 65.998
12.854716135692716 66.6256
12.877173846755147 67.6454
12.899614549869717 67.9402
12.9220732548287 68.6063
12.94453245827299 69.1453
12.966974655289818 70.3961
12.989434858002571 71.0924
13.011878055298721 71.9797
13.034339260862497 72.9772
13.056800969391883 74.2616
13.079245674017244 76.5353
13.101708390774869 78.5766
13.12415410463411 82.5184
13.146617833206086 92.8862
13.169064559883248 108.52
13.191529303857127 126.87
13.213994557076367 149.107
13.236442809902437 181.65400000000002
13.258909083908291 230.467
13.28135835851934 292.842
13.30382565690295 369.901
13.326293469022952 437.37699999999995
13.348744283242008 452.348
13.371213125129904 379.586
13.39366497011003 279.173
13.416134845360597 183.78400000000002
13.438605238843131 126.24
13.46105863690397 102.446
13.483530069144786 99.0325
13.505984506951902 107.43700000000001
13.528456981549432 120.735
13.550929978879088 136.02
13.573385983253365 157.439
13.595860028340867 190.23
13.618317081455832 237.34799999999998
13.64079217790333 298.639
13.663250283359057 356.249
13.685726434770173 390.465
13.708203115221277 361.381
13.730662806148091 286.57599999999996
13.75314054697177 204.253
13.775601299246777 136.96200000000002
13.798080104050406 99.7888
13.820559442405358 84.3837
13.843021793671388 79.8194
13.865502201420897 77.5697
13.887965623051947 76.9206
13.910447103807167 75.9809
13.932929122629764 74.7259
13.955394156785959 74.3978
13.977877254034569 73.5193
14.000343367582113 72.6323
14.022827546871707 72.1325
14.045294743423524 71.4376
14.06778000837062 70.56
14.090265817715476 71.0638
14.112734645763819 71.6683
14.13522154619454 73.1563
14.157691466286913 74.9015
14.180179461423874 74.9955
14.202668005486178 73.2087
14.22513957064374 70.6744
14.247629214846473 68.8915
14.270101881097517 68.0227
14.29259262906496 67.6348
14.315083930490205 67.6683
14.337558255389705 67.59
14.360050666019726 67.4295
14.382526101071944 67.07300000000001
14.405019624534942 66.7433
14.427513705993134 66.4374
14.449990813291825 66.5552
14.47248601302899 66.1419
14.49496423954951 66.461
14.517460561197822 66.4544
14.539939910570322 66.217
14.562437357763558 66.4236
14.58493536931253 66.5925
14.607416409993311 66.6594
14.62991555254159 67.1851
14.652397725157423 67.4447
14.674898002342799 67.6727
14.697398848433282 67.6418
14.719882725991326 68.3668
14.74238471217934 68.6475
14.764869730765593 70.6666
14.787372860692983 74.4877
14.809876564079925 81.2517
14.83236330125751 88.9058
14.854868153850365 97.9684
14.877356041159485 110.476
14.899862046604186 126.118
14.922351087688757 148.876
14.944858249632887 180.511
14.967365991421232 209.136
14.989856770231246 228.745
15.012365673994204 227.641
15.03485761569738 200.646
15.05736768508665 158.94899999999998
15.07987833888692 121.065
15.102372032001655 93.5279
15.124883856909658 77.3409
15.14737872204565 71.3266
15.169891721717274 68.9412
15.192405310371893 68.0504
15.214901940621196 67.3866
15.237416709527137 66.4372
15.259914520936249 66.4541
15.282430473753607 65.9841
15.304947020131227 65.4416
15.327446610371178 65.033
15.349964346154254 64.5237
15.372465126703139 64.3434
15.394984055556009 64.4048
15.417486030076159 64.3934
15.44000615566487 64.0089
15.462526881230803 63.8047
15.485030653812652 63.5726
15.507552581617434 63.3966
15.530057557334603 63.5681
15.55258069104857 63.4567
15.575104429329837 63.4526
15.597611216864632 63.4978
15.620136166564563 63.6766
15.6426441664095 64.2048
15.665170331202765 65.5695
15.687697105158826 69.1104
15.710206930593545 74.0392
15.732734925158933 79.8515
15.755245972089478 87.2786
15.77777519094324 95.2814
15.800287463046663 106.28399999999999
15.822817909869592 123.344
15.84534897229804 144.252
15.867863089299354 169.687
15.890395385222186 190.954
15.912910736597423 202.669
15.935444269699861 193.665
15.957978423016485 169.31099999999998
15.980495633101265 133.954
16.003031029129367 104.51899999999999
16.02554948280019 81.3744
16.048086125229432 69.4143
16.070623392487107 64.8303
16.09314371869582 62.9023
16.11568223789321 61.2856
16.13820381691126 60.089
16.160743591742527 59.1209
16.183283996022084 58.2816
16.205807461423195 57.5598
16.228349126881973 56.9448
16.25087385432698 57.0227
16.27341678466365 56.2853
16.29594277784926 56.001999999999995
16.31848697676433 55.6819
16.341031811604868 55.3111
16.36355971058487 55.261
16.3861058195587 55.1992
16.40863499352978 54.5868
16.431182380342005 54.2567
16.453730407713202 54.0974
16.476261501364792 53.8365
16.498810812136167 53.6644
16.52134319004079 53.5931
16.54389378792203 53.6722
16.566445031001553 53.4952
16.588979342490088 53.2557
16.61153187824822 53.11
16.634067483263312 52.9822
16.656621315414416 52.9082
16.679175797408888 52.809
16.701713349928728 52.7811
16.72426913389191 52.8222
16.74680798922351 52.8905
16.76936507887444 52.8553
16.791905240734874 52.8052
16.814463639794468 52.7483
16.837022695210294 52.6296
16.859564824093756 52.9187
16.882125194503903 53.2158
16.904668639217885 53.8305
16.927230328348003 54.1136
16.949792678493612 54.3216
16.972338104193863 54.3205
16.994901778652235 53.9965
17.017448529496576 53.9562
17.040013531998152 54.059
17.06257920018044 54.0009
17.0851279459922 54.905
17.107694947817667 56.0658
17.130245028099072 57.09
17.15281336730298 58.593
17.17536478578733 60.1723
17.19793446610687 62.4849
17.220504818648422 64.9906
17.243058251703697 67.9978
17.265629950971032 72.7894
17.288184731571736 77.6253
17.310757781306908 82.0766
17.33333150794385 83.1374
17.355888317140174 82.6014
17.37846339986244 78.5269
17.401021565958885 72.3303
17.42359800851343 66.0496
17.44617513265564 61.3045
17.468735341390783 58.9522
17.491261035594565 57.583
17.51396340099364 57.3318
17.536490463869136 57.4594
17.559018209820174 57.245
17.58154663977963 57.4121
17.604251766089718 57.6696
17.626781572227713 57.8702
17.64931206518155 57.8399
17.671843245885103 58.1555
17.69455114821572 58.2797
17.717083712612634 58.8116
17.739616967569667 59.3386
17.762150914021706 60.0212
17.78486160749854 60.2504
17.807396945166804 60.9035
17.829932977143503 61.3996
17.85246970436452 62.1351
17.875183204129467 63.7367
17.897721330097664 66.7801
17.920260154126645 70.04
17.942799677153296 73.62899999999999
17.9655159983646 77.8545
17.988056927677544 82.5024
18.010598558807683 89.1722
18.033140892692916 98.0691
18.05586005052525 109.131
18.07840379824407 121.264
18.10094825154059 133.346
18.12366954819864 142.401
18.146215420998306 144.585
18.16876200220057 137.748
18.191309292745153 123.57600000000001
18.214033452627167 108.738
18.236582170236648 96.0292
18.259131600016456 88.2579
18.281681742907335 86.0788
18.304408781233683 88.8983
18.32696035875955 94.3684
18.349512652227624 99.3775
18.372065662579683 105.428
18.394795594587553 107.40899999999999
18.41735004715306 104.765
18.43990521943684 98.9013
18.46246111238171 88.7897
18.485193953325208 78.9264
18.507751296070428 70.7294
18.530309362314178 66.0288
18.552868153000343 63.0766
18.57560391815056 61.3689
18.59816416623245 60.8773
18.620725141597372 60.2608
18.643286845190268 59.575
18.666025549835414 59.0901
18.688588718427933 58.1478
18.711152618092243 57.9713
18.73389353884365 58.058
18.75645890921984 57.5698
18.77902501351406 57.1786
18.801591852673102 57.3083
18.824335739722738 56.6503
18.846904057212626 56.4672
18.8694731124168 56.3403
18.89204290628315 56.2022
18.914789774966803 56.106
18.937361054791623 55.838
18.959933076131318 55.5316
18.982505839934877 55.3769
19.00525570560582 55.2685
19.027829963004184 55.2932
19.05040496572238 55.3305
19.072980714710468 55.2749
19.095733592739563 55.1304
19.11831084296757 55.3095
19.140888842324735 55.9326
19.16346759176222 56.5302
19.18622349753803 57.2417
19.208803755869358 58.0274
19.231384767143577 59.3445
19.253966532312948 60.8657
19.276725481241822 62.8272
19.29930876296784 65.6656
19.3218928014549 69.0209
19.34465404436217 72.1799
19.36723960516257 74.7969
19.389825925592426 76.23899999999999
19.412413006605938 75.1809
19.43517731967805 72.173
19.457765930683355 67.9489
19.48035530514408 63.4005
19.50294544401556 59.4841
19.525712842708348 56.3587
19.54830451925909 54.4992
19.570896963095727 53.0428
19.593490175174704 52.6204
19.616260674962184 52.4593
19.638855432416964 52.1473
19.661450960992624 52.2866
19.68404726164677 52.2281
19.706820878021247 51.9281
19.729418731756834 52.2165
19.752017360452857 51.965
19.77461676506804 52.0613
19.797393513540218 52.0916
19.819994478951667 52.2035
19.84259622316767 52.6758
19.8651987471481 53.412
19.887978643247177 53.6257
19.91058273574792 54.3555
19.933187610901943 55.2807
19.955969879466828 56.3514
19.97857632894404 57.7567
20.00118356396599 59.0307
20.023791585494575 61.1513
20.046577028914875 63.9231
20.069186632506966 66.5
20.091797025500632 68.9687
20.114408208858933 70.4464
20.137196842715273 70.8132
20.159809615886765 69.3075
20.18242318232135 66.832
20.20503754298326 64.1907
20.227829382875154 62.4635
20.250445341109344 61.5858
20.27306209647285 62.1013
20.29567964993108 63.684
20.31847471147704 64.9739
20.34109387027612 65.646
20.363713830075454 65.5896
20.386334591841646 64.0969
20.409132890679302 61.5597
20.431755265564437 58.2848
20.454378445325528 55.2311
20.477002430930366 53.0589
20.499803982716553 51.2859
20.522429589228004 50.2674
20.54505600449589 49.5783
20.567683229489194 49.268
20.590488049900088 49.0913
20.61311690359731 48.9033
20.63574656993626 48.7727
20.658553853717297 48.4892
20.681185154618298 48.4259
20.703817271080066 48.276
20.72645020407368 48.0438
20.749260783967177 48.0465
20.771895359337133 48.1993
20.794530754161617 48.2029
20.817166969412938 48.0593
20.83998086114876 47.9845
20.86261872660049 47.8026
20.885257415405402 47.7534
20.90789692853701 47.56100000000001
20.930714147864748 47.2671
20.953355319030678 47.3216
20.97599731745334 47.4294
20.99864014410749 47.3582
21.021460706796564 47.5037
21.044105199328826 47.6007
21.06675052302631 47.8541
21.089396678865015 48.0806
21.112220600704806 48.2739
21.134868430275347 48.5967
21.15751709492456 48.8103
21.180166595629693 49.1311
21.202993892429635 49.7185
21.22564507473034 50.2897
21.24829709602816 50.4208
21.27112693608965 50.582
21.293780644891275 50.6534
21.316435195634053 49.9959
21.339090589297417 49.1163
21.361923832041875 48.6762
21.384580921090404 47.973
21.407238856007325 47.6261
21.429897637773326 47.4538
21.45273429906592 47.3351
21.475394784108598 47.3389
21.498056118951983 47.2147
21.520718304578022 47.4601
21.543558400304388 47.4287
21.566222297108816 47.6702
21.58888704765135 47.8037
21.61155265291521 47.997
21.63439619898156 48.6271
21.657063523335786 49.0102
21.67973170537063 49.5419
21.7024007460706 50.166000000000004
21.72524775840385 50.9846
21.747918526116475 51.7839
21.770590155457388 52.9985
21.79326264741238 54.309
21.816113141960237 56.0199
21.838787368860547 58.2184
21.861462461341976 60.4888
21.884315579735777 62.9327
21.90699241312273 64.6493
21.92967011506078 65.2645
21.95234868653799 65.3762
21.9752053151131 64.0057
21.997885635446785 61.9187
22.020566828293532 59.8767
22.04324889464272 58.0762
22.066109049404666 56.3866
22.088792872571794 55.8543
22.111477572219204 55.8838
22.1341631493376 56.1123
22.157026846313123 55.9794
22.179714188221507 55.1981
22.202402410582668 54.277
22.22509151438863 52.7419
22.24795876962584 51.2643
22.270649646204486 49.9605
22.293341407213727 49.0772
22.316034053646906 48.4445
22.338904883215342 48.0021
22.36159931041458 47.9238
22.38429462602756 47.8119
22.40699083104897 47.4733
22.429865251039757 47.4352
22.452563244831367 47.6347
22.47526213102522 47.6357
22.49813925616515 47.4621
22.520839937143307 47.4063
22.543541513520587 47.5633
22.56624398629403 47.6684
22.589124730075895 47.5075
22.611829005656723 47.647
22.63453418063466 47.5676
22.657240256008077 47.8076
22.680124634582935 48.0201
22.70283252079775 48.3826
22.725541310413075 49.0364
22.74825100442868 49.0429
22.771139033969575 49.6899
22.79385054687155 49.8993
22.81656296718292 50.6312
22.83927629590484 51.3909
22.862167992606945 52.2343
22.88488314827121 53.3038
22.907599215359284 54.4563
22.93031619487366 55.9671
22.953211574954405 56.8505
22.975930389478226 57.7275
22.998650119445763 58.125
23.02137076586092 57.3223
23.044269845560063 56.2005
23.06699233506288 54.6135
23.089715744034912 52.6372
23.112617610931565 50.9384
23.135342869061212 49.6833
23.158069049684816 48.6265
23.1807961538087 48.0377
23.20370174880544 47.9381
23.226430710184808 47.7911
23.249160598093425 47.6707
23.271891413539002 47.7317
23.294800752937697 47.983999999999995
23.31753343374794 48.4344
23.340267045128353 48.656000000000006
23.36300158808808 49.0395
23.38591468821339 49.4359
23.408651104658304 49.99100000000001
23.431388455719986 50.4436
23.454126742409 51.2022
23.4770436196085 52.1361
23.499783787914662 53.3957
23.522524894889884 54.4576
23.54526694154616 55.9443
23.56818761219047 57.4047
23.59093154860734 58.0892
23.613676427751283 58.5002
23.636422250635754 57.9318
23.659346731118656 56.5556
23.68209445191868 54.5
23.704843119509587 52.2354
23.72759273490623 50.0665
23.750521041644767 48.2864
23.77327256312355 46.8487
23.796025035462787 46.0374
23.818956224555475 45.3599
23.841710609113413 45.1744
23.86446594758979 44.8077
23.887222241002014 44.5767
23.910157285144578 44.3734
23.932915498962537 44.3156
23.955674670778713 44.1599
23.978434801611975 44.1016
24.001373717286125 43.8475
24.024135776723917 43.6948
24.046898798245582 43.6749
24.06966278287146 43.4775
24.092605586582614 43.1867
24.115371508023642 43.3057
24.1381383956401 43.0464
24.16090625045381 42.9157
24.183852958731244 42.8646
24.206622758582608 42.6218
24.229393528706886 42.5359
24.252165270127392 42.6938
24.27511589952438 42.6877
24.297889594216997 42.495
24.32066426328598 42.3912
24.34343990775613 42.45399999999999
24.36639447485003 42.2613
24.38917208083877 42.2522
24.41195066531332 42.1629
24.43490819850244 42.2272
24.457688750692377 42.0654
24.48047028445616 42.1125
24.503252800821233 42.192
24.526214300784112 42.368
24.548998793132213 42.2604
24.57178427117417 42.0585
24.59457073593893 42.2798
24.617536219319863 42.083999999999996
24.64032466834748 42.2647
24.663114107195035 42.0706
24.685904536893013 41.7763
24.708874020360852 41.7294
24.731666442613744 41.4994
24.754459858818787 41.5215
24.777254270007962 41.4456
24.80022777025625 41.3278
24.82302418230472 41.3892
24.845821592443674 41.3595
24.86862000170663 41.4521
24.891597535453727 41.3338
24.914397953892728 41.6119
24.93719937456671 41.413999999999994
24.96000179851076 41.5794
24.98298338249997 41.7041
25.00578782394922 41.9422
25.028593271784167 42.0459
25.05157790644186 42.3609
25.07438537804115 42.5819
25.097193859145293 42.8924
25.120003350792075 43.3473
25.142992065061257 43.7807
25.165803588823465 43.8842
25.18861612625217 44.1596
25.211429678386736 44.3391
25.234422489079968 44.4614
25.257238081693636 44.4252
25.280054692141732 44.6135
25.3028723214652 44.6243
25.325869245420463 44.8826
25.348688923599397 44.7569
25.371509623787006 44.6005
25.394331347025812 44.3417
25.41733240110666 43.9765
25.440156181590016 43.3393
25.46298098826268 42.65
25.48580682216873 42.1993
25.50881202326435 41.4337
25.53163992281684 40.9348
25.55446885274561 40.5345
25.577298814096377 40.2158
25.600308179121807 40.1363
25.623140214533745 40.0795
25.64597328451537 40.0185
25.66898578564376 39.702
25.691820936010206 39.7501
25.714657124097695 39.8561
25.737494350954734 39.8299
25.760511045684957 39.5694
25.783350361364224 39.6135
25.806190718969255 39.7984
25.82903211955018 39.9699
25.852053024868923 39.9367
25.874896522722523 39.8403
25.897741066713106 39.8866
25.920586657892454 40.0622
25.943611790812668 40.1558
25.966459487728237 40.3966
25.989308234998564 40.4543
26.01215803367705 40.6659
26.03518741123814 40.8403
26.05803932412957 41.0681
26.080892291600094 41.1312
26.10374631470478 41.2599
26.12677995397268 41.3688
26.14963609978026 41.3925
26.172493304397875 41.0022
26.19535156888223 40.8458
26.218389486949604 40.4375
26.241249882640123 40.0147
26.26411134137826 39.7628
26.28715248187403 39.5969
26.31001607820869 39.4593
26.3328807407756 39.3618
26.35574647063438 39.5425
26.37879191991473 39.5033
26.401659795896734 39.5392
26.424528742360263 39.6769
26.447398760366614 39.8689
26.470448535598294 39.931999999999995
26.49332070826805 40.0656
26.516193955675355 40.5333
26.53906827888316 40.6533
26.562122397260108 40.8954
26.584998883685063 41.263999999999996
26.607876449110325 41.5421
26.63075509460056 41.8327
26.65381357334404 42.0373
26.67669439061878 42.0753
26.699576291163382 41.9038
26.722459276044212 41.9532
26.745522132402975 41.5566
26.768407297649354 41.2115
26.791293550442003 40.7666
26.814180891848974 40.6406
26.837248143099337 40.2777
26.860137673466657 40.1265
26.88302829566349 39.7904
26.90592001075963 39.718
26.92899167420566 39.6141
26.951885586870763 39.0754
26.974780595655517 38.8578
26.99785558178161 38.7975
27.020752794605112 38.5349
27.043651106772522 38.3367
27.06655051935668 38.4031
27.089629948036183 38.0705
27.112531573292053 38.1724
27.135434302194138 38.1001
27.158338135817015 37.9797
27.181422024430987 38.0511
27.204328079372566 37.93
27.22723524226965 37.9163
27.250143514198573 37.9482
27.273231880156334 37.9997
27.296142382065014 37.9178
27.319053996245536 37.8408
27.341966723775965 37.8767
27.365059584515222 37.8349
27.38797455070062 37.8537
27.410890633481237 37.9727
27.433807833936918 37.9641
27.456905206923906 37.9957
27.47982465472398 37.9705
27.502745223449743 38.1207
27.525666914182825 38.2105
27.548768816912457 38.1589
27.571692763693633 38.1356
27.59461783573812 37.9108
27.617723149491244 37.8479
27.640650484125285 37.8081
27.66357894728264 37.6379
27.686508540048052 37.6694
27.709618414237887 37.5467
27.732550278321757 37.3984
27.755483275279115 37.3748
27.778417406196485 37.4411
27.801531858397514 37.4093
27.824468269376716 37.2766
27.847405817586786 37.2958
27.870344504116094 37.4564
27.893463551932008 37.5124
27.916404527281053 37.839
27.93934664422563 37.9306
27.962289903855886 38.0837
27.98541356491974 38.306
28.00835912214229 38.385
28.03130582533231 38.6251
28.054253675581805 38.8178
28.077381967556104 38.78
28.100332124185126 38.8213
28.123283431160893 38.8296
28.146235889577238 38.6956
28.169368830154156 38.5965
28.192323603752033 38.4579
28.215279532083304 38.0117
28.238415973016764 37.8825
28.261374223145094 37.7164
28.284333631303806 37.2932
28.307294198589954 37.2924
28.330435319167677 36.8682
28.353398217078915 36.5893
28.376362277420153 36.2666
28.39932750129032 36.0344
28.422473319286713 36.0026
28.44544088262495 35.8191
28.468409612800283 35.7322
28.491379510913497 35.5217
28.51453004413313 35.4031
28.53750229057244 35.4829
28.56047570826344 35.2481
28.583450298308804 35.3083
28.606605564586562 35.0662
28.629582511831156 35.155
28.65256063474956 35.0194
28.675539934446338 34.9439
28.698699951647605 34.9194
28.72168161743193 34.8463
28.74466446331978 35.0405
28.767648490417624 34.8781
28.790813276438353 34.7928
28.813799678527303 34.9376
28.836787265157085 34.8538
28.859955641890075 34.9319
28.882945610203045 34.9374
28.905936766392035 34.8102
28.928929111566863 34.8594
28.952102288520145 34.7794
28.975097024308607 34.7083
28.998092952423807 34.5636
29.021090073977508 34.3906
29.04426806913204 34.3442
29.067267590245258 34.25
29.090268308143695 34.1122
29.11327022394099 34.0402
29.13645305530891 33.8653
29.159457379627167 33.7878
29.18246290519685 33.8791
29.20546963313352 33.7717
29.22865731875826 33.8107
29.25166646419296 33.8445
29.27467681535305 33.5925
29.29768837335608 33.7887
29.320880931312562 33.8713
29.34389491580634 33.7527
29.366910110507334 33.7939
29.38992651653503 33.8307
29.41312396492981 33.7381
29.436142806456754 33.7016
29.45916286268059 33.5755
29.48236399319994 33.6067
29.50538649169417 33.3831
29.528410208259935 33.2409
29.55143514402014 33.107
29.574641196749695 32.8508
29.597668583816574 32.7661
29.6206971934585 32.6045
29.64372702680042 32.673
29.666938019934474 32.5351
29.689970313635285 32.4319
29.713003834422636 32.4191
29.73603858342347 32.3238
29.759254535188578 32.2597
29.78229175361658 32.1663
29.80533020365064 32.3584
29.82836988641968 32.3284
29.85159081507472 32.232
29.874632976355343 32.1883
29.89767637376955 32.1882
29.920721008448314 31.9681
29.9439469322847 32.0517
29.96699405457564 32.042
29.9900424175358 32.013000000000005
30.013092022298157 31.9248
30.03632295963995 31.9556
30.059375061131373 32.1483
30.08242840783577 32.058
30.105483000888153 31.9429
30.128718970092244 31.8803
30.151776069006917 31.9158
30.17483441768648 31.973000000000003
30.198074175317235 31.9576
30.221135036724256 31.9747
30.24419715131772 31.8678
30.267260520236203 31.8421
30.290505341942243 31.8398
30.313571232750228 31.9238
30.336638381310948 31.8578
30.35970678876503 31.865
30.38295669299435 31.6998
30.40602763151657 31.7771
30.429099832366074 31.7439
30.452173296685572 31.7168
30.47542830191959 31.6167
30.498504306502497 31.6679
30.521581577995562 31.6537
30.544660117543582 31.6952
30.56792024229725 31.7123
30.59100133132069 31.7187
30.614083691845494 31.7725
30.637167325018545 31.7742
30.660432587840603 31.8561
30.683518779717886 31.7852
30.70660624769615 31.8583
30.729694992924372 31.9194
30.75296541239743 31.888
30.77605672557558 31.8881
30.799149319462742 31.8289
30.8224236211637 31.6695
30.845518789950724 31.5272
30.868615242910597 31.5084
30.891712981195973 31.2791
30.91499247215866 31.243000000000002
30.938092794619365 31.1155
30.96119440587579 31.0801
30.984297307082752 31.0413
31.00758200598383 30.9147
31.030687500658694 30.7824
31.053794288760695 30.7812
31.076902371446767 30.6993
31.100192296997445 30.6895
31.12330298246119 30.6183
31.14641496599209 30.5353
31.169528248749216 30.6127
31.19282341969534 30.4821
31.215939314557186 30.5632
31.239056512134788 30.5819
31.262175013589378 30.4692
31.28547544871168 30.5467
31.30859657161541 30.4689
31.331719001892175 30.4323
31.35484274070538 30.5456
31.378148458819545 30.4938
31.401274828443725 30.5425
31.424402510106933 30.5648
31.447712205419993 30.6221
31.470842524931633 30.5307
31.493974159989783 30.5847
31.51710711176168 30.6462
31.54042212308802 30.4998
31.563557722100917 30.5418
31.586694641341655 30.3537
31.609832881979628 30.1778
31.63315322823208 30.1584
31.656294125521327 30.1045
31.679436347728515 29.9545
31.70257989602529 29.9316
31.725905596152327 29.7413
31.74905181052835 29.7809
31.772199354521323 29.8904
31.79534822930507 29.7823
31.818679302290967 29.7212
31.84183085259981 29.8773
31.864983737233473 29.747
31.88813795736804 29.8446
31.911474422233013 29.7027
31.934631327356435 29.8003
31.9577895715215 29.7933
31.980949155906522 29.8196
32.004291031706956 29.7021
32.027453310562606 29.5084
32.05061693318573 29.449
32.07396288236386 29.5141
32.09712920658542 29.5168
32.12029687812702 29.3393
32.14346589817093 29.3057
32.166817291729984 29.2593
32.18998902288583 29.1412
32.21316210610336 28.9876
32.23633654256711 28.969
32.259693399663725 28.8785
32.282870556771144 28.7809
32.30604907069099 28.8131
32.329228942610065 28.7364
32.35259128243769 28.6244
32.375773884550505 28.566
32.398957848235646 28.5378
32.422143174682176 28.4054
32.445511016471215 28.4324
32.468699082679954 28.3307
32.49188851523011 28.315
32.51507931531304 28.1075
32.538452678331 28.2877
32.56164622776311 28.1485
32.58484114831493 28.0883
32.60803744118015 28.185
32.631416344731896 28.1065
32.654615396551876 28.0202
32.67781582427913 28.0489
32.701198898634416 27.9995
32.72440209253756 27.9557
32.747606665947124 27.8806
32.77081262006088 27.7565
32.79420126883317 27.7251
32.81740999876112 27.8438
32.840620112999424 27.7049
32.86383161274818 27.6259
32.88722585534586 27.6424
32.91044014056596 27.7554
32.933655814909734 27.6301
32.95687287957963 27.6497
32.98027273544904 27.5872
33.00349259526636 27.5102
33.026713849030116 27.5178
33.04993649794511 27.4496
33.073341986570746 27.445999999999998
33.09656744032826 27.4817
33.11979429286444 27.4781
33.14302254538647 27.5522
33.166433686291185 27.4306
33.18966475336992 27.3848
33.212897224069096 27.2765
33.23613109959831 27.2993
33.259547912343415 27.2128
33.2827846121627 27.3166
33.306022720453775 27.2131
33.32926223842861 27.0687
33.352684742614166 27.0996
33.37592709463173 27.1039
33.399170859982064 26.9625
33.422597648419426 26.894000000000002
33.44584425514446 26.7985
33.46909227885668 26.7649
33.4923417207723 26.5874
33.51577423505344 26.6333
33.539026528130385 26.5803
33.56228024307245 26.5759
33.585535381098246 26.4142
33.60897364093058 26.3813
33.63223163992385 26.3856
33.6554910656699 26.3363
33.678751919389796 26.3416
33.702195944520106 26.2844
33.72545966903325 26.2351
33.74872482519663 26.1541
33.771991414233746 26.1717
33.79544122444841 26.1898
33.81871069412428 26.049
33.84198160035767 26.009
33.86525394437455 26.0627
33.88870955949969 25.936999999999998
33.911984794020626 25.9079
33.93526147001624 25.83
33.958539588715006 25.9487
33.98200102861669 25.8252
34.0052820477047 25.7081
34.02856451319451 25.736
34.05203033759056 25.6757
34.07531571090147 25.6315
34.09860253431845 25.5871
34.121890809074316 25.5699
34.145362493118924 25.5501
34.16865368561615 25.5152
34.191946333164054 25.4311
34.21524043699793 25.4461
34.23871800066799 25.4774
34.26201503218366 25.3747
34.28531352370466 25.2831
34.30861347646881 25.3057
34.33209693978188 25.2722
34.3553998301885 25.1606
34.378704185565205 25.1686
34.402010007152356 25.0526
34.42549939016683 25.0189
34.44880815937748 24.9783
34.472118398533134 24.9019
34.49543010887669 24.7555
34.51892543169198 24.79
34.54224009966052 24.8531
34.56555624255917 24.7849
34.58887386163339 24.6493
34.61237514439016 24.6519
34.6356957311114 24.6039
34.65901779775809 24.5815
34.68252356662995 24.5992
34.705848608458616 24.5174
34.72917513396849 24.4542
34.75250314440949 24.351999999999997
34.77601490857862 24.3552
34.799345904259795 24.2687
34.82267838863559 24.3144
34.846012362958525 24.3054
34.869530142679984 24.3103
34.89286711232212 24.3372
34.91620557568269 24.2666
34.93954553401677 24.1898
34.9630693495876 24.1229
34.986412313340814 24.2088
35.00975677584668 24.1638
35.033102738362956 24.1238
35.05663261012228 24.0561
35.0799815881786 23.9379
35.10333207003229 23.9368
35.12668405694369 23.9276
35.150220005273056 23.8931
35.17357501786656 23.8482
35.19693153931268 23.8776
35.220289570874385 23.7794
35.24383161619786 23.8333
35.267192683604904 23.8812
35.290555264930376 23.843000000000004
35.314101899412165 23.7449
35.33746752422433 23.7891
35.36083466676374 23.776
35.38420332829803 23.6637
35.407756095629054 23.7749
35.43112781085063 23.7023
35.45450104888391 23.5975
35.477875810999194 23.5884
35.50143473172161 23.601
35.52481255774625 23.6286
35.54819191167777 23.563000000000002
35.57157279478914 23.548000000000002
35.595137889488406 23.5371
35.61852184675279 23.3337
35.641907337029984 23.3559
35.665294361595684 23.3706
35.68886565090076 23.2883
35.7122557598848 23.2391
35.73564740699838 23.2348
35.759040593519934 23.1668
35.78261809810353 23.1403
35.80601437933051 22.9975
35.829412203814705 22.9857
35.85281157283719 22.9254
35.876395313415884 23.0472
35.8997977874528 22.9157
35.92320180988546 22.8798
35.946790244133936 22.8541
35.97019737933222 22.8807
35.993606066789866 22.7875
36.01701630779276 22.7266
36.04061101440684 22.6744
36.06402437852291 22.6083
36.08743930005611 22.6668
36.1108557802951 22.6419
36.13445678011326 22.5759
36.15787639383515 22.6586
36.18129757014299 22.5693
36.20472031032821 22.4723
36.22832762423364 22.4311
36.25175350829375 22.4114
36.275180960119776 22.4136
36.298609981005924 22.4102
36.32222362992669 22.3289
36.34565580510207 22.3299
36.36908955323448 22.3035
36.39252487562093 22.1733
36.416144880530226 22.206999999999997
36.43958336764275 22.184
36.463023432914625 22.1521
36.486465077645676 21.9955
36.51009145956204 22.1045
36.53353627947859 22.1449
36.55698268276811 22.07
36.58043067073321 21.9285
36.60406345072071 21.8636
36.62751462435344 21.9304
36.65096738658405 21.9102
36.67460498210655 21.8567
36.69806093788647 21.8938
36.72151848619297 21.747
36.744977628333636 21.7853
36.76862165890998 21.7458
36.79208400512205 21.7438
36.81554794910557 21.6494
36.83901349217101 21.6332
36.862663978991606 21.6251
36.88613273667352 21.5249
36.90960309738324 21.5004
36.933075062434064 21.4708
36.95673202673572 21.4333
36.98020721697122 21.4194
37.003684015502365 21.3765
37.027162423645365 21.3002
37.050825886711465 21.392
37.07430753063053 21.2568
37.09779078812467 21.1189
37.121275660513014 21.1025
37.144945643673694 21.1536
37.16843376245278 21.1357
37.19192350009803 21.1263
37.215414857931435 21.0682
37.239091382563885 20.9299
37.262585997426164 20.980999999999998
37.28608223645736 20.9701
37.309763684451696 20.8453
37.33326318851098 20.8633
37.356764320726555 20.8945
37.380267082425526 20.8382
37.40395510942588 20.8289
37.42746114683234 20.7701
37.45096881771841 20.7699
37.474478123414166 20.7698
37.49817275092816 20.6609
37.52168534303452 20.6356
37.54519957395567 20.5553
37.568715445024665 20.5254
37.592416694607714 20.5431
37.61593586281424 20.5275
37.63945667518264 20.4731
37.66297913304891 20.4405
37.68668702630454 20.4712
37.710212792059274 20.3863
37.733740207334854 20.3229
37.757269273470364 20.2865
37.780983832050374 20.2256
37.80451621684926 20.2837
37.82805025654007 20.2586
37.851585952464795 20.1602
37.8753071980695 20.0687
37.89884622345676 20.0288
37.92238690911902 20.0698
37.94611318753442 20.0553
37.969657210779765 20.0351
37.99320289834801 19.98
38.016750251586465 19.9348
38.04048325513017 19.8717
38.06403395679343 19.8931
38.087586328183946 19.8384
38.11114037065203 19.7858
38.13488012115898 19.8152
38.1584375229181 19.7376
38.181996599821 19.7131
38.205557353221124 19.6767
38.229303872575656 19.6438
38.2528679961576 19.6662
38.27643380031219 19.6057
38.30000128639589 19.5753
38.32375459653193 19.5514
38.34732546371299 19.5083
38.37089801690786 19.4575
38.39447225747609 19.395
38.418232380377425 19.3663
38.441810012983396 19.4613
38.46538933705673 19.3271
38.488970353960084 19.3866
38.51273731166058 19.3228
38.536321731567014 19.2633
38.55990784840681 19.2329
38.58367995004091 19.1768
38.60726947812959 19.1178
38.63086070726198 19.1594
38.654453638806274 19.176
38.678232613930824 19.0975
38.70182896773327 19.007
38.72542702806741 19.0377
38.7490267963045 19.009
38.77281266709232 18.965999999999998
38.79641586862214 18.983
38.8200207821842 18.8265
38.843627409152944 18.8527
38.86742019782782 18.8375
38.891030269149255 18.7295
38.914642058016156 18.8164
38.938255565806124 18.7902
38.96205529464307 18.6737
38.98567225787121 18.6545
39.00929094417078 18.637
39.03291135492255 18.6347
39.05671804624804 18.6006
39.080341923549106 18.5874
39.103967529460334 18.6215
39.127594865365744 18.4543
39.15140854155791 18.4556
39.17503935514948 18.45
39.19867190290282 18.4007
39.22249083587951 18.4282
39.24612686969409 18.4638
39.269764641845306 18.4074
39.293404153722804 18.35
39.317230110864074 18.2486
39.34087311998506 18.2161
39.36451787301696 18.2182
39.388164371352595 18.1244
39.41199737518003 18.1668
39.43564738196752 18.081
39.45929913825317 18.0622
39.48295264543308 18.0243
39.506792718520884 18.0162
39.530449745387216 17.9812
39.55410852735203 17.9452
39.57776906581474 18.022000000000002
39.60161623079 17.9437
39.625280300200025 17.8861
39.64894613032202 17.8383
39.67261372255866 17.8342
39.6964680021016 17.8306
39.72013913657293 17.8337
39.74381203738292 17.7654
39.76748670593756 17.7592
39.79134812278169 17.6908
39.81502634488497 17.6482
39.83870633896685 17.6677
39.862388106436654 17.5942
39.88625668336918 17.5758
39.90994201572829 17.5775
39.933629125719285 17.5012
39.957503091207826 17.4463
39.9811937746168 17.5264
40.00488623990914 17.5097
40.02858048850006 17.4085
40.05246165409549 17.3848
40.076159487492085 17.3466
40.099859108448875 17.3592
40.123560518384345 17.3089
40.1474489070226 17.3452
40.171153913178564 17.2012
40.194860712584955 17.1851
40.2185693066637 17.2409
40.242464941335314 17.1754
40.26617714307655 17.1002
40.289891143772046 17.1441
40.3136069448471 17.114
40.33750984859743 17.1114
40.3612292688043 17.0971
40.3849504936829 16.9978
40.40867352466194 16.974
40.43258372059144 16.9469
40.45631038219906 16.9678
40.48003885420956 16.8945
40.503769138055105 16.8897
40.52768664931955 16.843
40.55142057531802 16.7983
40.57515631746428 16.7634
40.599079334038514 16.7773
40.62281872700477 16.7289
40.64655994043941 16.6906
40.67030297578061 16.6897
40.69423334835778 16.7053
40.71798004609188 16.6872
40.74172857006355 16.6299
40.76547892171441 16.6257
40.7894166736039 16.5826
40.813170699248566 16.5061
40.83692655691388 16.4631
40.86068424804498 16.4668
40.884629402612525 16.4662
40.908390779366385 16.4696
40.932153993938 16.4619
40.95591904777605 16.3964
40.979871628443995 16.4087
41.003640379561936 16.3469
41.02741097430883 16.3265
41.05118341413683 16.2588
41.075143444384416 16.2413
41.098919593177826 16.206
41.1226975914255 16.2007
41.14647744058318 16.1711
41.170444943946755 16.0683
41.19422851378379 16.1084
41.218013938914645 16.0817
41.24198706625173 16.0546
41.26577622087193 16.0669
41.289567235177785 16.0137
41.31336011063129 15.9299
41.337340752422875 15.9555
41.361137369129835 15.9324
41.38493585138705 15.9472
41.40873620066004 15.8933
41.43272438060107 15.8845
41.45652848292052 15.8095
41.48033445666918 15.7674
41.50414230331616 15.72
41.528138045159764 15.7296
41.551949656675205 15.7053
41.575763145513235 15.6865
41.59957851314666 15.6734
41.62358184070442 15.6286
41.64740098505737 15.6285
41.6712220126409 15.604000000000001
41.69504492493139 15.5675
41.71905586207357 15.5046
41.74288256296395 15.4441
41.766711153007456 15.4848
41.79054163368412 15.4431
41.814560204340054 15.4541
41.838394485526365 15.4171
41.86223066180303 15.2957
41.88625497706819 15.337
41.910094962812 15.3221
41.93393684811168 15.3168
41.95778063445365 15.2101
41.981812625263366 15.2351
42.00566023303407 15.1585
42.029509746323676 15.203
42.05336116662236 15.1793
42.077400857069705 15.1548
42.10125611078846 15.0927
42.12511327600405 15.0716
42.14897235421036 15.0513
42.173019768448455 15.0329
42.19688269209613 15.0428
42.22074753323349 15.0145
42.24461429335818 14.9339
42.268669455600495 14.9272
42.292540073217886 14.9146
42.31641261433284 14.915
42.34028708044675 14.8576
42.36435001496739 14.817
42.38822835065557 14.8256
42.41210861586426 14.7742
42.4359908120986 14.7892
42.46006154323262 14.7412
42.48394762115317 14.6781
42.507835634632315 14.6898
42.531912233047436 14.7027
42.55580413732265 14.628
42.579697981698 14.6507
42.60359376768525 14.6087
42.62767820545945 14.6254
42.65157789440821 14.5083
42.67547952952185 14.5343
42.699383112316 14.5559
42.72347541395347 14.4588
42.74738291190531 14.4335
42.771292362102166 14.4505
42.795203766063516 14.3982
42.819303956130405 14.3788
42.843219287476536 14.3404
42.86713657716324 14.2952
42.89105582671383 14.2529
42.91516392983864 14.296
42.939087119032166 14.2778
42.963012272677304 14.2255
42.98693939230129 14.1946
43.01105543317513 14.1428
43.034986504731386 14.1212
43.05891954686589 14.102
43.08285456110972 14.1765
43.10697856448665 14.0447
43.130917542983475 14.0354
43.15485849820081 14.0352
43.17880143167367 13.9345
43.20293342237094 13.9341
43.226880332449 13.942
43.25082922540554 13.9569
43.27496722682525 13.885
43.29892010567796 13.7987
43.32287497204102 13.8875
43.34683182745632 13.8449
43.370977859791836 13.8088
43.39493871351105 13.8102
43.41890156092628 13.8118
43.44286640358341 13.758
43.46702049182749 13.7452
43.49098934522816 13.6911
43.51496019852649 13.687000000000001
43.5389330532723 13.6415
43.56309522248204 13.6136
43.58707210044314 13.6393
43.61105098451946 13.5567
43.63503187626491 13.5533
43.659202151562134 13.4963
43.68318707902681 13.4612
43.70717401884041 13.4695
43.731162972560874 13.4604
43.75534137913236 13.4149
43.779334381108384 13.3973
43.803329401683186 13.405
43.82732644241872 13.4108
43.8515130055166 13.3522
43.87551410707659 13.2681
43.89951723350145 13.3154
43.923709934595614 13.315999999999999
43.94771713129917 13.2562
43.97172635758096 13.293
43.99573761501002 13.2075
44.0199385169922 13.1624
44.04395385732619 13.1373
44.067971233533086 13.133
44.09199064718605 13.0849
44.11619977548961 13.0592
44.14022328470671 13.049000000000001
44.16424883610785 13.0463
44.18827643127035 13.0229
44.21249381139513 13.0003
44.236525514814076 12.9846
44.26055926674478 12.9623
44.28459506876863 12.9824
44.3088207262813 12.884
44.33286064928722 12.8822
44.35690262714919 12.8231
44.38094666145278 12.7836
44.4051806219871 12.8378
44.42922879003185 12.784
44.45327901929361 12.7526
44.477331311362136 12.7524
44.501573600619416 12.7247
44.525630039221795 12.7005
44.54968854541895 12.6482
44.573937102200176 12.6789
44.5979997645541 12.6538
44.622064499300315 12.6628
44.64613130803592 12.568
44.67038823869318 12.6288
44.69445921643748 12.5708
44.718532272981385 12.5439
44.742607409926194 12.5347
44.76687274034801 12.5505
44.79095205918753 12.4843
44.81503346325094 12.4568
44.839116954143876 12.3956
44.86339071028742 12.3914
44.88747839599524 12.3832
44.91156817336837 12.3695
44.93566004401666 12.2967
44.959942251908146 12.3392
44.984038330325966 12.3384
45.00813650686762 12.2866
45.03223678314731 12.2431
45.05652746888232 12.2174
45.08063196592069 12.1908
45.104738567558705 12.1659
45.128847275414856 12.1655
45.15314646515866 12.0963
45.17725940679741 12.1151
45.20137445952892 12.0356
45.22568004865265 12.0421
45.24979934496396 12.0373
45.27392075725247 12.0325
45.29804428714431 12.015
45.322358426247604 11.9837
45.346486212804315 11.9641
45.370616121861914 11.9634
45.39474815505086 11.927
45.41907087049246 11.8975
45.4432071734666 11.9161
45.46734560548283 11.853
45.49148616817604 11.865
45.51581748638564 11.8162
45.5399623320197 11.814
45.56410931325473 11.7972
45.58825843173002 11.7834
45.61259837920865 11.7254
45.636751793816 11.7365
45.66090735060093 11.7147
45.68506505120716 11.6463
45.7094136545275 11.5948
45.73357566449271 11.6109
45.75773982322992 11.6216
45.78190613238733 11.5878
45.806263418194064 11.5453
45.83043404997326 11.54
45.85460683713677 11.5586
45.87897065658495 11.4845
45.90314777634752 11.4382
45.92732705646868 11.4526
45.9515084986045 11.4125
45.97588104735473 11.4478
46.00006683541565 11.4273
46.02425479047904 11.3694
46.04844491420549 11.3847
46.0728262191024 11.3213
46.09702070211635 11.3271
46.12121735879483 11.3576
46.14541619080294 11.3539
46.169806278764455 11.2886
46.194009483459034 11.2616
46.21821486849841 11.2049
46.24242243555223 11.1854
46.266821333570014 11.1618
46.29103328674601 11.16
46.31524742696538 11.1309
46.33946375590237 11.1153
46.36387149104216 11.1453
46.38809221957392 11.0957
46.41231514186606 11.0651
46.436540259597464 11.0173
46.460956858999374 11.011
46.48518638983522 11.0374
46.509418121166966 10.9792
46.533652054678114 10.9671
46.55807754555709 10.9703
46.58231590571962 10.9198
46.60655647313217 10.9127
46.630988654873654 10.8797
46.655233659129024 10.8284
46.67948087571551 10.8466
46.70373030632484 10.8269
46.72817142736393 10.792
46.752425308428684 10.7437
46.77668140861147 10.7341
46.80093972960865 10.7016
46.82538981736788 10.6956
46.849652602470904 10.6781
46.87391761349769 10.6835
46.8981848521493 10.6648
46.9226439341274 10.6366
46.946915650573224 10.5893
46.97118959976749 10.6154
46.99546578341598 10.5595
47.019933887188216 10.58
47.04421456235744 10.5794
47.06849747711879 10.522
47.09278263318286 10.4765
47.11725978640143 10.4766
47.14154944775105 10.4896
47.165841355555656 10.4438
47.1901355115306 10.4227
47.214621741924994 10.4169
47.23892041698887 10.375
47.26322134538975 10.3442
47.28771440635075 10.3387
47.31201986422527 10.3414
47.33632758061436 10.2947
47.360637557241866 10.328
47.38513974410611 10.2864
47.40945426407847 10.2255
47.43377104948137 10.2335
47.45809010204344 10.1937
47.48260144275502 10.1694
47.506925052572285 10.1854
47.53125093475548 10.1498
47.55557909103813 10.1594
47.58009961361992 10.1337
47.60443234110732 10.1141
47.62876734791564 10.0846
47.65310463578333 10.0864
47.6776343683373 10.0467
47.7019762413987 9.98446
47.72632040075572 9.97906
47.75066684815169 9.97751
47.77520581885936 9.93413
47.799556865477655 9.94774
47.823910205386 9.94186
47.84826584033272 9.933489999999999
47.87281407745551 9.87315
47.89717432569297 9.883339999999999
47.92153687423484 9.88477
47.94609208429692 9.86081
47.97045925671401 9.83705
47.99482873471275 9.81277
48.01920052005013 9.78775
48.04376504619224 9.80147
48.068141469543484 9.79818
48.09252020552573 9.71306
48.11690125590099 9.70288
48.1414751266064 9.69825
48.16586082917454 9.68125
48.19024885144316 9.645010000000001
48.2146391951793 9.652519999999999
48.239222439012764 9.66019
48.26361744916137 9.610710000000001
48.28801478610016 9.61637
48.31241445160131 9.62267
48.337007097209366 9.602219999999999
48.36141144338331 9.57713
48.38581812345755 9.52305
48.41022713920929 9.51808
48.434829215320704 9.50314
48.45924292604658 9.51863
48.48365897780325 9.4611
48.50807737237308 9.43252
48.532688907799276 9.42464
48.55711201168574 9.42031
48.581537463754074 9.37471
48.60615611725119 9.38795
48.63058628942721 9.39017
48.65501881516546 9.32441
48.6794536962573 9.3274
48.70408185970339 9.29603
48.72852147531801 9.28058
48.75296345168211 9.24935
48.77740779059232 9.300419999999999
48.80204549302823 9.30406
48.82649458091802 9.195039999999999
48.85094603676547 9.19063
48.87539986237231 9.18153
48.90004713292306 9.16274
48.92450572200832 9.174610000000001
48.94896668628025 9.15497
48.97343002754588 9.14645
48.99808689542115 9.10003
49.02255501470614 9.11823
49.04702551642794 9.029919999999999
49.0714984023988 9.05006
49.096164896893235 9.01932
49.120642575466796 9.00382
49.145122643748394 9.00635
49.16960510355558 8.974219999999999
49.19428125404938 8.963980000000001
49.2187685210852 8.96251
49.243258185121555 8.96378
49.26794160167084 8.91338
49.2924360839405 8.88
49.31693296869764 8.86328
49.34143225776915 8.87014
49.36612538195438 8.83756
49.39062950396021 8.84115
49.41513603578346 8.83041
49.4396449792564 8.79827
49.46434784069503 8.7867
49.488861631846454 8.76729
49.513377840166804 8.73057
49.537896467493745 8.703330000000001
49.56260909589029 8.6595
49.587132585683285 8.69737
49.611658500018365 8.64579
49.636186840738596 8.68027
49.66090926588511 8.68326
49.685442483902584 8.64066
49.70997813385706 8.58615
49.734516217597076 8.57266
49.75924846937352 8.61589
49.7837914452858 8.58496
49.80833686055187 8.50036
49.83288471702571 8.524939999999999
49.85762682540054 8.529860000000001
49.882179588965734 8.48378
49.9067347993235 8.45583
49.93129245833333 8.45364
49.95604445336378 8.44898
49.98060703442832 8.42758
50.005172069746266 8.40824
50.02993150438364 8.42135
50.05450147301533 8.40217
50.07907390151433 8.37086
50.10364879174981 8.30035
50.12841816587289 8.32535
50.1529980044635 8.32206
50.17758031042124 8.32053
50.20216508562089 8.29004
50.22694442953363 8.27036
50.25153416817468 8.25198
50.27612638170508 8.26507
50.300721072005196 8.211110000000001
50.325510416102105 8.18903
50.350110084975064 8.17592
50.37471223628208 8.17215
50.39931687190919 8.14368
50.424116246675766 8.14166
50.44872587605249 8.11861
50.47333799543065 8.08725
50.49795260670191 8.04497
50.52276204271512 8.082460000000001
50.54738166295838 8.05941
50.57200378079314 8.03819
50.596628398116835 8.03495
50.62144792604559 8.03363
50.646077567609396 7.99826
50.670709714377715 8.0125
50.69553683636198 7.95529
50.72017401885922 8.00375
50.7448137122895 7.945010000000001
50.76945591856022 7.92202
50.79429318636823 7.909789999999999
50.818940443716784 7.89047
50.84359021965163 7.87553
50.868242516085964 7.85593
50.893089960641895 7.83637
50.917747323549435 7.83552
50.94240721271973 7.8415
50.96706963007175 7.785760000000001
50.99192728239342 7.7697
51.01659478166073 7.75237
51.04126481489051 7.76014
51.06593738400761 7.74873
51.090805275207074 7.694089999999999
51.11548294172845 7.73923
51.14016314993547 7.708419999999999
51.164845901758845 7.670939999999999
51.18972406304274 7.66743
51.21441192780656 7.66131
51.23910234200271 7.64537
51.2637953075678 7.5892800000000005
51.288683770237945 7.59714
51.31338186432707 7.5868899999999995
51.33808251561888 7.55708
51.362978729967345 7.552410000000001
51.387684521509755 7.5620199999999995
51.41239287610203 7.5110600000000005
51.437103795691165 7.5012
51.46201036644977 7.51324
51.486726441956634 7.48924
51.51144508832545 7.46046
51.536166307509156 7.4652899999999995
51.56108326624387 7.4313
51.58580965706056 7.46006
51.61053862657523 7.45455
51.635270176746864 7.403239999999999
51.66019755512065 7.38607
51.68493429268881 7.36325
51.70967361681515 7.364269999999999
51.73441552946465 7.33542
51.759353359237934 7.31941
51.7841004750961 7.31038
51.80885018539685 7.29551
51.833602492111254 7.29505
51.8585508051424 7.253139999999999
51.883308330926425 7.230569999999999
51.90806845906181 7.2428
51.932831191525715 7.198989999999999
51.95779001977161 7.2088600000000005
51.98255798721516 7.1908199999999995
52.00732856494335 7.1354
52.03229530577543 7.11379
52.057071130455945 7.130139999999999
52.081849571391054 7.09121
52.106630630568695 7.1047199999999995
52.13160794279417 7.05435
52.15639426492067 7.065239999999999
52.18118321127822 7.066089999999999
52.205974783860896 7.069189999999999
52.23096269971011 7.0126
52.255759551287994 6.97987
52.280559035098186 6.98305
52.30536115314103 6.9588
52.33035970494467 6.971430000000001
52.35516711807904 6.9736
52.37997717147198 6.933110000000001
52.40478986713005 6.92645
52.42979908731974 6.916869999999999
52.454617094216 6.89607
52.47943774942214 6.91327
52.50426105495102 6.86118
52.529280976059844 6.8243
52.554109609024096 6.8676699999999995
52.57894089837482 6.83944
52.60377484613117 6.860689999999999
52.62880550079408 6.809589999999999
52.65364479223379 6.77885
52.67848674816189 6.76243
52.70352547971946 6.74472
52.72837279155837 6.7637100000000006
52.753222773982785 6.71588
52.778075429022984 6.72036
52.80312495150885 6.70102
52.827982978797436 6.7032300000000005
52.85284368481815 6.63542
52.87770707160767 6.642810000000001
52.90276741793998 6.646710000000001
52.92763619336701 6.632219999999999
52.952507655698504 6.603680000000001
52.977381806977576 6.60209
53.00245301017842 6.616689999999999
53.02733256653592 6.55545
53.052214817996074 6.567089999999999
53.077099766608484 6.5496
53.102181859804446 6.535819999999999
53.127072229988265 6.52439
53.15196530349892 6.5183800000000005
53.17686108239249 6.49726
53.20195409881522 6.4595400000000005
53.22685531582556 6.48759
53.25175924441303 6.46425
53.27666588664027 6.46177
53.30176985962693 6.41361
53.3266819565689 6.42139
53.35159677336455 6.4229
53.376514312083096 6.36479
53.40162927507703 6.4090300000000004
53.42655228516116 6.37531
53.45147802340193 6.3518099999999995
53.47660125628886 6.35045
53.50153247842639 6.29576
53.52646643496923 6.2793
53.55140312799818 6.331119999999999
53.576537409691696 6.3022599999999995
53.60147960336152 6.23128
53.626424539786164 6.22901
53.65137222105307 6.22162
53.67651758529126 6.2237599999999995
53.70147078399681 6.18055
53.72642673383343 6.18409
53.75138543689533 6.16871
53.776541917524526 6.1462699999999995
53.801506154876755 6.141859999999999
53.826473151763246 6.0942300000000005
53.851442910284916 6.091880000000001
53.87661054126026 6.1218
53.9015858509782 6.13783
53.92656392866066 6.0827
53.95154477641532 6.0965300000000004
53.976723591801296 6.0698
54.00171000771266 6.05872
54.02669920004598 6.05434
54.051691170915745 6.061640000000001
54.076881204886796 6.03129
54.101878760928514 5.99378
54.12687910187696 5.97996
54.152077577768296 5.99927
54.1770835166946 5.92539
54.20209224691339 5.90799
54.22710377055121 5.88215
54.25231352511594 5.89692
54.27733066384342 5.86151
54.30235060239643 5.8907300000000005
54.32737334290836 5.86377
54.35259441062629 5.8386
54.377622783395324 5.817069999999999
54.40265396455061 5.78448
54.42768795623251 5.77986
54.45292037169559 5.7767599999999995
54.477960012857906 5.76397
54.50300247099511 5.74277
54.52804774825457 5.719069999999999
54.55329154616743 5.702780000000001
54.57834249018678 5.67786
54.6033962597977 5.66014
54.6284528571545 5.6629
54.653708072335164 5.62303
54.67877035378786 5.5945800000000006
54.70383546947698 5.54814
54.72890342156389 5.56997
54.7541700889442 5.5393099999999995
54.77924374251975 5.50781
54.8043202390049 5.53153
54.82959552413022 5.510680000000001
54.8546777351945 5.47826
54.87976279569621 5.43214
54.90485070780914 5.4585099999999995
54.930137506558005 5.40184
54.95523115074295 5.41185
54.98032765308844 5.394340000000001
55.005427015775496 5.34692
55.03072536339621 5.38906
55.05583047570572 5.31081
55.080938454927676 5.2857199999999995
55.10604930325027 5.285480000000001
55.131359235107396 5.28525
55.15647585066083 5.2122
55.181595341907496 5.23632
55.20671771104285 5.24365
55.232039262617704 5.198259999999999
55.25716741665048 5.21285
55.28229845518636 5.20484
55.30743238042802 5.10725
55.33276558731939 5.11027
55.357905315183636 5.08754
55.383047936390035 4.97727
55.40819345314859 5.01773
55.433538351073295 5.05741
55.458689688238415 4.96932
55.483843927614096 4.93834
55.509197623043605 4.95962
55.53435769621134 4.93501
55.55952067826466 4.85027
55.5846865714265 4.83242
55.61005202069737 4.88335
55.63522376553902 4.85961
55.66039842818645 4.87057
55.68557601087004 4.8175099999999995
55.7109532500271 4.70554
55.73613670233794 4.7079699999999995
