TT I
1.2716486653135266 6.77785
1.2939594142134223 6.39874
1.3162702121660406 6.37507
1.3385810600174564 5.83367
1.3608919586137629 6.3145
1.383202908801069 6.480580000000001
1.405513911425503 5.97239
1.4278249673332093 5.85733
1.4501343378461518 5.44002
1.4724455028545926 5.676769999999999
1.4947567236847858 6.093999999999999
1.517068001182951 5.28423
1.5393793361953272 5.34815
1.5616907295681737 5.79343
1.5840021821477681 5.50049
1.60631369478041 4.7699300000000004
1.6286252683124185 4.5073300000000005
1.6509369035901333 4.90126
1.6732468618895553 4.59778
1.695558623192809 4.08685
1.7178704487808514 4.63438
1.7401823395001077 4.47297
1.7625012545597203 4.199409999999999
1.7848028405262486 4.45608
1.8071218901122095 4.15876
1.8294236121921872 4.02914
1.8517427996910911 4.554930000000001
1.8740620574440425 4.21155
1.8963639900671978 4.48479
1.9186833908139995 4.52151
1.9409854680117449 4.37345
1.9633050151394713 4.74135
1.9856246367570705 4.242780000000001
2.0079269371922672 4.20295
2.03024671027244 3.57051
2.0525491637446027 4.2372
2.074869091674931 4.28798
2.097171701569106 3.9190199999999997
2.1194917877373847 4.20101
2.141811954326636 3.8568800000000003
2.164114805233074 4.11257
2.186435135143035 4.49635
2.208738150935709 4.64311
2.231058647554722 6.749860000000001
2.2533792288321184 6.6387100000000006
2.275682498336085 5.09983
2.298003251406138 4.932519999999999
2.3203066942619714 5.30307
2.3426276225136022 5.42429
2.3649486396617507 5.76149
2.387252348930071 5.61839
2.4095735463442893 5.6593599999999995
2.4318774374315884 6.098990000000001
2.4541988185014043 6.46335
2.476502894794693 6.8716
2.498824462909887 7.1182300000000005
2.521146125856138 6.911919999999999
2.5434504863470337 7.60485
2.5657723414244717 7.81119
2.588076895590662 9.24728
2.610398946189713 8.51427
2.6327210958598384 7.66535
2.6550259469304716 7.20833
2.6773482972090137 8.31708
2.6996533504259 8.3826
2.7219759047039602 8.44175
2.744298562293959 8.419369999999999
2.7666039251246595 8.32268
2.7889267918020164 8.62395
2.8112323652516555 8.07368
2.833555444408179 8.6291
2.8558786311183852 8.27325
2.8781845268938557 8.987960000000001
2.9005079311721484 8.85956
2.9228140460410397 9.02772
2.9451376712799635 9.09385
2.967444008632326 9.287139999999999
2.9897678582247247 9.28069
3.0120918213106695 9.790980000000001
3.0343984987899373 10.1936
3.0567226913198637 10.7194
3.079029599759726 11.470999999999998
3.101354025127254 12.2294
3.123678568232338 12.444
3.145985829517914 12.5937
3.16831061055229 13.1761
3.1906181112775593 13.8562
3.212943133635653 14.4896
3.2352682779763207 14.6447
3.2575761442691227 14.565999999999999
3.2799015350264273 15.0569
3.302209649240067 15.3784
3.3245352898092655 16.1862
3.3468436553365257 16.8237
3.369169549113219 17.1616
3.3914955708171384 17.8765
3.413804319727358 17.9164
3.4361305997334863 18.3665
3.4584396084414553 18.5309
3.4807661501462652 19.1684
3.503092824025881 19.8743
3.5254022288463154 20.3309
3.5477291695206588 20.1714
3.5700388426251948 20.9206
3.5923660534916446 21.1264
3.6146934007816114 22.7817
3.637003482731501 27.4998
3.6593311053109985 29.9484
3.681641464033634 26.4629
3.7039693653009733 24.0115
3.726297407241705 24.1837
3.7486081875460804 24.3692
3.7709365132734978 24.5226
3.793247578841633 24.9526
3.8155761917550093 25.4186
3.8378875459837216 25.388
3.8602164494827234 26.0108
3.882545499606844 26.5924
3.9048572932539183 26.927
3.9271866390645718 27.6843
3.9494987298666713 28.3923
3.971828374764527 28.9268
3.9941581705403255 29.5101
4.016470713506008 29.718000000000004
4.038800813471445 30.2441
4.061113662089144 30.9132
4.0834440696459176 31.4373
4.105774632334751 31.9115
4.128087945865126 32.3778
4.150418821249301 32.7687
4.172732448931298 33.5094
4.195063640413578 34.5427
4.2173775856475215 35.289
4.239709096631102 38.0489
4.262040768704612 52.0526
4.284355196706267 63.0525
4.306687193387355 55.5328
4.329001947444346 43.8706
4.35133427213731 40.9053
4.373666762177566 40.844
4.395982011761091 40.5176
4.418314834921175 41.7227
4.44063041906622 43.4219
4.4629635787515625 45.0636
4.4852969080429785 46.2044
4.5076130004776225 46.5564
4.529946671403969 46.6808
4.552263106909177 47.1253
4.574597122877047 48.5422
4.596931312711224 49.7578
4.619248269273446 50.9232
4.6415828092605835 52.0734
4.663900117405352 53.2066
4.686235010953232 54.5613
4.708552674085913 55.3542
4.730887924602802 56.8586
4.753223354952695 58.2215
4.775541557023902 59.7444
4.797877349456786 61.4266
4.820195915032126 63.2656
4.842532072957498 64.6961
4.864868414979744 66.4381
4.88718753227192 68.5657
4.909524244902505 70.3531
4.931843734218147 71.6777
4.954180820867835 74.4231
4.976518095879839 76.8845
4.998838149695359 79.9696
5.021175803844231 83.2931
5.043496238205739 85.8048
5.065834274903528 90.24799999999999
5.088172504230693 93.9922
5.1104935158799565 98.3799
5.132832132875765 106.115
5.155153533596801 118.275
5.1774925416746225 138.69899999999998
5.199814334878411 233.799
5.2221537374521505 822.137
5.244493338631803 2568.27
5.266815727034316 7333.88
5.289155727832427 13914.5
5.311478517248165 9842.99
5.333818921080011 3279.05
5.356159527788849 644.127
5.3784829252032536 199.295
5.400823940070432 142.134
5.423147747031976 122.853
5.445489173474152 113.682
5.467830807066149 108.234
5.490155234831516 104.66799999999999
5.512497285125229 101.639
5.534822130975162 100.161
5.557164601388673 97.7563
5.579489868738879 95.0808
5.601832762690846 93.4977
5.6241758697774475 92.1168
5.646501775867269 91.4864
5.668845311622074 91.0924
5.691171647754637 90.2373
5.713515615597765 88.8436
5.735859800852677 87.9682
5.758186788542988 86.9436
5.780531411018185 87.331
5.802858837297399 87.1943
5.825203900414495 87.1932
5.8475491852224 87.0373
5.869877275883075 87.4399
5.892223006467101 88.3207
5.914551544266608 89.21799999999999
5.936897724049891 91.4356
5.959244129804903 95.3005
5.981573344815301 106.98
6.0039202049061 165.422
6.026249875609095 397.13
6.04859719346037 896.9010000000001
6.070927323278297 2065.06
6.093275102315365 4516.3
6.115623113320588 5501.67
6.137953938319995 3534.46
6.160302415650845 1073.15
6.182633708324452 239.213
6.2049826554078376 108.807
6.227331838745022 87.5075
6.249663839443684 80.1048
6.27201349767565 75.8029
6.294345974611799 74.3686
6.316696111167083 73.1528
6.339046488263839 71.9358
6.361379686074702 69.0165
6.383730546639482 66.7692
6.406064229255215 65.1985
6.428415576718203 65.0463
6.450749747566656 63.9387
6.47310158535871 62.628
6.495453669698332 62.1223
6.517788579421056 61.4085
6.540141159237969 60.3813
6.562476565766648 59.7512
6.5848296444934045 59.1921
6.607182974060425 58.7477
6.6295191323281015 58.332
6.651872965955752 57.9209
6.6742096296068985 58.6917
6.6965639707294615 63.348
6.71891856698715 64.2732
6.741255995248479 59.8426
6.763611104154477 56.8123
6.785949046381137 55.2044
6.808304671371482 54.5992
6.8306605557940046 54.6673
6.852999275508618 54.0276
6.875355681171544 53.667
6.897694923437771 53.5937
6.92005185377892 53.5978
6.9423916220322655 53.623000000000005
6.964749080490181 52.5519
6.987106804399774 52.5936
7.009447368180821 52.6243
7.031805625367033 52.1632
7.054146723727803 52.1614
7.076505517631004 52.5025
7.098864581288365 52.3283
7.121206488070854 51.8855
7.143566093607822 51.4231
7.165908543567245 51.7386
7.188268694426048 51.6057
7.2106291193438095 51.5635
7.232972390625943 51.6203
7.255333366030969 51.958999999999996
7.277677189091925 55.7652
7.300038718428332 62.0011
7.322400526130865 60.8359
7.344745183422596 56.0564
7.367107550224791 52.3476
7.389452767901992 51.9138
7.411815697249891 51.5516
7.434161478756298 51.5308
7.456524974096713 51.3931
7.478888753837185 51.5521
7.501235387657368 52.4738
7.523599738562711 57.4514
7.545946944825532 65.7947
7.568311870344528 69.4434
7.5906770845765665 62.8264
7.613025156078678 56.0235
7.635390950099687 53.9776
7.657739602662809 53.1909
7.680105979923558 52.8292
7.702472650212829 53.426
7.724822180948224 53.3038
7.747189439655568 53.3705
7.769539560075357 53.4967
7.791907410653562 54.0373
7.81425812420825 53.87
7.836626570110925 54.056999999999995
7.858995315087906 54.9096
7.881346924933401 54.6897
7.903716270417482 55.5984
7.926068482028405 56.1353
7.948438431475253 56.6326
7.9708086843180235 57.0735
7.993161805171116 57.733999999999995
8.015532667162402 58.0212
8.037886398416653 58.9913
8.060257873014221 59.195
8.082629655331942 59.6065
8.104984308787587 60.5045
8.127356708900503 61.476000000000006
8.149711981398308 62.6654
8.172085002766314 63.7195
8.194458336181368 64.1323
8.216814543847752 64.6457
8.23918850371002 65.7683
8.26154533906492 66.8157
8.283919928836452 68.5543
8.306277395339652 69.4283
8.328652618483376 70.5903
8.351028159736202 72.4944
8.373386579575245 74.3746
8.395762759396959 75.6813
8.418121819038275 77.9972
8.440498640894003 81.5482
8.462875785192262 86.8142
8.485235811156207 94.8144
8.507613602688501 129.961
8.529974277114228 234.55900000000003
8.552352719347912 384.51599999999996
8.574731488360351 628.193
8.59709314210385 1118.16
8.619472567021075 1877.53
8.64183487789147 2340.95
8.664214962183097 2014.39
8.686577933647762 1109.64
8.708958680784317 411.87199999999996
8.731339760774953 168.795
8.753703729764451 108.14299999999999
8.77608547780821 94.8865
8.798450116065078 91.3206
8.820832535634787 88.5525
8.843215292401656 87.3546
8.865580941199045 85.698
8.887964374703538 84.8453
8.910330701447199 83.9295
8.932714815164482 83.649
8.955099270424924 82.8333
8.977466620733543 81.8611
8.999851761421976 81.3374
9.022219798361645 80.775
9.04460562795561 80.3947
9.066991803441677 80.0966
9.089360876979615 80.1055
9.111747746589993 79.7603
9.13411751544971 79.1773
9.156505082664324 79.0095
9.178875550323522 79.5796
9.20126381862328 81.2353
9.223652438908596 88.9088
9.246023961427412 102.588
9.26841328802173 106.865
9.290785518039224 97.8499
9.313175554425882 87.1715
9.335565947154315 81.2139
9.357939245086508 80.1332
9.380330352834827 80.2261
9.40270436697103 80.1071
9.425096193225055 80.0756
9.447488380180165 80.87899999999999
9.469863475295412 81.1025
9.492256385987508 81.3198
9.514632206018318 82.1245
9.537025843935714 82.2808
9.559402392368193 82.7157
9.581796761000229 83.5631
9.604191496441521 83.8669
9.626569144158516 84.9135
9.648964615551032 86.0643
9.671343000390081 87.0877
9.693739211225699 87.9355
9.716135793237463 88.1383
9.738515290448102 88.8297
9.760912617143402 90.1232
9.783292860202891 91.1997
9.805690935076182 92.4306
9.828089385495742 93.21
9.850470754023561 94.5069
9.872869957865444 96.7043
9.89525208097539 99.2964
9.917652041736662 103.08200000000001
9.940052382417589 106.91
9.962435644102392 116.125
9.984836746950979 148.209
10.007220771957746 229.775
10.029622640473708 353.30699999999996
10.052007432299963 527.149
10.074410069984072 784.237
10.096813093716005 1211.65
10.119199042482517 1770.44
10.141602840636468 2108.6
10.163989564971628 1715.28
10.186394141051062 997.9110000000001
10.208799107559706 438.186
10.231187001965623 196.12599999999998
10.253592751657669 124.219
10.275981430388155 107.781
10.298387966769793 103.794
10.320794897965431 102.478
10.343184759907361 101.008
10.36559248305461 99.3349
10.387983138083852 98.4677
10.410391656691655 99.5905
10.432800574501677 108.321
10.455192425893369 130.829
10.47760214443012 163.496
10.499994797678786 206.851
10.522405320453982 277.55
10.54479877906917 392.23400000000004
10.567210109595656 514.314
10.5896218454736 595.335
10.612016518879773 569.748
10.634429067781074 399.139
10.656824555333241 238.732
10.679237920773568 142.922
10.701651695961992 103.07799999999999
10.724048411481384 91.9428
10.746463008485165 85.8101
10.768860546937125 82.3011
10.791275969274796 80.6318
10.81369180576079 79.1982
10.836090585366925 78.1095
10.858507252467449 76.7041
10.88090686379991 75.7323
10.903324365036394 74.8257
10.925724811614439 73.943
10.948143150509463 73.9629
10.970561909719066 72.9482
10.992963615930844 72.1161
11.015383218085756 70.9389
11.037785768347074 70.2896
11.06020621697282 69.5955
11.082627090322113 69.4628
11.105030913430326 68.4798
11.12745263854165 67.8436
11.149857314510728 67.5404
11.172279894912576 68.1033
11.194702904450653 67.6803
11.217108866490921 67.0118
11.239532736615194 65.94
11.26193956033512 65.21600000000001
11.284364294577085 64.9821
11.306789462371718 64.5952
11.329197585398376 64.1401
11.351623622610898 64.1753
11.37403261614354 63.3245
11.396459526308487 63.4584
11.418869393879497 63.1921
11.441297180532617 62.6024
11.463725406927658 62.1931
11.486136592353875 61.9819
11.508565700543707 61.2614
11.530977768845315 61.857
11.553407762368774 61.7247
11.575838200059769 61.6625
11.598251599479612 61.2244
11.620682927815501 60.9735
11.64309721895548 60.8825
11.665529441478206 60.4483
11.687962112597958 60.1904
11.710377748130886 60.4719
11.732811318753434 60.4584
11.755227854859067 60.3194
11.777662328529495 59.9889
11.800079768750786 60.0063
11.822515149015453 60.3273
11.844950984084935 60.3253
11.867369787303163 59.8812
11.889806534289491 60.4001
11.912226250487029 61.7234
11.934663912939751 64.2592
11.9571020346363 66.6036
11.979523127133968 66.9749
12.001962169624331 65.3551
12.024384183972964 63.4031
12.046824150809913 64.7061
12.069264581333726 70.3169
12.091687985297767 78.0205
12.11412934550045 87.4157
12.136553680195208 101.068
12.158995973632788 122.265
12.181438735204349 149.033
12.20386447284199 180.998
12.226308172985636 200.792
12.24873485024193 208.61700000000002
12.271179492516982 176.979
12.293607112949127 132.751
12.316052700916226 95.7328
12.338498763250042 73.7523
12.360927805303868 64.7129
12.383374818673879 62.3103
12.405804812803074 61.7112
12.428252780773262 61.5503
12.45070122756722 61.5682
12.473132656675375 61.4829
12.49558206341869 61.5713
12.518014453510101 61.6106
12.540464823770117 61.7799
12.562915677315177 61.8561
12.58534951575545 62.5952
12.607801338171472 62.3318
12.630236146511358 63.0648
12.652688941369085 63.9085
12.675124723177234 64.3473
12.697578494048786 64.4042
12.720032754458185 64.3859
12.742470003354093 64.3982
12.764925245138771 64.8249
12.787363476431278 65.2165
12.809819703166806 65.6109
12.83227642391173 66.3168
12.854716135692716 66.7502
12.877173846755147 67.8961
12.899614549869717 68.3488
12.9220732548287 69.1368
12.94453245827299 69.5917
12.966974655289818 70.5589
12.989434858002571 71.6597
13.011878055298721 72.2176
13.034339260862497 73.1559
13.056800969391883 74.4997
13.079245674017244 76.8314
13.101708390774869 78.5565
13.12415410463411 82.57700000000001
13.146617833206086 93.084
13.169064559883248 109.10799999999999
13.191529303857127 127.991
13.213994557076367 151.34799999999998
13.236442809902437 184.91
13.258909083908291 233.678
13.28135835851934 297.362
13.30382565690295 373.978
13.326293469022952 442.01300000000003
13.348744283242008 447.889
13.371213125129904 376.601
13.39366497011003 276.03700000000003
13.416134845360597 180.82
13.438605238843131 126.336
13.46105863690397 102.396
13.483530069144786 99.7193
13.505984506951902 107.84299999999999
13.528456981549432 121.698
13.550929978879088 137.832
13.573385983253365 159.69299999999998
13.595860028340867 192.3
13.618317081455832 240.102
13.64079217790333 302.124
13.663250283359057 360.974
13.685726434770173 389.292
13.708203115221277 361.86300000000006
13.730662806148091 284.995
13.75314054697177 202.24599999999998
13.775601299246777 136.205
13.798080104050406 99.4947
13.820559442405358 84.4607
13.843021793671388 79.5025
13.865502201420897 77.7225
13.887965623051947 77.3247
13.910447103807167 76.0191
13.932929122629764 74.641
13.955394156785959 74.5489
13.977877254034569 73.7886
14.000343367582113 72.7101
14.022827546871707 72.2276
14.045294743423524 71.5888
14.06778000837062 70.9542
14.090265817715476 71.0007
14.112734645763819 71.7465
14.13522154619454 72.9972
14.157691466286913 74.1277
14.180179461423874 74.5219
14.202668005486178 72.6562
14.22513957064374 70.5339
14.247629214846473 69.0797
14.270101881097517 67.9475
14.29259262906496 67.6366
14.315083930490205 67.6272
14.337558255389705 67.6004
14.360050666019726 67.6776
14.382526101071944 67.1024
14.405019624534942 66.9443
14.427513705993134 66.6217
14.449990813291825 66.8155
14.47248601302899 66.7267
14.49496423954951 66.9144
14.517460561197822 66.7718
14.539939910570322 66.2565
14.562437357763558 66.7855
14.58493536931253 67.2078
14.607416409993311 67.1556
14.62991555254159 67.3832
14.652397725157423 67.4321
14.674898002342799 67.8795
14.697398848433282 67.8475
14.719882725991326 68.582
14.74238471217934 69.0582
14.764869730765593 70.9428
14.787372860692983 74.8855
14.809876564079925 81.7515
14.83236330125751 89.85799999999999
14.854868153850365 99.0652
14.877356041159485 112.275
14.899862046604186 128.033
14.922351087688757 151.342
14.944858249632887 180.96099999999998
14.967365991421232 211.09400000000002
14.989856770231246 230.028
15.012365673994204 226.847
15.03485761569738 198.357
15.05736768508665 156.855
15.07987833888692 119.977
15.102372032001655 93.1261
15.124883856909658 77.1027
15.14737872204565 71.3379
15.169891721717274 68.9313
15.192405310371893 67.9401
15.214901940621196 67.4512
15.237416709527137 66.717
15.259914520936249 66.6545
15.282430473753607 66.1014
15.304947020131227 65.4808
15.327446610371178 65.0132
15.349964346154254 64.7098
15.372465126703139 64.7534
15.394984055556009 64.7285
15.417486030076159 64.3838
15.44000615566487 63.9097
15.462526881230803 63.9636
15.485030653812652 63.986999999999995
15.507552581617434 63.81100000000001
15.530057557334603 63.7212
15.55258069104857 63.8518
15.575104429329837 64.0433
15.597611216864632 63.6613
15.620136166564563 63.8097
15.6426441664095 64.1687
15.665170331202765 65.5086
15.687697105158826 68.8798
15.710206930593545 74.312
15.732734925158933 80.3447
15.755245972089478 87.5067
15.77777519094324 96.4445
15.800287463046663 107.41
15.822817909869592 124.619
15.84534897229804 145.028
15.867863089299354 170.051
15.890395385222186 191.513
15.912910736597423 201.858
15.935444269699861 194.92700000000002
15.957978423016485 167.157
15.980495633101265 133.467
16.003031029129367 103.164
16.02554948280019 80.6403
16.048086125229432 68.7984
16.070623392487107 64.3606
16.09314371869582 62.6241
16.11568223789321 61.0518
16.13820381691126 59.9557
16.160743591742527 59.1145
16.183283996022084 58.4819
16.205807461423195 57.6656
16.228349126881973 57.2023
16.25087385432698 57.1948
16.27341678466365 56.4132
16.29594277784926 56.1598
16.31848697676433 55.858999999999995
16.341031811604868 55.3976
16.36355971058487 55.3677
16.3861058195587 55.2696
16.40863499352978 54.7152
16.431182380342005 54.5375
16.453730407713202 54.2052
16.476261501364792 53.8434
16.498810812136167 53.7077
16.52134319004079 53.8562
16.54389378792203 53.8549
16.566445031001553 53.6112
16.588979342490088 53.3513
16.61153187824822 53.1003
16.634067483263312 53.1347
16.656621315414416 53.0643
16.679175797408888 52.7122
16.701713349928728 52.9325
16.72426913389191 52.965
16.74680798922351 52.968
16.76936507887444 53.0503
16.791905240734874 52.8495
16.814463639794468 52.8413
16.837022695210294 52.9504
16.859564824093756 53.0092
16.882125194503903 53.4125
16.904668639217885 53.8893
16.927230328348003 53.7729
16.949792678493612 54.1013
16.972338104193863 54.1759
16.994901778652235 53.7194
17.017448529496576 53.9183
17.040013531998152 53.8584
17.06257920018044 54.3104
17.0851279459922 55.0663
17.107694947817667 56.2488
17.130245028099072 57.4831
17.15281336730298 58.8721
17.17536478578733 60.7813
17.19793446610687 62.5848
17.220504818648422 65.4238
17.243058251703697 68.2618
17.265629950971032 72.7942
17.288184731571736 77.94
17.310757781306908 82.7578
17.33333150794385 83.7461
17.355888317140174 83.3649
17.37846339986244 79.32300000000001
17.401021565958885 72.2262
17.42359800851343 65.9743
17.44617513265564 61.5833
17.468735341390783 59.0144
17.491261035594565 57.7568
17.51396340099364 57.448
17.536490463869136 57.4783
17.559018209820174 57.4057
17.58154663977963 57.4532
17.604251766089718 57.6721
17.626781572227713 57.976000000000006
17.64931206518155 58.1325
17.671843245885103 58.5092
17.69455114821572 58.6304
17.717083712612634 59.0075
17.739616967569667 59.5833
17.762150914021706 60.1451
17.78486160749854 60.355
17.807396945166804 61.0824
17.829932977143503 61.3875
17.85246970436452 62.0727
17.875183204129467 63.855
17.897721330097664 66.9212
17.920260154126645 70.1773
17.942799677153296 73.87100000000001
17.9655159983646 78.1171
17.988056927677544 83.1113
18.010598558807683 89.7263
18.033140892692916 98.9635
18.05586005052525 109.64200000000001
18.07840379824407 121.773
18.10094825154059 133.251
18.12366954819864 142.878
18.146215420998306 144.319
18.16876200220057 137.578
18.191309292745153 123.152
18.214033452627167 108.04799999999999
18.236582170236648 95.6398
18.259131600016456 88.6021
18.281681742907335 86.5604
18.304408781233683 89.7097
18.32696035875955 94.8557
18.349512652227624 100.089
18.372065662579683 105.626
18.394795594587553 107.27799999999999
18.41735004715306 104.18799999999999
18.43990521943684 98.0328
18.46246111238171 88.2335
18.485193953325208 78.2914
18.507751296070428 70.3909
18.530309362314178 65.8231
18.552868153000343 62.9942
18.57560391815056 61.4747
18.59816416623245 61.0526
18.620725141597372 60.3001
18.643286845190268 59.5098
18.666025549835414 59.1149
18.688588718427933 58.4112
18.711152618092243 58.2462
18.73389353884365 58.0052
18.75645890921984 57.5483
18.77902501351406 57.388999999999996
18.801591852673102 57.3358
18.824335739722738 56.8144
18.846904057212626 56.7404
18.8694731124168 56.3862
18.89204290628315 56.352
18.914789774966803 56.2289
18.937361054791623 55.9177
18.959933076131318 55.4835
18.982505839934877 55.5087
19.00525570560582 55.4695
19.027829963004184 55.2046
19.05040496572238 55.2706
19.072980714710468 55.2681
19.095733592739563 55.3529
19.11831084296757 55.443999999999996
19.140888842324735 56.0043
19.16346759176222 56.6784
19.18622349753803 57.5027
19.208803755869358 58.262
19.231384767143577 59.6748
19.253966532312948 61.2334
19.276725481241822 63.1409
19.29930876296784 65.88600000000001
19.3218928014549 68.9299
19.34465404436217 72.1238
19.36723960516257 74.7373
19.389825925592426 75.656
19.412413006605938 74.9301
19.43517731967805 71.9414
19.457765930683355 67.84
19.48035530514408 63.3262
19.50294544401556 59.1003
19.525712842708348 55.9867
19.54830451925909 54.5579
19.570896963095727 53.3046
19.593490175174704 52.7587
19.616260674962184 52.8241
19.638855432416964 52.3949
19.661450960992624 52.4995
19.68404726164677 52.3935
19.706820878021247 52.0698
19.729418731756834 52.2535
19.752017360452857 51.8543
19.77461676506804 52.1095
19.797393513540218 51.9963
19.819994478951667 52.3083
19.84259622316767 52.9717
19.8651987471481 53.4155
19.887978643247177 54.0739
19.91058273574792 54.4519
19.933187610901943 55.2922
19.955969879466828 56.4835
19.97857632894404 57.8834
20.00118356396599 59.4506
20.023791585494575 61.4868
20.046577028914875 64.2292
20.069186632506966 66.8325
20.091797025500632 69.2819
20.114408208858933 70.5446
20.137196842715273 71.0121
20.159809615886765 69.2808
20.18242318232135 66.7674
20.20503754298326 64.1365
20.227829382875154 62.4753
20.250445341109344 61.7207
20.27306209647285 62.3642
20.29567964993108 63.7265
20.31847471147704 64.6851
20.34109387027612 65.4928
20.363713830075454 65.5011
20.386334591841646 64.2278
20.409132890679302 61.4456
20.431755265564437 58.1655
20.454378445325528 55.2609
20.477002430930366 53.0216
20.499803982716553 51.3521
20.522429589228004 50.1128
20.54505600449589 49.7032
20.567683229489194 49.3045
20.590488049900088 49.1817
20.61311690359731 49.0416
20.63574656993626 49.0106
20.658553853717297 48.5872
20.681185154618298 48.3992
20.703817271080066 48.2908
20.72645020407368 48.3049
20.749260783967177 48.1821
20.771895359337133 48.1525
20.794530754161617 47.9864
20.817166969412938 47.9825
20.83998086114876 47.9343
20.86261872660049 47.6357
20.885257415405402 47.6157
20.90789692853701 47.4293
20.930714147864748 47.4767
20.953355319030678 47.4597
20.97599731745334 47.6488
20.99864014410749 47.5028
21.021460706796564 47.7235
21.044105199328826 47.9328
21.06675052302631 48.1186
21.089396678865015 48.0229
21.112220600704806 48.4997
21.134868430275347 48.9547
21.15751709492456 48.9287
21.180166595629693 49.3197
21.202993892429635 49.885
21.22564507473034 50.4972
21.24829709602816 50.8205
21.27112693608965 50.8122
21.293780644891275 50.7755
21.316435195634053 49.8968
21.339090589297417 49.1496
21.361923832041875 48.6796
21.384580921090404 48.1123
21.407238856007325 47.5828
21.429897637773326 47.5513
21.45273429906592 47.4858
21.475394784108598 47.4567
21.498056118951983 47.2656
21.520718304578022 47.6793
21.543558400304388 47.6629
21.566222297108816 47.9409
21.58888704765135 47.8894
21.61155265291521 48.1406
21.63439619898156 48.6556
21.657063523335786 49.1278
21.67973170537063 49.8513
21.7024007460706 50.3298
21.72524775840385 51.1336
21.747918526116475 52.2423
21.770590155457388 53.06100000000001
21.79326264741238 54.5383
21.816113141960237 56.4705
21.838787368860547 58.4359
21.861462461341976 60.7046
21.884315579735777 63.1118
21.90699241312273 64.8642
21.92967011506078 65.4128
21.95234868653799 65.3465
21.9752053151131 64.19
21.997885635446785 62.1183
22.020566828293532 60.059
22.04324889464272 57.9337
22.066109049404666 56.483999999999995
22.088792872571794 55.8267
22.111477572219204 55.9551
22.1341631493376 56.238
22.157026846313123 56.1882
22.179714188221507 55.354
22.202402410582668 54.355
22.22509151438863 52.7705
22.24795876962584 51.2694
22.270649646204486 49.9122
22.293341407213727 49.0161
22.316034053646906 48.6115
22.338904883215342 48.2393
22.36159931041458 47.9999
22.38429462602756 47.8606
22.40699083104897 47.6415
22.429865251039757 47.5579
22.452563244831367 47.5563
22.47526213102522 47.6318
22.49813925616515 47.8415
22.520839937143307 47.5545
22.543541513520587 47.7901
22.56624398629403 47.4874
22.589124730075895 47.4795
22.611829005656723 47.7337
22.63453418063466 47.6636
22.657240256008077 47.8873
22.680124634582935 48.1891
22.70283252079775 48.5437
22.725541310413075 48.9723
22.74825100442868 49.1804
22.771139033969575 49.8918
22.79385054687155 50.1824
22.81656296718292 50.6423
22.83927629590484 51.4
22.862167992606945 52.4741
22.88488314827121 53.653999999999996
22.907599215359284 54.5722
22.93031619487366 55.839
22.953211574954405 57.0025
22.975930389478226 57.8198
22.998650119445763 58.1112
23.02137076586092 57.2243
23.044269845560063 56.2881
23.06699233506288 54.7394
23.089715744034912 52.903
23.112617610931565 51.1439
23.135342869061212 49.5226
23.158069049684816 48.7353
23.1807961538087 48.1818
23.20370174880544 47.9908
23.226430710184808 47.8853
23.249160598093425 47.864
23.271891413539002 47.8793
23.294800752937697 47.9646
23.31753343374794 48.4511
23.340267045128353 48.6206
23.36300158808808 48.9949
23.38591468821339 49.4823
23.408651104658304 49.9695
23.431388455719986 50.4489
23.454126742409 51.3108
23.4770436196085 52.2704
23.499783787914662 53.5824
23.522524894889884 54.7032
23.54526694154616 56.0286
23.56818761219047 57.1856
23.59093154860734 58.2401
23.613676427751283 58.7166
23.636422250635754 58.0015
23.659346731118656 56.5531
23.68209445191868 54.4641
23.704843119509587 52.05
23.72759273490623 50.0426
23.750521041644767 48.3535
23.77327256312355 46.9609
23.796025035462787 46.1725
23.818956224555475 45.6079
23.841710609113413 45.2618
23.86446594758979 44.9997
23.887222241002014 44.762
23.910157285144578 44.5131
23.932915498962537 44.4135
23.955674670778713 44.2837
23.978434801611975 44.0835
24.001373717286125 43.8724
24.024135776723917 43.9025
24.046898798245582 43.7664
24.06966278287146 43.7173
24.092605586582614 43.4065
24.115371508023642 43.3062
24.1381383956401 43.1066
24.16090625045381 43.1306
24.183852958731244 42.9744
24.206622758582608 42.9117
24.229393528706886 42.6428
24.252165270127392 42.8884
24.27511589952438 42.7274
24.297889594216997 42.5447
24.32066426328598 42.431999999999995
24.34343990775613 42.3658
24.36639447485003 42.3493
24.38917208083877 42.3489
24.41195066531332 42.1799
24.43490819850244 42.1821
24.457688750692377 42.0742
24.48047028445616 42.199
24.503252800821233 42.2268
24.526214300784112 42.2662
24.548998793132213 42.3756
24.57178427117417 42.17100000000001
24.59457073593893 42.3025
24.617536219319863 42.1601
24.64032466834748 42.3846
24.663114107195035 42.2008
24.685904536893013 41.8679
24.708874020360852 41.7397
24.731666442613744 41.673
24.754459858818787 41.6269
24.777254270007962 41.5033
24.80022777025625 41.4289
24.82302418230472 41.3199
24.845821592443674 41.3647
24.86862000170663 41.5859
24.891597535453727 41.3066
24.914397953892728 41.631
24.93719937456671 41.483999999999995
24.96000179851076 41.5629
24.98298338249997 41.6979
25.00578782394922 42.0282
25.028593271784167 42.1394
25.05157790644186 42.5555
25.07438537804115 42.8094
25.097193859145293 43.1819
25.120003350792075 43.4267
25.142992065061257 43.731
25.165803588823465 44.0365
25.18861612625217 44.43600000000001
25.211429678386736 44.4779
25.234422489079968 44.4493
25.257238081693636 44.5085
25.280054692141732 44.5749
25.3028723214652 44.5721
25.325869245420463 44.7812
25.348688923599397 44.9233
25.371509623787006 44.7459
25.394331347025812 44.4378
25.41733240110666 43.94
25.440156181590016 43.3134
25.46298098826268 42.7783
25.48580682216873 42.1124
25.50881202326435 41.4412
25.53163992281684 40.9168
25.55446885274561 40.7209
25.577298814096377 40.427
25.600308179121807 40.1508
25.623140214533745 40.2369
25.64597328451537 40.0922
25.66898578564376 39.8379
25.691820936010206 39.7741
25.714657124097695 39.7664
25.737494350954734 39.9846
25.760511045684957 39.6508
25.783350361364224 39.8042
25.806190718969255 39.8713
25.82903211955018 39.9387
25.852053024868923 40.0419
25.874896522722523 40.0727
25.897741066713106 40.0628
25.920586657892454 40.0579
25.943611790812668 40.2655
25.966459487728237 40.3739
25.989308234998564 40.4379
26.01215803367705 40.8106
26.03518741123814 40.9303
26.05803932412957 41.056000000000004
26.080892291600094 40.982
26.10374631470478 41.2478
26.12677995397268 41.3605
26.14963609978026 41.364
26.172493304397875 40.9838
26.19535156888223 40.695
26.218389486949604 40.3934
26.241249882640123 40.1513
26.26411134137826 39.843
26.28715248187403 39.9313
26.31001607820869 39.5635
26.3328807407756 39.4203
26.35574647063438 39.5543
26.37879191991473 39.5634
26.401659795896734 39.5856
26.424528742360263 39.7396
26.447398760366614 39.8901
26.470448535598294 39.9515
26.49332070826805 40.148
26.516193955675355 40.5944
26.53906827888316 40.6816
26.562122397260108 40.9515
26.584998883685063 41.3309
26.607876449110325 41.8214
26.63075509460056 41.95
26.65381357334404 42.08
26.67669439061878 42.0942
26.699576291163382 42.0761
26.722459276044212 41.9706
26.745522132402975 41.5054
26.768407297649354 41.2924
26.791293550442003 40.8715
26.814180891848974 40.5981
26.837248143099337 40.2729
26.860137673466657 40.0995
26.88302829566349 39.9564
26.90592001075963 39.8727
26.92899167420566 39.7012
26.951885586870763 39.2291
26.974780595655517 39.05
26.99785558178161 38.8052
27.020752794605112 38.563
27.043651106772522 38.3611
27.06655051935668 38.402
27.089629948036183 38.2488
27.112531573292053 38.2293
27.135434302194138 38.2735
27.158338135817015 37.9904
27.181422024430987 38.129
27.204328079372566 38.063
27.22723524226965 38.0132
27.250143514198573 38.0593
27.273231880156334 38.0409
27.296142382065014 37.9268
27.319053996245536 37.82
27.341966723775965 37.8935
27.365059584515222 37.8751
27.38797455070062 37.946
27.410890633481237 37.8937
27.433807833936918 37.9233
27.456905206923906 38.0592
27.47982465472398 38.0538
27.502745223449743 38.0904
27.525666914182825 38.1585
27.548768816912457 38.1197
27.571692763693633 38.1365
27.59461783573812 38.0422
27.617723149491244 37.8019
27.640650484125285 37.7887
27.66357894728264 37.6268
27.686508540048052 37.7606
27.709618414237887 37.5309
27.732550278321757 37.3795
27.755483275279115 37.3915
27.778417406196485 37.4391
27.801531858397514 37.4994
27.824468269376716 37.3202
27.847405817586786 37.3564
27.870344504116094 37.4721
27.893463551932008 37.7015
27.916404527281053 37.8299
27.93934664422563 37.9241
27.962289903855886 38.2228
27.98541356491974 38.4648
28.00835912214229 38.5986
28.03130582533231 38.8326
28.054253675581805 38.9333
28.077381967556104 38.8813
28.100332124185126 39.0611
28.123283431160893 39.0033
28.146235889577238 38.7707
28.169368830154156 38.6048
28.192323603752033 38.3733
28.215279532083304 38.0446
28.238415973016764 37.7317
28.261374223145094 37.6605
28.284333631303806 37.4446
28.307294198589954 37.3171
28.330435319167677 37.0545
28.353398217078915 36.6656
28.376362277420153 36.3472
28.39932750129032 36.2677
28.422473319286713 36.0499
28.44544088262495 36.0009
28.468409612800283 35.7304
28.491379510913497 35.5484
28.51453004413313 35.5147
28.53750229057244 35.3713
28.56047570826344 35.4623
28.583450298308804 35.5354
28.606605564586562 35.1145
28.629582511831156 35.3441
28.65256063474956 35.0991
28.675539934446338 35.1947
28.698699951647605 35.1384
28.72168161743193 34.9917
28.74466446331978 35.0644
28.767648490417624 34.9582
28.790813276438353 35.043
28.813799678527303 35.0669
28.836787265157085 35.019
28.859955641890075 34.9524
28.882945610203045 35.0561
28.905936766392035 34.9548
28.928929111566863 34.9373
28.952102288520145 34.7726
28.975097024308607 34.6822
28.998092952423807 34.5688
29.021090073977508 34.4826
29.04426806913204 34.2914
29.067267590245258 34.1636
29.090268308143695 34.2406
29.11327022394099 34.0729
29.13645305530891 33.9746
29.159457379627167 34.0192
29.18246290519685 33.8495
29.20546963313352 33.8233
29.22865731875826 33.8218
29.25166646419296 33.9089
29.27467681535305 33.7182
29.29768837335608 33.8493
29.320880931312562 33.9509
29.34389491580634 33.8573
29.366910110507334 33.8237
29.38992651653503 33.8736
29.41312396492981 33.7691
29.436142806456754 33.7694
29.45916286268059 33.6434
29.48236399319994 33.5137
29.50538649169417 33.431
29.528410208259935 33.3943
29.55143514402014 33.1673
29.574641196749695 32.9866
29.597668583816574 32.9364
29.6206971934585 32.7322
29.64372702680042 32.7971
29.666938019934474 32.6142
29.689970313635285 32.4943
29.713003834422636 32.4901
29.73603858342347 32.5319
29.759254535188578 32.3806
29.78229175361658 32.2911
29.80533020365064 32.3572
29.82836988641968 32.4391
29.85159081507472 32.3354
29.874632976355343 32.3579
29.89767637376955 32.3287
29.920721008448314 32.1312
29.9439469322847 32.1972
29.96699405457564 32.0712
29.9900424175358 32.1185
30.013092022298157 32.0298
30.03632295963995 31.9755
30.059375061131373 32.1178
30.08242840783577 32.0497
30.105483000888153 32.0899
30.128718970092244 32.0495
30.151776069006917 32.0021
30.17483441768648 32.0013
30.198074175317235 32.0069
30.221135036724256 31.9417
30.24419715131772 32.0038
30.267260520236203 31.8972
30.290505341942243 31.9357
30.313571232750228 32.0238
30.336638381310948 31.8946
30.35970678876503 31.8916
30.38295669299435 31.7405
30.40602763151657 31.8561
30.429099832366074 31.7161
30.452173296685572 31.7043
30.47542830191959 31.7245
30.498504306502497 31.6431
30.521581577995562 31.6761
30.544660117543582 31.756
30.56792024229725 31.744
30.59100133132069 31.8784
30.614083691845494 31.8272
30.637167325018545 31.8408
30.660432587840603 31.8474
30.683518779717886 31.8815
30.70660624769615 31.9876
30.729694992924372 32.010999999999996
30.75296541239743 31.8797
30.77605672557558 32.0352
30.799149319462742 31.9861
30.8224236211637 31.7276
30.845518789950724 31.7068
30.868615242910597 31.6161
30.891712981195973 31.2596
30.91499247215866 31.2752
30.938092794619365 31.3541
30.96119440587579 31.3332
30.984297307082752 31.1069
31.00758200598383 30.9329
31.030687500658694 30.8968
31.053794288760695 30.8439
31.076902371446767 30.69
31.100192296997445 30.7305
31.12330298246119 30.7701
31.14641496599209 30.6732
31.169528248749216 30.6108
31.19282341969534 30.6188
31.215939314557186 30.6662
31.239056512134788 30.6564
31.262175013589378 30.6144
31.28547544871168 30.5297
31.30859657161541 30.471999999999998
31.331719001892175 30.5288
31.35484274070538 30.6236
31.378148458819545 30.6182
31.401274828443725 30.6145
31.424402510106933 30.601999999999997
31.447712205419993 30.747
31.470842524931633 30.5317
31.493974159989783 30.5289
31.51710711176168 30.4656
31.54042212308802 30.5398
31.563557722100917 30.5819
31.586694641341655 30.3857
31.609832881979628 30.2144
31.63315322823208 30.0962
31.656294125521327 30.0285
31.679436347728515 30.0576
31.70257989602529 29.9064
31.725905596152327 29.8023
31.74905181052835 29.8683
31.772199354521323 29.8971
31.79534822930507 29.8513
31.818679302290967 29.8406
31.84183085259981 29.8617
31.864983737233473 29.8715
31.88813795736804 29.8263
31.911474422233013 29.7264
31.934631327356435 29.8486
31.9577895715215 29.7437
31.980949155906522 29.7533
32.004291031706956 29.7607
32.027453310562606 29.518
32.05061693318573 29.4689
32.07396288236386 29.57
32.09712920658542 29.5058
32.12029687812702 29.3704
32.14346589817093 29.2826
32.166817291729984 29.2044
32.18998902288583 29.1823
32.21316210610336 29.0451
32.23633654256711 28.9951
32.259693399663725 28.8979
32.282870556771144 28.8738
32.30604907069099 28.8365
32.329228942610065 28.7478
32.35259128243769 28.6258
32.375773884550505 28.5353
32.398957848235646 28.5905
32.422143174682176 28.5917
32.445511016471215 28.4935
32.468699082679954 28.4166
32.49188851523011 28.3906
32.51507931531304 28.3022
32.538452678331 28.2679
32.56164622776311 28.1795
32.58484114831493 28.065
32.60803744118015 28.1917
32.631416344731896 28.2238
32.654615396551876 28.0921
32.67781582427913 28.153000000000002
32.701198898634416 28.0264
32.72440209253756 27.8988
32.747606665947124 27.8928
32.77081262006088 27.8432
32.79420126883317 27.7801
32.81740999876112 27.8541
32.840620112999424 27.8326
32.86383161274818 27.611
32.88722585534586 27.7204
32.91044014056596 27.7267
32.933655814909734 27.675
32.95687287957963 27.7073
32.98027273544904 27.5458
33.00349259526636 27.5047
33.026713849030116 27.5813
33.04993649794511 27.5137
33.073341986570746 27.4961
33.09656744032826 27.5503
33.11979429286444 27.5628
33.14302254538647 27.5048
33.166433686291185 27.463
33.18966475336992 27.4914
33.212897224069096 27.2866
33.23613109959831 27.3435
33.259547912343415 27.2797
33.2827846121627 27.3693
33.306022720453775 27.2718
33.32926223842861 26.9994
33.352684742614166 27.0734
33.37592709463173 27.0671
33.399170859982064 27.0801
33.422597648419426 26.994
33.44584425514446 26.8282
33.46909227885668 26.7744
33.4923417207723 26.6574
33.51577423505344 26.8005
33.539026528130385 26.7037
33.56228024307245 26.6016
33.585535381098246 26.4898
33.60897364093058 26.3443
33.63223163992385 26.4122
33.6554910656699 26.3648
33.678751919389796 26.4248
33.702195944520106 26.3372
33.72545966903325 26.3832
33.74872482519663 26.2437
33.771991414233746 26.2483
33.79544122444841 26.1664
33.81871069412428 26.0791
33.84198160035767 26.0958
33.86525394437455 26.0476
33.88870955949969 26.0129
33.911984794020626 26.0206
33.93526147001624 26.0121
33.958539588715006 25.9393
33.98200102861669 25.8965
34.0052820477047 25.6948
34.02856451319451 25.7714
34.05203033759056 25.7429
34.07531571090147 25.6875
34.09860253431845 25.6919
34.121890809074316 25.6073
34.145362493118924 25.5447
34.16865368561615 25.5465
34.191946333164054 25.4898
34.21524043699793 25.4816
34.23871800066799 25.4603
34.26201503218366 25.3679
34.28531352370466 25.404
34.30861347646881 25.2789
34.33209693978188 25.2394
34.3553998301885 25.2831
34.378704185565205 25.1657
34.402010007152356 25.1395
34.42549939016683 25.0711
34.44880815937748 24.9801
34.472118398533134 24.9954
34.49543010887669 24.9456
34.51892543169198 24.8398
34.54224009966052 24.8294
34.56555624255917 24.8923
34.58887386163339 24.7821
34.61237514439016 24.6891
34.6356957311114 24.6277
34.65901779775809 24.7096
34.68252356662995 24.6537
34.705848608458616 24.6123
34.72917513396849 24.4541
34.75250314440949 24.4664
34.77601490857862 24.3871
34.799345904259795 24.38
34.82267838863559 24.3708
34.846012362958525 24.363000000000003
34.869530142679984 24.2817
34.89286711232212 24.2431
34.91620557568269 24.1686
34.93954553401677 24.189
34.9630693495876 24.1475
34.986412313340814 24.2083
35.00975677584668 24.171
35.033102738362956 24.0857
35.05663261012228 24.0139
35.0799815881786 24.0582
35.10333207003229 24.0237
35.12668405694369 23.9531
35.150220005273056 23.9253
35.17357501786656 23.9716
35.19693153931268 23.9759
35.220289570874385 23.8489
35.24383161619786 23.8636
35.267192683604904 23.958000000000002
35.290555264930376 23.7908
35.314101899412165 23.8214
35.33746752422433 23.7493
35.36083466676374 23.7855
35.38420332829803 23.7292
35.407756095629054 23.8273
35.43112781085063 23.7564
35.45450104888391 23.7286
35.477875810999194 23.636999999999997
35.50143473172161 23.5656
35.52481255774625 23.6935
35.54819191167777 23.6189
35.57157279478914 23.4968
35.595137889488406 23.5007
35.61852184675279 23.4441
35.641907337029984 23.4209
35.665294361595684 23.4289
35.68886565090076 23.302
35.7122557598848 23.3376
35.73564740699838 23.2628
35.759040593519934 23.2117
35.78261809810353 23.1847
35.80601437933051 23.0974
35.829412203814705 23.0983
35.85281157283719 23.0179
35.876395313415884 22.9868
35.8997977874528 22.9281
35.92320180988546 22.8685
35.946790244133936 22.9038
35.97019737933222 22.8746
35.993606066789866 22.9319
36.01701630779276 22.7573
36.04061101440684 22.7211
36.06402437852291 22.7827
36.08743930005611 22.7519
36.1108557802951 22.6514
36.13445678011326 22.605999999999998
36.15787639383515 22.6016
36.18129757014299 22.5928
36.20472031032821 22.5725
36.22832762423364 22.4289
36.25175350829375 22.4466
36.275180960119776 22.3926
36.298609981005924 22.4339
36.32222362992669 22.396
36.34565580510207 22.3505
36.36908955323448 22.3101
36.39252487562093 22.2442
36.416144880530226 22.250999999999998
36.43958336764275 22.191999999999997
36.463023432914625 22.1835
36.486465077645676 22.1176
36.51009145956204 22.1797
36.53353627947859 22.1516
36.55698268276811 22.1162
36.58043067073321 22.0574
36.60406345072071 21.9645
36.62751462435344 21.9587
36.65096738658405 22.0191
36.67460498210655 21.9387
36.69806093788647 21.9104
36.72151848619297 21.7653
36.744977628333636 21.8082
36.76862165890998 21.7124
36.79208400512205 21.7278
36.81554794910557 21.7386
36.83901349217101 21.6859
36.862663978991606 21.5413
36.88613273667352 21.5909
36.90960309738324 21.6355
36.933075062434064 21.5036
36.95673202673572 21.4374
36.98020721697122 21.3915
37.003684015502365 21.3454
37.027162423645365 21.3213
37.050825886711465 21.4039
37.07430753063053 21.3283
37.09779078812467 21.2982
37.121275660513014 21.2621
37.144945643673694 21.2065
37.16843376245278 21.1397
37.19192350009803 21.1525
37.215414857931435 21.0863
37.239091382563885 21.0764
37.262585997426164 20.9969
37.28608223645736 20.9567
37.309763684451696 20.9381
37.33326318851098 20.9803
37.356764320726555 20.9304
37.380267082425526 20.8853
37.40395510942588 20.8741
37.42746114683234 20.8193
37.45096881771841 20.781999999999996
37.474478123414166 20.7503
37.49817275092816 20.7197
37.52168534303452 20.706
37.54519957395567 20.6368
37.568715445024665 20.5932
37.592416694607714 20.6284
37.61593586281424 20.6093
37.63945667518264 20.6069
37.66297913304891 20.5118
37.68668702630454 20.4925
37.710212792059274 20.449
37.733740207334854 20.4075
37.757269273470364 20.3514
37.780983832050374 20.375999999999998
37.80451621684926 20.3222
37.82805025654007 20.2437
37.851585952464795 20.2071
37.8753071980695 20.1946
37.89884622345676 20.1284
37.92238690911902 20.1228
37.94611318753442 20.0393
37.969657210779765 20.005
37.99320289834801 20.0645
38.016750251586465 20.0307
38.04048325513017 19.9497
38.06403395679343 19.8943
38.087586328183946 19.8899
38.11114037065203 19.8109
38.13488012115898 19.87
38.1584375229181 19.7767
38.181996599821 19.7023
38.205557353221124 19.695
38.229303872575656 19.6318
38.2528679961576 19.6743
38.27643380031219 19.6027
38.30000128639589 19.5667
38.32375459653193 19.6209
38.34732546371299 19.5669
38.37089801690786 19.4838
38.39447225747609 19.4546
38.418232380377425 19.4174
38.441810012983396 19.4411
38.46538933705673 19.4107
38.488970353960084 19.4615
38.51273731166058 19.3743
38.536321731567014 19.3584
38.55990784840681 19.2618
38.58367995004091 19.1924
38.60726947812959 19.1685
38.63086070726198 19.1832
38.654453638806274 19.1612
38.678232613930824 19.1429
38.70182896773327 19.0875
38.72542702806741 19.0391
38.7490267963045 19.0165
38.77281266709232 18.9612
38.79641586862214 18.9891
38.8200207821842 18.9132
38.843627409152944 18.9066
38.86742019782782 18.869
38.891030269149255 18.84
38.914642058016156 18.83
38.938255565806124 18.7462
38.96205529464307 18.742
38.98567225787121 18.6409
39.00929094417078 18.6763
39.03291135492255 18.7121
39.05671804624804 18.6548
39.080341923549106 18.6481
39.103967529460334 18.5974
39.127594865365744 18.5425
39.15140854155791 18.4187
39.17503935514948 18.4999
39.19867190290282 18.5128
39.22249083587951 18.4075
39.24612686969409 18.394000000000002
39.269764641845306 18.387999999999998
39.293404153722804 18.3574
39.317230110864074 18.2582
39.34087311998506 18.243
39.36451787301696 18.2028
39.388164371352595 18.1562
39.41199737518003 18.1763
39.43564738196752 18.1114
39.45929913825317 18.1256
39.48295264543308 18.1091
39.506792718520884 18.0703
39.530449745387216 18.0303
39.55410852735203 18.0391
39.57776906581474 18.0629
39.60161623079 17.945999999999998
39.625280300200025 17.9343
39.64894613032202 17.9275
39.67261372255866 17.9213
39.6964680021016 17.9033
39.72013913657293 17.8234
39.74381203738292 17.7805
39.76748670593756 17.8158
39.79134812278169 17.8215
39.81502634488497 17.6991
39.83870633896685 17.7059
39.862388106436654 17.6823
39.88625668336918 17.6715
39.90994201572829 17.6638
39.933629125719285 17.6145
39.957503091207826 17.5503
39.9811937746168 17.5975
40.00488623990914 17.5059
40.02858048850006 17.4458
40.05246165409549 17.4276
40.076159487492085 17.3577
40.099859108448875 17.4133
40.123560518384345 17.371
40.1474489070226 17.3248
40.171153913178564 17.2961
40.194860712584955 17.2855
40.2185693066637 17.287
40.242464941335314 17.2115
40.26617714307655 17.1754
40.289891143772046 17.2026
40.3136069448471 17.1204
40.33750984859743 17.107
40.3612292688043 17.0637
40.3849504936829 17.0639
40.40867352466194 17.0439
40.43258372059144 17.0197
40.45631038219906 17.0337
40.48003885420956 16.910999999999998
40.503769138055105 16.9137
40.52768664931955 16.9241
40.55142057531802 16.8837
40.57515631746428 16.8145
40.599079334038514 16.8292
40.62281872700477 16.7329
40.64655994043941 16.8219
40.67030297578061 16.7682
40.69423334835778 16.7102
40.71798004609188 16.6697
40.74172857006355 16.6501
40.76547892171441 16.6111
40.7894166736039 16.62
40.813170699248566 16.5709
40.83692655691388 16.5092
40.86068424804498 16.5287
40.884629402612525 16.4655
40.908390779366385 16.4553
40.932153993938 16.479
40.95591904777605 16.4418
40.979871628443995 16.4254
41.003640379561936 16.4196
41.02741097430883 16.3632
41.05118341413683 16.3363
41.075143444384416 16.3171
41.098919593177826 16.2617
41.1226975914255 16.234
41.14647744058318 16.1287
41.170444943946755 16.1558
41.19422851378379 16.1497
41.218013938914645 16.1122
41.24198706625173 16.0751
41.26577622087193 16.0627
41.289567235177785 16.0235
41.31336011063129 16.0753
41.337340752422875 16.0381
41.361137369129835 15.9609
41.38493585138705 15.9628
41.40873620066004 15.9026
41.43272438060107 15.8767
41.45652848292052 15.8233
41.48033445666918 15.7845
41.50414230331616 15.7881
41.528138045159764 15.7721
41.551949656675205 15.6799
41.575763145513235 15.7416
41.59957851314666 15.6981
41.62358184070442 15.6626
41.64740098505737 15.6042
41.6712220126409 15.6029
41.69504492493139 15.5231
41.71905586207357 15.5112
41.74288256296395 15.5311
41.766711153007456 15.5409
41.79054163368412 15.4734
41.814560204340054 15.4718
41.838394485526365 15.458
41.86223066180303 15.409
41.88625497706819 15.3795
41.910094962812 15.3907
41.93393684811168 15.378
41.95778063445365 15.2498
41.981812625263366 15.2498
42.00566023303407 15.2661
42.029509746323676 15.2161
42.05336116662236 15.1588
42.077400857069705 15.1546
42.10125611078846 15.1305
42.12511327600405 15.0674
42.14897235421036 15.0953
42.173019768448455 15.1114
42.19688269209613 15.0577
42.22074753323349 15.0036
42.24461429335818 14.9993
42.268669455600495 14.9946
42.292540073217886 14.9516
42.31641261433284 14.8959
42.34028708044675 14.8706
42.36435001496739 14.8737
42.38822835065557 14.9007
42.41210861586426 14.8267
42.4359908120986 14.8038
42.46006154323262 14.8101
42.48394762115317 14.7129
42.507835634632315 14.7305
42.531912233047436 14.7003
42.55580413732265 14.6202
42.579697981698 14.5998
42.60359376768525 14.5755
42.62767820545945 14.5644
42.65157789440821 14.5837
42.67547952952185 14.5291
42.699383112316 14.5208
42.72347541395347 14.5031
42.74738291190531 14.4824
42.771292362102166 14.4747
42.795203766063516 14.4051
42.819303956130405 14.409
42.843219287476536 14.3827
42.86713657716324 14.3385
42.89105582671383 14.296
42.91516392983864 14.3256
42.939087119032166 14.2999
42.963012272677304 14.2869
42.98693939230129 14.304
43.01105543317513 14.219000000000001
43.034986504731386 14.2209
43.05891954686589 14.1663
43.08285456110972 14.1245
43.10697856448665 14.1399
43.130917542983475 14.0596
43.15485849820081 14.0715
43.17880143167367 14.0197
43.20293342237094 14.0315
43.226880332449 13.9171
43.25082922540554 13.9989
43.27496722682525 13.9674
43.29892010567796 13.9114
43.32287497204102 13.8441
43.34683182745632 13.8572
43.370977859791836 13.863
43.39493871351105 13.8387
43.41890156092628 13.7884
43.44286640358341 13.7844
43.46702049182749 13.7165
43.49098934522816 13.6806
43.51496019852649 13.7315
43.5389330532723 13.6518
43.56309522248204 13.6107
43.58707210044314 13.6007
43.61105098451946 13.5954
43.63503187626491 13.5536
43.659202151562134 13.5548
43.68318707902681 13.5138
43.70717401884041 13.5457
43.731162972560874 13.5073
43.75534137913236 13.499
43.779334381108384 13.4425
43.803329401683186 13.435
43.82732644241872 13.4259
43.8515130055166 13.3187
43.87551410707659 13.2972
43.89951723350145 13.3138
43.923709934595614 13.2448
43.94771713129917 13.312999999999999
43.97172635758096 13.2786
43.99573761501002 13.2157
44.0199385169922 13.1654
44.04395385732619 13.1613
44.067971233533086 13.1665
44.09199064718605 13.1299
44.11619977548961 13.0988
44.14022328470671 13.0967
44.16424883610785 13.1128
44.18827643127035 13.0424
44.21249381139513 13.0339
44.236525514814076 12.9669
44.26055926674478 13.0137
44.28459506876863 13.0226
44.3088207262813 12.948
44.33286064928722 12.8923
44.35690262714919 12.8522
44.38094666145278 12.8628
44.4051806219871 12.8313
44.42922879003185 12.8346
44.45327901929361 12.8221
44.477331311362136 12.8054
44.501573600619416 12.7662
44.525630039221795 12.7189
44.54968854541895 12.7376
44.573937102200176 12.708
44.5979997645541 12.7012
44.622064499300315 12.6929
44.64613130803592 12.6403
44.67038823869318 12.5999
44.69445921643748 12.577
44.718532272981385 12.5407
44.742607409926194 12.538
44.76687274034801 12.5205
44.79095205918753 12.4785
44.81503346325094 12.479000000000001
44.839116954143876 12.4875
44.86339071028742 12.4172
44.88747839599524 12.3678
44.91156817336837 12.3334
44.93566004401666 12.3561
44.959942251908146 12.3195
44.984038330325966 12.3465
45.00813650686762 12.2507
45.03223678314731 12.2512
45.05652746888232 12.2397
45.08063196592069 12.2161
45.104738567558705 12.2096
45.128847275414856 12.2006
45.15314646515866 12.0767
45.17725940679741 12.1444
45.20137445952892 12.0732
45.22568004865265 12.0498
45.24979934496396 12.099
45.27392075725247 12.0236
45.29804428714431 12.0203
45.322358426247604 12.0052
45.346486212804315 11.9672
45.370616121861914 11.9766
45.39474815505086 11.9825
45.41907087049246 11.9484
45.4432071734666 11.869000000000002
45.46734560548283 11.8926
45.49148616817604 11.8966
45.51581748638564 11.8638
45.5399623320197 11.8228
45.56410931325473 11.7784
45.58825843173002 11.82
45.61259837920865 11.7888
45.636751793816 11.7278
45.66090735060093 11.6672
45.68506505120716 11.6828
45.7094136545275 11.6906
45.73357566449271 11.6161
45.75773982322992 11.6325
45.78190613238733 11.6275
45.806263418194064 11.5688
45.83043404997326 11.6148
45.85460683713677 11.5847
45.87897065658495 11.5345
45.90314777634752 11.5105
45.92732705646868 11.4841
45.9515084986045 11.4579
45.97588104735473 11.4441
46.00006683541565 11.4575
46.02425479047904 11.3839
46.04844491420549 11.4087
46.0728262191024 11.3791
46.09702070211635 11.3807
46.12121735879483 11.347999999999999
46.14541619080294 11.3191
46.169806278764455 11.2957
46.194009483459034 11.2789
46.21821486849841 11.2867
46.24242243555223 11.2421
46.266821333570014 11.2473
46.29103328674601 11.1857
46.31524742696538 11.1975
46.33946375590237 11.1067
46.36387149104216 11.1079
46.38809221957392 11.0621
46.41231514186606 11.0719
46.436540259597464 11.094000000000001
46.460956858999374 11.0818
46.48518638983522 11.0473
46.509418121166966 10.9702
46.533652054678114 10.9621
46.55807754555709 10.9549
46.58231590571962 10.9416
46.60655647313217 10.9385
46.630988654873654 10.8926
46.655233659129024 10.8929
46.67948087571551 10.852
46.70373030632484 10.8151
46.72817142736393 10.7928
46.752425308428684 10.7594
46.77668140861147 10.8281
46.80093972960865 10.7789
46.82538981736788 10.7449
46.849652602470904 10.7266
46.87391761349769 10.7381
46.8981848521493 10.7056
46.9226439341274 10.647
46.946915650573224 10.5941
46.97118959976749 10.6016
46.99546578341598 10.5643
47.019933887188216 10.5657
47.04421456235744 10.56
47.06849747711879 10.5377
47.09278263318286 10.5142
47.11725978640143 10.5063
47.14154944775105 10.4564
47.165841355555656 10.4658
47.1901355115306 10.4296
47.214621741924994 10.466
47.23892041698887 10.4136
47.26322134538975 10.3571
47.28771440635075 10.3753
47.31201986422527 10.3456
47.33632758061436 10.331
47.360637557241866 10.3141
47.38513974410611 10.2596
47.40945426407847 10.2357
47.43377104948137 10.2466
47.45809010204344 10.227
47.48260144275502 10.2333
47.506925052572285 10.2398
47.53125093475548 10.1591
47.55557909103813 10.1602
47.58009961361992 10.1264
47.60443234110732 10.105
47.62876734791564 10.0554
47.65310463578333 10.0646
47.6776343683373 10.0772
47.7019762413987 10.0513
47.72632040075572 10.0214
47.75066684815169 9.96246
47.77520581885936 9.990269999999999
47.799556865477655 9.93793
47.823910205386 9.96258
47.84826584033272 9.94417
47.87281407745551 9.91992
47.89717432569297 9.92457
47.92153687423484 9.915239999999999
47.94609208429692 9.8419
47.97045925671401 9.84375
47.99482873471275 9.79845
48.01920052005013 9.79543
48.04376504619224 9.77656
48.068141469543484 9.79353
48.09252020552573 9.79167
48.11690125590099 9.73656
48.1414751266064 9.73006
48.16586082917454 9.69068
48.19024885144316 9.6947
48.2146391951793 9.69262
48.239222439012764 9.69053
48.26361744916137 9.61406
48.28801478610016 9.61687
48.31241445160131 9.61223
48.337007097209366 9.56596
48.36141144338331 9.5875
48.38581812345755 9.52549
48.41022713920929 9.54687
48.434829215320704 9.49968
48.45924292604658 9.494539999999999
48.48365897780325 9.51863
48.50807737237308 9.46251
48.532688907799276 9.46214
48.55711201168574 9.45133
48.581537463754074 9.39785
48.60615611725119 9.39226
48.63058628942721 9.38793
48.65501881516546 9.39017
48.6794536962573 9.36834
48.70408185970339 9.34265
48.72852147531801 9.29537
48.75296345168211 9.27102
48.77740779059232 9.28533
48.80204549302823 9.27528
48.82649458091802 9.2764
48.85094603676547 9.19705
48.87539986237231 9.17501
48.90004713292306 9.15962
48.92450572200832 9.19048
48.94896668628025 9.14011
48.97343002754588 9.13787
48.99808689542115 9.14553
49.02255501470614 9.10979
49.04702551642794 9.06862
49.0714984023988 9.08114
49.096164896893235 9.06173
49.120642575466796 9.06508
49.145122643748394 8.992239999999999
49.16960510355558 8.98068
49.19428125404938 8.98157
49.2187685210852 8.95382
49.243258185121555 8.95573
49.26794160167084 8.945219999999999
49.2924360839405 8.88279
49.31693296869764 8.8877
49.34143225776915 8.90156
49.36612538195438 8.86213
49.39062950396021 8.83692
49.41513603578346 8.78054
49.4396449792564 8.767439999999999
49.46434784069503 8.7864
49.488861631846454 8.75406
49.513377840166804 8.75876
49.537896467493745 8.716619999999999
49.56260909589029 8.71673
49.587132585683285 8.70803
49.611658500018365 8.68213
49.636186840738596 8.66429
49.66090926588511 8.67675
49.685442483902584 8.62547
49.70997813385706 8.60318
49.734516217597076 8.5801
49.75924846937352 8.59855
49.7837914452858 8.538730000000001
49.80833686055187 8.55241
49.83288471702571 8.56053
49.85762682540054 8.550510000000001
49.882179588965734 8.513810000000001
49.9067347993235 8.49227
49.93129245833333 8.48288
49.95604445336378 8.47557
49.98060703442832 8.42218
50.005172069746266 8.42262
50.02993150438364 8.42266
50.05450147301533 8.42993
50.07907390151433 8.41351
50.10364879174981 8.35238
50.12841816587289 8.3423
50.1529980044635 8.38449
50.17758031042124 8.35833
50.20216508562089 8.31815
50.22694442953363 8.29476
50.25153416817468 8.26201
50.27612638170508 8.247580000000001
50.300721072005196 8.219380000000001
50.325510416102105 8.21606
50.350110084975064 8.24447
50.37471223628208 8.23405
50.39931687190919 8.16137
50.424116246675766 8.14265
50.44872587605249 8.14436
50.47333799543065 8.12814
50.49795260670191 8.09453
50.52276204271512 8.07349
50.54738166295838 8.099210000000001
50.57200378079314 8.08248
50.596628398116835 8.0589
50.62144792604559 8.02528
50.646077567609396 8.03373
50.670709714377715 7.97785
50.69553683636198 8.01955
50.72017401885922 7.99384
50.7448137122895 7.957000000000001
50.76945591856022 7.944439999999999
50.79429318636823 7.93773
50.818940443716784 7.932760000000001
50.84359021965163 7.92342
50.868242516085964 7.88086
50.893089960641895 7.85045
50.917747323549435 7.83178
50.94240721271973 7.851889999999999
50.96706963007175 7.82021
50.99192728239342 7.80242
51.01659478166073 7.82112
51.04126481489051 7.772189999999999
51.06593738400761 7.7558
51.090805275207074 7.73343
51.11548294172845 7.72227
51.14016314993547 7.69608
51.164845901758845 7.74604
51.18972406304274 7.656839999999999
51.21441192780656 7.670439999999999
51.23910234200271 7.6478600000000005
51.2637953075678 7.6295
51.288683770237945 7.6249199999999995
51.31338186432707 7.612589999999999
51.33808251561888 7.60107
51.362978729967345 7.59218
51.387684521509755 7.568060000000001
51.41239287610203 7.56993
51.437103795691165 7.53953
51.46201036644977 7.47998
51.486726441956634 7.48504
51.51144508832545 7.49396
51.536166307509156 7.47835
51.56108326624387 7.4534
51.58580965706056 7.43023
51.61053862657523 7.463539999999999
51.635270176746864 7.41678
51.66019755512065 7.376410000000001
51.68493429268881 7.3696600000000005
51.70967361681515 7.365810000000001
51.73441552946465 7.34485
51.759353359237934 7.273619999999999
51.7841004750961 7.307510000000001
51.80885018539685 7.282369999999999
51.833602492111254 7.27646
51.8585508051424 7.22262
51.883308330926425 7.244910000000001
51.90806845906181 7.2476899999999995
51.932831191525715 7.24737
51.95779001977161 7.22745
51.98255798721516 7.19354
52.00732856494335 7.18688
52.03229530577543 7.13545
52.057071130455945 7.136639999999999
52.081849571391054 7.14902
52.106630630568695 7.14773
52.13160794279417 7.0561
52.15639426492067 7.0644100000000005
52.18118321127822 7.10002
52.205974783860896 7.06215
52.23096269971011 7.04062
52.255759551287994 7.00604
52.280559035098186 7.0111300000000005
52.30536115314103 6.986280000000001
52.33035970494467 6.95242
52.35516711807904 6.94428
52.37997717147198 6.9712
52.40478986713005 6.9765
52.42979908731974 6.93337
52.454617094216 6.90817
52.47943774942214 6.875039999999999
52.50426105495102 6.87655
52.529280976059844 6.878430000000001
52.554109609024096 6.88806
52.57894089837482 6.8611699999999995
52.60377484613117 6.819380000000001
52.62880550079408 6.80065
52.65364479223379 6.79922
52.67848674816189 6.78432
52.70352547971946 6.73906
52.72837279155837 6.7368
52.753222773982785 6.73168
52.778075429022984 6.75362
52.80312495150885 6.7054
52.827982978797436 6.7355
52.85284368481815 6.653739999999999
52.87770707160767 6.656000000000001
52.90276741793998 6.652010000000001
52.92763619336701 6.61148
52.952507655698504 6.64353
52.977381806977576 6.65388
53.00245301017842 6.604080000000001
53.02733256653592 6.54246
53.052214817996074 6.55864
53.077099766608484 6.55841
53.102181859804446 6.54986
53.127072229988265 6.54214
53.15196530349892 6.53809
53.17686108239249 6.55105
53.20195409881522 6.49239
53.22685531582556 6.48183
53.25175924441303 6.44345
53.27666588664027 6.49498
53.30176985962693 6.41972
53.3266819565689 6.40944
53.35159677336455 6.39295
53.376514312083096 6.410909999999999
53.40162927507703 6.3343300000000005
53.42655228516116 6.34494
53.45147802340193 6.30163
53.47660125628886 6.36573
53.50153247842639 6.2950800000000005
53.52646643496923 6.32297
53.55140312799818 6.29442
53.576537409691696 6.2857400000000005
53.60147960336152 6.28217
53.626424539786164 6.3068
53.65137222105307 6.2577300000000005
53.67651758529126 6.20296
53.70147078399681 6.21272
53.72642673383343 6.17479
53.75138543689533 6.16101
53.776541917524526 6.167999999999999
53.801506154876755 6.16155
53.826473151763246 6.16772
53.851442910284916 6.14427
53.87661054126026 6.1153
53.9015858509782 6.09851
53.92656392866066 6.10404
53.95154477641532 6.13541
53.976723591801296 6.073169999999999
54.00171000771266 6.07198
54.02669920004598 6.0675
54.051691170915745 6.02237
54.076881204886796 6.01185
54.101878760928514 6.0191300000000005
54.12687910187696 5.9786
54.152077577768296 5.97124
54.1770835166946 5.95673
54.20209224691339 5.934769999999999
54.22710377055121 5.950080000000001
54.25231352511594 5.92995
54.27733066384342 5.9144
54.30235060239643 5.906680000000001
54.32737334290836 5.88554
54.35259441062629 5.8465300000000004
54.377622783395324 5.83927
54.40265396455061 5.8588
54.42768795623251 5.82101
54.45292037169559 5.773569999999999
54.477960012857906 5.8009900000000005
54.50300247099511 5.77986
54.52804774825457 5.76374
54.55329154616743 5.6894800000000005
54.57834249018678 5.69044
54.6033962597977 5.71483
54.6284528571545 5.69337
54.653708072335164 5.60599
54.67877035378786 5.63713
54.70383546947698 5.5845
54.72890342156389 5.5864400000000005
54.7541700889442 5.53724
54.77924374251975 5.57244
54.8043202390049 5.5461800000000006
54.82959552413022 5.49675
54.8546777351945 5.466069999999999
54.87976279569621 5.4911900000000005
54.90485070780914 5.4707300000000005
54.930137506558005 5.43714
54.95523115074295 5.43675
54.98032765308844 5.40174
55.005427015775496 5.37906
55.03072536339621 5.40843
55.05583047570572 5.309419999999999
55.080938454927676 5.33528
55.10604930325027 5.30757
55.131359235107396 5.29061
55.15647585066083 5.21464
55.181595341907496 5.24555
55.20671771104285 5.23008
55.232039262617704 5.19987
55.25716741665048 5.21215
55.28229845518636 5.15985
55.30743238042802 5.07137
55.33276558731939 5.1155
55.357905315183636 5.09406
55.383047936390035 5.047630000000001
55.40819345314859 4.99306
55.433538351073295 4.99678
55.458689688238415 4.95947
55.483843927614096 4.95293
55.509197623043605 4.965730000000001
55.53435769621134 4.90569
55.55952067826466 4.90691
55.5846865714265 4.87871
55.61005202069737 4.87317
55.63522376553902 4.88782
55.66039842818645 4.81942
55.68557601087004 4.762630000000001
55.7109532500271 4.74175
55.73613670233794 4.80832
