TT I
1.2716486653135266 8.06915
1.2939594142134223 8.0912
1.3162702121660406 7.4671199999999995
1.3385810600174564 6.8234
1.3608919586137629 7.64858
1.383202908801069 6.69698
1.405513911425503 5.92335
1.4278249673332093 6.41441
1.4501343378461518 5.99645
1.4724455028545926 6.7211300000000005
1.4947567236847858 6.65298
1.517068001182951 6.53084
1.5393793361953272 6.01335
1.5616907295681737 5.37708
1.5840021821477681 5.55516
1.60631369478041 4.84618
1.6286252683124185 5.834230000000001
1.6509369035901333 5.26127
1.6732468618895553 5.8613
1.695558623192809 5.0376900000000004
1.7178704487808514 5.16309
1.7401823395001077 4.6946900000000005
1.7625012545597203 5.09869
1.7848028405262486 5.19661
1.8071218901122095 4.89396
1.8294236121921872 4.95223
1.8517427996910911 4.56492
1.8740620574440425 4.4282699999999995
1.8963639900671978 5.31157
1.9186833908139995 5.25073
1.9409854680117449 5.05881
1.9633050151394713 5.10945
1.9856246367570705 5.0319
2.0079269371922672 4.86114
2.03024671027244 5.2745
2.0525491637446027 4.96818
2.074869091674931 4.5134099999999995
2.097171701569106 4.14418
2.1194917877373847 5.37654
2.141811954326636 5.59896
2.164114805233074 4.26653
2.186435135143035 5.5868
2.208738150935709 10.8809
2.231058647554722 18.6378
2.2533792288321184 14.7926
2.275682498336085 8.05863
2.298003251406138 5.12827
2.3203066942619714 4.97688
2.3426276225136022 5.14559
2.3649486396617507 4.770580000000001
2.387252348930071 5.23245
2.4095735463442893 5.44626
2.4318774374315884 5.2866800000000005
2.4541988185014043 5.81942
2.476502894794693 6.39766
2.498824462909887 6.02305
2.521146125856138 6.524369999999999
2.5434504863470337 6.6943399999999995
2.5657723414244717 7.177110000000001
2.588076895590662 6.98889
2.610398946189713 7.039689999999999
2.6327210958598384 7.55973
2.6550259469304716 7.1500699999999995
2.6773482972090137 7.40181
2.6996533504259 7.065
2.7219759047039602 7.77792
2.744298562293959 7.69485
2.7666039251246595 7.56307
2.7889267918020164 8.0512
2.8112323652516555 7.45432
2.833555444408179 7.71557
2.8558786311183852 7.80035
2.8781845268938557 8.37266
2.9005079311721484 9.29996
2.9228140460410397 8.977889999999999
2.9451376712799635 9.00821
2.967444008632326 9.74925
2.9897678582247247 9.899569999999999
3.0120918213106695 10.5733
3.0343984987899373 10.3995
3.0567226913198637 11.0219
3.079029599759726 11.5731
3.101354025127254 12.0598
3.123678568232338 12.8741
3.145985829517914 12.9842
3.16831061055229 13.6643
3.1906181112775593 14.5588
3.212943133635653 14.7752
3.2352682779763207 15.334000000000001
3.2575761442691227 15.4638
3.2799015350264273 15.5679
3.302209649240067 16.0614
3.3245352898092655 16.934
3.3468436553365257 17.615
3.369169549113219 17.9946
3.3914955708171384 18.5767
3.413804319727358 19.1524
3.4361305997334863 18.9979
3.4584396084414553 19.7222
3.4807661501462652 20.6505
3.503092824025881 21.1135
3.5254022288463154 21.451
3.5477291695206588 21.7621
3.5700388426251948 22.4274
3.5923660534916446 23.5507
3.6146934007816114 33.3735
3.637003482731501 65.7035
3.6593311053109985 70.495
3.681641464033634 44.7553
3.7039693653009733 28.8562
3.726297407241705 26.5281
3.7486081875460804 26.0726
3.7709365132734978 26.6539
3.793247578841633 27.1379
3.8155761917550093 26.6232
3.8378875459837216 27.2729
3.8602164494827234 27.9843
3.882545499606844 28.7916
3.9048572932539183 29.4253
3.9271866390645718 30.1158
3.9494987298666713 30.2741
3.971828374764527 30.381999999999998
3.9941581705403255 31.2591
4.016470713506008 32.0542
4.038800813471445 32.7906
4.061113662089144 33.2093
4.0834440696459176 34.0281
4.105774632334751 34.5867
4.128087945865126 34.9332
4.150418821249301 36.1854
4.172732448931298 37.3376
4.195063640413578 39.0337
4.2173775856475215 42.0972
4.239709096631102 62.5104
4.262040768704612 165.71
4.284355196706267 215.31099999999998
4.306687193387355 145.501
4.329001947444346 67.6351
4.35133427213731 46.6756
4.373666762177566 45.3121
4.395982011761091 45.2433
4.418314834921175 46.4967
4.44063041906622 51.5255
4.4629635787515625 58.8024
4.4852969080429785 59.0052
4.5076130004776225 53.0423
4.529946671403969 52.2102
4.552263106909177 52.45
4.574597122877047 53.1101
4.596931312711224 54.106
4.619248269273446 54.938
4.6415828092605835 55.9898
4.663900117405352 57.2249
4.686235010953232 58.1786
4.708552674085913 60.178999999999995
4.730887924602802 61.3951
4.753223354952695 62.8021
4.775541557023902 64.4897
4.797877349456786 66.5331
4.820195915032126 68.1956
4.842532072957498 69.6063
4.864868414979744 72.1455
4.88718753227192 74.3783
4.909524244902505 76.4386
4.931843734218147 78.4912
4.954180820867835 80.8705
4.976518095879839 84.4426
4.998838149695359 87.8781
5.021175803844231 91.8128
5.043496238205739 96.1234
5.065834274903528 100.74799999999999
5.088172504230693 107.115
5.1104935158799565 115.277
5.132832132875765 137.472
5.155153533596801 177.605
5.1774925416746225 242.53900000000002
5.199814334878411 587.03
5.2221537374521505 1594.27
5.244493338631803 3642.39
5.266815727034316 7428.08
5.289155727832427 11362.4
5.311478517248165 8872.71
5.333818921080011 3491.99
5.356159527788849 765.279
5.3784829252032536 226.362
5.400823940070432 162.017
5.423147747031976 139.35299999999998
5.445489173474152 127.178
5.467830807066149 121.111
5.490155234831516 116.305
5.512497285125229 111.146
5.534822130975162 108.63600000000001
5.557164601388673 106.626
5.579489868738879 103.406
5.601832762690846 102.665
5.6241758697774475 101.68
5.646501775867269 100.488
5.668845311622074 99.1923
5.691171647754637 98.6137
5.713515615597765 97.0974
5.735859800852677 95.949
5.758186788542988 96.5564
5.780531411018185 97.0163
5.802858837297399 96.6158
5.825203900414495 96.9687
5.8475491852224 97.9685
5.869877275883075 98.1402
5.892223006467101 99.9032
5.914551544266608 101.56299999999999
5.936897724049891 105.899
5.959244129804903 116.15299999999999
5.981573344815301 154.227
6.0039202049061 313.459
6.026249875609095 663.0830000000001
6.04859719346037 1273.9
6.070927323278297 2331.44
6.093275102315365 4036.39
6.115623113320588 4863.63
6.137953938319995 3423.8
6.160302415650845 1163.49
6.182633708324452 284.555
6.2049826554078376 128.256
6.227331838745022 100.45
6.249663839443684 90.9203
6.27201349767565 86.2325
6.294345974611799 88.352
6.316696111167083 94.2143
6.339046488263839 89.7603
6.361379686074702 79.2007
6.383730546639482 73.1388
6.406064229255215 71.1532
6.428415576718203 70.5934
6.450749747566656 69.2864
6.47310158535871 68.096
6.495453669698332 66.8081
6.517788579421056 66.5221
6.540141159237969 65.4728
6.562476565766648 64.8763
6.5848296444934045 64.3744
6.607182974060425 64.3432
6.6295191323281015 63.8845
6.651872965955752 66.0162
6.6742096296068985 82.51
6.6965639707294615 110.351
6.71891856698715 110.859
6.741255995248479 82.956
6.763611104154477 65.6469
6.785949046381137 60.7548
6.808304671371482 59.622
6.8306605557940046 59.7546
6.852999275508618 58.7803
6.875355681171544 58.3771
6.897694923437771 57.9904
6.92005185377892 57.9724
6.9423916220322655 58.0776
6.964749080490181 56.953
6.987106804399774 56.9587
7.009447368180821 57.0603
7.031805625367033 56.9895
7.054146723727803 56.8338
7.076505517631004 56.3515
7.098864581288365 56.4119
7.121206488070854 56.4349
7.143566093607822 56.4381
7.165908543567245 56.9271
7.188268694426048 56.4454
7.2106291193438095 56.2218
7.232972390625943 57.4083
7.255333366030969 65.6595
7.277677189091925 99.5008
7.300038718428332 129.923
7.322400526130865 113.73299999999999
7.344745183422596 77.8748
7.367107550224791 60.2938
7.389452767901992 56.8108
7.411815697249891 56.2344
7.434161478756298 55.5624
7.456524974096713 55.7911
7.478888753837185 55.3108
7.501235387657368 55.8798
7.523599738562711 56.0282
7.545946944825532 56.0303
7.568311870344528 56.4905
7.5906770845765665 56.4836
7.613025156078678 57.2384
7.635390950099687 57.9519
7.657739602662809 57.9931
7.680105979923558 57.2681
7.702472650212829 57.648
7.724822180948224 57.4635
7.747189439655568 57.3525
7.769539560075357 57.4809
7.791907410653562 57.7616
7.81425812420825 58.1532
7.836626570110925 58.1347
7.858995315087906 59.1586
7.881346924933401 59.3038
7.903716270417482 59.8488
7.926068482028405 60.2742
7.948438431475253 61.0648
7.9708086843180235 61.7014
7.993161805171116 62.3523
8.015532667162402 62.7179
8.037886398416653 63.7243
8.060257873014221 63.9615
8.082629655331942 64.6521
8.104984308787587 65.6425
8.127356708900503 68.4687
8.149711981398308 72.6958
8.172085002766314 74.2798
8.194458336181368 72.3987
8.216814543847752 71.3743
8.23918850371002 71.4201
8.26154533906492 72.5332
8.283919928836452 74.2538
8.306277395339652 75.2754
8.328652618483376 76.6778
8.351028159736202 79.1867
8.373386579575245 81.8335
8.395762759396959 83.5418
8.418121819038275 88.4407
8.440498640894003 99.2846
8.462875785192262 114.012
8.485235811156207 144.086
8.507613602688501 220.66099999999997
8.529974277114228 339.634
8.552352719347912 496.45300000000003
8.574731488360351 752.0260000000001
8.59709314210385 1170.55
8.619472567021075 1683.11
8.64183487789147 2108.76
8.664214962183097 1830.51
8.686577933647762 1055.72
8.708958680784317 432.685
8.731339760774953 184.574
8.753703729764451 119.365
8.77608547780821 104.682
8.798450116065078 99.8065
8.820832535634787 96.0989
8.843215292401656 94.4049
8.865580941199045 92.6752
8.887964374703538 91.6936
8.910330701447199 92.1159
8.932714815164482 93.0312
8.955099270424924 91.9808
8.977466620733543 89.4997
8.999851761421976 87.8688
9.022219798361645 86.3525
9.04460562795561 86.1838
9.066991803441677 85.3957
9.089360876979615 85.5427
9.111747746589993 85.5091
9.13411751544971 84.6878
9.156505082664324 84.4094
9.178875550323522 84.5368
9.20126381862328 84.6331
9.223652438908596 84.389
9.246023961427412 84.9687
9.26841328802173 84.303
9.290785518039224 84.3979
9.313175554425882 85.4859
9.335565947154315 85.6387
9.357939245086508 85.5857
9.380330352834827 85.7283
9.40270436697103 85.9452
9.425096193225055 85.6455
9.447488380180165 86.7545
9.469863475295412 87.0676
9.492256385987508 87.2677
9.514632206018318 88.1172
9.537025843935714 88.1485
9.559402392368193 88.9816
9.581796761000229 90.3754
9.604191496441521 91.4367
9.626569144158516 93.6165
9.648964615551032 97.0383
9.671343000390081 98.5294
9.693739211225699 97.1187
9.716135793237463 95.9603
9.738515290448102 96.3132
9.760912617143402 97.2832
9.783292860202891 98.7397
9.805690935076182 100.22399999999999
9.828089385495742 101.37100000000001
9.850470754023561 103.486
9.872869957865444 109.85600000000001
9.89525208097539 121.15
9.917652041736662 131.07
9.940052382417589 138.514
9.962435644102392 169.33
9.984836746950979 230.05900000000003
10.007220771957746 314.827
10.029622640473708 435.916
10.052007432299963 613.453
10.074410069984072 865.2560000000001
10.096813093716005 1214.38
10.119199042482517 1596.32
10.141602840636468 1848.43
10.163989564971628 1654.35
10.186394141051062 1028.72
10.208799107559706 481.048
10.231187001965623 214.407
10.253592751657669 136.08
10.275981430388155 118.648
10.298387966769793 116.09
10.320794897965431 116.51700000000001
10.343184759907361 114.23299999999999
10.36559248305461 110.425
10.387983138083852 109.779
10.410391656691655 118.588
10.432800574501677 135.659
10.455192425893369 156.924
10.47760214443012 186.387
10.499994797678786 230.456
10.522405320453982 297.09
10.54479877906917 382.899
10.567210109595656 486.95599999999996
10.5896218454736 538.956
10.612016518879773 526.266
10.634429067781074 373.565
10.656824555333241 216.735
10.679237920773568 132.00799999999998
10.701651695961992 100.64200000000001
10.724048411481384 92.6414
10.746463008485165 89.5801
10.768860546937125 87.5752
10.791275969274796 85.5361
10.81369180576079 84.6387
10.836090585366925 83.7489
10.858507252467449 82.5694
10.88090686379991 81.1536
10.903324365036394 80.5933
10.925724811614439 80.0368
10.948143150509463 80.7804
10.970561909719066 79.9433
10.992963615930844 78.5815
11.015383218085756 76.5773
11.037785768347074 75.2933
11.06020621697282 74.7185
11.082627090322113 74.0696
11.105030913430326 73.4531
11.12745263854165 73.7931
11.149857314510728 75.5314
11.172279894912576 79.2253
11.194702904450653 79.8852
11.217108866490921 77.087
11.239532736615194 73.8101
11.26193956033512 72.193
11.284364294577085 71.0978
11.306789462371718 69.7498
11.329197585398376 69.1243
11.351623622610898 68.5558
11.37403261614354 67.7336
11.396459526308487 67.7157
11.418869393879497 67.211
11.441297180532617 66.8519
11.463725406927658 66.5133
11.486136592353875 66.263
11.508565700543707 66.7697
11.530977768845315 68.2473
11.553407762368774 68.3521
11.575838200059769 67.855
11.598251599479612 66.3386
11.620682927815501 65.5213
11.64309721895548 65.2192
11.665529441478206 64.9314
11.687962112597958 64.6721
11.710377748130886 64.7227
11.732811318753434 64.7164
11.755227854859067 64.7714
11.777662328529495 64.5333
11.800079768750786 64.2491
11.822515149015453 64.1839
11.844950984084935 64.5649
11.867369787303163 64.184
11.889806534289491 64.1494
11.912226250487029 64.8525
11.934663912939751 64.6802
11.9571020346363 64.8283
11.979523127133968 65.03699999999999
12.001962169624331 66.3635
12.024384183972964 68.4028
12.046824150809913 73.4141
12.069264581333726 79.8079
12.091687985297767 86.8978
12.11412934550045 96.1687
12.136553680195208 109.755
12.158995973632788 127.76299999999999
12.181438735204349 149.58700000000002
12.20386447284199 176.64
12.226308172985636 198.46099999999998
12.24873485024193 202.46
12.271179492516982 174.02
12.293607112949127 131.812
12.316052700916226 97.4964
12.338498763250042 79.4549
12.360927805303868 70.9246
12.383374818673879 67.6552
12.405804812803074 66.3221
12.428252780773262 66.1434
12.45070122756722 65.9577
12.473132656675375 66.0462
12.49558206341869 66.2657
12.518014453510101 66.2018
12.540464823770117 66.4685
12.562915677315177 66.6587
12.58534951575545 67.1405
12.607801338171472 68.4053
12.630236146511358 71.8618
12.652688941369085 75.0825
12.675124723177234 75.64
12.697578494048786 73.4788
12.720032754458185 70.7116
12.742470003354093 69.7739
12.764925245138771 69.6834
12.787363476431278 70.1325
12.809819703166806 70.4514
12.83227642391173 71.2904
12.854716135692716 71.7903
12.877173846755147 72.7911
12.899614549869717 73.3177
12.9220732548287 74.3098
12.94453245827299 74.5949
12.966974655289818 75.8577
12.989434858002571 76.6057
13.011878055298721 77.4052
13.034339260862497 78.5918
13.056800969391883 79.9265
13.079245674017244 82.8647
13.101708390774869 87.2612
13.12415410463411 98.2846
13.146617833206086 113.367
13.169064559883248 127.025
13.191529303857127 143.89
13.213994557076367 167.364
13.236442809902437 200.99
13.258909083908291 245.847
13.28135835851934 293.495
13.30382565690295 351.163
13.326293469022952 401.957
13.348744283242008 421.496
13.371213125129904 369.94800000000004
13.39366497011003 280.726
13.416134845360597 188.635
13.438605238843131 132.946
13.46105863690397 116.006
13.483530069144786 117.773
13.505984506951902 124.54899999999999
13.528456981549432 135.901
13.550929978879088 151.865
13.573385983253365 173.62
13.595860028340867 204.59799999999998
13.618317081455832 243.08599999999998
13.64079217790333 287.28700000000003
13.663250283359057 331.07099999999997
13.685726434770173 360.189
13.708203115221277 343.594
13.730662806148091 277.325
13.75314054697177 202.06799999999998
13.775601299246777 137.03799999999998
13.798080104050406 102.39200000000001
13.820559442405358 88.6048
13.843021793671388 84.5344
13.865502201420897 82.6954
13.887965623051947 81.9101
13.910447103807167 80.8494
13.932929122629764 79.6008
13.955394156785959 79.1456
13.977877254034569 78.2487
14.000343367582113 77.4108
14.022827546871707 76.6915
14.045294743423524 75.9855
14.06778000837062 75.2269
14.090265817715476 75.1477
14.112734645763819 74.7667
14.13522154619454 74.0792
14.157691466286913 74.4295
14.180179461423874 74.119
14.202668005486178 73.3169
14.22513957064374 72.7517
14.247629214846473 72.3838
14.270101881097517 72.2583
14.29259262906496 72.2541
14.315083930490205 72.8276
14.337558255389705 72.7208
14.360050666019726 72.6071
14.382526101071944 71.9165
14.405019624534942 71.5354
14.427513705993134 71.0128
14.449990813291825 71.1322
14.47248601302899 70.8009
14.49496423954951 70.8345
14.517460561197822 70.7782
14.539939910570322 70.6804
14.562437357763558 71.4457
14.58493536931253 72.1606
14.607416409993311 72.4607
14.62991555254159 72.9763
14.652397725157423 73.1594
14.674898002342799 73.1023
14.697398848433282 72.8644
14.719882725991326 74.2447
14.74238471217934 76.5525
14.764869730765593 81.4562
14.787372860692983 85.7915
14.809876564079925 91.2043
14.83236330125751 97.8051
14.854868153850365 106.604
14.877356041159485 119.354
14.899862046604186 134.553
14.922351087688757 153.79399999999998
14.944858249632887 176.06799999999998
14.967365991421232 198.37900000000002
14.989856770231246 215.423
15.012365673994204 218.513
15.03485761569738 194.165
15.05736768508665 155.27700000000002
15.07987833888692 121.479
15.102372032001655 95.1449
15.124883856909658 79.85300000000001
15.14737872204565 74.5368
15.169891721717274 72.6599
15.192405310371893 72.2115
15.214901940621196 72.2504
15.237416709527137 72.1384
15.259914520936249 72.1495
15.282430473753607 71.516
15.304947020131227 70.6135
15.327446610371178 69.9223
15.349964346154254 69.1828
15.372465126703139 68.7955
15.394984055556009 68.6049
15.417486030076159 68.3058
15.44000615566487 68.0452
15.462526881230803 67.9651
15.485030653812652 68.0481
15.507552581617434 68.1534
15.530057557334603 67.9402
15.55258069104857 68.1334
15.575104429329837 68.2678
15.597611216864632 68.2494
15.620136166564563 68.6439
15.6426441664095 71.0818
15.665170331202765 74.5981
15.687697105158826 78.4491
15.710206930593545 82.6589
15.732734925158933 87.2765
15.755245972089478 93.76799999999999
15.77777519094324 102.645
15.800287463046663 114.199
15.822817909869592 128.813
15.84534897229804 144.491
15.867863089299354 162.247
15.890395385222186 178.94299999999998
15.912910736597423 190.88400000000001
15.935444269699861 187.153
15.957978423016485 163.917
15.980495633101265 132.304
16.003031029129367 102.70200000000001
16.02554948280019 80.4524
16.048086125229432 70.2476
16.070623392487107 66.7635
16.09314371869582 65.5905
16.11568223789321 64.77199999999999
16.13820381691126 63.7366
16.160743591742527 63.0608
16.183283996022084 62.0386
16.205807461423195 60.9679
16.228349126881973 60.5201
16.25087385432698 60.5153
16.27341678466365 60.027
16.29594277784926 59.8951
16.31848697676433 59.9913
16.341031811604868 59.917
16.36355971058487 60.0776
16.3861058195587 59.8532
16.40863499352978 58.8123
16.431182380342005 58.0067
16.453730407713202 57.6229
16.476261501364792 57.3072
16.498810812136167 57.1345
16.52134319004079 57.0312
16.54389378792203 56.945
16.566445031001553 56.9128
16.588979342490088 56.659
16.61153187824822 56.5569
16.634067483263312 56.5131
16.656621315414416 56.2844
16.679175797408888 56.0619
16.701713349928728 56.1309
16.72426913389191 56.4754
16.74680798922351 56.5727
16.76936507887444 56.6067
16.791905240734874 56.595
16.814463639794468 56.4543
16.837022695210294 56.4105
16.859564824093756 56.4882
16.882125194503903 57.2553
16.904668639217885 57.5414
16.927230328348003 57.5999
16.949792678493612 58.0833
16.972338104193863 57.7022
16.994901778652235 57.0019
17.017448529496576 57.3433
17.040013531998152 57.7443
17.06257920018044 58.732
17.0851279459922 59.3915
17.107694947817667 60.4861
17.130245028099072 61.2629
17.15281336730298 62.9359
17.17536478578733 64.5232
17.19793446610687 66.54899999999999
17.220504818648422 69.0884
17.243058251703697 71.4515
17.265629950971032 74.9952
17.288184731571736 78.7648
17.310757781306908 83.0973
17.33333150794385 84.7452
17.355888317140174 84.6048
17.37846339986244 79.9278
17.401021565958885 73.9405
17.42359800851343 68.3917
17.44617513265564 64.4427
17.468735341390783 61.8367
17.491261035594565 60.9126
17.51396340099364 60.8435
17.536490463869136 60.7319
17.559018209820174 60.8095
17.58154663977963 61.0358
17.604251766089718 61.2774
17.626781572227713 61.5128
17.64931206518155 61.6776
17.671843245885103 62.1747
17.69455114821572 62.2789
17.717083712612634 62.555
17.739616967569667 62.9669
17.762150914021706 63.2281
17.78486160749854 63.4504
17.807396945166804 64.4368
17.829932977143503 66.1253
17.85246970436452 68.2309
17.875183204129467 70.5176
17.897721330097664 72.8442
17.920260154126645 75.5588
17.942799677153296 78.8872
17.9655159983646 82.9081
17.988056927677544 87.801
18.010598558807683 94.4369
18.033140892692916 102.071
18.05586005052525 110.052
18.07840379824407 119.585
18.10094825154059 130.351
18.12366954819864 140.039
18.146215420998306 143.53799999999998
18.16876200220057 137.675
18.191309292745153 124.79799999999999
18.214033452627167 111.074
18.236582170236648 98.2473
18.259131600016456 91.0266
18.281681742907335 89.2753
18.304408781233683 91.7154
18.32696035875955 95.1513
18.349512652227624 99.2022
18.372065662579683 103.89
18.394795594587553 106.035
18.41735004715306 105.04799999999999
18.43990521943684 99.07799999999999
18.46246111238171 90.0518
18.485193953325208 80.3993
18.507751296070428 72.5362
18.530309362314178 67.9342
18.552868153000343 65.5237
18.57560391815056 64.1902
18.59816416623245 63.5921
18.620725141597372 63.2691
18.643286845190268 62.8969
18.666025549835414 62.2451
18.688588718427933 61.4844
18.711152618092243 61.5828
18.73389353884365 61.0828
18.75645890921984 60.7212
18.77902501351406 60.3071
18.801591852673102 60.4308
18.824335739722738 60.0875
18.846904057212626 59.795
18.8694731124168 59.4363
18.89204290628315 59.6352
18.914789774966803 59.3754
18.937361054791623 59.2073
18.959933076131318 58.8073
18.982505839934877 58.7963
19.00525570560582 58.6557
19.027829963004184 58.5041
19.05040496572238 58.7617
19.072980714710468 58.8953
19.095733592739563 59.4418
19.11831084296757 59.571999999999996
19.140888842324735 59.8688
19.16346759176222 60.4009
19.18622349753803 60.986000000000004
19.208803755869358 61.9908
19.231384767143577 63.0992
19.253966532312948 64.4367
19.276725481241822 66.0533
19.29930876296784 67.7117
19.3218928014549 69.8315
19.34465404436217 72.4865
19.36723960516257 75.1619
19.389825925592426 76.945
19.412413006605938 76.8573
19.43517731967805 74.7024
19.457765930683355 70.2497
19.48035530514408 65.9311
19.50294544401556 62.0769
19.525712842708348 58.736999999999995
19.54830451925909 56.9049
19.570896963095727 55.7735
19.593490175174704 55.553000000000004
19.616260674962184 55.5905
19.638855432416964 55.2374
19.661450960992624 55.4479
19.68404726164677 55.2804
19.706820878021247 55.026
19.729418731756834 55.303999999999995
19.752017360452857 55.0649
19.77461676506804 55.3654
19.797393513540218 55.5975
19.819994478951667 56.0193
19.84259622316767 56.5125
19.8651987471481 56.9267
19.887978643247177 57.1496
19.91058273574792 57.6882
19.933187610901943 58.4367
19.955969879466828 59.5747
19.97857632894404 60.9979
20.00118356396599 62.1577
20.023791585494575 63.8179
20.046577028914875 66.0283
20.069186632506966 67.9298
20.091797025500632 69.96300000000001
20.114408208858933 71.346
20.137196842715273 71.9591
20.159809615886765 71.1091
20.18242318232135 68.5536
20.20503754298326 66.3543
20.227829382875154 64.4156
20.250445341109344 63.5909
20.27306209647285 63.8104
20.29567964993108 64.3643
20.31847471147704 65.3811
20.34109387027612 66.6565
20.363713830075454 66.8164
20.386334591841646 65.9824
20.409132890679302 63.5338
20.431755265564437 60.3109
20.454378445325528 57.2528
20.477002430930366 55.3386
20.499803982716553 53.878
20.522429589228004 53.0293
20.54505600449589 52.4568
20.567683229489194 52.4688
20.590488049900088 52.0459
20.61311690359731 51.8179
20.63574656993626 51.6782
20.658553853717297 51.2448
20.681185154618298 51.1618
20.703817271080066 50.9687
20.72645020407368 50.7511
20.749260783967177 50.6107
20.771895359337133 50.5637
20.794530754161617 50.4573
20.817166969412938 50.2202
20.83998086114876 50.3223
20.86261872660049 50.2121
20.885257415405402 50.2141
20.90789692853701 50.2448
20.930714147864748 50.0456
20.953355319030678 50.1055
20.97599731745334 50.4958
20.99864014410749 50.1547
21.021460706796564 50.0442
21.044105199328826 50.1911
21.06675052302631 50.5654
21.089396678865015 50.7899
21.112220600704806 51.0179
21.134868430275347 51.4184
21.15751709492456 51.4318
21.180166595629693 51.5195
21.202993892429635 51.9226
21.22564507473034 52.5296
21.24829709602816 52.6746
21.27112693608965 52.9279
21.293780644891275 53.1948
21.316435195634053 52.5618
21.339090589297417 51.8397
21.361923832041875 51.373999999999995
21.384580921090404 50.5638
21.407238856007325 50.1068
21.429897637773326 49.9831
21.45273429906592 49.9016
21.475394784108598 49.8413
21.498056118951983 49.9179
21.520718304578022 50.2024
21.543558400304388 50.3728
21.566222297108816 50.8099
21.58888704765135 50.9001
21.61155265291521 51.0595
21.63439619898156 51.653
21.657063523335786 51.8694
21.67973170537063 52.4618
21.7024007460706 53.0119
21.72524775840385 53.8685
21.747918526116475 54.7062
21.770590155457388 55.7926
21.79326264741238 57.1989
21.816113141960237 58.6009
21.838787368860547 59.9292
21.861462461341976 61.5213
21.884315579735777 63.4727
21.90699241312273 64.9941
21.92967011506078 66.3345
21.95234868653799 66.4069
21.9752053151131 65.4403
21.997885635446785 63.7301
22.020566828293532 61.8689
22.04324889464272 59.5618
22.066109049404666 57.8244
22.088792872571794 57.1094
22.111477572219204 57.1993
22.1341631493376 57.2759
22.157026846313123 57.3276
22.179714188221507 57.015
22.202402410582668 55.9825
22.22509151438863 54.3732
22.24795876962584 53.2259
22.270649646204486 52.1886
22.293341407213727 51.4328
22.316034053646906 51.0059
22.338904883215342 50.6497
22.36159931041458 50.5863
22.38429462602756 50.2803
22.40699083104897 50.147
22.429865251039757 50.1706
22.452563244831367 50.1651
22.47526213102522 50.0875
22.49813925616515 50.1574
22.520839937143307 50.1312
22.543541513520587 50.1475
22.56624398629403 49.8615
22.589124730075895 50.0097
22.611829005656723 50.1366
22.63453418063466 50.2426
22.657240256008077 50.6682
22.680124634582935 50.8535
22.70283252079775 51.2484
22.725541310413075 51.5773
22.74825100442868 51.4259
22.771139033969575 52.0063
22.79385054687155 52.2092
22.81656296718292 53.1169
22.83927629590484 53.7776
22.862167992606945 54.5911
22.88488314827121 55.475
22.907599215359284 56.1408
22.93031619487366 56.9852
22.953211574954405 57.8972
22.975930389478226 58.8911
22.998650119445763 59.4192
23.02137076586092 59.0094
23.044269845560063 58.0791
23.06699233506288 56.3354
23.089715744034912 54.4126
23.112617610931565 52.8025
23.135342869061212 51.6458
23.158069049684816 50.8219
23.1807961538087 50.4492
23.20370174880544 50.3943
23.226430710184808 50.5956
23.249160598093425 50.6938
23.271891413539002 50.7282
23.294800752937697 50.5664
23.31753343374794 50.7731
23.340267045128353 50.8859
23.36300158808808 51.4758
23.38591468821339 51.6015
23.408651104658304 51.9789
23.431388455719986 52.5708
23.454126742409 53.263000000000005
23.4770436196085 54.1206
23.499783787914662 54.8412
23.522524894889884 55.5163
23.54526694154616 56.5468
23.56818761219047 57.6147
23.59093154860734 58.2539
23.613676427751283 59.0605
23.636422250635754 58.7456
23.659346731118656 57.3802
23.68209445191868 55.6572
23.704843119509587 53.4026
23.72759273490623 51.2318
23.750521041644767 49.8977
23.77327256312355 48.7938
23.796025035462787 48.0412
23.818956224555475 47.5629
23.841710609113413 47.4449
23.86446594758979 47.214
23.887222241002014 47.0122
23.910157285144578 46.6016
23.932915498962537 46.574
23.955674670778713 46.4381
23.978434801611975 46.3066
24.001373717286125 46.0811
24.024135776723917 45.9977
24.046898798245582 45.9701
24.06966278287146 45.8301
24.092605586582614 45.5017
24.115371508023642 45.3498
24.1381383956401 45.1712
24.16090625045381 45.3612
24.183852958731244 45.3176
24.206622758582608 45.1404
24.229393528706886 45.0088
24.252165270127392 45.0306
24.27511589952438 45.1316
24.297889594216997 44.672
24.32066426328598 44.3585
24.34343990775613 44.6796
24.36639447485003 44.5349
24.38917208083877 44.4721
24.41195066531332 44.3123
24.43490819850244 44.3901
24.457688750692377 44.1293
24.48047028445616 44.1831
24.503252800821233 44.3585
24.526214300784112 44.2533
24.548998793132213 44.2002
24.57178427117417 44.2659
24.59457073593893 44.2921
24.617536219319863 44.3228
24.64032466834748 44.324
24.663114107195035 44.1674
24.685904536893013 43.8457
24.708874020360852 43.7627
24.731666442613744 43.7056
24.754459858818787 43.6704
24.777254270007962 43.7393
24.80022777025625 43.5346
24.82302418230472 43.5223
24.845821592443674 43.5626
24.86862000170663 43.3787
24.891597535453727 43.4063
24.914397953892728 43.6302
24.93719937456671 43.6022
24.96000179851076 43.7984
24.98298338249997 44.0409
25.00578782394922 44.245
25.028593271784167 44.2705
25.05157790644186 44.3924
25.07438537804115 44.5231
25.097193859145293 44.7628
25.120003350792075 44.9261
25.142992065061257 45.3103
25.165803588823465 45.6008
25.18861612625217 45.9603
25.211429678386736 45.9077
25.234422489079968 46.0036
25.257238081693636 45.925
25.280054692141732 46.0572
25.3028723214652 45.8425
25.325869245420463 45.8281
25.348688923599397 46.0095
25.371509623787006 45.9924
25.394331347025812 46.0236
25.41733240110666 45.532
25.440156181590016 44.9244
25.46298098826268 44.3503
25.48580682216873 43.7762
25.50881202326435 43.0107
25.53163992281684 42.6844
25.55446885274561 42.5641
25.577298814096377 42.1188
25.600308179121807 42.1068
25.623140214533745 42.1449
25.64597328451537 41.9951
25.66898578564376 41.8291
25.691820936010206 41.8434
25.714657124097695 41.8618
25.737494350954734 41.8337
25.760511045684957 41.6806
25.783350361364224 41.7538
25.806190718969255 41.8964
25.82903211955018 41.8962
25.852053024868923 41.8836
25.874896522722523 41.8698
25.897741066713106 41.8407
25.920586657892454 41.9216
25.943611790812668 42.0792
25.966459487728237 42.1586
25.989308234998564 41.9829
26.01215803367705 42.5526
26.03518741123814 42.5874
26.05803932412957 42.623000000000005
26.080892291600094 42.576
26.10374631470478 42.7071
26.12677995397268 42.7497
26.14963609978026 42.9417
26.172493304397875 42.6892
26.19535156888223 42.5025
26.218389486949604 42.0128
26.241249882640123 41.7526
26.26411134137826 41.6403
26.28715248187403 41.6263
26.31001607820869 41.3642
26.3328807407756 41.2489
26.35574647063438 41.3066
26.37879191991473 41.4405
26.401659795896734 41.3836
26.424528742360263 41.4692
26.447398760366614 41.6827
26.470448535598294 41.7113
26.49332070826805 42.0314
26.516193955675355 42.3411
26.53906827888316 42.2783
26.562122397260108 42.4575
26.584998883685063 42.7682
26.607876449110325 43.0714
26.63075509460056 43.1534
26.65381357334404 43.3371
26.67669439061878 43.3601
26.699576291163382 43.3271
26.722459276044212 43.3768
26.745522132402975 43.0132
26.768407297649354 42.7216
26.791293550442003 42.2379
26.814180891848974 41.895
26.837248143099337 41.6351
26.860137673466657 41.7531
26.88302829566349 41.3049
26.90592001075963 41.2926
26.92899167420566 41.0811
26.951885586870763 40.7223
26.974780595655517 40.4277
26.99785558178161 40.2953
27.020752794605112 40.2888
27.043651106772522 40.135999999999996
27.06655051935668 40.1463
27.089629948036183 39.9196
27.112531573292053 39.845
27.135434302194138 39.8392
27.158338135817015 39.6709
27.181422024430987 39.7697
27.204328079372566 39.6064
27.22723524226965 39.6872
27.250143514198573 39.751999999999995
27.273231880156334 39.645
27.296142382065014 39.4853
27.319053996245536 39.5428
27.341966723775965 39.5831
27.365059584515222 39.5962
27.38797455070062 39.6578
27.410890633481237 39.5008
27.433807833936918 39.4865
27.456905206923906 39.6485
27.47982465472398 39.5378
27.502745223449743 39.5998
27.525666914182825 39.7049
27.548768816912457 39.6184
27.571692763693633 39.6079
27.59461783573812 39.4476
27.617723149491244 39.3236
27.640650484125285 39.2199
27.66357894728264 39.2262
27.686508540048052 39.2224
27.709618414237887 39.0841
27.732550278321757 38.9456
27.755483275279115 38.9643
27.778417406196485 39.0062
27.801531858397514 38.9998
27.824468269376716 39.0778
27.847405817586786 39.0431
27.870344504116094 39.1888
27.893463551932008 39.2536
27.916404527281053 39.457
27.93934664422563 39.2962
27.962289903855886 39.4046
27.98541356491974 39.666
28.00835912214229 39.7544
28.03130582533231 39.9187
28.054253675581805 40.2301
28.077381967556104 40.1225
28.100332124185126 40.2204
28.123283431160893 40.013000000000005
28.146235889577238 39.9259
28.169368830154156 39.6993
28.192323603752033 39.5683
28.215279532083304 39.2009
28.238415973016764 39.029
28.261374223145094 38.8807
28.284333631303806 38.7431
28.307294198589954 38.6965
28.330435319167677 38.2603
28.353398217078915 37.9943
28.376362277420153 37.843
28.39932750129032 37.5855
28.422473319286713 37.497
28.44544088262495 37.5016
28.468409612800283 37.2738
28.491379510913497 37.1125
28.51453004413313 37.0082
28.53750229057244 36.8933
28.56047570826344 36.7978
28.583450298308804 36.8708
28.606605564586562 36.6613
28.629582511831156 36.8379
28.65256063474956 36.6583
28.675539934446338 36.678000000000004
28.698699951647605 36.6084
28.72168161743193 36.5433
28.74466446331978 36.5498
28.767648490417624 36.4354
28.790813276438353 36.3497
28.813799678527303 36.4311
28.836787265157085 36.3602
28.859955641890075 36.3787
28.882945610203045 36.4383
28.905936766392035 36.241
28.928929111566863 36.3347
28.952102288520145 36.2306
28.975097024308607 36.1878
28.998092952423807 35.9711
29.021090073977508 35.9563
29.04426806913204 35.9073
29.067267590245258 35.7538
29.090268308143695 35.692
29.11327022394099 35.4537
29.13645305530891 35.3604
29.159457379627167 35.4192
29.18246290519685 35.3621
29.20546963313352 35.4131
29.22865731875826 35.3748
29.25166646419296 35.2851
29.27467681535305 35.1205
29.29768837335608 35.2547
29.320880931312562 35.2937
29.34389491580634 35.1823
29.366910110507334 35.099000000000004
29.38992651653503 35.13
29.41312396492981 35.0647
29.436142806456754 35.0588
29.45916286268059 35.0806
29.48236399319994 34.9543
29.50538649169417 34.8283
29.528410208259935 34.7762
29.55143514402014 34.4671
29.574641196749695 34.3513
29.597668583816574 34.3167
29.6206971934585 34.0325
29.64372702680042 34.186
29.666938019934474 34.0705
29.689970313635285 33.9625
29.713003834422636 33.9351
29.73603858342347 33.9085
29.759254535188578 33.8443
29.78229175361658 33.7249
29.80533020365064 33.8421
29.82836988641968 33.8453
29.85159081507472 33.8277
29.874632976355343 33.6712
29.89767637376955 33.7072
29.920721008448314 33.5146
29.9439469322847 33.5509
29.96699405457564 33.4993
29.9900424175358 33.5297
30.013092022298157 33.5358
30.03632295963995 33.3072
30.059375061131373 33.3397
30.08242840783577 33.4595
30.105483000888153 33.415
30.128718970092244 33.3247
30.151776069006917 33.3874
30.17483441768648 33.4299
30.198074175317235 33.3206
30.221135036724256 33.3242
30.24419715131772 33.2812
30.267260520236203 33.1701
30.290505341942243 33.1653
30.313571232750228 33.3082
30.336638381310948 33.2923
30.35970678876503 33.285
30.38295669299435 33.0841
30.40602763151657 33.0598
30.429099832366074 33.0337
30.452173296685572 33.0834
30.47542830191959 33.0388
30.498504306502497 32.9652
30.521581577995562 33.0255
30.544660117543582 33.0887
30.56792024229725 33.1692
30.59100133132069 33.1045
30.614083691845494 33.0647
30.637167325018545 33.135999999999996
30.660432587840603 33.2168
30.683518779717886 33.1662
30.70660624769615 33.1874
30.729694992924372 33.1183
30.75296541239743 33.1693
30.77605672557558 33.0788
30.799149319462742 33.0216
30.8224236211637 32.891999999999996
30.845518789950724 32.7381
30.868615242910597 32.8025
30.891712981195973 32.6099
30.91499247215866 32.4868
30.938092794619365 32.4727
30.96119440587579 32.3719
30.984297307082752 32.2557
31.00758200598383 32.154
31.030687500658694 32.1486
31.053794288760695 32.0725
31.076902371446767 31.9411
31.100192296997445 32.0738
31.12330298246119 31.9898
31.14641496599209 31.8655
31.169528248749216 31.899
31.19282341969534 31.846
31.215939314557186 31.836
31.239056512134788 31.8807
31.262175013589378 31.7822
31.28547544871168 31.8629
31.30859657161541 31.703000000000003
31.331719001892175 31.7175
31.35484274070538 31.7856
31.378148458819545 31.8208
31.401274828443725 31.7154
31.424402510106933 31.766
31.447712205419993 31.8227
31.470842524931633 31.7251
31.493974159989783 31.6691
31.51710711176168 31.6822
31.54042212308802 31.6987
31.563557722100917 31.634
31.586694641341655 31.4419
31.609832881979628 31.3644
31.63315322823208 31.3308
31.656294125521327 31.2088
31.679436347728515 31.174
31.70257989602529 31.1297
31.725905596152327 31.0129
31.74905181052835 30.9524
31.772199354521323 31.1446
31.79534822930507 31.0488
31.818679302290967 30.9838
31.84183085259981 30.9052
31.864983737233473 30.9159
31.88813795736804 31.1286
31.911474422233013 30.921999999999997
31.934631327356435 30.8997
31.9577895715215 30.8974
31.980949155906522 30.9002
32.004291031706956 30.8739
32.027453310562606 30.8025
32.05061693318573 30.6289
32.07396288236386 30.6729
32.09712920658542 30.618000000000002
32.12029687812702 30.4549
32.14346589817093 30.4392
32.166817291729984 30.3901
32.18998902288583 30.3406
32.21316210610336 30.2538
32.23633654256711 29.9893
32.259693399663725 30.1454
32.282870556771144 30.1176
32.30604907069099 30.1765
32.329228942610065 29.916999999999998
32.35259128243769 29.7876
32.375773884550505 29.7901
32.398957848235646 29.7264
32.422143174682176 29.6352
32.445511016471215 29.5839
32.468699082679954 29.6245
32.49188851523011 29.5318
32.51507931531304 29.4665
32.538452678331 29.5155
32.56164622776311 29.4706
32.58484114831493 29.4073
32.60803744118015 29.3856
32.631416344731896 29.3592
32.654615396551876 29.2597
32.67781582427913 29.2612
32.701198898634416 29.1553
32.72440209253756 29.0945
32.747606665947124 29.0838
32.77081262006088 29.0087
32.79420126883317 29.1004
32.81740999876112 28.956
32.840620112999424 28.8552
32.86383161274818 28.7657
32.88722585534586 28.8187
32.91044014056596 28.8907
32.933655814909734 28.7318
32.95687287957963 28.7536
32.98027273544904 28.721999999999998
33.00349259526636 28.6103
33.026713849030116 28.6601
33.04993649794511 28.7066
33.073341986570746 28.5827
33.09656744032826 28.5683
33.11979429286444 28.6104
33.14302254538647 28.5211
33.166433686291185 28.4916
33.18966475336992 28.5002
33.212897224069096 28.3023
33.23613109959831 28.3867
33.259547912343415 28.2797
33.2827846121627 28.4414
33.306022720453775 28.372
33.32926223842861 28.2395
33.352684742614166 28.2043
33.37592709463173 28.1444
33.399170859982064 28.1352
33.422597648419426 28.0034
33.44584425514446 27.9742
33.46909227885668 27.8945
33.4923417207723 27.7865
33.51577423505344 27.8536
33.539026528130385 27.7497
33.56228024307245 27.6928
33.585535381098246 27.559
33.60897364093058 27.5998
33.63223163992385 27.5489
33.6554910656699 27.4788
33.678751919389796 27.4203
33.702195944520106 27.322
33.72545966903325 27.3751
33.74872482519663 27.2187
33.771991414233746 27.2552
33.79544122444841 27.2655
33.81871069412428 27.1656
33.84198160035767 27.1392
33.86525394437455 27.2238
33.88870955949969 27.1068
33.911984794020626 26.9735
33.93526147001624 27.0376
33.958539588715006 27.0198
33.98200102861669 26.9615
34.0052820477047 26.8178
34.02856451319451 26.7878
34.05203033759056 26.6902
34.07531571090147 26.7395
34.09860253431845 26.7652
34.121890809074316 26.680999999999997
34.145362493118924 26.6373
34.16865368561615 26.594
34.191946333164054 26.5117
34.21524043699793 26.6135
34.23871800066799 26.5363
34.26201503218366 26.4165
34.28531352370466 26.4118
34.30861347646881 26.3053
34.33209693978188 26.2529
34.3553998301885 26.241999999999997
34.378704185565205 26.1556
34.402010007152356 26.0875
34.42549939016683 26.1259
34.44880815937748 26.0352
34.472118398533134 25.9689
34.49543010887669 25.9766
34.51892543169198 25.8198
34.54224009966052 25.8967
34.56555624255917 25.9545
34.58887386163339 25.7219
34.61237514439016 25.7314
34.6356957311114 25.6805
34.65901779775809 25.6301
34.68252356662995 25.6419
34.705848608458616 25.6433
34.72917513396849 25.5325
34.75250314440949 25.4901
34.77601490857862 25.4975
34.799345904259795 25.4147
34.82267838863559 25.4627
34.846012362958525 25.4481
34.869530142679984 25.3975
34.89286711232212 25.3481
34.91620557568269 25.2926
34.93954553401677 25.2414
34.9630693495876 25.18
34.986412313340814 25.2369
35.00975677584668 25.1917
35.033102738362956 25.1445
35.05663261012228 25.0323
35.0799815881786 25.0412
35.10333207003229 24.9735
35.12668405694369 25.0611
35.150220005273056 24.965999999999998
35.17357501786656 24.9495
35.19693153931268 24.8822
35.220289570874385 24.8449
35.24383161619786 24.8938
35.267192683604904 24.8723
35.290555264930376 24.761999999999997
35.314101899412165 24.8172
35.33746752422433 24.7694
35.36083466676374 24.7785
35.38420332829803 24.6608
35.407756095629054 24.6877
35.43112781085063 24.6665
35.45450104888391 24.6172
35.477875810999194 24.6721
35.50143473172161 24.5553
35.52481255774625 24.6251
35.54819191167777 24.4946
35.57157279478914 24.4944
35.595137889488406 24.4158
35.61852184675279 24.4098
35.641907337029984 24.377
35.665294361595684 24.2751
35.68886565090076 24.2053
35.7122557598848 24.1841
35.73564740699838 24.1755
35.759040593519934 24.0984
35.78261809810353 24.1298
35.80601437933051 24.0357
35.829412203814705 23.9599
35.85281157283719 23.8297
35.876395313415884 23.9672
35.8997977874528 23.825
35.92320180988546 23.8371
35.946790244133936 23.723000000000003
35.97019737933222 23.7654
35.993606066789866 23.6869
36.01701630779276 23.6757
36.04061101440684 23.7166
36.06402437852291 23.6904
36.08743930005611 23.5735
36.1108557802951 23.4557
36.13445678011326 23.5091
36.15787639383515 23.4899
36.18129757014299 23.4878
36.20472031032821 23.3631
36.22832762423364 23.3572
36.25175350829375 23.3663
36.275180960119776 23.2482
36.298609981005924 23.2759
36.32222362992669 23.2646
36.34565580510207 23.2617
36.36908955323448 23.1746
36.39252487562093 23.0654
36.416144880530226 23.1045
36.43958336764275 23.0319
36.463023432914625 23.0129
36.486465077645676 23.0726
36.51009145956204 23.1203
36.53353627947859 23.031
36.55698268276811 22.9518
36.58043067073321 22.9082
36.60406345072071 22.7945
36.62751462435344 22.8194
36.65096738658405 22.7915
36.67460498210655 22.7515
36.69806093788647 22.7077
36.72151848619297 22.7053
36.744977628333636 22.7206
36.76862165890998 22.4962
36.79208400512205 22.5421
36.81554794910557 22.5305
36.83901349217101 22.4479
36.862663978991606 22.4199
36.88613273667352 22.3857
36.90960309738324 22.4106
36.933075062434064 22.3602
36.95673202673572 22.404
36.98020721697122 22.3124
37.003684015502365 22.142
37.027162423645365 22.1531
37.050825886711465 22.1894
37.07430753063053 22.1241
37.09779078812467 22.0985
37.121275660513014 22.0378
37.144945643673694 22.0489
37.16843376245278 22.0109
37.19192350009803 21.9585
37.215414857931435 21.9353
37.239091382563885 21.8233
37.262585997426164 21.8494
37.28608223645736 21.8762
37.309763684451696 21.7842
37.33326318851098 21.7377
37.356764320726555 21.7598
37.380267082425526 21.7477
37.40395510942588 21.6738
37.42746114683234 21.6255
37.45096881771841 21.5382
37.474478123414166 21.4923
37.49817275092816 21.4758
37.52168534303452 21.5068
37.54519957395567 21.4779
37.568715445024665 21.4085
37.592416694607714 21.3481
37.61593586281424 21.4429
37.63945667518264 21.4667
37.66297913304891 21.3795
37.68668702630454 21.3138
37.710212792059274 21.2617
37.733740207334854 21.239
37.757269273470364 21.2452
37.780983832050374 21.136
37.80451621684926 21.1608
37.82805025654007 21.0313
37.851585952464795 21.0675
37.8753071980695 20.993000000000002
37.89884622345676 20.914
37.92238690911902 20.912
37.94611318753442 20.8099
37.969657210779765 20.8639
37.99320289834801 20.8524
38.016750251586465 20.7072
38.04048325513017 20.7175
38.06403395679343 20.7381
38.087586328183946 20.6718
38.11114037065203 20.6625
38.13488012115898 20.6644
38.1584375229181 20.676
38.181996599821 20.5362
38.205557353221124 20.5318
38.229303872575656 20.5307
38.2528679961576 20.5553
38.27643380031219 20.4282
38.30000128639589 20.4136
38.32375459653193 20.3866
38.34732546371299 20.3295
38.37089801690786 20.2991
38.39447225747609 20.1881
38.418232380377425 20.2058
38.441810012983396 20.2381
38.46538933705673 20.204
38.488970353960084 20.1771
38.51273731166058 20.1439
38.536321731567014 20.0635
38.55990784840681 19.9998
38.58367995004091 19.9978
38.60726947812959 19.9489
38.63086070726198 19.9677
38.654453638806274 19.9264
38.678232613930824 19.8076
38.70182896773327 19.8122
38.72542702806741 19.795
38.7490267963045 19.8438
38.77281266709232 19.7657
38.79641586862214 19.7466
38.8200207821842 19.6839
38.843627409152944 19.7037
38.86742019782782 19.614
38.891030269149255 19.6217
38.914642058016156 19.5986
38.938255565806124 19.5109
38.96205529464307 19.4571
38.98567225787121 19.4805
39.00929094417078 19.4569
39.03291135492255 19.4812
39.05671804624804 19.3812
39.080341923549106 19.3453
39.103967529460334 19.3274
39.127594865365744 19.3075
39.15140854155791 19.2149
39.17503935514948 19.1755
39.19867190290282 19.1302
39.22249083587951 19.1786
39.24612686969409 19.0938
39.269764641845306 19.0884
39.293404153722804 19.1113
39.317230110864074 19.0237
39.34087311998506 18.9979
39.36451787301696 19.0098
39.388164371352595 18.9808
39.41199737518003 18.8856
39.43564738196752 18.8409
39.45929913825317 18.8783
39.48295264543308 18.8781
39.506792718520884 18.789
39.530449745387216 18.7454
39.55410852735203 18.7116
39.57776906581474 18.8112
39.60161623079 18.6903
39.625280300200025 18.6857
39.64894613032202 18.602999999999998
39.67261372255866 18.559
39.6964680021016 18.5078
39.72013913657293 18.5351
39.74381203738292 18.5162
39.76748670593756 18.4811
39.79134812278169 18.4673
39.81502634488497 18.4319
39.83870633896685 18.367
39.862388106436654 18.3358
39.88625668336918 18.3202
39.90994201572829 18.3653
39.933629125719285 18.2904
39.957503091207826 18.2595
39.9811937746168 18.2539
40.00488623990914 18.1567
40.02858048850006 18.1451
40.05246165409549 18.1787
40.076159487492085 18.159000000000002
40.099859108448875 18.1278
40.123560518384345 18.0391
40.1474489070226 18.0478
40.171153913178564 17.9701
40.194860712584955 17.9011
40.2185693066637 17.8823
40.242464941335314 17.8659
40.26617714307655 17.837
40.289891143772046 17.8586
40.3136069448471 17.8181
40.33750984859743 17.7858
40.3612292688043 17.7585
40.3849504936829 17.7377
40.40867352466194 17.7027
40.43258372059144 17.7242
40.45631038219906 17.6662
40.48003885420956 17.6002
40.503769138055105 17.5919
40.52768664931955 17.6235
40.55142057531802 17.567999999999998
40.57515631746428 17.4907
40.599079334038514 17.5159
40.62281872700477 17.4723
40.64655994043941 17.3869
40.67030297578061 17.3933
40.69423334835778 17.396
40.71798004609188 17.3535
40.74172857006355 17.3501
40.76547892171441 17.3767
40.7894166736039 17.2717
40.813170699248566 17.2503
40.83692655691388 17.2153
40.86068424804498 17.2175
40.884629402612525 17.182000000000002
40.908390779366385 17.127
40.932153993938 17.1157
40.95591904777605 17.0652
40.979871628443995 17.0899
41.003640379561936 17.0569
41.02741097430883 17.0112
41.05118341413683 16.9673
41.075143444384416 16.9328
41.098919593177826 16.9194
41.1226975914255 16.8534
41.14647744058318 16.8369
41.170444943946755 16.7891
41.19422851378379 16.7889
41.218013938914645 16.7157
41.24198706625173 16.7521
41.26577622087193 16.7021
41.289567235177785 16.6975
41.31336011063129 16.6978
41.337340752422875 16.6464
41.361137369129835 16.6445
41.38493585138705 16.5401
41.40873620066004 16.5419
41.43272438060107 16.5455
41.45652848292052 16.4822
41.48033445666918 16.4988
41.50414230331616 16.4429
41.528138045159764 16.4169
41.551949656675205 16.3747
41.575763145513235 16.3257
41.59957851314666 16.3025
41.62358184070442 16.2842
41.64740098505737 16.2614
41.6712220126409 16.2047
41.69504492493139 16.1831
41.71905586207357 16.1352
41.74288256296395 16.1433
41.766711153007456 16.1311
41.79054163368412 16.0818
41.814560204340054 16.1439
41.838394485526365 16.0936
41.86223066180303 16.0025
41.88625497706819 16.0019
41.910094962812 16.0267
41.93393684811168 16.0053
41.95778063445365 15.8398
41.981812625263366 15.9212
42.00566023303407 15.865
42.029509746323676 15.8345
42.05336116662236 15.7566
42.077400857069705 15.7908
42.10125611078846 15.7513
42.12511327600405 15.694
42.14897235421036 15.6762
42.173019768448455 15.6748
42.19688269209613 15.61
42.22074753323349 15.6156
42.24461429335818 15.5658
42.268669455600495 15.5862
42.292540073217886 15.4969
42.31641261433284 15.5221
42.34028708044675 15.4852
42.36435001496739 15.4955
42.38822835065557 15.459000000000001
42.41210861586426 15.367
42.4359908120986 15.4182
42.46006154323262 15.3862
42.48394762115317 15.2981
42.507835634632315 15.3464
42.531912233047436 15.2886
42.55580413732265 15.2832
42.579697981698 15.2166
42.60359376768525 15.1636
42.62767820545945 15.1229
42.65157789440821 15.1633
42.67547952952185 15.1493
42.699383112316 15.1112
42.72347541395347 15.0083
42.74738291190531 15.0132
42.771292362102166 15.0507
42.795203766063516 15.0065
42.819303956130405 14.9453
42.843219287476536 14.9049
42.86713657716324 14.9364
42.89105582671383 14.9411
42.91516392983864 14.8659
42.939087119032166 14.8056
42.963012272677304 14.8744
42.98693939230129 14.8243
43.01105543317513 14.7737
43.034986504731386 14.7253
43.05891954686589 14.7313
43.08285456110972 14.7344
43.10697856448665 14.6669
43.130917542983475 14.6374
43.15485849820081 14.59
43.17880143167367 14.5708
43.20293342237094 14.5491
43.226880332449 14.5322
43.25082922540554 14.5354
43.27496722682525 14.5054
43.29892010567796 14.4791
43.32287497204102 14.4206
43.34683182745632 14.3803
43.370977859791836 14.3776
43.39493871351105 14.3475
43.41890156092628 14.3107
43.44286640358341 14.335999999999999
43.46702049182749 14.3092
43.49098934522816 14.2448
43.51496019852649 14.2569
43.5389330532723 14.2062
43.56309522248204 14.1491
43.58707210044314 14.1679
43.61105098451946 14.1501
43.63503187626491 14.0902
43.659202151562134 14.0791
43.68318707902681 14.0406
43.70717401884041 14.0481
43.731162972560874 14.0141
43.75534137913236 13.9795
43.779334381108384 13.9667
43.803329401683186 13.9655
43.82732644241872 13.9253
43.8515130055166 13.9217
43.87551410707659 13.8645
43.89951723350145 13.8335
43.923709934595614 13.7742
43.94771713129917 13.8234
43.97172635758096 13.7829
43.99573761501002 13.7376
44.0199385169922 13.7794
44.04395385732619 13.7481
44.067971233533086 13.6792
44.09199064718605 13.679
44.11619977548961 13.6134
44.14022328470671 13.599
44.16424883610785 13.5988
44.18827643127035 13.5285
44.21249381139513 13.546
44.236525514814076 13.5332
44.26055926674478 13.5283
44.28459506876863 13.4958
44.3088207262813 13.4179
44.33286064928722 13.4419
44.35690262714919 13.394
44.38094666145278 13.3849
44.4051806219871 13.3675
44.42922879003185 13.3123
44.45327901929361 13.2733
44.477331311362136 13.2709
44.501573600619416 13.2086
44.525630039221795 13.2064
44.54968854541895 13.2743
44.573937102200176 13.1887
44.5979997645541 13.2001
44.622064499300315 13.1963
44.64613130803592 13.1308
44.67038823869318 13.0962
44.69445921643748 13.0728
44.718532272981385 13.0158
44.742607409926194 12.9948
44.76687274034801 13.0054
44.79095205918753 12.9588
44.81503346325094 12.9456
44.839116954143876 12.9315
44.86339071028742 12.9615
44.88747839599524 12.9373
44.91156817336837 12.8493
44.93566004401666 12.8451
44.959942251908146 12.8174
44.984038330325966 12.8081
45.00813650686762 12.7788
45.03223678314731 12.7582
45.05652746888232 12.6683
45.08063196592069 12.659
45.104738567558705 12.7002
45.128847275414856 12.6932
45.15314646515866 12.6232
45.17725940679741 12.6093
45.20137445952892 12.5842
45.22568004865265 12.59
45.24979934496396 12.6092
45.27392075725247 12.5366
45.29804428714431 12.4969
45.322358426247604 12.5026
45.346486212804315 12.4717
45.370616121861914 12.4761
45.39474815505086 12.4287
45.41907087049246 12.3625
45.4432071734666 12.3365
45.46734560548283 12.3722
45.49148616817604 12.3769
45.51581748638564 12.3414
45.5399623320197 12.277999999999999
45.56410931325473 12.2603
45.58825843173002 12.2478
45.61259837920865 12.219000000000001
45.636751793816 12.2207
45.66090735060093 12.1553
45.68506505120716 12.1316
45.7094136545275 12.1342
45.73357566449271 12.097000000000001
45.75773982322992 12.1045
45.78190613238733 12.047
45.806263418194064 11.9846
45.83043404997326 11.9768
45.85460683713677 11.9954
45.87897065658495 11.9763
45.90314777634752 11.9377
45.92732705646868 11.9053
45.9515084986045 11.8955
45.97588104735473 11.8796
46.00006683541565 11.8618
46.02425479047904 11.807
46.04844491420549 11.8209
46.0728262191024 11.8274
46.09702070211635 11.7884
46.12121735879483 11.7617
46.14541619080294 11.7359
46.169806278764455 11.7362
46.194009483459034 11.7144
46.21821486849841 11.6788
46.24242243555223 11.6653
46.266821333570014 11.6291
46.29103328674601 11.6543
46.31524742696538 11.6487
46.33946375590237 11.5849
46.36387149104216 11.5592
46.38809221957392 11.5295
46.41231514186606 11.5228
46.436540259597464 11.5419
46.460956858999374 11.4586
46.48518638983522 11.4689
46.509418121166966 11.4429
46.533652054678114 11.3929
46.55807754555709 11.3766
46.58231590571962 11.3903
46.60655647313217 11.338
46.630988654873654 11.304
46.655233659129024 11.289000000000001
46.67948087571551 11.2779
46.70373030632484 11.2588
46.72817142736393 11.2553
46.752425308428684 11.2005
46.77668140861147 11.1739
46.80093972960865 11.1565
46.82538981736788 11.0977
46.849652602470904 11.1203
46.87391761349769 11.1062
46.8981848521493 11.1453
46.9226439341274 11.1102
46.946915650573224 11.0701
46.97118959976749 11.0277
46.99546578341598 11.0206
47.019933887188216 11.0191
47.04421456235744 11.0109
47.06849747711879 10.9586
47.09278263318286 10.9147
47.11725978640143 10.8947
47.14154944775105 10.9022
47.165841355555656 10.8302
47.1901355115306 10.81
47.214621741924994 10.8228
47.23892041698887 10.8156
47.26322134538975 10.7512
47.28771440635075 10.7553
47.31201986422527 10.754000000000001
47.33632758061436 10.725
47.360637557241866 10.7316
47.38513974410611 10.6992
47.40945426407847 10.6891
47.43377104948137 10.6515
47.45809010204344 10.6149
47.48260144275502 10.6173
47.506925052572285 10.6112
47.53125093475548 10.5436
47.55557909103813 10.5251
47.58009961361992 10.5145
47.60443234110732 10.4796
47.62876734791564 10.4788
47.65310463578333 10.4748
47.6776343683373 10.4527
47.7019762413987 10.3992
47.72632040075572 10.3925
47.75066684815169 10.3923
47.77520581885936 10.3692
47.799556865477655 10.352
47.823910205386 10.3474
47.84826584033272 10.3279
47.87281407745551 10.267000000000001
47.89717432569297 10.3512
47.92153687423484 10.2912
47.94609208429692 10.2767
47.97045925671401 10.2666
47.99482873471275 10.2288
48.01920052005013 10.1748
48.04376504619224 10.1389
48.068141469543484 10.1692
48.09252020552573 10.152999999999999
48.11690125590099 10.1203
48.1414751266064 10.0881
48.16586082917454 10.0686
48.19024885144316 10.0629
48.2146391951793 10.0857
48.239222439012764 10.0545
48.26361744916137 10.0394
48.28801478610016 9.99293
48.31241445160131 9.97053
48.337007097209366 9.958839999999999
48.36141144338331 9.910260000000001
48.38581812345755 9.88725
48.41022713920929 9.90885
48.434829215320704 9.853580000000001
48.45924292604658 9.89966
48.48365897780325 9.87107
48.50807737237308 9.812710000000001
48.532688907799276 9.85489
48.55711201168574 9.792769999999999
48.581537463754074 9.82001
48.60615611725119 9.7936
48.63058628942721 9.74881
48.65501881516546 9.7138
48.6794536962573 9.7409
48.70408185970339 9.70192
48.72852147531801 9.6818
48.75296345168211 9.64741
48.77740779059232 9.63691
48.80204549302823 9.64879
48.82649458091802 9.612689999999999
48.85094603676547 9.585
48.87539986237231 9.55143
48.90004713292306 9.5333
48.92450572200832 9.50967
48.94896668628025 9.54231
48.97343002754588 9.512410000000001
48.99808689542115 9.48948
49.02255501470614 9.47287
49.04702551642794 9.420010000000001
49.0714984023988 9.46337
49.096164896893235 9.40927
49.120642575466796 9.41487
49.145122643748394 9.375110000000001
49.16960510355558 9.34094
49.19428125404938 9.33265
49.2187685210852 9.31891
49.243258185121555 9.294310000000001
49.26794160167084 9.28444
49.2924360839405 9.28882
49.31693296869764 9.238389999999999
49.34143225776915 9.226189999999999
49.36612538195438 9.17786
49.39062950396021 9.20965
49.41513603578346 9.153960000000001
49.4396449792564 9.13223
49.46434784069503 9.14631
49.488861631846454 9.11581
49.513377840166804 9.12036
49.537896467493745 9.05733
49.56260909589029 9.0538
49.587132585683285 9.09983
49.611658500018365 9.03998
49.636186840738596 9.04882
49.66090926588511 9.03623
49.685442483902584 8.95764
49.70997813385706 8.941880000000001
49.734516217597076 8.92039
49.75924846937352 8.9359
49.7837914452858 8.932310000000001
49.80833686055187 8.8901
49.83288471702571 8.85337
49.85762682540054 8.86824
49.882179588965734 8.848510000000001
49.9067347993235 8.82076
49.93129245833333 8.83313
49.95604445336378 8.81069
49.98060703442832 8.798869999999999
50.005172069746266 8.74987
50.02993150438364 8.76263
50.05450147301533 8.757589999999999
50.07907390151433 8.70878
50.10364879174981 8.69835
50.12841816587289 8.69647
50.1529980044635 8.657630000000001
50.17758031042124 8.66748
50.20216508562089 8.64649
50.22694442953363 8.64688
50.25153416817468 8.60667
50.27612638170508 8.555480000000001
50.300721072005196 8.54155
50.325510416102105 8.55495
50.350110084975064 8.51609
50.37471223628208 8.50212
50.39931687190919 8.49156
50.424116246675766 8.48217
50.44872587605249 8.4195
50.47333799543065 8.44321
50.49795260670191 8.44508
50.52276204271512 8.433069999999999
50.54738166295838 8.40318
50.57200378079314 8.38102
50.596628398116835 8.35979
50.62144792604559 8.37084
50.646077567609396 8.31513
50.670709714377715 8.31047
50.69553683636198 8.336319999999999
50.72017401885922 8.30155
50.7448137122895 8.28824
50.76945591856022 8.27375
50.79429318636823 8.2736
50.818940443716784 8.23272
50.84359021965163 8.20829
50.868242516085964 8.19166
50.893089960641895 8.2043
50.917747323549435 8.16436
50.94240721271973 8.14449
50.96706963007175 8.11321
50.99192728239342 8.11716
51.01659478166073 8.10635
51.04126481489051 8.10989
51.06593738400761 8.05836
51.090805275207074 8.03607
51.11548294172845 8.0359
51.14016314993547 8.048060000000001
51.164845901758845 8.00757
51.18972406304274 7.95582
51.21441192780656 7.96347
51.23910234200271 7.978839999999999
51.2637953075678 7.95061
51.288683770237945 7.929989999999999
51.31338186432707 7.91131
51.33808251561888 7.865819999999999
51.362978729967345 7.886019999999999
51.387684521509755 7.88351
51.41239287610203 7.84478
51.437103795691165 7.82165
51.46201036644977 7.81342
51.486726441956634 7.775869999999999
51.51144508832545 7.796
51.536166307509156 7.753480000000001
51.56108326624387 7.728089999999999
51.58580965706056 7.722689999999999
51.61053862657523 7.71277
51.635270176746864 7.67356
51.66019755512065 7.6544300000000005
51.68493429268881 7.60832
51.70967361681515 7.63957
51.73441552946465 7.61182
51.759353359237934 7.618060000000001
51.7841004750961 7.58862
51.80885018539685 7.57786
51.833602492111254 7.541519999999999
51.8585508051424 7.5345
51.883308330926425 7.51582
51.90806845906181 7.4987699999999995
51.932831191525715 7.505960000000001
51.95779001977161 7.49355
51.98255798721516 7.45575
52.00732856494335 7.42651
52.03229530577543 7.42952
52.057071130455945 7.43878
52.081849571391054 7.38687
52.106630630568695 7.392860000000001
52.13160794279417 7.3806899999999995
52.15639426492067 7.377860000000001
52.18118321127822 7.32361
52.205974783860896 7.3147199999999994
52.23096269971011 7.29834
52.255759551287994 7.31715
52.280559035098186 7.311489999999999
52.30536115314103 7.27681
52.33035970494467 7.28119
52.35516711807904 7.252389999999999
52.37997717147198 7.19446
52.40478986713005 7.22733
52.42979908731974 7.17842
52.454617094216 7.17162
52.47943774942214 7.15362
52.50426105495102 7.14533
52.529280976059844 7.122089999999999
52.554109609024096 7.11914
52.57894089837482 7.09611
52.60377484613117 7.05227
52.62880550079408 7.0781600000000005
52.65364479223379 7.068980000000001
52.67848674816189 7.02509
52.70352547971946 7.03923
52.72837279155837 7.064089999999999
52.753222773982785 7.00887
52.778075429022984 7.0144
52.80312495150885 6.950480000000001
52.827982978797436 6.957439999999999
52.85284368481815 6.9263
52.87770707160767 6.93699
52.90276741793998 6.9401
52.92763619336701 6.9009
52.952507655698504 6.87617
52.977381806977576 6.90143
53.00245301017842 6.85991
53.02733256653592 6.8357399999999995
53.052214817996074 6.843439999999999
53.077099766608484 6.81584
53.102181859804446 6.80847
53.127072229988265 6.782539999999999
53.15196530349892 6.75608
53.17686108239249 6.76974
53.20195409881522 6.75897
53.22685531582556 6.74108
53.25175924441303 6.6901399999999995
53.27666588664027 6.685239999999999
53.30176985962693 6.67245
53.3266819565689 6.677160000000001
53.35159677336455 6.631710000000001
53.376514312083096 6.63002
53.40162927507703 6.634580000000001
53.42655228516116 6.64125
53.45147802340193 6.616739999999999
53.47660125628886 6.56993
53.50153247842639 6.5944899999999995
53.52646643496923 6.5559
53.55140312799818 6.5305599999999995
53.576537409691696 6.53471
53.60147960336152 6.50991
53.626424539786164 6.481669999999999
53.65137222105307 6.45591
53.67651758529126 6.4504
53.70147078399681 6.44458
53.72642673383343 6.437180000000001
53.75138543689533 6.41026
53.776541917524526 6.44562
53.801506154876755 6.3966199999999995
53.826473151763246 6.3596900000000005
53.851442910284916 6.3801
53.87661054126026 6.33195
53.9015858509782 6.322780000000001
53.92656392866066 6.30652
53.95154477641532 6.33053
53.976723591801296 6.3188
54.00171000771266 6.28493
54.02669920004598 6.27189
54.051691170915745 6.24001
54.076881204886796 6.26315
54.101878760928514 6.23273
54.12687910187696 6.24575
54.152077577768296 6.16927
54.1770835166946 6.19573
54.20209224691339 6.1723099999999995
54.22710377055121 6.1866
54.25231352511594 6.12798
54.27733066384342 6.13163
54.30235060239643 6.13555
54.32737334290836 6.07638
54.35259441062629 6.06484
54.377622783395324 6.04016
54.40265396455061 6.0654
54.42768795623251 6.06356
54.45292037169559 5.996180000000001
54.477960012857906 5.99297
54.50300247099511 5.95655
54.52804774825457 5.919580000000001
54.55329154616743 5.90864
54.57834249018678 5.90396
54.6033962597977 5.89217
54.6284528571545 5.913130000000001
54.653708072335164 5.84661
54.67877035378786 5.813219999999999
54.70383546947698 5.81073
54.72890342156389 5.77505
54.7541700889442 5.7468
54.77924374251975 5.7217199999999995
54.8043202390049 5.72813
54.82959552413022 5.70423
54.8546777351945 5.71099
54.87976279569621 5.57345
54.90485070780914 5.64012
54.930137506558005 5.626580000000001
54.95523115074295 5.6143
54.98032765308844 5.56458
55.005427015775496 5.5887199999999995
55.03072536339621 5.6005199999999995
55.05583047570572 5.5145800000000005
55.080938454927676 5.49867
55.10604930325027 5.5427
55.131359235107396 5.53297
55.15647585066083 5.43311
55.181595341907496 5.434130000000001
55.20671771104285 5.34039
55.232039262617704 5.35781
55.25716741665048 5.37896
55.28229845518636 5.327459999999999
55.30743238042802 5.27576
55.33276558731939 5.2583400000000005
55.357905315183636 5.28489
55.383047936390035 5.23988
55.40819345314859 5.186
55.433538351073295 5.22238
55.458689688238415 5.18703
55.483843927614096 5.13056
55.509197623043605 5.1309
55.53435769621134 5.09802
55.55952067826466 5.04829
55.5846865714265 5.0515
55.61005202069737 5.02615
55.63522376553902 5.028969999999999
55.66039842818645 5.0374
55.68557601087004 4.95941
55.7109532500271 4.92545
55.73613670233794 4.90956
