TT I
1.2716486653135266 7.3202300000000005
1.2939594142134223 6.958539999999999
1.3162702121660406 6.5678399999999995
1.3385810600174564 6.0014
1.3608919586137629 6.60228
1.383202908801069 6.56597
1.405513911425503 5.92054
1.4278249673332093 6.01657
1.4501343378461518 6.06476
1.4724455028545926 5.58816
1.4947567236847858 5.39163
1.517068001182951 5.39219
1.5393793361953272 5.10731
1.5616907295681737 4.65381
1.5840021821477681 4.823580000000001
1.60631369478041 4.80561
1.6286252683124185 5.0963400000000005
1.6509369035901333 4.82399
1.6732468618895553 4.68319
1.695558623192809 4.9539
1.7178704487808514 4.7441
1.7401823395001077 4.82146
1.7625012545597203 4.45932
1.7848028405262486 4.722519999999999
1.8071218901122095 4.21839
1.8294236121921872 4.41446
1.8517427996910911 3.86639
1.8740620574440425 4.14795
1.8963639900671978 3.7422
1.9186833908139995 3.80544
1.9409854680117449 4.68826
1.9633050151394713 4.76295
1.9856246367570705 3.65633
2.0079269371922672 4.21821
2.03024671027244 3.7942199999999997
2.0525491637446027 3.4268199999999998
2.074869091674931 4.09734
2.097171701569106 3.95939
2.1194917877373847 4.35313
2.141811954326636 4.8209599999999995
2.164114805233074 4.020580000000001
2.186435135143035 4.45715
2.208738150935709 5.34331
2.231058647554722 7.0297600000000005
2.2533792288321184 7.3404300000000005
2.275682498336085 5.5434
2.298003251406138 4.71726
2.3203066942619714 5.13936
2.3426276225136022 5.10166
2.3649486396617507 6.05322
2.387252348930071 5.8326400000000005
2.4095735463442893 6.05762
2.4318774374315884 6.12211
2.4541988185014043 6.37009
2.476502894794693 7.05542
2.498824462909887 7.120360000000001
2.521146125856138 7.17179
2.5434504863470337 7.477639999999999
2.5657723414244717 7.70713
2.588076895590662 8.22173
2.610398946189713 8.71164
2.6327210958598384 8.54679
2.6550259469304716 8.61777
2.6773482972090137 8.2044
2.6996533504259 8.75493
2.7219759047039602 8.63888
2.744298562293959 8.04781
2.7666039251246595 8.378260000000001
2.7889267918020164 8.241660000000001
2.8112323652516555 7.8124199999999995
2.833555444408179 8.65605
2.8558786311183852 8.85448
2.8781845268938557 8.96707
2.9005079311721484 9.367460000000001
2.9228140460410397 9.02844
2.9451376712799635 9.24057
2.967444008632326 9.88518
2.9897678582247247 10.0066
3.0120918213106695 10.3399
3.0343984987899373 10.1203
3.0567226913198637 10.8749
3.079029599759726 11.7069
3.101354025127254 12.1312
3.123678568232338 13.3876
3.145985829517914 13.387
3.16831061055229 13.5168
3.1906181112775593 14.296
3.212943133635653 15.1011
3.2352682779763207 14.732999999999999
3.2575761442691227 14.7614
3.2799015350264273 15.6024
3.302209649240067 16.0233
3.3245352898092655 15.9862
3.3468436553365257 16.5669
3.369169549113219 17.3456
3.3914955708171384 17.7455
3.413804319727358 18.3409
3.4361305997334863 18.1837
3.4584396084414553 19.011
3.4807661501462652 19.695999999999998
3.503092824025881 20.0313
3.5254022288463154 20.1213
3.5477291695206588 20.5395
3.5700388426251948 20.6992
3.5923660534916446 21.5242
3.6146934007816114 22.8758
3.637003482731501 27.9386
3.6593311053109985 30.9432
3.681641464033634 27.0161
3.7039693653009733 24.3853
3.726297407241705 24.1664
3.7486081875460804 24.2139
3.7709365132734978 24.6219
3.793247578841633 25.0724
3.8155761917550093 25.4207
3.8378875459837216 26.0592
3.8602164494827234 26.1695
3.882545499606844 26.7655
3.9048572932539183 27.9108
3.9271866390645718 27.5823
3.9494987298666713 28.2497
3.971828374764527 28.7081
3.9941581705403255 28.9804
4.016470713506008 29.5308
4.038800813471445 30.2354
4.061113662089144 30.5411
4.0834440696459176 31.3575
4.105774632334751 31.5992
4.128087945865126 32.1386
4.150418821249301 32.4403
4.172732448931298 33.4432
4.195063640413578 34.1458
4.2173775856475215 35.4775
4.239709096631102 37.7219
4.262040768704612 53.2303
4.284355196706267 66.1111
4.306687193387355 58.3914
4.329001947444346 44.3918
4.35133427213731 40.823
4.373666762177566 40.6865
4.395982011761091 40.8905
4.418314834921175 41.3622
4.44063041906622 42.8162
4.4629635787515625 44.7091
4.4852969080429785 45.5026
4.5076130004776225 45.9704
4.529946671403969 46.4703
4.552263106909177 46.3629
4.574597122877047 47.9158
4.596931312711224 49.2274
4.619248269273446 50.4001
4.6415828092605835 51.2255
4.663900117405352 52.3361
4.686235010953232 53.5848
4.708552674085913 54.733000000000004
4.730887924602802 56.3043
4.753223354952695 57.2498
4.775541557023902 58.5889
4.797877349456786 59.8221
4.820195915032126 62.3405
4.842532072957498 63.4733
4.864868414979744 65.6157
4.88718753227192 67.236
4.909524244902505 68.8101
4.931843734218147 70.702
4.954180820867835 73.4195
4.976518095879839 76.3525
4.998838149695359 79.0137
5.021175803844231 82.4724
5.043496238205739 84.656
5.065834274903528 87.9836
5.088172504230693 92.3734
5.1104935158799565 96.6667
5.132832132875765 104.559
5.155153533596801 116.382
5.1774925416746225 135.343
5.199814334878411 225.058
5.2221537374521505 734.028
5.244493338631803 2306.13
5.266815727034316 7029.42
5.289155727832427 13458.0
5.311478517248165 9762.65
5.333818921080011 3459.57
5.356159527788849 760.88
5.3784829252032536 238.192
5.400823940070432 153.039
5.423147747031976 125.831
5.445489173474152 114.12299999999999
5.467830807066149 107.823
5.490155234831516 103.94
5.512497285125229 101.07
5.534822130975162 99.3849
5.557164601388673 96.5549
5.579489868738879 93.538
5.601832762690846 92.20299999999999
5.6241758697774475 91.2639
5.646501775867269 90.3389
5.668845311622074 89.4707
5.691171647754637 88.84200000000001
5.713515615597765 87.7556
5.735859800852677 86.5191
5.758186788542988 85.74
5.780531411018185 86.0449
5.802858837297399 85.5912
5.825203900414495 85.4715
5.8475491852224 85.5944
5.869877275883075 86.2812
5.892223006467101 87.0895
5.914551544266608 88.0297
5.936897724049891 89.5256
5.959244129804903 93.5091
5.981573344815301 104.647
6.0039202049061 157.328
6.026249875609095 357.629
6.04859719346037 801.329
6.070927323278297 1947.02
6.093275102315365 4333.15
6.115623113320588 5729.36
6.137953938319995 3516.82
6.160302415650845 1055.91
6.182633708324452 245.30700000000002
6.2049826554078376 110.037
6.227331838745022 87.1296
6.249663839443684 79.6369
6.27201349767565 75.5356
6.294345974611799 73.8368
6.316696111167083 72.4932
6.339046488263839 71.3239
6.361379686074702 68.1196
6.383730546639482 65.98
6.406064229255215 63.9864
6.428415576718203 63.6297
6.450749747566656 62.8238
6.47310158535871 62.3331
6.495453669698332 61.2441
6.517788579421056 60.5315
6.540141159237969 59.6041
6.562476565766648 59.1242
6.5848296444934045 58.305
6.607182974060425 58.0423
6.6295191323281015 57.6083
6.651872965955752 56.9107
6.6742096296068985 58.0161
6.6965639707294615 63.0457
6.71891856698715 64.3239
6.741255995248479 60.1074
6.763611104154477 56.208999999999996
6.785949046381137 54.912
6.808304671371482 53.832
6.8306605557940046 53.8596
6.852999275508618 53.318999999999996
6.875355681171544 53.18
6.897694923437771 52.9128
6.92005185377892 52.6363
6.9423916220322655 52.7505
6.964749080490181 51.6865
6.987106804399774 52.1267
7.009447368180821 51.7933
7.031805625367033 51.5461
7.054146723727803 51.9095
7.076505517631004 51.6608
7.098864581288365 51.5596
7.121206488070854 51.5598
7.143566093607822 50.9575
7.165908543567245 51.2916
7.188268694426048 50.6628
7.2106291193438095 50.5204
7.232972390625943 51.1045
7.255333366030969 51.4122
7.277677189091925 55.7463
7.300038718428332 62.5024
7.322400526130865 62.0215
7.344745183422596 56.1871
7.367107550224791 52.2447
7.389452767901992 51.4763
7.411815697249891 51.5592
7.434161478756298 50.9343
7.456524974096713 51.2258
7.478888753837185 51.6413
7.501235387657368 53.6595
7.523599738562711 62.1459
7.545946944825532 77.7041
7.568311870344528 83.787
7.5906770845765665 72.3895
7.613025156078678 58.965
7.635390950099687 54.1572
7.657739602662809 52.6422
7.680105979923558 52.6137
7.702472650212829 52.6861
7.724822180948224 52.4825
7.747189439655568 52.6951
7.769539560075357 52.8927
7.791907410653562 53.6799
7.81425812420825 53.1457
7.836626570110925 53.4902
7.858995315087906 54.1172
7.881346924933401 54.1472
7.903716270417482 54.6006
7.926068482028405 54.9929
7.948438431475253 55.6159
7.9708086843180235 56.2889
7.993161805171116 56.6359
8.015532667162402 56.9588
8.037886398416653 58.1658
8.060257873014221 58.5451
8.082629655331942 58.9916
8.104984308787587 59.4492
8.127356708900503 60.2612
8.149711981398308 61.8665
8.172085002766314 62.8695
8.194458336181368 63.3522
8.216814543847752 63.8625
8.23918850371002 64.6806
8.26154533906492 65.7505
8.283919928836452 67.0576
8.306277395339652 68.4189
8.328652618483376 69.2601
8.351028159736202 71.2633
8.373386579575245 72.8067
8.395762759396959 74.2896
8.418121819038275 76.4322
8.440498640894003 80.0961
8.462875785192262 85.0665
8.485235811156207 92.9595
8.507613602688501 124.039
8.529974277114228 213.173
8.552352719347912 334.49699999999996
8.574731488360351 568.653
8.59709314210385 1048.48
8.619472567021075 1821.91
8.64183487789147 2293.09
8.664214962183097 2007.33
8.686577933647762 1110.64
8.708958680784317 441.014
8.731339760774953 182.729
8.753703729764451 110.5
8.77608547780821 94.6923
8.798450116065078 90.7065
8.820832535634787 87.6967
8.843215292401656 85.6825
8.865580941199045 84.4458
8.887964374703538 83.4596
8.910330701447199 82.8389
8.932714815164482 82.3048
8.955099270424924 81.58800000000001
8.977466620733543 80.8046
8.999851761421976 80.1244
9.022219798361645 79.5794
9.04460562795561 79.4981
9.066991803441677 78.9676
9.089360876979615 79.1834
9.111747746589993 78.7506
9.13411751544971 78.2273
9.156505082664324 78.4944
9.178875550323522 79.4059
9.20126381862328 83.1608
9.223652438908596 97.6565
9.246023961427412 122.17299999999999
9.26841328802173 131.20600000000002
9.290785518039224 116.24700000000001
9.313175554425882 94.6127
9.335565947154315 83.0495
9.357939245086508 80.2062
9.380330352834827 79.543
9.40270436697103 79.4224
9.425096193225055 78.9216
9.447488380180165 80.132
9.469863475295412 79.8463
9.492256385987508 79.9144
9.514632206018318 80.9372
9.537025843935714 80.827
9.559402392368193 81.1853
9.581796761000229 82.1499
9.604191496441521 82.6536
9.626569144158516 83.0432
9.648964615551032 84.4817
9.671343000390081 85.7089
9.693739211225699 86.2544
9.716135793237463 86.6734
9.738515290448102 87.1673
9.760912617143402 88.5213
9.783292860202891 89.0783
9.805690935076182 90.2208
9.828089385495742 91.1785
9.850470754023561 92.6871
9.872869957865444 94.6003
9.89525208097539 97.5161
9.917652041736662 101.365
9.940052382417589 104.866
9.962435644102392 113.242
9.984836746950979 141.476
10.007220771957746 211.988
10.029622640473708 316.73400000000004
10.052007432299963 468.70300000000003
10.074410069984072 723.6160000000001
10.096813093716005 1156.83
10.119199042482517 1725.65
10.141602840636468 2093.12
10.163989564971628 1703.2
10.186394141051062 1009.05
10.208799107559706 455.13199999999995
10.231187001965623 208.878
10.253592751657669 126.678
10.275981430388155 107.185
10.298387966769793 102.40700000000001
10.320794897965431 100.96799999999999
10.343184759907361 99.7219
10.36559248305461 97.8272
10.387983138083852 96.4719
10.410391656691655 97.1808
10.432800574501677 105.11399999999999
10.455192425893369 124.387
10.47760214443012 150.631
10.499994797678786 189.385
10.522405320453982 255.16299999999998
10.54479877906917 365.921
10.567210109595656 489.5
10.5896218454736 574.438
10.612016518879773 527.242
10.634429067781074 376.777
10.656824555333241 223.215
10.679237920773568 143.55100000000002
10.701651695961992 107.865
10.724048411481384 95.3771
10.746463008485165 87.46
10.768860546937125 82.6359
10.791275969274796 79.2483
10.81369180576079 77.9181
10.836090585366925 76.9791
10.858507252467449 75.7446
10.88090686379991 75.0636
10.903324365036394 73.9816
10.925724811614439 72.5104
10.948143150509463 72.593
10.970561909719066 71.6914
10.992963615930844 71.0858
11.015383218085756 69.9855
11.037785768347074 68.9664
11.06020621697282 68.4163
11.082627090322113 67.8556
11.105030913430326 67.6797
11.12745263854165 66.8205
11.149857314510728 66.3556
11.172279894912576 67.0891
11.194702904450653 66.5996
11.217108866490921 65.7491
11.239532736615194 65.0654
11.26193956033512 64.5706
11.284364294577085 64.0638
11.306789462371718 63.3932
11.329197585398376 62.835
11.351623622610898 62.8934
11.37403261614354 62.336999999999996
11.396459526308487 61.9578
11.418869393879497 61.8102
11.441297180532617 61.6417
11.463725406927658 61.1291
11.486136592353875 60.7515
11.508565700543707 60.46
11.530977768845315 60.6943
11.553407762368774 60.799
11.575838200059769 60.45
11.598251599479612 60.2127
11.620682927815501 60.0633
11.64309721895548 60.0177
11.665529441478206 59.4791
11.687962112597958 59.2154
11.710377748130886 59.3041
11.732811318753434 59.2769
11.755227854859067 59.2222
11.777662328529495 59.3694
11.800079768750786 59.2058
11.822515149015453 58.9977
11.844950984084935 59.7223
11.867369787303163 59.5303
11.889806534289491 60.0748
11.912226250487029 62.3695
11.934663912939751 67.3606
11.9571020346363 71.611
11.979523127133968 72.1677
12.001962169624331 69.0586
12.024384183972964 64.8534
12.046824150809913 64.0674
12.069264581333726 68.0898
12.091687985297767 73.9001
12.11412934550045 81.7853
12.136553680195208 94.5221
12.158995973632788 115.009
12.181438735204349 142.89
12.20386447284199 173.801
12.226308172985636 200.013
12.24873485024193 202.428
12.271179492516982 169.643
12.293607112949127 130.285
12.316052700916226 94.2255
12.338498763250042 72.6933
12.360927805303868 63.7853
12.383374818673879 61.4359
12.405804812803074 60.6072
12.428252780773262 60.7001
12.45070122756722 60.4671
12.473132656675375 60.4344
12.49558206341869 60.5345
12.518014453510101 60.5394
12.540464823770117 60.7023
12.562915677315177 60.6283
12.58534951575545 61.1854
12.607801338171472 61.0275
12.630236146511358 61.8853
12.652688941369085 62.8122
12.675124723177234 63.0287
12.697578494048786 63.6813
12.720032754458185 63.2083
12.742470003354093 63.1963
12.764925245138771 63.6525
12.787363476431278 63.8766
12.809819703166806 64.1185
12.83227642391173 64.936
12.854716135692716 65.4096
12.877173846755147 66.7753
12.899614549869717 66.8167
12.9220732548287 67.7848
12.94453245827299 68.3383
12.966974655289818 69.0775
12.989434858002571 69.9279
13.011878055298721 70.5141
13.034339260862497 71.4162
13.056800969391883 73.1464
13.079245674017244 76.1339
13.101708390774869 78.0734
13.12415410463411 81.9551
13.146617833206086 90.8547
13.169064559883248 103.40100000000001
13.191529303857127 118.875
13.213994557076367 138.702
13.236442809902437 169.457
13.258909083908291 217.929
13.28135835851934 282.518
13.30382565690295 359.339
13.326293469022952 424.12300000000005
13.348744283242008 440.42800000000005
13.371213125129904 376.81300000000005
13.39366497011003 279.76099999999997
13.416134845360597 185.736
13.438605238843131 127.7
13.46105863690397 101.53
13.483530069144786 97.1867
13.505984506951902 103.743
13.528456981549432 114.302
13.550929978879088 128.11700000000002
13.573385983253365 148.429
13.595860028340867 179.665
13.618317081455832 228.266
13.64079217790333 289.499
13.663250283359057 353.37300000000005
13.685726434770173 385.37300000000005
13.708203115221277 362.48800000000006
13.730662806148091 284.382
13.75314054697177 205.65599999999998
13.775601299246777 138.571
13.798080104050406 99.7089
13.820559442405358 84.0708
13.843021793671388 78.8173
13.865502201420897 76.5473
13.887965623051947 75.9733
13.910447103807167 75.0002
13.932929122629764 73.5841
13.955394156785959 73.4245
13.977877254034569 72.6395
14.000343367582113 71.8766
14.022827546871707 71.396
14.045294743423524 70.7578
14.06778000837062 70.233
14.090265817715476 70.428
14.112734645763819 71.6179
14.13522154619454 74.9358
14.157691466286913 78.05
14.180179461423874 78.4581
14.202668005486178 75.6541
14.22513957064374 71.8511
14.247629214846473 68.9195
14.270101881097517 67.5295
14.29259262906496 66.9392
14.315083930490205 66.6213
14.337558255389705 66.3537
14.360050666019726 66.407
14.382526101071944 66.154
14.405019624534942 65.6978
14.427513705993134 65.4987
14.449990813291825 65.4753
14.47248601302899 65.2856
14.49496423954951 65.3766
14.517460561197822 65.5354
14.539939910570322 65.4797
14.562437357763558 65.5517
14.58493536931253 65.782
14.607416409993311 65.8679
14.62991555254159 66.345
14.652397725157423 66.3044
14.674898002342799 66.361
14.697398848433282 66.2978
14.719882725991326 67.2868
14.74238471217934 67.7036
14.764869730765593 69.2649
14.787372860692983 73.1508
14.809876564079925 78.7061
14.83236330125751 84.9408
14.854868153850365 93.0316
14.877356041159485 104.587
14.899862046604186 119.999
14.922351087688757 143.10399999999998
14.944858249632887 175.02200000000002
14.967365991421232 205.014
14.989856770231246 226.424
15.012365673994204 224.893
15.03485761569738 199.03400000000002
15.05736768508665 158.55
15.07987833888692 123.601
15.102372032001655 94.4774
15.124883856909658 77.4142
15.14737872204565 70.9873
15.169891721717274 68.0601
15.192405310371893 67.3644
15.214901940621196 66.7057
15.237416709527137 65.6993
15.259914520936249 65.5873
15.282430473753607 64.9371
15.304947020131227 64.5193
15.327446610371178 64.0798
15.349964346154254 63.7651
15.372465126703139 63.597
15.394984055556009 63.3493
15.417486030076159 63.4346
15.44000615566487 62.9537
15.462526881230803 62.972
15.485030653812652 62.7477
15.507552581617434 62.5747
15.530057557334603 62.6702
15.55258069104857 62.913000000000004
15.575104429329837 62.8143
15.597611216864632 62.6051
15.620136166564563 62.6595
15.6426441664095 63.0323
15.665170331202765 64.26
15.687697105158826 67.2929
15.710206930593545 71.5982
15.732734925158933 76.4845
15.755245972089478 82.3814
15.77777519094324 90.1444
15.800287463046663 101.06
15.822817909869592 118.34899999999999
15.84534897229804 139.869
15.867863089299354 166.88299999999998
15.890395385222186 188.92700000000002
15.912910736597423 202.375
15.935444269699861 193.176
15.957978423016485 168.66299999999998
15.980495633101265 133.634
16.003031029129367 103.25
16.02554948280019 80.8956
16.048086125229432 69.6282
16.070623392487107 65.175
16.09314371869582 63.3257
16.11568223789321 61.3182
16.13820381691126 59.7491
16.160743591742527 58.6589
16.183283996022084 57.8345
16.205807461423195 56.8973
16.228349126881973 56.50899999999999
16.25087385432698 56.1829
16.27341678466365 55.6597
16.29594277784926 55.2064
16.31848697676433 54.919
16.341031811604868 54.534
16.36355971058487 54.5632
16.3861058195587 54.4366
16.40863499352978 53.5227
16.431182380342005 53.5699
16.453730407713202 53.3084
16.476261501364792 52.9976
16.498810812136167 52.8326
16.52134319004079 52.9264
16.54389378792203 52.644
16.566445031001553 52.7067
16.588979342490088 52.3174
16.61153187824822 52.4759
16.634067483263312 52.3929
16.656621315414416 52.3569
16.679175797408888 52.0477
16.701713349928728 52.0518
16.72426913389191 52.0674
16.74680798922351 51.9596
16.76936507887444 51.891999999999996
16.791905240734874 52.0404
16.814463639794468 52.0071
16.837022695210294 52.1037
16.859564824093756 52.2764
16.882125194503903 52.6753
16.904668639217885 53.0766
16.927230328348003 53.5267
16.949792678493612 54.1045
16.972338104193863 54.0847
16.994901778652235 53.595
17.017448529496576 53.4407
17.040013531998152 53.3114
17.06257920018044 53.3703
17.0851279459922 54.0898
17.107694947817667 55.0135
17.130245028099072 55.9441
17.15281336730298 57.2763
17.17536478578733 58.7076
17.19793446610687 60.6658
17.220504818648422 63.3104
17.243058251703697 66.7892
17.265629950971032 70.9976
17.288184731571736 76.8409
17.310757781306908 81.1539
17.33333150794385 83.052
17.355888317140174 81.867
17.37846339986244 77.4014
17.401021565958885 71.2276
17.42359800851343 64.8444
17.44617513265564 60.6295
17.468735341390783 58.2723
17.491261035594565 56.7577
17.51396340099364 56.2239
17.536490463869136 56.528999999999996
17.559018209820174 56.386
17.58154663977963 56.4422
17.604251766089718 56.8188
17.626781572227713 56.9961
17.64931206518155 57.0056
17.671843245885103 57.5405
17.69455114821572 57.8347
17.717083712612634 58.1211
17.739616967569667 58.6916
17.762150914021706 59.4486
17.78486160749854 59.5992
17.807396945166804 60.248999999999995
17.829932977143503 60.5152
17.85246970436452 61.1161
17.875183204129467 62.6111
17.897721330097664 64.9771
17.920260154126645 67.6976
17.942799677153296 70.689
17.9655159983646 74.1119
17.988056927677544 78.7841
18.010598558807683 85.6313
18.033140892692916 94.3956
18.05586005052525 105.99700000000001
18.07840379824407 118.661
18.10094825154059 130.809
18.12366954819864 140.627
18.146215420998306 143.721
18.16876200220057 137.00799999999998
18.191309292745153 123.348
18.214033452627167 108.28399999999999
18.236582170236648 94.7594
18.259131600016456 86.9076
18.281681742907335 84.4807
18.304408781233683 87.3087
18.32696035875955 92.8305
18.349512652227624 97.8585
18.372065662579683 103.932
18.394795594587553 105.587
18.41735004715306 104.05799999999999
18.43990521943684 97.9507
18.46246111238171 88.9497
18.485193953325208 78.5737
18.507751296070428 70.6006
18.530309362314178 65.7353
18.552868153000343 62.831
18.57560391815056 61.137
18.59816416623245 60.4883
18.620725141597372 59.661
18.643286845190268 58.9278
18.666025549835414 58.1509
18.688588718427933 57.5775
18.711152618092243 57.299
18.73389353884365 57.1308
18.75645890921984 56.63399999999999
18.77902501351406 56.3988
18.801591852673102 56.262
18.824335739722738 55.725
18.846904057212626 55.7078
18.8694731124168 55.2526
18.89204290628315 55.3778
18.914789774966803 55.2099
18.937361054791623 54.9005
18.959933076131318 54.795
18.982505839934877 54.6833
19.00525570560582 54.6186
19.027829963004184 54.4172
19.05040496572238 54.3841
19.072980714710468 54.4295
19.095733592739563 54.4589
19.11831084296757 54.5301
19.140888842324735 55.1544
19.16346759176222 55.4195
19.18622349753803 56.0202
19.208803755869358 57.0236
19.231384767143577 58.1797
19.253966532312948 59.2445
19.276725481241822 61.535
19.29930876296784 64.6579
19.3218928014549 68.2137
19.34465404436217 71.8171
19.36723960516257 74.7109
19.389825925592426 75.9552
19.412413006605938 75.0264
19.43517731967805 72.0669
19.457765930683355 67.5848
19.48035530514408 62.8773
19.50294544401556 59.0761
19.525712842708348 55.6822
19.54830451925909 53.746
19.570896963095727 52.5282
19.593490175174704 51.8169
19.616260674962184 51.6669
19.638855432416964 51.5052
19.661450960992624 51.5898
19.68404726164677 51.3784
19.706820878021247 51.2014
19.729418731756834 51.4875
19.752017360452857 51.0716
19.77461676506804 51.3533
19.797393513540218 51.2988
19.819994478951667 51.424
19.84259622316767 52.1549
19.8651987471481 52.5081
19.887978643247177 52.8054
19.91058273574792 53.0608
19.933187610901943 54.053000000000004
19.955969879466828 55.0207
19.97857632894404 56.3086
20.00118356396599 57.8881
20.023791585494575 59.9268
20.046577028914875 62.8622
20.069186632506966 65.5859
20.091797025500632 68.1773
20.114408208858933 69.4636
20.137196842715273 69.8397
20.159809615886765 68.3691
20.18242318232135 65.6211
20.20503754298326 63.2715
20.227829382875154 61.3919
20.250445341109344 60.8023
20.27306209647285 61.3036
20.29567964993108 62.6608
20.31847471147704 63.6283
20.34109387027612 64.7616
20.363713830075454 64.5949
20.386334591841646 63.4779
20.409132890679302 61.1774
20.431755265564437 57.6707
20.454378445325528 54.931999999999995
20.477002430930366 52.4523
20.499803982716553 50.5954
20.522429589228004 49.2522
20.54505600449589 48.9734
20.567683229489194 48.6543
20.590488049900088 48.4895
20.61311690359731 48.2131
20.63574656993626 48.2506
20.658553853717297 47.7931
20.681185154618298 47.7126
20.703817271080066 47.7208
20.72645020407368 47.4362
20.749260783967177 47.5664
20.771895359337133 47.7042
20.794530754161617 47.8812
20.817166969412938 47.5802
20.83998086114876 47.391999999999996
20.86261872660049 47.1245
20.885257415405402 46.7925
20.90789692853701 46.7781
20.930714147864748 46.7521
20.953355319030678 46.8627
20.97599731745334 46.8675
20.99864014410749 46.6293
21.021460706796564 46.6453
21.044105199328826 46.8917
21.06675052302631 46.9893
21.089396678865015 47.114
21.112220600704806 47.3974
21.134868430275347 47.8245
21.15751709492456 47.9342
21.180166595629693 48.3003
21.202993892429635 48.8023
21.22564507473034 49.3039
21.24829709602816 49.645
21.27112693608965 49.9393
21.293780644891275 50.1281
21.316435195634053 49.4028
21.339090589297417 48.7275
21.361923832041875 48.0897
21.384580921090404 47.3871
21.407238856007325 46.7284
21.429897637773326 46.7835
21.45273429906592 46.641000000000005
21.475394784108598 46.6907
21.498056118951983 46.528
21.520718304578022 46.7635
21.543558400304388 46.8903
21.566222297108816 46.8323
21.58888704765135 46.8698
21.61155265291521 47.1569
21.63439619898156 47.7781
21.657063523335786 48.2302
21.67973170537063 48.6706
21.7024007460706 49.1179
21.72524775840385 49.8035
21.747918526116475 50.7561
21.770590155457388 51.8046
21.79326264741238 53.0486
21.816113141960237 54.9528
21.838787368860547 57.0628
21.861462461341976 59.2561
21.884315579735777 61.7919
21.90699241312273 63.6453
21.92967011506078 64.3623
21.95234868653799 64.3891
21.9752053151131 63.4936
21.997885635446785 61.3545
22.020566828293532 59.167
22.04324889464272 57.2353
22.066109049404666 55.8465
22.088792872571794 55.4431
22.111477572219204 55.4067
22.1341631493376 55.6053
22.157026846313123 55.8137
22.179714188221507 55.0393
22.202402410582668 53.8477
22.22509151438863 52.2421
22.24795876962584 50.6631
22.270649646204486 49.498999999999995
22.293341407213727 48.6549
22.316034053646906 47.9059
22.338904883215342 47.4932
22.36159931041458 47.3219
22.38429462602756 47.2999
22.40699083104897 46.6919
22.429865251039757 46.7372
22.452563244831367 46.7626
22.47526213102522 46.9199
22.49813925616515 46.9297
22.520839937143307 46.88399999999999
22.543541513520587 46.8373
22.56624398629403 46.7699
22.589124730075895 46.6402
22.611829005656723 46.843999999999994
22.63453418063466 46.7568
22.657240256008077 46.9687
22.680124634582935 47.2816
22.70283252079775 47.6596
22.725541310413075 47.9291
22.74825100442868 48.0775
22.771139033969575 48.6102
22.79385054687155 48.8606
22.81656296718292 49.3437
22.83927629590484 50.195
22.862167992606945 51.1573
22.88488314827121 52.3767
22.907599215359284 53.5967
22.93031619487366 54.9308
22.953211574954405 56.2668
22.975930389478226 56.9977
22.998650119445763 57.4359
23.02137076586092 56.9622
23.044269845560063 55.8045
23.06699233506288 54.0656
23.089715744034912 52.2605
23.112617610931565 50.5352
23.135342869061212 49.0699
23.158069049684816 48.0043
23.1807961538087 47.5439
23.20370174880544 47.2009
23.226430710184808 47.1832
23.249160598093425 47.1704
23.271891413539002 47.0987
23.294800752937697 47.2958
23.31753343374794 47.5967
23.340267045128353 47.8411
23.36300158808808 48.1504
23.38591468821339 48.4862
23.408651104658304 49.0099
23.431388455719986 49.5203
23.454126742409 50.2479
23.4770436196085 51.2635
23.499783787914662 52.5967
23.522524894889884 53.6535
23.54526694154616 55.2129
23.56818761219047 56.4346
23.59093154860734 57.3745
23.613676427751283 57.9186
23.636422250635754 57.4475
23.659346731118656 56.0192
23.68209445191868 53.9385
23.704843119509587 51.698
23.72759273490623 49.5768
23.750521041644767 47.7808
23.77327256312355 46.3426
23.796025035462787 45.4141
23.818956224555475 44.6264
23.841710609113413 44.5795
23.86446594758979 44.3687
23.887222241002014 44.1739
23.910157285144578 43.7198
23.932915498962537 43.8632
23.955674670778713 43.6819
23.978434801611975 43.5325
24.001373717286125 43.3292
24.024135776723917 43.2322
24.046898798245582 42.8871
24.06966278287146 42.9965
24.092605586582614 42.9283
24.115371508023642 42.7478
24.1381383956401 42.4696
24.16090625045381 42.4212
24.183852958731244 42.4112
24.206622758582608 42.2512
24.229393528706886 42.1376
24.252165270127392 42.0829
24.27511589952438 42.0853
24.297889594216997 41.9515
24.32066426328598 41.7148
24.34343990775613 41.8555
24.36639447485003 41.6906
24.38917208083877 41.7669
24.41195066531332 41.568999999999996
24.43490819850244 41.6251
24.457688750692377 41.4867
24.48047028445616 41.4339
24.503252800821233 41.5675
24.526214300784112 41.6204
24.548998793132213 41.6254
24.57178427117417 41.6631
24.59457073593893 41.637
24.617536219319863 41.548
24.64032466834748 41.7146
24.663114107195035 41.56
24.685904536893013 41.3789
24.708874020360852 41.1546
24.731666442613744 41.0889
24.754459858818787 41.0055
24.777254270007962 40.8835
24.80022777025625 40.7138
24.82302418230472 40.7143
24.845821592443674 40.8483
24.86862000170663 40.8132
24.891597535453727 40.6683
24.914397953892728 40.8511
24.93719937456671 40.6998
24.96000179851076 40.8495
24.98298338249997 41.1742
25.00578782394922 41.3113
25.028593271784167 41.2838
25.05157790644186 41.8655
25.07438537804115 41.9298
25.097193859145293 42.2602
25.120003350792075 42.6865
25.142992065061257 43.0378
25.165803588823465 43.3283
25.18861612625217 43.5728
25.211429678386736 43.6177
25.234422489079968 43.7866
25.257238081693636 43.8021
25.280054692141732 43.9751
25.3028723214652 43.9601
25.325869245420463 44.1318
25.348688923599397 44.2569
25.371509623787006 44.1361
25.394331347025812 43.9775
25.41733240110666 43.4831
25.440156181590016 42.7284
25.46298098826268 42.3154
25.48580682216873 41.5704
25.50881202326435 40.9135
25.53163992281684 40.3223
25.55446885274561 40.1025
25.577298814096377 39.7564
25.600308179121807 39.5182
25.623140214533745 39.536
25.64597328451537 39.4983
25.66898578564376 39.0265
25.691820936010206 39.189
25.714657124097695 39.2063
25.737494350954734 39.1669
25.760511045684957 39.2246
25.783350361364224 39.3387
25.806190718969255 39.3094
25.82903211955018 39.3211
25.852053024868923 39.3546
25.874896522722523 39.382
25.897741066713106 39.315
25.920586657892454 39.359
25.943611790812668 39.4256
25.966459487728237 39.5821
25.989308234998564 39.6073
26.01215803367705 40.0045
26.03518741123814 40.2223
26.05803932412957 40.5228
26.080892291600094 40.384
26.10374631470478 40.6067
26.12677995397268 40.8578
26.14963609978026 40.9356
26.172493304397875 40.6539
26.19535156888223 40.3523
26.218389486949604 39.8034
26.241249882640123 39.3862
26.26411134137826 39.2546
26.28715248187403 39.1468
26.31001607820869 39.018
26.3328807407756 38.7835
26.35574647063438 38.8858
26.37879191991473 38.7746
26.401659795896734 38.9328
26.424528742360263 39.0208
26.447398760366614 39.1803
26.470448535598294 39.4109
26.49332070826805 39.5417
26.516193955675355 39.7068
26.53906827888316 40.0729
26.562122397260108 40.2965
26.584998883685063 40.804
26.607876449110325 40.9703
26.63075509460056 41.1771
26.65381357334404 41.3208
26.67669439061878 41.3504
26.699576291163382 41.3215
26.722459276044212 41.3782
26.745522132402975 41.0411
26.768407297649354 40.7231
26.791293550442003 40.3274
26.814180891848974 40.1347
26.837248143099337 39.784
26.860137673466657 39.5923
26.88302829566349 39.3372
26.90592001075963 39.2801
26.92899167420566 39.128
26.951885586870763 38.6302
26.974780595655517 38.4924
26.99785558178161 38.3105
27.020752794605112 38.0495
27.043651106772522 37.7966
27.06655051935668 37.8276
27.089629948036183 37.6555
27.112531573292053 37.7339
27.135434302194138 37.6076
27.158338135817015 37.4683
27.181422024430987 37.4712
27.204328079372566 37.3237
27.22723524226965 37.3626
27.250143514198573 37.493
27.273231880156334 37.2897
27.296142382065014 37.3522
27.319053996245536 37.2078
27.341966723775965 37.2497
27.365059584515222 37.3773
27.38797455070062 37.4254
27.410890633481237 37.31
27.433807833936918 37.3859
27.456905206923906 37.4896
27.47982465472398 37.5094
27.502745223449743 37.6339
27.525666914182825 37.6492
27.548768816912457 37.5299
27.571692763693633 37.4593
27.59461783573812 37.4716
27.617723149491244 37.304
27.640650484125285 37.2607
27.66357894728264 37.0876
27.686508540048052 37.0998
27.709618414237887 36.9509
27.732550278321757 36.8304
27.755483275279115 36.7563
27.778417406196485 36.8228
27.801531858397514 36.7824
27.824468269376716 36.7199
27.847405817586786 36.7184
27.870344504116094 36.8789
27.893463551932008 37.1234
27.916404527281053 37.3032
27.93934664422563 37.3873
27.962289903855886 37.5751
27.98541356491974 37.8769
28.00835912214229 37.8986
28.03130582533231 38.0944
28.054253675581805 38.4044
28.077381967556104 38.4276
28.100332124185126 38.4759
28.123283431160893 38.3535
28.146235889577238 38.2146
28.169368830154156 38.1507
28.192323603752033 37.9199
28.215279532083304 37.6588
28.238415973016764 37.3666
28.261374223145094 37.2092
28.284333631303806 36.9444
28.307294198589954 36.7768
28.330435319167677 36.3662
28.353398217078915 36.1536
28.376362277420153 35.8962
28.39932750129032 35.6482
28.422473319286713 35.388000000000005
28.44544088262495 35.3584
28.468409612800283 35.2241
28.491379510913497 35.03
28.51453004413313 34.8744
28.53750229057244 34.9101
28.56047570826344 34.9077
28.583450298308804 34.8994
28.606605564586562 34.6461
28.629582511831156 34.8167
28.65256063474956 34.616
28.675539934446338 34.5804
28.698699951647605 34.5719
28.72168161743193 34.5707
28.74466446331978 34.574
28.767648490417624 34.489000000000004
28.790813276438353 34.4733
28.813799678527303 34.493
28.836787265157085 34.3566
28.859955641890075 34.4153
28.882945610203045 34.4685
28.905936766392035 34.306
28.928929111566863 34.3607
28.952102288520145 34.3347
28.975097024308607 34.097
28.998092952423807 34.0781
29.021090073977508 34.04
29.04426806913204 33.8417
29.067267590245258 33.7125
29.090268308143695 33.6645
29.11327022394099 33.6025
29.13645305530891 33.5342
29.159457379627167 33.5028
29.18246290519685 33.3266
29.20546963313352 33.2896
29.22865731875826 33.3795
29.25166646419296 33.3052
29.27467681535305 33.1511
29.29768837335608 33.309
29.320880931312562 33.3694
29.34389491580634 33.3421
29.366910110507334 33.178000000000004
29.38992651653503 33.3366
29.41312396492981 33.2389
29.436142806456754 33.3704
29.45916286268059 33.2235
29.48236399319994 33.135
29.50538649169417 32.9273
29.528410208259935 32.8544
29.55143514402014 32.68
29.574641196749695 32.5722
29.597668583816574 32.3685
29.6206971934585 32.185
29.64372702680042 32.2854
29.666938019934474 32.1358
29.689970313635285 32.001999999999995
29.713003834422636 32.0562
29.73603858342347 32.0213
29.759254535188578 31.8898
29.78229175361658 31.8737
29.80533020365064 31.8854
29.82836988641968 31.8708
29.85159081507472 31.7679
29.874632976355343 31.7252
29.89767637376955 31.8302
29.920721008448314 31.6756
29.9439469322847 31.6182
29.96699405457564 31.5113
29.9900424175358 31.6905
30.013092022298157 31.5466
30.03632295963995 31.4918
30.059375061131373 31.5355
30.08242840783577 31.5684
30.105483000888153 31.5714
30.128718970092244 31.4796
30.151776069006917 31.5065
30.17483441768648 31.5071
30.198074175317235 31.447
30.221135036724256 31.4792
30.24419715131772 31.412
30.267260520236203 31.4011
30.290505341942243 31.4907
30.313571232750228 31.5105
30.336638381310948 31.3155
30.35970678876503 31.3508
30.38295669299435 31.2342
30.40602763151657 31.3011
30.429099832366074 31.2913
30.452173296685572 31.1326
30.47542830191959 31.1008
30.498504306502497 31.1533
30.521581577995562 31.1905
30.544660117543582 31.228
30.56792024229725 31.2826
30.59100133132069 31.3596
30.614083691845494 31.3274
30.637167325018545 31.427
30.660432587840603 31.5302
30.683518779717886 31.4549
30.70660624769615 31.3995
30.729694992924372 31.358
30.75296541239743 31.3669
30.77605672557558 31.4172
30.799149319462742 31.4094
30.8224236211637 31.2463
30.845518789950724 31.0759
30.868615242910597 31.0054
30.891712981195973 30.9319
30.91499247215866 30.8822
30.938092794619365 30.9319
30.96119440587579 30.7297
30.984297307082752 30.5441
31.00758200598383 30.3931
31.030687500658694 30.4661
31.053794288760695 30.4926
31.076902371446767 30.2026
31.100192296997445 30.3274
31.12330298246119 30.1667
31.14641496599209 30.148000000000003
31.169528248749216 30.1068
31.19282341969534 30.1011
31.215939314557186 30.1097
31.239056512134788 30.1601
31.262175013589378 30.1086
31.28547544871168 30.0047
31.30859657161541 30.1073
31.331719001892175 30.0079
31.35484274070538 30.1415
31.378148458819545 30.1471
31.401274828443725 30.0231
31.424402510106933 30.0842
31.447712205419993 30.1967
31.470842524931633 29.9768
31.493974159989783 30.0793
31.51710711176168 30.141
31.54042212308802 30.0625
31.563557722100917 30.1142
31.586694641341655 29.8687
31.609832881979628 29.7542
31.63315322823208 29.7677
31.656294125521327 29.6229
31.679436347728515 29.5565
31.70257989602529 29.5172
31.725905596152327 29.4159
31.74905181052835 29.3244
31.772199354521323 29.3359
31.79534822930507 29.4077
31.818679302290967 29.3818
31.84183085259981 29.373
31.864983737233473 29.357
31.88813795736804 29.3131
31.911474422233013 29.2343
31.934631327356435 29.3697
31.9577895715215 29.369
31.980949155906522 29.3608
32.004291031706956 29.3181
32.027453310562606 29.1554
32.05061693318573 29.0769
32.07396288236386 29.1156
32.09712920658542 29.1084
32.12029687812702 28.8774
32.14346589817093 28.8251
32.166817291729984 28.7807
32.18998902288583 28.6648
32.21316210610336 28.6068
32.23633654256711 28.5363
32.259693399663725 28.5341
32.282870556771144 28.4148
32.30604907069099 28.4234
32.329228942610065 28.3238
32.35259128243769 28.1673
32.375773884550505 28.1275
32.398957848235646 28.1293
32.422143174682176 28.0913
32.445511016471215 28.0644
32.468699082679954 27.9489
32.49188851523011 27.9163
32.51507931531304 27.8032
32.538452678331 27.9418
32.56164622776311 27.7999
32.58484114831493 27.6574
32.60803744118015 27.6257
32.631416344731896 27.7858
32.654615396551876 27.7501
32.67781582427913 27.621
32.701198898634416 27.5223
32.72440209253756 27.6002
32.747606665947124 27.5193
32.77081262006088 27.4056
32.79420126883317 27.4272
32.81740999876112 27.4122
32.840620112999424 27.2966
32.86383161274818 27.294
32.88722585534586 27.3144
32.91044014056596 27.271
32.933655814909734 27.2351
32.95687287957963 27.3823
32.98027273544904 27.2503
33.00349259526636 27.1494
33.026713849030116 27.1836
33.04993649794511 27.0256
33.073341986570746 27.0411
33.09656744032826 27.0756
33.11979429286444 27.075
33.14302254538647 27.1772
33.166433686291185 27.0248
33.18966475336992 27.0494
33.212897224069096 27.0244
33.23613109959831 26.9183
33.259547912343415 26.8793
33.2827846121627 26.8509
33.306022720453775 26.8034
33.32926223842861 26.7148
33.352684742614166 26.7199
33.37592709463173 26.6871
33.399170859982064 26.5751
33.422597648419426 26.5373
33.44584425514446 26.4405
33.46909227885668 26.4642
33.4923417207723 26.3294
33.51577423505344 26.3136
33.539026528130385 26.2932
33.56228024307245 26.2722
33.585535381098246 26.0336
33.60897364093058 25.9949
33.63223163992385 26.0647
33.6554910656699 25.9391
33.678751919389796 25.8677
33.702195944520106 25.8507
33.72545966903325 25.88
33.74872482519663 25.8238
33.771991414233746 25.8133
33.79544122444841 25.8073
33.81871069412428 25.6527
33.84198160035767 25.6727
33.86525394437455 25.6004
33.88870955949969 25.6362
33.911984794020626 25.6019
33.93526147001624 25.5208
33.958539588715006 25.5064
33.98200102861669 25.5093
34.0052820477047 25.4175
34.02856451319451 25.3635
34.05203033759056 25.1956
34.07531571090147 25.2359
34.09860253431845 25.2173
34.121890809074316 25.1806
34.145362493118924 25.2099
34.16865368561615 25.0615
34.191946333164054 25.0435
34.21524043699793 25.0578
34.23871800066799 25.0101
34.26201503218366 25.015
34.28531352370466 24.9651
34.30861347646881 24.8582
34.33209693978188 24.8546
34.3553998301885 24.8575
34.378704185565205 24.7662
34.402010007152356 24.73
34.42549939016683 24.6089
34.44880815937748 24.5719
34.472118398533134 24.5704
34.49543010887669 24.6165
34.51892543169198 24.4263
34.54224009966052 24.4495
34.56555624255917 24.4508
34.58887386163339 24.3322
34.61237514439016 24.299
34.6356957311114 24.3016
34.65901779775809 24.1853
34.68252356662995 24.2192
34.705848608458616 24.1826
34.72917513396849 24.2397
34.75250314440949 24.0797
34.77601490857862 24.0163
34.799345904259795 23.9736
34.82267838863559 24.0091
34.846012362958525 23.9134
34.869530142679984 23.9246
34.89286711232212 23.9656
34.91620557568269 23.9379
34.93954553401677 23.8889
34.9630693495876 23.8261
34.986412313340814 23.7667
35.00975677584668 23.7324
35.033102738362956 23.6335
35.05663261012228 23.6662
35.0799815881786 23.7176
35.10333207003229 23.7244
35.12668405694369 23.6622
35.150220005273056 23.5811
35.17357501786656 23.5547
35.19693153931268 23.5326
35.220289570874385 23.3821
35.24383161619786 23.5307
35.267192683604904 23.5334
35.290555264930376 23.4659
35.314101899412165 23.5063
35.33746752422433 23.4385
35.36083466676374 23.3959
35.38420332829803 23.3145
35.407756095629054 23.4102
35.43112781085063 23.391
35.45450104888391 23.3592
35.477875810999194 23.4031
35.50143473172161 23.273000000000003
35.52481255774625 23.276
35.54819191167777 23.2529
35.57157279478914 23.2233
35.595137889488406 23.1902
35.61852184675279 23.1811
35.641907337029984 23.0194
35.665294361595684 23.0564
35.68886565090076 22.9678
35.7122557598848 22.9394
35.73564740699838 22.9376
35.759040593519934 22.8352
35.78261809810353 22.8238
35.80601437933051 22.7314
35.829412203814705 22.7206
35.85281157283719 22.5894
35.876395313415884 22.752
35.8997977874528 22.6432
35.92320180988546 22.5489
35.946790244133936 22.5125
35.97019737933222 22.4957
35.993606066789866 22.5
36.01701630779276 22.4442
36.04061101440684 22.415
36.06402437852291 22.4048
36.08743930005611 22.4037
36.1108557802951 22.2515
36.13445678011326 22.3214
36.15787639383515 22.2557
36.18129757014299 22.2181
36.20472031032821 22.1251
36.22832762423364 22.1053
36.25175350829375 22.1805
36.275180960119776 22.0374
36.298609981005924 22.1912
36.32222362992669 22.0982
36.34565580510207 22.03
36.36908955323448 22.0136
36.39252487562093 21.8514
36.416144880530226 21.8582
36.43958336764275 21.8836
36.463023432914625 21.8205
36.486465077645676 21.7573
36.51009145956204 21.8279
36.53353627947859 21.8015
36.55698268276811 21.7853
36.58043067073321 21.679000000000002
36.60406345072071 21.6452
36.62751462435344 21.6478
36.65096738658405 21.6111
36.67460498210655 21.5917
36.69806093788647 21.5846
36.72151848619297 21.4162
36.744977628333636 21.4817
36.76862165890998 21.3937
36.79208400512205 21.3778
36.81554794910557 21.3521
36.83901349217101 21.2969
36.862663978991606 21.256
36.88613273667352 21.2471
36.90960309738324 21.2012
36.933075062434064 21.1134
36.95673202673572 21.0996
36.98020721697122 21.0703
37.003684015502365 21.0366
37.027162423645365 20.9758
37.050825886711465 20.9696
37.07430753063053 20.9956
37.09779078812467 20.9925
37.121275660513014 20.9645
37.144945643673694 20.9057
37.16843376245278 20.8147
37.19192350009803 20.8058
37.215414857931435 20.7122
37.239091382563885 20.6702
37.262585997426164 20.6786
37.28608223645736 20.6681
37.309763684451696 20.697
37.33326318851098 20.6294
37.356764320726555 20.5937
37.380267082425526 20.5545
37.40395510942588 20.5539
37.42746114683234 20.4354
37.45096881771841 20.3579
37.474478123414166 20.4747
37.49817275092816 20.3754
37.52168534303452 20.3246
37.54519957395567 20.2614
37.568715445024665 20.3115
37.592416694607714 20.2165
37.61593586281424 20.2858
37.63945667518264 20.25
37.66297913304891 20.1628
37.68668702630454 20.1333
37.710212792059274 20.0744
37.733740207334854 20.1083
37.757269273470364 20.0222
37.780983832050374 20.0178
37.80451621684926 20.0488
37.82805025654007 19.9106
37.851585952464795 19.8739
37.8753071980695 19.8543
37.89884622345676 19.81
37.92238690911902 19.727
37.94611318753442 19.7407
37.969657210779765 19.7293
37.99320289834801 19.7322
38.016750251586465 19.6641
38.04048325513017 19.6168
38.06403395679343 19.5536
38.087586328183946 19.605
38.11114037065203 19.5969
38.13488012115898 19.5297
38.1584375229181 19.5039
38.181996599821 19.4365
38.205557353221124 19.4539
38.229303872575656 19.3373
38.2528679961576 19.3252
38.27643380031219 19.2808
38.30000128639589 19.2872
38.32375459653193 19.2933
38.34732546371299 19.2526
38.37089801690786 19.2213
38.39447225747609 19.1684
38.418232380377425 19.1545
38.441810012983396 19.1655
38.46538933705673 19.1009
38.488970353960084 19.0576
38.51273731166058 19.0285
38.536321731567014 19.0304
38.55990784840681 18.9925
38.58367995004091 18.945999999999998
38.60726947812959 18.8922
38.63086070726198 18.9263
38.654453638806274 18.8588
38.678232613930824 18.7658
38.70182896773327 18.695999999999998
38.72542702806741 18.7418
38.7490267963045 18.7535
38.77281266709232 18.7441
38.79641586862214 18.7145
38.8200207821842 18.6081
38.843627409152944 18.5627
38.86742019782782 18.508
38.891030269149255 18.5053
38.914642058016156 18.5631
38.938255565806124 18.4567
38.96205529464307 18.4669
38.98567225787121 18.4413
39.00929094417078 18.4458
39.03291135492255 18.4002
39.05671804624804 18.3331
39.080341923549106 18.3522
39.103967529460334 18.254
39.127594865365744 18.2392
39.15140854155791 18.2045
39.17503935514948 18.1612
39.19867190290282 18.1229
39.22249083587951 18.1752
39.24612686969409 18.1354
39.269764641845306 18.0772
39.293404153722804 18.1202
39.317230110864074 18.0202
39.34087311998506 17.9651
39.36451787301696 17.9555
39.388164371352595 17.886
39.41199737518003 17.8965
39.43564738196752 17.8841
39.45929913825317 17.8438
39.48295264543308 17.7872
39.506792718520884 17.767
39.530449745387216 17.7385
39.55410852735203 17.7232
39.57776906581474 17.79
39.60161623079 17.7093
39.625280300200025 17.6896
39.64894613032202 17.6451
39.67261372255866 17.6058
39.6964680021016 17.5651
39.72013913657293 17.5881
39.74381203738292 17.5846
39.76748670593756 17.5573
39.79134812278169 17.4974
39.81502634488497 17.4603
39.83870633896685 17.4324
39.862388106436654 17.3728
39.88625668336918 17.4164
39.90994201572829 17.3557
39.933629125719285 17.3333
39.957503091207826 17.2811
39.9811937746168 17.2212
40.00488623990914 17.221
40.02858048850006 17.2067
40.05246165409549 17.1453
40.076159487492085 17.1385
40.099859108448875 17.133
40.123560518384345 17.0292
40.1474489070226 17.0771
40.171153913178564 16.996
40.194860712584955 17.0152
40.2185693066637 16.986
40.242464941335314 16.9474
40.26617714307655 16.894000000000002
40.289891143772046 16.8943
40.3136069448471 16.8757
40.33750984859743 16.8293
40.3612292688043 16.8533
40.3849504936829 16.7967
40.40867352466194 16.7497
40.43258372059144 16.7913
40.45631038219906 16.7732
40.48003885420956 16.6979
40.503769138055105 16.725
40.52768664931955 16.6516
40.55142057531802 16.6101
40.57515631746428 16.5965
40.599079334038514 16.5462
40.62281872700477 16.4955
40.64655994043941 16.4878
40.67030297578061 16.4755
40.69423334835778 16.438
40.71798004609188 16.4529
40.74172857006355 16.3766
40.76547892171441 16.425
40.7894166736039 16.3671
40.813170699248566 16.3273
40.83692655691388 16.2902
40.86068424804498 16.2885
40.884629402612525 16.2585
40.908390779366385 16.2419
40.932153993938 16.2169
40.95591904777605 16.1445
40.979871628443995 16.1361
41.003640379561936 16.1112
41.02741097430883 16.1351
41.05118341413683 16.1
41.075143444384416 16.0268
41.098919593177826 16.0535
41.1226975914255 16.0104
41.14647744058318 15.9208
41.170444943946755 15.9453
41.19422851378379 15.9174
41.218013938914645 15.8716
41.24198706625173 15.770999999999999
41.26577622087193 15.8085
41.289567235177785 15.7975
41.31336011063129 15.7533
41.337340752422875 15.7379
41.361137369129835 15.7116
41.38493585138705 15.6843
41.40873620066004 15.6571
41.43272438060107 15.6505
41.45652848292052 15.5799
41.48033445666918 15.5853
41.50414230331616 15.5301
41.528138045159764 15.4713
41.551949656675205 15.5082
41.575763145513235 15.475999999999999
41.59957851314666 15.4645
41.62358184070442 15.4082
41.64740098505737 15.4139
41.6712220126409 15.4476
41.69504492493139 15.3637
41.71905586207357 15.3275
41.74288256296395 15.2824
41.766711153007456 15.2899
41.79054163368412 15.2486
41.814560204340054 15.2153
41.838394485526365 15.2049
41.86223066180303 15.1987
41.88625497706819 15.1457
41.910094962812 15.1079
41.93393684811168 15.0589
41.95778063445365 15.0402
41.981812625263366 15.023
42.00566023303407 15.0263
42.029509746323676 15.0279
42.05336116662236 14.9522
42.077400857069705 14.960999999999999
42.10125611078846 14.9234
42.12511327600405 14.8837
42.14897235421036 14.8849
42.173019768448455 14.8326
42.19688269209613 14.8447
42.22074753323349 14.7959
42.24461429335818 14.7786
42.268669455600495 14.7573
42.292540073217886 14.6928
42.31641261433284 14.6476
42.34028708044675 14.6582
42.36435001496739 14.6311
42.38822835065557 14.6514
42.41210861586426 14.571
42.4359908120986 14.6236
42.46006154323262 14.5429
42.48394762115317 14.5263
42.507835634632315 14.525
42.531912233047436 14.4718
42.55580413732265 14.4473
42.579697981698 14.4211
42.60359376768525 14.3695
42.62767820545945 14.3752
42.65157789440821 14.34
42.67547952952185 14.2825
42.699383112316 14.3415
42.72347541395347 14.2644
42.74738291190531 14.2342
42.771292362102166 14.2069
42.795203766063516 14.2014
42.819303956130405 14.1897
42.843219287476536 14.1364
42.86713657716324 14.1316
42.89105582671383 14.0774
42.91516392983864 14.0669
42.939087119032166 14.0974
42.963012272677304 14.0664
42.98693939230129 14.0173
43.01105543317513 13.9524
43.034986504731386 13.947000000000001
43.05891954686589 13.9611
43.08285456110972 13.9627
43.10697856448665 13.8913
43.130917542983475 13.8448
43.15485849820081 13.8654
43.17880143167367 13.8546
43.20293342237094 13.7714
43.226880332449 13.7136
43.25082922540554 13.8038
43.27496722682525 13.7627
43.29892010567796 13.7242
43.32287497204102 13.6822
43.34683182745632 13.65
43.370977859791836 13.6329
43.39493871351105 13.6283
43.41890156092628 13.5632
43.44286640358341 13.526
43.46702049182749 13.5075
43.49098934522816 13.5414
43.51496019852649 13.4632
43.5389330532723 13.4306
43.56309522248204 13.4211
43.58707210044314 13.4361
43.61105098451946 13.3991
43.63503187626491 13.3259
43.659202151562134 13.3549
43.68318707902681 13.3593
43.70717401884041 13.3381
43.731162972560874 13.2606
43.75534137913236 13.2308
43.779334381108384 13.2091
43.803329401683186 13.2039
43.82732644241872 13.1807
43.8515130055166 13.1432
43.87551410707659 13.1464
43.89951723350145 13.1061
43.923709934595614 13.1081
43.94771713129917 13.0741
43.97172635758096 13.0592
43.99573761501002 13.0395
44.0199385169922 13.0265
44.04395385732619 12.9777
44.067971233533086 12.9729
44.09199064718605 12.9516
44.11619977548961 12.8928
44.14022328470671 12.9049
44.16424883610785 12.9173
44.18827643127035 12.9224
44.21249381139513 12.8778
44.236525514814076 12.8597
44.26055926674478 12.7844
44.28459506876863 12.7676
44.3088207262813 12.7345
44.33286064928722 12.7316
44.35690262714919 12.7138
44.38094666145278 12.6599
44.4051806219871 12.6477
44.42922879003185 12.6159
44.45327901929361 12.5994
44.477331311362136 12.6445
44.501573600619416 12.5691
44.525630039221795 12.5609
44.54968854541895 12.5565
44.573937102200176 12.5239
44.5979997645541 12.5078
44.622064499300315 12.4343
44.64613130803592 12.3819
44.67038823869318 12.4542
44.69445921643748 12.370999999999999
44.718532272981385 12.3726
44.742607409926194 12.3572
44.76687274034801 12.2877
44.79095205918753 12.2713
44.81503346325094 12.2741
44.839116954143876 12.2439
44.86339071028742 12.2625
44.88747839599524 12.2047
44.91156817336837 12.2044
44.93566004401666 12.1567
44.959942251908146 12.1479
44.984038330325966 12.1003
45.00813650686762 12.0771
45.03223678314731 12.100999999999999
45.05652746888232 12.0628
45.08063196592069 12.039000000000001
45.104738567558705 12.0275
45.128847275414856 11.9923
45.15314646515866 11.9634
45.17725940679741 11.9472
45.20137445952892 11.9376
45.22568004865265 11.9251
45.24979934496396 11.911
45.27392075725247 11.8904
45.29804428714431 11.8381
45.322358426247604 11.8665
45.346486212804315 11.8527
45.370616121861914 11.806
45.39474815505086 11.7777
45.41907087049246 11.7321
45.4432071734666 11.6775
45.46734560548283 11.7355
45.49148616817604 11.7486
45.51581748638564 11.6872
45.5399623320197 11.6372
45.56410931325473 11.602
45.58825843173002 11.5959
45.61259837920865 11.5707
45.636751793816 11.5658
45.66090735060093 11.5403
45.68506505120716 11.5492
45.7094136545275 11.5254
45.73357566449271 11.4761
45.75773982322992 11.4274
45.78190613238733 11.4493
45.806263418194064 11.38
45.83043404997326 11.4188
45.85460683713677 11.3951
45.87897065658495 11.3331
45.90314777634752 11.3376
45.92732705646868 11.3139
45.9515084986045 11.2993
45.97588104735473 11.2969
46.00006683541565 11.245999999999999
46.02425479047904 11.1955
46.04844491420549 11.2013
46.0728262191024 11.2282
46.09702070211635 11.1866
46.12121735879483 11.1518
46.14541619080294 11.1345
46.169806278764455 11.1136
46.194009483459034 11.0965
46.21821486849841 11.1029
46.24242243555223 11.0413
46.266821333570014 11.015999999999998
46.29103328674601 11.0408
46.31524742696538 11.0298
46.33946375590237 11.0403
46.36387149104216 10.9239
46.38809221957392 10.9156
46.41231514186606 10.8963
46.436540259597464 10.9059
46.460956858999374 10.8767
46.48518638983522 10.8346
46.509418121166966 10.8172
46.533652054678114 10.7718
46.55807754555709 10.7703
46.58231590571962 10.8526
46.60655647313217 10.7629
46.630988654873654 10.703
46.655233659129024 10.7238
46.67948087571551 10.7129
46.70373030632484 10.6619
46.72817142736393 10.6767
46.752425308428684 10.6481
46.77668140861147 10.6523
46.80093972960865 10.5664
46.82538981736788 10.5623
46.849652602470904 10.5686
46.87391761349769 10.5497
46.8981848521493 10.4793
46.9226439341274 10.4681
46.946915650573224 10.4453
46.97118959976749 10.4676
46.99546578341598 10.4266
47.019933887188216 10.4479
47.04421456235744 10.4507
47.06849747711879 10.4005
47.09278263318286 10.3569
47.11725978640143 10.33
47.14154944775105 10.3117
47.165841355555656 10.3268
47.1901355115306 10.2868
47.214621741924994 10.2776
47.23892041698887 10.252
47.26322134538975 10.2347
47.28771440635075 10.2235
47.31201986422527 10.2023
47.33632758061436 10.1894
47.360637557241866 10.1485
47.38513974410611 10.1681
47.40945426407847 10.1358
47.43377104948137 10.1119
47.45809010204344 10.089
47.48260144275502 10.0519
47.506925052572285 10.0153
47.53125093475548 10.0223
47.55557909103813 9.994860000000001
47.58009961361992 9.977839999999999
47.60443234110732 9.96883
47.62876734791564 9.97568
47.65310463578333 9.94977
47.6776343683373 9.87588
47.7019762413987 9.84105
47.72632040075572 9.88349
47.75066684815169 9.84763
47.77520581885936 9.80595
47.799556865477655 9.808010000000001
47.823910205386 9.86656
47.84826584033272 9.78401
47.87281407745551 9.75633
47.89717432569297 9.74058
47.92153687423484 9.72808
47.94609208429692 9.720289999999999
47.97045925671401 9.691130000000001
47.99482873471275 9.68502
48.01920052005013 9.66419
48.04376504619224 9.63303
48.068141469543484 9.67148
48.09252020552573 9.63464
48.11690125590099 9.63061
48.1414751266064 9.577110000000001
48.16586082917454 9.52875
48.19024885144316 9.54124
48.2146391951793 9.54011
48.239222439012764 9.562999999999999
48.26361744916137 9.49962
48.28801478610016 9.50713
48.31241445160131 9.45748
48.337007097209366 9.44401
48.36141144338331 9.439010000000001
48.38581812345755 9.40281
48.41022713920929 9.42988
48.434829215320704 9.40803
48.45924292604658 9.39237
48.48365897780325 9.39213
48.50807737237308 9.381639999999999
48.532688907799276 9.32628
48.55711201168574 9.28218
48.581537463754074 9.27339
48.60615611725119 9.29701
48.63058628942721 9.2338
48.65501881516546 9.227780000000001
48.6794536962573 9.20791
48.70408185970339 9.196589999999999
48.72852147531801 9.172939999999999
48.75296345168211 9.19042
48.77740779059232 9.13241
48.80204549302823 9.12016
48.82649458091802 9.10563
48.85094603676547 9.09888
48.87539986237231 9.023
48.90004713292306 9.01615
48.92450572200832 9.0683
48.94896668628025 9.00423
48.97343002754588 8.95311
48.99808689542115 8.98442
49.02255501470614 8.97997
49.04702551642794 8.9485
49.0714984023988 8.92726
49.096164896893235 8.90545
49.120642575466796 8.92116
49.145122643748394 8.89104
49.16960510355558 8.88924
49.19428125404938 8.82204
49.2187685210852 8.8246
49.243258185121555 8.84196
49.26794160167084 8.810880000000001
49.2924360839405 8.78219
49.31693296869764 8.73447
49.34143225776915 8.71899
49.36612538195438 8.72023
49.39062950396021 8.74388
49.41513603578346 8.6855
49.4396449792564 8.64512
49.46434784069503 8.6638
49.488861631846454 8.6342
49.513377840166804 8.621839999999999
49.537896467493745 8.62071
49.56260909589029 8.54982
49.587132585683285 8.56431
49.611658500018365 8.54628
49.636186840738596 8.551960000000001
49.66090926588511 8.53301
49.685442483902584 8.51127
49.70997813385706 8.4718
49.734516217597076 8.46079
49.75924846937352 8.45223
49.7837914452858 8.42232
49.80833686055187 8.41905
49.83288471702571 8.40681
49.85762682540054 8.42309
49.882179588965734 8.385760000000001
49.9067347993235 8.36357
49.93129245833333 8.36772
49.95604445336378 8.34609
49.98060703442832 8.28705
50.005172069746266 8.271560000000001
50.02993150438364 8.29618
50.05450147301533 8.253589999999999
50.07907390151433 8.270669999999999
50.10364879174981 8.25057
50.12841816587289 8.22458
50.1529980044635 8.241610000000001
50.17758031042124 8.20549
50.20216508562089 8.153089999999999
50.22694442953363 8.170589999999999
50.25153416817468 8.12706
50.27612638170508 8.13231
50.300721072005196 8.112260000000001
50.325510416102105 8.063260000000001
50.350110084975064 8.05541
50.37471223628208 8.06942
50.39931687190919 8.070839999999999
50.424116246675766 8.05175
50.44872587605249 8.02414
50.47333799543065 8.03984
50.49795260670191 8.01886
50.52276204271512 7.9699
50.54738166295838 7.95241
50.57200378079314 7.947960000000001
50.596628398116835 7.923019999999999
50.62144792604559 7.9211100000000005
50.646077567609396 7.87635
50.670709714377715 7.89296
50.69553683636198 7.85337
50.72017401885922 7.8575
50.7448137122895 7.8452399999999995
50.76945591856022 7.816839999999999
50.79429318636823 7.81491
50.818940443716784 7.797960000000001
50.84359021965163 7.74489
50.868242516085964 7.7310300000000005
50.893089960641895 7.72832
50.917747323549435 7.66701
50.94240721271973 7.72215
50.96706963007175 7.670210000000001
50.99192728239342 7.66555
51.01659478166073 7.6928600000000005
51.04126481489051 7.663930000000001
51.06593738400761 7.68845
51.090805275207074 7.625939999999999
51.11548294172845 7.60038
51.14016314993547 7.58332
51.164845901758845 7.60697
51.18972406304274 7.541930000000001
51.21441192780656 7.56882
51.23910234200271 7.54657
51.2637953075678 7.515110000000001
51.288683770237945 7.5167
51.31338186432707 7.48605
51.33808251561888 7.46604
51.362978729967345 7.45823
51.387684521509755 7.4701
51.41239287610203 7.44349
51.437103795691165 7.4111899999999995
51.46201036644977 7.404439999999999
51.486726441956634 7.37644
51.51144508832545 7.3568
51.536166307509156 7.35757
51.56108326624387 7.31027
51.58580965706056 7.307180000000001
51.61053862657523 7.311960000000001
51.635270176746864 7.27128
51.66019755512065 7.261830000000001
51.68493429268881 7.252789999999999
51.70967361681515 7.230239999999999
51.73441552946465 7.1966399999999995
51.759353359237934 7.20885
51.7841004750961 7.209110000000001
51.80885018539685 7.17524
51.833602492111254 7.17616
51.8585508051424 7.1308
51.883308330926425 7.110639999999999
51.90806845906181 7.117539999999999
51.932831191525715 7.108689999999999
51.95779001977161 7.07765
51.98255798721516 7.07383
52.00732856494335 7.05028
52.03229530577543 7.04643
52.057071130455945 7.003610000000001
52.081849571391054 7.037539999999999
52.106630630568695 7.0296899999999996
52.13160794279417 6.971360000000001
52.15639426492067 7.009360000000001
52.18118321127822 7.00092
52.205974783860896 6.96422
52.23096269971011 6.94618
52.255759551287994 6.91995
52.280559035098186 6.923310000000001
52.30536115314103 6.90734
52.33035970494467 6.879389999999999
52.35516711807904 6.8594100000000005
52.37997717147198 6.855
52.40478986713005 6.850210000000001
52.42979908731974 6.82808
52.454617094216 6.80145
52.47943774942214 6.786989999999999
52.50426105495102 6.75902
52.529280976059844 6.73987
52.554109609024096 6.715319999999999
52.57894089837482 6.678319999999999
52.60377484613117 6.688269999999999
52.62880550079408 6.73608
52.65364479223379 6.69267
52.67848674816189 6.657
52.70352547971946 6.6494
52.72837279155837 6.63397
52.753222773982785 6.6342
52.778075429022984 6.65333
52.80312495150885 6.644430000000001
52.827982978797436 6.58903
52.85284368481815 6.56469
52.87770707160767 6.58207
52.90276741793998 6.538069999999999
52.92763619336701 6.5617399999999995
52.952507655698504 6.5136
52.977381806977576 6.51773
53.00245301017842 6.50596
53.02733256653592 6.4945900000000005
53.052214817996074 6.4882800000000005
53.077099766608484 6.47572
53.102181859804446 6.44988
53.127072229988265 6.44142
53.15196530349892 6.45817
53.17686108239249 6.38689
53.20195409881522 6.38791
53.22685531582556 6.38189
53.25175924441303 6.36413
53.27666588664027 6.352119999999999
53.30176985962693 6.36026
53.3266819565689 6.3253699999999995
53.35159677336455 6.33026
53.376514312083096 6.311
53.40162927507703 6.29986
53.42655228516116 6.25065
53.45147802340193 6.24403
53.47660125628886 6.2771
53.50153247842639 6.26162
53.52646643496923 6.20697
53.55140312799818 6.1936
53.576537409691696 6.19527
53.60147960336152 6.14797
53.626424539786164 6.2003
53.65137222105307 6.14792
53.67651758529126 6.13564
53.70147078399681 6.09921
53.72642673383343 6.0993
53.75138543689533 6.10499
53.776541917524526 6.07848
53.801506154876755 6.05314
53.826473151763246 6.09172
53.851442910284916 6.08221
53.87661054126026 6.00097
53.9015858509782 5.96922
53.92656392866066 5.97919
53.95154477641532 5.99186
53.976723591801296 5.94569
54.00171000771266 5.94051
54.02669920004598 5.94695
54.051691170915745 5.91369
54.076881204886796 5.9326099999999995
54.101878760928514 5.9648900000000005
54.12687910187696 5.93896
54.152077577768296 5.85439
54.1770835166946 5.8816
54.20209224691339 5.848669999999999
54.22710377055121 5.806080000000001
54.25231352511594 5.8017
54.27733066384342 5.81093
54.30235060239643 5.78153
54.32737334290836 5.76777
54.35259441062629 5.75327
54.377622783395324 5.72288
54.40265396455061 5.7406
54.42768795623251 5.697080000000001
54.45292037169559 5.67053
54.477960012857906 5.70142
54.50300247099511 5.67793
54.52804774825457 5.68912
54.55329154616743 5.59667
54.57834249018678 5.5671800000000005
54.6033962597977 5.59435
54.6284528571545 5.62332
54.653708072335164 5.58606
54.67877035378786 5.55045
54.70383546947698 5.5121
54.72890342156389 5.51797
54.7541700889442 5.4903
54.77924374251975 5.43838
54.8043202390049 5.4636
54.82959552413022 5.43891
54.8546777351945 5.43419
54.87976279569621 5.34959
54.90485070780914 5.37855
54.930137506558005 5.32061
54.95523115074295 5.31802
54.98032765308844 5.29812
55.005427015775496 5.28298
55.03072536339621 5.26306
55.05583047570572 5.24744
55.080938454927676 5.22286
55.10604930325027 5.20363
55.131359235107396 5.21673
55.15647585066083 5.20863
55.181595341907496 5.11017
55.20671771104285 5.0892
55.232039262617704 5.09724
55.25716741665048 5.1264
55.28229845518636 5.06962
55.30743238042802 5.01512
55.33276558731939 5.0041400000000005
55.357905315183636 5.0073099999999995
55.383047936390035 4.98796
55.40819345314859 4.89409
55.433538351073295 4.92764
55.458689688238415 4.92283
55.483843927614096 4.87636
55.509197623043605 4.855169999999999
55.53435769621134 4.84567
55.55952067826466 4.8584
55.5846865714265 4.84399
55.61005202069737 4.79551
55.63522376553902 4.815930000000001
55.66039842818645 4.73749
55.68557601087004 4.73347
55.7109532500271 4.65499
55.73613670233794 4.6851199999999995
