TT I
1.2716486653135266 7.52716
1.2939594142134223 6.61797
1.3162702121660406 6.55945
1.3385810600174564 6.32006
1.3608919586137629 6.50622
1.383202908801069 6.11996
1.405513911425503 6.2740800000000005
1.4278249673332093 6.21252
1.4501343378461518 6.445869999999999
1.4724455028545926 5.57409
1.4947567236847858 6.09004
1.517068001182951 5.5668
1.5393793361953272 5.60277
1.5616907295681737 5.70866
1.5840021821477681 5.25531
1.60631369478041 5.1487300000000005
1.6286252683124185 5.33464
1.6509369035901333 5.2605900000000005
1.6732468618895553 5.40074
1.695558623192809 4.87801
1.7178704487808514 5.18199
1.7401823395001077 5.036919999999999
1.7625012545597203 4.856240000000001
1.7848028405262486 4.5719
1.8071218901122095 4.590730000000001
1.8294236121921872 4.21005
1.8517427996910911 4.59059
1.8740620574440425 4.44674
1.8963639900671978 4.51435
1.9186833908139995 5.055680000000001
1.9409854680117449 4.51853
1.9633050151394713 4.99012
1.9856246367570705 4.74726
2.0079269371922672 4.356
2.03024671027244 4.32527
2.0525491637446027 4.37133
2.074869091674931 4.31519
2.097171701569106 4.44549
2.1194917877373847 4.83903
2.141811954326636 4.81215
2.164114805233074 4.67848
2.186435135143035 6.45293
2.208738150935709 12.5619
2.231058647554722 24.2589
2.2533792288321184 19.0558
2.275682498336085 9.5052
2.298003251406138 6.43928
2.3203066942619714 5.9713
2.3426276225136022 5.596830000000001
2.3649486396617507 4.93476
2.387252348930071 6.27179
2.4095735463442893 6.40913
2.4318774374315884 6.18604
2.4541988185014043 6.90535
2.476502894794693 7.337739999999999
2.498824462909887 7.344939999999999
2.521146125856138 7.3048399999999996
2.5434504863470337 7.44809
2.5657723414244717 7.249619999999999
2.588076895590662 8.12376
2.610398946189713 8.44622
2.6327210958598384 8.0613
2.6550259469304716 7.94842
2.6773482972090137 8.17528
2.6996533504259 8.76143
2.7219759047039602 8.28466
2.744298562293959 7.53569
2.7666039251246595 7.79029
2.7889267918020164 8.47078
2.8112323652516555 8.3844
2.833555444408179 9.10775
2.8558786311183852 8.86384
2.8781845268938557 9.32724
2.9005079311721484 8.8626
2.9228140460410397 8.371319999999999
2.9451376712799635 9.21755
2.967444008632326 9.84582
2.9897678582247247 9.9093
3.0120918213106695 10.6899
3.0343984987899373 10.7172
3.0567226913198637 11.2046
3.079029599759726 11.5236
3.101354025127254 12.8251
3.123678568232338 13.2688
3.145985829517914 13.139000000000001
3.16831061055229 13.5727
3.1906181112775593 14.5252
3.212943133635653 15.2006
3.2352682779763207 15.4932
3.2575761442691227 15.6274
3.2799015350264273 15.8284
3.302209649240067 16.3108
3.3245352898092655 16.9463
3.3468436553365257 17.222
3.369169549113219 17.5607
3.3914955708171384 18.4868
3.413804319727358 18.6337
3.4361305997334863 19.3888
3.4584396084414553 19.4588
3.4807661501462652 19.7974
3.503092824025881 20.250999999999998
3.5254022288463154 20.8472
3.5477291695206588 21.3591
3.5700388426251948 22.3115
3.5923660534916446 23.7875
3.6146934007816114 36.1672
3.637003482731501 76.9281
3.6593311053109985 85.1065
3.681641464033634 51.6112
3.7039693653009733 29.8346
3.726297407241705 25.9459
3.7486081875460804 25.2299
3.7709365132734978 25.9697
3.793247578841633 25.8029
3.8155761917550093 26.5273
3.8378875459837216 26.5181
3.8602164494827234 27.1536
3.882545499606844 28.0944
3.9048572932539183 28.6296
3.9271866390645718 28.9599
3.9494987298666713 29.5922
3.971828374764527 29.7097
3.9941581705403255 30.5636
4.016470713506008 31.1273
4.038800813471445 31.6503
4.061113662089144 32.1793
4.0834440696459176 33.422
4.105774632334751 33.3281
4.128087945865126 33.923
4.150418821249301 34.4705
4.172732448931298 36.0788
4.195063640413578 37.8058
4.2173775856475215 41.4809
4.239709096631102 68.7257
4.262040768704612 207.315
4.284355196706267 272.862
4.306687193387355 179.69799999999998
4.329001947444346 74.9565
4.35133427213731 46.8603
4.373666762177566 43.8827
4.395982011761091 43.8176
4.418314834921175 44.9602
4.44063041906622 51.7203
4.4629635787515625 60.7447
4.4852969080429785 60.6903
4.5076130004776225 52.5109
4.529946671403969 49.8102
4.552263106909177 50.3988
4.574597122877047 51.6911
4.596931312711224 52.1398
4.619248269273446 52.67100000000001
4.6415828092605835 53.5484
4.663900117405352 54.2904
4.686235010953232 56.5415
4.708552674085913 57.342
4.730887924602802 58.684
4.753223354952695 59.9247
4.775541557023902 61.9212
4.797877349456786 63.3573
4.820195915032126 65.1452
4.842532072957498 66.0141
4.864868414979744 67.9777
4.88718753227192 70.5486
4.909524244902505 72.6146
4.931843734218147 74.3085
4.954180820867835 76.4337
4.976518095879839 79.1308
4.998838149695359 80.8313
5.021175803844231 85.0201
5.043496238205739 87.9439
5.065834274903528 91.9914
5.088172504230693 96.7764
5.1104935158799565 102.212
5.132832132875765 121.301
5.155153533596801 158.888
5.1774925416746225 185.407
5.199814334878411 287.244
5.2221537374521505 782.262
5.244493338631803 2503.38
5.266815727034316 7760.08
5.289155727832427 13446.8
5.311478517248165 9009.33
5.333818921080011 2858.77
5.356159527788849 529.626
5.3784829252032536 175.123
5.400823940070432 139.183
5.423147747031976 124.48100000000001
5.445489173474152 115.785
5.467830807066149 111.336
5.490155234831516 108.399
5.512497285125229 104.542
5.534822130975162 102.51
5.557164601388673 99.8857
5.579489868738879 97.4602
5.601832762690846 96.7597
5.6241758697774475 95.7808
5.646501775867269 94.6816
5.668845311622074 93.4193
5.691171647754637 92.8231
5.713515615597765 91.5591
5.735859800852677 90.6249
5.758186788542988 89.9163
5.780531411018185 90.7641
5.802858837297399 89.8183
5.825203900414495 89.8286
5.8475491852224 90.4537
5.869877275883075 90.5838
5.892223006467101 90.9315
5.914551544266608 91.2027
5.936897724049891 93.2653
5.959244129804903 97.234
5.981573344815301 110.135
6.0039202049061 178.56
6.026249875609095 376.921
6.04859719346037 832.7410000000001
6.070927323278297 2140.7
6.093275102315365 4564.94
6.115623113320588 5271.76
6.137953938319995 3126.77
6.160302415650845 908.0089999999999
6.182633708324452 213.975
6.2049826554078376 107.334
6.227331838745022 88.5018
6.249663839443684 82.4823
6.27201349767565 80.0552
6.294345974611799 85.2676
6.316696111167083 94.5636
6.339046488263839 89.5559
6.361379686074702 77.4594
6.383730546639482 70.7632
6.406064229255215 67.9904
6.428415576718203 67.6147
6.450749747566656 66.5306
6.47310158535871 64.9018
6.495453669698332 64.2652
6.517788579421056 63.9571
6.540141159237969 62.7416
6.562476565766648 62.1891
6.5848296444934045 61.8092
6.607182974060425 61.43899999999999
6.6295191323281015 61.4994
6.651872965955752 64.7261
6.6742096296068985 86.9513
6.6965639707294615 125.149
6.71891856698715 124.93700000000001
6.741255995248479 88.2906
6.763611104154477 65.7149
6.785949046381137 59.3844
6.808304671371482 57.7619
6.8306605557940046 57.7368
6.852999275508618 56.9883
6.875355681171544 56.0333
6.897694923437771 56.1307
6.92005185377892 55.7758
6.9423916220322655 55.4219
6.964749080490181 54.8941
6.987106804399774 55.003
7.009447368180821 55.1903
7.031805625367033 54.4523
7.054146723727803 54.6251
7.076505517631004 54.4901
7.098864581288365 54.4925
7.121206488070854 54.2803
7.143566093607822 54.3838
7.165908543567245 54.7733
7.188268694426048 54.7352
7.2106291193438095 54.9161
7.232972390625943 55.7407
7.255333366030969 66.9579
7.277677189091925 113.15100000000001
7.300038718428332 151.204
7.322400526130865 128.499
7.344745183422596 83.1175
7.367107550224791 60.2022
7.389452767901992 55.2623
7.411815697249891 54.2513
7.434161478756298 53.6957
7.456524974096713 53.3899
7.478888753837185 53.3346
7.501235387657368 53.693999999999996
7.523599738562711 54.0577
7.545946944825532 54.0751
7.568311870344528 54.6271
7.5906770845765665 54.7683
7.613025156078678 55.5476
7.635390950099687 56.6966
7.657739602662809 56.11600000000001
7.680105979923558 54.7347
7.702472650212829 55.5864
7.724822180948224 55.2029
7.747189439655568 55.6083
7.769539560075357 55.3908
7.791907410653562 55.7974
7.81425812420825 55.503
7.836626570110925 55.9976
7.858995315087906 56.7486
7.881346924933401 56.7179
7.903716270417482 57.2442
7.926068482028405 57.43600000000001
7.948438431475253 58.2277
7.9708086843180235 58.9555
7.993161805171116 59.3068
8.015532667162402 59.8043
8.037886398416653 60.9466
8.060257873014221 61.0891
8.082629655331942 61.8765
8.104984308787587 63.0253
8.127356708900503 65.8575
8.149711981398308 71.1711
8.172085002766314 72.9316
8.194458336181368 70.2838
8.216814543847752 68.3128
8.23918850371002 68.2073
8.26154533906492 69.0919
8.283919928836452 70.4052
8.306277395339652 71.0701
8.328652618483376 72.2947
8.351028159736202 74.3366
8.373386579575245 76.8023
8.395762759396959 78.4267
8.418121819038275 82.6324
8.440498640894003 94.044
8.462875785192262 105.596
8.485235811156207 114.55
8.507613602688501 145.386
8.529974277114228 220.065
8.552352719347912 345.505
8.574731488360351 595.979
8.59709314210385 1162.87
8.619472567021075 1881.44
8.64183487789147 2239.74
8.664214962183097 1766.1
8.686577933647762 912.9810000000001
8.708958680784317 342.314
8.731339760774953 154.671
8.753703729764451 107.304
8.77608547780821 95.9975
8.798450116065078 93.0204
8.820832535634787 90.4951
8.843215292401656 89.2776
8.865580941199045 88.2552
8.887964374703538 87.95
8.910330701447199 88.5741
8.932714815164482 90.3495
8.955099270424924 89.2675
8.977466620733543 86.1134
8.999851761421976 83.7671
9.022219798361645 82.46600000000001
9.04460562795561 82.1668
9.066991803441677 81.5781
9.089360876979615 81.3419
9.111747746589993 81.4284
9.13411751544971 80.5875
9.156505082664324 80.3375
9.178875550323522 80.5748
9.20126381862328 81.0364
9.223652438908596 80.9851
9.246023961427412 80.9684
9.26841328802173 80.1871
9.290785518039224 80.1144
9.313175554425882 81.5624
9.335565947154315 81.3024
9.357939245086508 82.0075
9.380330352834827 81.8246
9.40270436697103 82.2239
9.425096193225055 82.2478
9.447488380180165 82.81
9.469863475295412 83.0323
9.492256385987508 83.1282
9.514632206018318 83.8125
9.537025843935714 83.9957
9.559402392368193 84.8666
9.581796761000229 86.13600000000001
9.604191496441521 86.7986
9.626569144158516 90.1774
9.648964615551032 93.9104
9.671343000390081 95.3813
9.693739211225699 93.8237
9.716135793237463 91.3464
9.738515290448102 91.1069
9.760912617143402 92.4802
9.783292860202891 93.7962
9.805690935076182 94.7614
9.828089385495742 95.5419
9.850470754023561 97.8487
9.872869957865444 104.46600000000001
9.89525208097539 117.304
9.917652041736662 127.95
9.940052382417589 127.265
9.962435644102392 131.33700000000002
9.984836746950979 159.101
10.007220771957746 213.792
10.029622640473708 307.91700000000003
10.052007432299963 483.31199999999995
10.074410069984072 784.7819999999999
10.096813093716005 1282.48
10.119199042482517 1799.87
10.141602840636468 1988.43
10.163989564971628 1561.23
10.186394141051062 852.045
10.208799107559706 363.005
10.231187001965623 177.75
10.253592751657669 122.546
10.275981430388155 109.94
10.298387966769793 109.47
10.320794897965431 111.19
10.343184759907361 110.333
10.36559248305461 105.321
10.387983138083852 101.695
10.410391656691655 103.11399999999999
10.432800574501677 112.071
10.455192425893369 125.94
10.47760214443012 150.725
10.499994797678786 194.625
10.522405320453982 277.018
10.54479877906917 410.12199999999996
10.567210109595656 529.739
10.5896218454736 595.695
10.612016518879773 496.894
10.634429067781074 341.548
10.656824555333241 194.78400000000002
10.679237920773568 119.693
10.701651695961992 93.9159
10.724048411481384 87.3
10.746463008485165 84.7056
10.768860546937125 83.2072
10.791275969274796 81.4578
10.81369180576079 80.6176
10.836090585366925 79.3937
10.858507252467449 78.3949
10.88090686379991 77.6395
10.903324365036394 77.2856
10.925724811614439 76.7676
10.948143150509463 77.6208
10.970561909719066 77.0061
10.992963615930844 75.2224
11.015383218085756 73.3957
11.037785768347074 72.21600000000001
11.06020621697282 71.3632
11.082627090322113 70.9579
11.105030913430326 70.2054
11.12745263854165 70.641
11.149857314510728 73.8069
11.172279894912576 78.6204
11.194702904450653 79.0862
11.217108866490921 75.8365
11.239532736615194 72.0973
11.26193956033512 70.0605
11.284364294577085 68.4621
11.306789462371718 66.8281
11.329197585398376 65.8701
11.351623622610898 65.8365
11.37403261614354 64.7701
11.396459526308487 64.9001
11.418869393879497 64.4914
11.441297180532617 63.9528
11.463725406927658 63.5764
11.486136592353875 63.3905
11.508565700543707 64.062
11.530977768845315 65.6642
11.553407762368774 66.12
11.575838200059769 65.5636
11.598251599479612 64.1042
11.620682927815501 62.7882
11.64309721895548 62.4363
11.665529441478206 62.1207
11.687962112597958 61.8792
11.710377748130886 61.8586
11.732811318753434 61.6705
11.755227854859067 61.59
11.777662328529495 61.8046
11.800079768750786 61.5148
11.822515149015453 61.2689
11.844950984084935 61.6491
11.867369787303163 61.1384
11.889806534289491 61.283
11.912226250487029 61.6818
11.934663912939751 61.4972
11.9571020346363 61.76
11.979523127133968 61.6858
12.001962169624331 62.1718
12.024384183972964 63.1717
12.046824150809913 65.8049
12.069264581333726 69.9208
12.091687985297767 75.2238
12.11412934550045 83.9978
12.136553680195208 99.3576
12.158995973632788 124.68700000000001
12.181438735204349 156.233
12.20386447284199 188.604
12.226308172985636 206.09599999999998
12.24873485024193 196.888
12.271179492516982 163.922
12.293607112949127 121.67299999999999
12.316052700916226 93.9622
12.338498763250042 76.0111
12.360927805303868 68.3241
12.383374818673879 65.2107
12.405804812803074 63.4554
12.428252780773262 63.2218
12.45070122756722 62.9413
12.473132656675375 62.7669
12.49558206341869 63.1902
12.518014453510101 63.3032
12.540464823770117 63.3325
12.562915677315177 63.476000000000006
12.58534951575545 64.38
12.607801338171472 65.8974
12.630236146511358 70.5266
12.652688941369085 74.7205
12.675124723177234 74.6656
12.697578494048786 71.4971
12.720032754458185 68.1223
12.742470003354093 66.7803
12.764925245138771 66.3363
12.787363476431278 66.8087
12.809819703166806 67.1115
12.83227642391173 67.6651
12.854716135692716 68.3784
12.877173846755147 69.446
12.899614549869717 69.3616
12.9220732548287 70.2319
12.94453245827299 70.8825
12.966974655289818 71.808
12.989434858002571 72.9002
13.011878055298721 73.158
13.034339260862497 74.1882
13.056800969391883 75.4454
13.079245674017244 77.3942
13.101708390774869 78.7215
13.12415410463411 84.2797
13.146617833206086 94.3001
13.169064559883248 104.915
13.191529303857127 118.949
13.213994557076367 140.865
13.236442809902437 177.642
13.258909083908291 237.69400000000002
13.28135835851934 309.428
13.30382565690295 382.903
13.326293469022952 429.906
13.348744283242008 425.5
13.371213125129904 351.13699999999994
13.39366497011003 248.888
13.416134845360597 165.541
13.438605238843131 119.009
13.46105863690397 101.63
13.483530069144786 100.734
13.505984506951902 104.868
13.528456981549432 113.76799999999999
13.550929978879088 128.662
13.573385983253365 152.122
13.595860028340867 193.925
13.618317081455832 249.452
13.64079217790333 313.047
13.663250283359057 357.88
13.685726434770173 369.20300000000003
13.708203115221277 325.589
13.730662806148091 248.551
13.75314054697177 177.454
13.775601299246777 123.96
13.798080104050406 94.8394
13.820559442405358 83.6559
13.843021793671388 80.1502
13.865502201420897 78.5566
13.887965623051947 78.1531
13.910447103807167 76.9698
13.932929122629764 75.7595
13.955394156785959 75.4877
13.977877254034569 74.3773
14.000343367582113 73.4017
14.022827546871707 72.9031
14.045294743423524 72.6417
14.06778000837062 71.6642
14.090265817715476 71.4963
14.112734645763819 71.1715
14.13522154619454 71.0024
14.157691466286913 70.9778
14.180179461423874 70.4546
14.202668005486178 70.0691
14.22513957064374 69.3242
14.247629214846473 69.1497
14.270101881097517 68.833
14.29259262906496 69.1996
14.315083930490205 69.8497
14.337558255389705 69.869
14.360050666019726 69.5877
14.382526101071944 68.7142
14.405019624534942 67.7513
14.427513705993134 67.5348
14.449990813291825 67.5499
14.47248601302899 67.2446
14.49496423954951 67.4342
14.517460561197822 67.2812
14.539939910570322 67.2776
14.562437357763558 67.7373
14.58493536931253 68.6492
14.607416409993311 69.3683
14.62991555254159 70.0222
14.652397725157423 69.8668
14.674898002342799 69.454
14.697398848433282 69.0142
14.719882725991326 69.2649
14.74238471217934 70.0277
14.764869730765593 72.5749
14.787372860692983 75.4888
14.809876564079925 79.6205
14.83236330125751 85.1736
14.854868153850365 93.3467
14.877356041159485 106.95200000000001
14.899862046604186 126.70200000000001
14.922351087688757 154.644
14.944858249632887 187.11900000000003
14.967365991421232 215.202
14.989856770231246 227.86599999999999
15.012365673994204 217.532
15.03485761569738 184.696
15.05736768508665 145.14600000000002
15.07987833888692 110.755
15.102372032001655 87.221
15.124883856909658 75.1178
15.14737872204565 70.7914
15.169891721717274 69.2347
15.192405310371893 69.1045
15.214901940621196 69.3502
15.237416709527137 69.2385
15.259914520936249 69.5056
15.282430473753607 68.5713
15.304947020131227 67.387
15.327446610371178 66.6278
15.349964346154254 66.1459
15.372465126703139 65.626
15.394984055556009 65.1569
15.417486030076159 65.0648
15.44000615566487 64.7709
15.462526881230803 64.8496
15.485030653812652 64.8446
15.507552581617434 64.8399
15.530057557334603 64.9974
15.55258069104857 64.832
15.575104429329837 64.7088
15.597611216864632 64.5336
15.620136166564563 64.7796
15.6426441664095 65.3066
15.665170331202765 67.0288
15.687697105158826 69.5362
15.710206930593545 72.3637
15.732734925158933 76.6205
15.755245972089478 82.7752
15.77777519094324 92.0198
15.800287463046663 105.444
15.822817909869592 125.757
15.84534897229804 149.64
15.867863089299354 174.84400000000002
15.890395385222186 190.452
15.912910736597423 193.19400000000002
15.935444269699861 178.08900000000003
15.957978423016485 148.785
15.980495633101265 118.219
16.003031029129367 92.4601
16.02554948280019 75.0953
16.048086125229432 66.6089
16.070623392487107 63.7601
16.09314371869582 62.9321
16.11568223789321 62.1044
16.13820381691126 61.1815
16.160743591742527 60.1855
16.183283996022084 59.4616
16.205807461423195 58.3587
16.228349126881973 57.7989
16.25087385432698 57.7203
16.27341678466365 57.3136
16.29594277784926 57.1179
16.31848697676433 57.3913
16.341031811604868 57.5385
16.36355971058487 57.9339
16.3861058195587 57.5944
16.40863499352978 56.4175
16.431182380342005 55.7325
16.453730407713202 55.123000000000005
16.476261501364792 54.8336
16.498810812136167 54.6322
16.52134319004079 54.6072
16.54389378792203 54.5299
16.566445031001553 54.1231
16.588979342490088 54.1112
16.61153187824822 53.8035
16.634067483263312 53.8972
16.656621315414416 53.7256
16.679175797408888 53.4768
16.701713349928728 53.4802
16.72426913389191 53.753
16.74680798922351 53.8708
16.76936507887444 53.715
16.791905240734874 53.83
16.814463639794468 53.8403
16.837022695210294 53.7506
16.859564824093756 53.9398
16.882125194503903 54.5376
16.904668639217885 55.2293
16.927230328348003 55.4556
16.949792678493612 55.3761
16.972338104193863 54.994
16.994901778652235 54.3394
17.017448529496576 54.5106
17.040013531998152 54.5427
17.06257920018044 54.9657
17.0851279459922 55.4926
17.107694947817667 56.3496
17.130245028099072 57.2342
17.15281336730298 58.5299
17.17536478578733 60.138000000000005
17.19793446610687 62.2912
17.220504818648422 65.3978
17.243058251703697 69.3993
17.265629950971032 74.2159
17.288184731571736 78.6688
17.310757781306908 82.6883
17.33333150794385 82.3855
17.355888317140174 80.0256
17.37846339986244 74.9496
17.401021565958885 69.0136
17.42359800851343 63.8724
17.44617513265564 60.765
17.468735341390783 58.8629
17.491261035594565 58.0281
17.51396340099364 57.9124
17.536490463869136 57.9386
17.559018209820174 57.8609
17.58154663977963 57.8406
17.604251766089718 58.2111
17.626781572227713 58.2864
17.64931206518155 58.5118
17.671843245885103 58.9919
17.69455114821572 59.3539
17.717083712612634 59.6276
17.739616967569667 59.7281
17.762150914021706 59.8689
17.78486160749854 59.9766
17.807396945166804 60.6097
17.829932977143503 61.4086
17.85246970436452 62.3921
17.875183204129467 64.133
17.897721330097664 66.0055
17.920260154126645 68.3916
17.942799677153296 71.2751
17.9655159983646 75.0065
17.988056927677544 80.2771
18.010598558807683 88.4677
18.033140892692916 99.4103
18.05586005052525 111.539
18.07840379824407 122.57700000000001
18.10094825154059 132.387
18.12366954819864 137.393
18.146215420998306 134.797
18.16876200220057 125.965
18.191309292745153 112.5
18.214033452627167 99.4997
18.236582170236648 88.67200000000001
18.259131600016456 84.258
18.281681742907335 85.204
18.304408781233683 90.0331
18.32696035875955 95.6587
18.349512652227624 101.044
18.372065662579683 104.535
18.394795594587553 105.006
18.41735004715306 99.9075
18.43990521943684 93.5425
18.46246111238171 84.1008
18.485193953325208 75.1663
18.507751296070428 68.4085
18.530309362314178 64.5059
18.552868153000343 62.3341
18.57560391815056 60.9126
18.59816416623245 60.4362
18.620725141597372 60.0596
18.643286845190268 59.5723
18.666025549835414 59.1682
18.688588718427933 58.7431
18.711152618092243 58.6768
18.73389353884365 58.31399999999999
18.75645890921984 57.8174
18.77902501351406 57.5876
18.801591852673102 57.5313
18.824335739722738 56.9902
18.846904057212626 56.7503
18.8694731124168 56.6008
18.89204290628315 56.608999999999995
18.914789774966803 56.3293
18.937361054791623 56.1132
18.959933076131318 55.9119
18.982505839934877 55.9373
19.00525570560582 55.9687
19.027829963004184 55.7264
19.05040496572238 55.7723
19.072980714710468 55.6745
19.095733592739563 55.7789
19.11831084296757 56.0886
19.140888842324735 56.5575
19.16346759176222 56.6287
19.18622349753803 57.1156
19.208803755869358 58.4139
19.231384767143577 59.4617
19.253966532312948 60.8328
19.276725481241822 62.9902
19.29930876296784 65.9859
19.3218928014549 68.9224
19.34465404436217 71.6452
19.36723960516257 73.9488
19.389825925592426 74.6207
19.412413006605938 73.589
19.43517731967805 69.9216
19.457765930683355 65.9524
19.48035530514408 61.443999999999996
19.50294544401556 58.0249
19.525712842708348 55.5445
19.54830451925909 54.0226
19.570896963095727 53.2241
19.593490175174704 52.8393
19.616260674962184 52.8471
19.638855432416964 52.5683
19.661450960992624 52.7447
19.68404726164677 52.4272
19.706820878021247 52.1693
19.729418731756834 52.4778
19.752017360452857 52.3023
19.77461676506804 52.3885
19.797393513540218 52.3695
19.819994478951667 52.7614
19.84259622316767 53.1596
19.8651987471481 53.4724
19.887978643247177 53.8005
19.91058273574792 54.3011
19.933187610901943 54.9386
19.955969879466828 56.2557
19.97857632894404 57.803999999999995
20.00118356396599 59.6143
20.023791585494575 61.8826
20.046577028914875 64.7746
20.069186632506966 66.7108
20.091797025500632 68.316
20.114408208858933 68.7028
20.137196842715273 67.9569
20.159809615886765 66.1793
20.18242318232135 63.8743
20.20503754298326 62.1866
20.227829382875154 61.2271
20.250445341109344 61.273999999999994
20.27306209647285 62.3159
20.29567964993108 63.7821
20.31847471147704 64.7313
20.34109387027612 64.9743
20.363713830075454 64.6146
20.386334591841646 62.5876
20.409132890679302 59.8938
20.431755265564437 56.9634
20.454378445325528 54.3533
20.477002430930366 52.5151
20.499803982716553 51.2841
20.522429589228004 50.4587
20.54505600449589 50.2083
20.567683229489194 49.9659
20.590488049900088 49.5157
20.61311690359731 49.2605
20.63574656993626 49.1737
20.658553853717297 48.6428
20.681185154618298 48.7028
20.703817271080066 48.6725
20.72645020407368 48.2613
20.749260783967177 48.1359
20.771895359337133 48.1456
20.794530754161617 48.0669
20.817166969412938 47.9323
20.83998086114876 47.8178
20.86261872660049 47.7745
20.885257415405402 47.8167
20.90789692853701 47.7186
20.930714147864748 47.7829
20.953355319030678 47.7084
20.97599731745334 47.8011
20.99864014410749 47.705
21.021460706796564 47.7492
21.044105199328826 47.8841
21.06675052302631 47.8385
21.089396678865015 48.1265
21.112220600704806 48.4931
21.134868430275347 48.9002
21.15751709492456 49.1481
21.180166595629693 49.4411
21.202993892429635 49.9942
21.22564507473034 50.4462
21.24829709602816 50.5846
21.27112693608965 50.5685
21.293780644891275 50.3422
21.316435195634053 49.7247
21.339090589297417 48.9779
21.361923832041875 48.6731
21.384580921090404 48.0641
21.407238856007325 47.6368
21.429897637773326 47.5208
21.45273429906592 47.4816
21.475394784108598 47.3895
21.498056118951983 47.3364
21.520718304578022 47.4593
21.543558400304388 47.6171
21.566222297108816 47.7937
21.58888704765135 47.7998
21.61155265291521 48.1431
21.63439619898156 48.7094
21.657063523335786 48.915
21.67973170537063 49.3844
21.7024007460706 49.7855
21.72524775840385 50.5593
21.747918526116475 51.4562
21.770590155457388 52.742
21.79326264741238 54.5424
21.816113141960237 56.3715
21.838787368860547 58.655
21.861462461341976 60.681000000000004
21.884315579735777 62.4028
21.90699241312273 63.3286
21.92967011506078 63.2803
21.95234868653799 62.8876
21.9752053151131 61.3801
21.997885635446785 59.6446
22.020566828293532 58.1006
22.04324889464272 56.7014
22.066109049404666 55.7605
22.088792872571794 55.3169
22.111477572219204 55.3278
22.1341631493376 55.3417
22.157026846313123 54.7551
22.179714188221507 53.9719
22.202402410582668 53.0078
22.22509151438863 51.6871
22.24795876962584 50.4244
22.270649646204486 49.5447
22.293341407213727 48.8717
22.316034053646906 48.5528
22.338904883215342 48.2963
22.36159931041458 48.1492
22.38429462602756 48.1501
22.40699083104897 47.8563
22.429865251039757 47.8634
22.452563244831367 47.8693
22.47526213102522 47.9308
22.49813925616515 47.8495
22.520839937143307 47.7189
22.543541513520587 47.7556
22.56624398629403 47.5567
22.589124730075895 47.4157
22.611829005656723 47.7345
22.63453418063466 47.6117
22.657240256008077 47.8425
22.680124634582935 47.9198
22.70283252079775 48.2377
22.725541310413075 48.5588
22.74825100442868 48.6814
22.771139033969575 49.0112
22.79385054687155 49.3339
22.81656296718292 50.1171
22.83927629590484 51.0054
22.862167992606945 52.2183
22.88488314827121 53.3933
22.907599215359284 54.3159
22.93031619487366 55.4814
22.953211574954405 56.5016
22.975930389478226 56.907
22.998650119445763 56.9807
23.02137076586092 56.1087
23.044269845560063 54.7609
23.06699233506288 53.1018
23.089715744034912 51.3934
23.112617610931565 50.1819
23.135342869061212 48.934
23.158069049684816 48.317
23.1807961538087 47.8128
23.20370174880544 47.8574
23.226430710184808 47.8128
23.249160598093425 47.8633
23.271891413539002 47.7482
23.294800752937697 47.8298
23.31753343374794 47.9881
23.340267045128353 48.0146
23.36300158808808 48.4846
23.38591468821339 48.7035
23.408651104658304 49.2319
23.431388455719986 49.8177
23.454126742409 50.5392
23.4770436196085 51.8765
23.499783787914662 53.3262
23.522524894889884 54.5219
23.54526694154616 55.5486
23.56818761219047 56.5059
23.59093154860734 56.8885
23.613676427751283 57.0334
23.636422250635754 55.9507
23.659346731118656 54.3741
23.68209445191868 52.6321
23.704843119509587 50.464
23.72759273490623 48.6746
23.750521041644767 47.3345
23.77327256312355 46.36600000000001
23.796025035462787 45.7258
23.818956224555475 45.1813
23.841710609113413 45.0828
23.86446594758979 44.8692
23.887222241002014 44.7814
23.910157285144578 44.3307
23.932915498962537 44.253
23.955674670778713 44.148999999999994
23.978434801611975 44.1301
24.001373717286125 43.8929
24.024135776723917 43.8128
24.046898798245582 43.7841
24.06966278287146 43.5631
24.092605586582614 43.4654
24.115371508023642 43.4448
24.1381383956401 43.1937
24.16090625045381 43.231
24.183852958731244 43.0851
24.206622758582608 43.0479
24.229393528706886 42.8346
24.252165270127392 42.8584
24.27511589952438 42.818999999999996
24.297889594216997 42.6107
24.32066426328598 42.4464
24.34343990775613 42.4985
24.36639447485003 42.4455
24.38917208083877 42.4278
24.41195066531332 42.1127
24.43490819850244 42.2735
24.457688750692377 42.0982
24.48047028445616 42.1585
24.503252800821233 42.2021
24.526214300784112 42.2629
24.548998793132213 42.1856
24.57178427117417 42.117
24.59457073593893 42.2048
24.617536219319863 42.128
24.64032466834748 42.1155
24.663114107195035 42.1572
24.685904536893013 41.833
24.708874020360852 41.8218
24.731666442613744 41.6905
24.754459858818787 41.683
24.777254270007962 41.5588
24.80022777025625 41.3844
24.82302418230472 41.445
24.845821592443674 41.4292
24.86862000170663 41.4761
24.891597535453727 41.3074
24.914397953892728 41.5768
24.93719937456671 41.5376
24.96000179851076 41.5509
24.98298338249997 41.6642
25.00578782394922 41.9742
25.028593271784167 42.1707
25.05157790644186 42.3726
25.07438537804115 42.4659
25.097193859145293 42.7316
25.120003350792075 43.0273
25.142992065061257 43.4528
25.165803588823465 43.6074
25.18861612625217 43.7777
25.211429678386736 43.8398
25.234422489079968 44.1193
25.257238081693636 44.1297
25.280054692141732 44.1737
25.3028723214652 44.2989
25.325869245420463 44.3781
25.348688923599397 44.3308
25.371509623787006 44.1193
25.394331347025812 43.7765
25.41733240110666 43.2733
25.440156181590016 42.7128
25.46298098826268 42.2087
25.48580682216873 41.5488
25.50881202326435 40.9668
25.53163992281684 40.6832
25.55446885274561 40.4277
25.577298814096377 40.1257
25.600308179121807 40.1292
25.623140214533745 40.1104
25.64597328451537 40.0512
25.66898578564376 39.7129
25.691820936010206 39.7468
25.714657124097695 39.6882
25.737494350954734 39.7208
25.760511045684957 39.6308
25.783350361364224 39.7486
25.806190718969255 39.6957
25.82903211955018 39.791
25.852053024868923 39.8851
25.874896522722523 39.7534
25.897741066713106 39.7071
25.920586657892454 39.9612
25.943611790812668 40.1499
25.966459487728237 40.2247
25.989308234998564 40.3126
26.01215803367705 40.7221
26.03518741123814 40.8715
26.05803932412957 40.9883
26.080892291600094 40.8826
26.10374631470478 40.9759
26.12677995397268 40.9895
26.14963609978026 40.8708
26.172493304397875 40.6409
26.19535156888223 40.3695
26.218389486949604 39.9762
26.241249882640123 39.7992
26.26411134137826 39.5671
26.28715248187403 39.4651
26.31001607820869 39.4487
26.3328807407756 39.2034
26.35574647063438 39.301
26.37879191991473 39.2586
26.401659795896734 39.311
26.424528742360263 39.4653
26.447398760366614 39.7153
26.470448535598294 39.8187
26.49332070826805 40.0606
26.516193955675355 40.3435
26.53906827888316 40.4551
26.562122397260108 40.7138
26.584998883685063 41.1129
26.607876449110325 41.2538
26.63075509460056 41.3435
26.65381357334404 41.4648
26.67669439061878 41.4384
26.699576291163382 41.1552
26.722459276044212 41.1494
26.745522132402975 40.8298
26.768407297649354 40.736
26.791293550442003 40.3622
26.814180891848974 40.1779
26.837248143099337 39.8971
26.860137673466657 39.7064
26.88302829566349 39.4882
26.90592001075963 39.2651
26.92899167420566 39.2054
26.951885586870763 38.8011
26.974780595655517 38.5753
26.99785558178161 38.5643
27.020752794605112 38.3205
27.043651106772522 38.1238
27.06655051935668 38.2211
27.089629948036183 37.9863
27.112531573292053 37.9884
27.135434302194138 38.1059
27.158338135817015 37.9642
27.181422024430987 37.9411
27.204328079372566 37.8299
27.22723524226965 37.8781
27.250143514198573 37.8795
27.273231880156334 37.7919
27.296142382065014 37.7524
27.319053996245536 37.5512
27.341966723775965 37.7464
27.365059584515222 37.7148
27.38797455070062 37.7443
27.410890633481237 37.7881
27.433807833936918 37.7421
27.456905206923906 37.9005
27.47982465472398 37.8782
27.502745223449743 37.8163
27.525666914182825 38.0266
27.548768816912457 37.97
27.571692763693633 37.8939
27.59461783573812 37.6181
27.617723149491244 37.4631
27.640650484125285 37.4962
27.66357894728264 37.4821
27.686508540048052 37.3591
27.709618414237887 37.3179
27.732550278321757 37.2099
27.755483275279115 37.2265
27.778417406196485 37.272
27.801531858397514 37.2105
27.824468269376716 37.1226
27.847405817586786 37.1423
27.870344504116094 37.2946
27.893463551932008 37.329
27.916404527281053 37.6023
27.93934664422563 37.8084
27.962289903855886 37.879
27.98541356491974 38.0712
28.00835912214229 38.242
28.03130582533231 38.3843
28.054253675581805 38.448
28.077381967556104 38.3216
28.100332124185126 38.2466
28.123283431160893 38.2591
28.146235889577238 38.0846
28.169368830154156 38.0303
28.192323603752033 37.7407
28.215279532083304 37.4338
28.238415973016764 37.3536
28.261374223145094 37.2102
28.284333631303806 36.9284
28.307294198589954 36.8316
28.330435319167677 36.6025
28.353398217078915 36.3036
28.376362277420153 35.9442
28.39932750129032 35.9114
28.422473319286713 35.7995
28.44544088262495 35.7613
28.468409612800283 35.5935
28.491379510913497 35.5236
28.51453004413313 35.3739
28.53750229057244 35.3777
28.56047570826344 35.2884
28.583450298308804 35.2133
28.606605564586562 34.984
28.629582511831156 35.1778
28.65256063474956 35.0097
28.675539934446338 35.1634
28.698699951647605 35.022
28.72168161743193 34.9248
28.74466446331978 34.8728
28.767648490417624 34.8323
28.790813276438353 34.9314
28.813799678527303 34.8078
28.836787265157085 34.8678
28.859955641890075 34.8003
28.882945610203045 34.7828
28.905936766392035 34.7553
28.928929111566863 34.6958
28.952102288520145 34.6899
28.975097024308607 34.5408
28.998092952423807 34.3807
29.021090073977508 34.330999999999996
29.04426806913204 34.2528
29.067267590245258 34.0765
29.090268308143695 34.0482
29.11327022394099 33.999
29.13645305530891 33.7947
29.159457379627167 33.8447
29.18246290519685 33.736
29.20546963313352 33.7553
29.22865731875826 33.7539
29.25166646419296 33.7795
29.27467681535305 33.6688
29.29768837335608 33.8272
29.320880931312562 33.753
29.34389491580634 33.8586
29.366910110507334 33.7532
29.38992651653503 33.6461
29.41312396492981 33.5952
29.436142806456754 33.5085
29.45916286268059 33.4382
29.48236399319994 33.361999999999995
29.50538649169417 33.2978
29.528410208259935 33.2132
29.55143514402014 32.9452
29.574641196749695 32.7566
29.597668583816574 32.6523
29.6206971934585 32.6083
29.64372702680042 32.6679
29.666938019934474 32.558
29.689970313635285 32.458
29.713003834422636 32.516999999999996
29.73603858342347 32.3913
29.759254535188578 32.3253
29.78229175361658 32.1262
29.80533020365064 32.294000000000004
29.82836988641968 32.3252
29.85159081507472 32.1602
29.874632976355343 32.1096
29.89767637376955 32.1169
29.920721008448314 31.9473
29.9439469322847 31.9469
29.96699405457564 31.9647
29.9900424175358 32.063
30.013092022298157 32.0185
30.03632295963995 31.9503
30.059375061131373 31.9073
30.08242840783577 31.9598
30.105483000888153 32.0
30.128718970092244 31.8635
30.151776069006917 31.8056
30.17483441768648 31.8584
30.198074175317235 31.8504
30.221135036724256 31.8169
30.24419715131772 31.7901
30.267260520236203 31.7151
30.290505341942243 31.7807
30.313571232750228 31.7876
30.336638381310948 31.7694
30.35970678876503 31.7049
30.38295669299435 31.5834
30.40602763151657 31.5823
30.429099832366074 31.5453
30.452173296685572 31.4637
30.47542830191959 31.5029
30.498504306502497 31.3946
30.521581577995562 31.5067
30.544660117543582 31.6134
30.56792024229725 31.6371
30.59100133132069 31.5739
30.614083691845494 31.5362
30.637167325018545 31.6412
30.660432587840603 31.7034
30.683518779717886 31.6189
30.70660624769615 31.7127
30.729694992924372 31.7176
30.75296541239743 31.644000000000002
30.77605672557558 31.5821
30.799149319462742 31.4788
30.8224236211637 31.3642
30.845518789950724 31.3047
30.868615242910597 31.3226
30.891712981195973 31.1046
30.91499247215866 30.9923
30.938092794619365 31.0269
30.96119440587579 30.8996
30.984297307082752 30.7706
31.00758200598383 30.7868
31.030687500658694 30.7345
31.053794288760695 30.6325
31.076902371446767 30.4812
31.100192296997445 30.5251
31.12330298246119 30.5377
31.14641496599209 30.3719
31.169528248749216 30.3999
31.19282341969534 30.3483
31.215939314557186 30.3894
31.239056512134788 30.3787
31.262175013589378 30.3633
31.28547544871168 30.3339
31.30859657161541 30.3616
31.331719001892175 30.3344
31.35484274070538 30.4006
31.378148458819545 30.3897
31.401274828443725 30.3058
31.424402510106933 30.2567
31.447712205419993 30.3822
31.470842524931633 30.2793
31.493974159989783 30.2597
31.51710711176168 30.1542
31.54042212308802 30.239
31.563557722100917 30.239
31.586694641341655 30.1616
31.609832881979628 29.9812
31.63315322823208 29.9501
31.656294125521327 29.9306
31.679436347728515 29.8152
31.70257989602529 29.6637
31.725905596152327 29.5963
31.74905181052835 29.6478
31.772199354521323 29.7367
31.79534822930507 29.6536
31.818679302290967 29.7536
31.84183085259981 29.6378
31.864983737233473 29.6146
31.88813795736804 29.635
31.911474422233013 29.5216
31.934631327356435 29.5017
31.9577895715215 29.5343
31.980949155906522 29.5489
32.004291031706956 29.5315
32.027453310562606 29.4604
32.05061693318573 29.2969
32.07396288236386 29.3164
32.09712920658542 29.2785
32.12029687812702 29.151
32.14346589817093 29.0355
32.166817291729984 28.9618
32.18998902288583 28.9652
32.21316210610336 28.8705
32.23633654256711 28.7322
32.259693399663725 28.7812
32.282870556771144 28.7193
32.30604907069099 28.653000000000002
32.329228942610065 28.6328
32.35259128243769 28.4578
32.375773884550505 28.438000000000002
32.398957848235646 28.4854
32.422143174682176 28.388
32.445511016471215 28.2892
32.468699082679954 28.2283
32.49188851523011 28.17
32.51507931531304 28.15
32.538452678331 28.1618
32.56164622776311 28.0168
32.58484114831493 27.8826
32.60803744118015 28.0362
32.631416344731896 28.0302
32.654615396551876 27.8778
32.67781582427913 27.964000000000002
32.701198898634416 27.9265
32.72440209253756 27.7038
32.747606665947124 27.8521
32.77081262006088 27.7558
32.79420126883317 27.6477
32.81740999876112 27.6518
32.840620112999424 27.5178
32.86383161274818 27.5305
32.88722585534586 27.593000000000004
32.91044014056596 27.6015
32.933655814909734 27.5187
32.95687287957963 27.4733
32.98027273544904 27.4346
33.00349259526636 27.4055
33.026713849030116 27.386999999999997
33.04993649794511 27.344
33.073341986570746 27.3049
33.09656744032826 27.2725
33.11979429286444 27.3741
33.14302254538647 27.423000000000002
33.166433686291185 27.2715
33.18966475336992 27.166
33.212897224069096 27.0659
33.23613109959831 27.0934
33.259547912343415 27.0108
33.2827846121627 27.0844
33.306022720453775 26.9882
33.32926223842861 26.9743
33.352684742614166 26.8854
33.37592709463173 26.9454
33.399170859982064 26.8219
33.422597648419426 26.7914
33.44584425514446 26.6496
33.46909227885668 26.5935
33.4923417207723 26.4895
33.51577423505344 26.5569
33.539026528130385 26.4744
33.56228024307245 26.4005
33.585535381098246 26.32
33.60897364093058 26.3203
33.63223163992385 26.295
33.6554910656699 26.1204
33.678751919389796 26.2802
33.702195944520106 26.1419
33.72545966903325 26.1588
33.74872482519663 26.1144
33.771991414233746 26.0812
33.79544122444841 26.0404
33.81871069412428 25.8664
33.84198160035767 25.8781
33.86525394437455 25.9089
33.88870955949969 25.8631
33.911984794020626 25.8712
33.93526147001624 25.8657
33.958539588715006 25.7607
33.98200102861669 25.6295
34.0052820477047 25.5821
34.02856451319451 25.5353
34.05203033759056 25.4958
34.07531571090147 25.5289
34.09860253431845 25.5707
34.121890809074316 25.4201
34.145362493118924 25.4556
34.16865368561615 25.4066
34.191946333164054 25.3496
34.21524043699793 25.2816
34.23871800066799 25.2347
34.26201503218366 25.1668
34.28531352370466 25.2542
34.30861347646881 25.1186
34.33209693978188 25.069000000000003
34.3553998301885 25.0856
34.378704185565205 25.0408
34.402010007152356 24.9799
34.42549939016683 24.9977
34.44880815937748 24.8526
34.472118398533134 24.8388
34.49543010887669 24.8574
34.51892543169198 24.7759
34.54224009966052 24.8066
34.56555624255917 24.7169
34.58887386163339 24.6054
34.61237514439016 24.5445
34.6356957311114 24.6164
34.65901779775809 24.4531
34.68252356662995 24.4041
34.705848608458616 24.5065
34.72917513396849 24.47
34.75250314440949 24.3729
34.77601490857862 24.3145
34.799345904259795 24.2148
34.82267838863559 24.2484
34.846012362958525 24.215999999999998
34.869530142679984 24.2566
34.89286711232212 24.1891
34.91620557568269 24.1624
34.93954553401677 24.1443
34.9630693495876 24.0652
34.986412313340814 24.0627
35.00975677584668 24.0634
35.033102738362956 24.0646
35.05663261012228 23.9218
35.0799815881786 23.9722
35.10333207003229 23.8238
35.12668405694369 23.8355
35.150220005273056 23.8033
35.17357501786656 23.8299
35.19693153931268 23.7952
35.220289570874385 23.6877
35.24383161619786 23.7484
35.267192683604904 23.6231
35.290555264930376 23.6739
35.314101899412165 23.6929
35.33746752422433 23.6806
35.36083466676374 23.6558
35.38420332829803 23.5753
35.407756095629054 23.6341
35.43112781085063 23.5662
35.45450104888391 23.5122
35.477875810999194 23.5788
35.50143473172161 23.3928
35.52481255774625 23.5062
35.54819191167777 23.4091
35.57157279478914 23.3261
35.595137889488406 23.3748
35.61852184675279 23.3476
35.641907337029984 23.2778
35.665294361595684 23.2171
35.68886565090076 23.1341
35.7122557598848 23.06
35.73564740699838 23.1467
35.759040593519934 23.0877
35.78261809810353 23.0088
35.80601437933051 22.9516
35.829412203814705 22.9496
35.85281157283719 22.8454
35.876395313415884 22.9132
35.8997977874528 22.7906
35.92320180988546 22.7652
35.946790244133936 22.7276
35.97019737933222 22.6775
35.993606066789866 22.6795
36.01701630779276 22.6306
36.04061101440684 22.6015
36.06402437852291 22.6338
36.08743930005611 22.62
36.1108557802951 22.565
36.13445678011326 22.5723
36.15787639383515 22.4831
36.18129757014299 22.4647
36.20472031032821 22.3147
36.22832762423364 22.3101
36.25175350829375 22.2729
36.275180960119776 22.2881
36.298609981005924 22.3216
36.32222362992669 22.243000000000002
36.34565580510207 22.2021
36.36908955323448 22.0859
36.39252487562093 22.1151
36.416144880530226 22.0517
36.43958336764275 22.0506
36.463023432914625 22.044
36.486465077645676 21.9414
36.51009145956204 22.0352
36.53353627947859 22.094
36.55698268276811 21.9848
36.58043067073321 21.8905
36.60406345072071 21.7987
36.62751462435344 21.8531
36.65096738658405 21.8516
36.67460498210655 21.7786
36.69806093788647 21.6952
36.72151848619297 21.6734
36.744977628333636 21.6984
36.76862165890998 21.5878
36.79208400512205 21.6381
36.81554794910557 21.6339
36.83901349217101 21.4946
36.862663978991606 21.5015
36.88613273667352 21.4013
36.90960309738324 21.4111
36.933075062434064 21.3652
36.95673202673572 21.2835
36.98020721697122 21.2977
37.003684015502365 21.2596
37.027162423645365 21.2232
37.050825886711465 21.185
37.07430753063053 21.1107
37.09779078812467 21.0726
37.121275660513014 21.0313
37.144945643673694 21.0847
37.16843376245278 21.1415
37.19192350009803 21.1038
37.215414857931435 20.9946
37.239091382563885 20.8971
37.262585997426164 20.8606
37.28608223645736 20.9128
37.309763684451696 20.8591
37.33326318851098 20.8291
37.356764320726555 20.7918
37.380267082425526 20.7787
37.40395510942588 20.6913
37.42746114683234 20.7075
37.45096881771841 20.6275
37.474478123414166 20.6418
37.49817275092816 20.5169
37.52168534303452 20.5667
37.54519957395567 20.579
37.568715445024665 20.524
37.592416694607714 20.4678
37.61593586281424 20.4327
37.63945667518264 20.434
37.66297913304891 20.3047
37.68668702630454 20.352
37.710212792059274 20.3092
37.733740207334854 20.2516
37.757269273470364 20.1904
37.780983832050374 20.1783
37.80451621684926 20.1957
37.82805025654007 20.1449
37.851585952464795 20.1518
37.8753071980695 20.0563
37.89884622345676 19.9991
37.92238690911902 19.9962
37.94611318753442 19.9399
37.969657210779765 19.9298
37.99320289834801 19.8557
38.016750251586465 19.8198
38.04048325513017 19.8099
38.06403395679343 19.8177
38.087586328183946 19.8456
38.11114037065203 19.7649
38.13488012115898 19.7673
38.1584375229181 19.6777
38.181996599821 19.6384
38.205557353221124 19.6055
38.229303872575656 19.5505
38.2528679961576 19.5579
38.27643380031219 19.4965
38.30000128639589 19.5337
38.32375459653193 19.524
38.34732546371299 19.4948
38.37089801690786 19.3726
38.39447225747609 19.3457
38.418232380377425 19.3436
38.441810012983396 19.3567
38.46538933705673 19.2704
38.488970353960084 19.2154
38.51273731166058 19.2387
38.536321731567014 19.1305
38.55990784840681 19.1292
38.58367995004091 19.1216
38.60726947812959 19.0906
38.63086070726198 19.0875
38.654453638806274 19.0785
38.678232613930824 19.0379
38.70182896773327 18.945
38.72542702806741 19.026
38.7490267963045 18.982
38.77281266709232 18.9024
38.79641586862214 18.8897
38.8200207821842 18.8396
38.843627409152944 18.8723
38.86742019782782 18.8804
38.891030269149255 18.7318
38.914642058016156 18.7123
38.938255565806124 18.6701
38.96205529464307 18.6157
38.98567225787121 18.5915
39.00929094417078 18.5315
39.03291135492255 18.5464
39.05671804624804 18.5483
39.080341923549106 18.4716
39.103967529460334 18.5252
39.127594865365744 18.4877
39.15140854155791 18.413
39.17503935514948 18.3646
39.19867190290282 18.4066
39.22249083587951 18.3419
39.24612686969409 18.2902
39.269764641845306 18.3244
39.293404153722804 18.2723
39.317230110864074 18.2327
39.34087311998506 18.1412
39.36451787301696 18.2181
39.388164371352595 18.1423
39.41199737518003 18.0252
39.43564738196752 18.133
39.45929913825317 18.0532
39.48295264543308 17.9805
39.506792718520884 18.0157
39.530449745387216 17.9175
39.55410852735203 17.9356
39.57776906581474 17.9006
39.60161623079 17.8744
39.625280300200025 17.8681
39.64894613032202 17.7794
39.67261372255866 17.8313
39.6964680021016 17.791
39.72013913657293 17.767
39.74381203738292 17.7092
39.76748670593756 17.6726
39.79134812278169 17.6476
39.81502634488497 17.5856
39.83870633896685 17.593
39.862388106436654 17.5961
39.88625668336918 17.5367
39.90994201572829 17.5216
39.933629125719285 17.495
39.957503091207826 17.4236
39.9811937746168 17.4607
40.00488623990914 17.3645
40.02858048850006 17.3121
40.05246165409549 17.3305
40.076159487492085 17.242
40.099859108448875 17.248
40.123560518384345 17.2627
40.1474489070226 17.2146
40.171153913178564 17.1957
40.194860712584955 17.1687
40.2185693066637 17.12
40.242464941335314 17.0597
40.26617714307655 17.1326
40.289891143772046 17.0381
40.3136069448471 17.0251
40.33750984859743 17.0494
40.3612292688043 16.9763
40.3849504936829 16.9433
40.40867352466194 17.0061
40.43258372059144 16.8955
40.45631038219906 16.9176
40.48003885420956 16.8513
40.503769138055105 16.7983
40.52768664931955 16.8137
40.55142057531802 16.7556
40.57515631746428 16.7583
40.599079334038514 16.7347
40.62281872700477 16.6345
40.64655994043941 16.6334
40.67030297578061 16.6923
40.69423334835778 16.6715
40.71798004609188 16.5497
40.74172857006355 16.4556
40.76547892171441 16.5156
40.7894166736039 16.495
40.813170699248566 16.4535
40.83692655691388 16.4342
40.86068424804498 16.4205
40.884629402612525 16.3479
40.908390779366385 16.3757
40.932153993938 16.3315
40.95591904777605 16.3501
40.979871628443995 16.3462
41.003640379561936 16.2929
41.02741097430883 16.2817
41.05118341413683 16.2452
41.075143444384416 16.2046
41.098919593177826 16.1418
41.1226975914255 16.1299
41.14647744058318 16.0934
41.170444943946755 16.0564
41.19422851378379 16.0366
41.218013938914645 16.0566
41.24198706625173 15.958
41.26577622087193 15.9969
41.289567235177785 15.9743
41.31336011063129 15.9748
41.337340752422875 15.8871
41.361137369129835 15.8831
41.38493585138705 15.8602
41.40873620066004 15.8462
41.43272438060107 15.7632
41.45652848292052 15.7127
41.48033445666918 15.6993
41.50414230331616 15.6328
41.528138045159764 15.7003
41.551949656675205 15.6404
41.575763145513235 15.6578
41.59957851314666 15.5948
41.62358184070442 15.6134
41.64740098505737 15.6006
41.6712220126409 15.529000000000002
41.69504492493139 15.4997
41.71905586207357 15.4672
41.74288256296395 15.3914
41.766711153007456 15.4206
41.79054163368412 15.4212
41.814560204340054 15.3984
41.838394485526365 15.3574
41.86223066180303 15.3116
41.88625497706819 15.2953
41.910094962812 15.2696
41.93393684811168 15.2432
41.95778063445365 15.1383
41.981812625263366 15.1752
42.00566023303407 15.1258
42.029509746323676 15.1126
42.05336116662236 15.0661
42.077400857069705 15.1119
42.10125611078846 15.0257
42.12511327600405 15.0928
42.14897235421036 15.0229
42.173019768448455 14.9846
42.19688269209613 14.9556
42.22074753323349 14.9231
42.24461429335818 14.9855
42.268669455600495 14.9095
42.292540073217886 14.8981
42.31641261433284 14.8348
42.34028708044675 14.7999
42.36435001496739 14.8205
42.38822835065557 14.8145
42.41210861586426 14.7682
42.4359908120986 14.7869
42.46006154323262 14.6925
42.48394762115317 14.6127
42.507835634632315 14.642999999999999
42.531912233047436 14.6498
42.55580413732265 14.6233
42.579697981698 14.600999999999999
42.60359376768525 14.5407
42.62767820545945 14.5674
42.65157789440821 14.5186
42.67547952952185 14.4868
42.699383112316 14.4728
42.72347541395347 14.3911
42.74738291190531 14.3499
42.771292362102166 14.343
42.795203766063516 14.3274
42.819303956130405 14.3807
42.843219287476536 14.31
42.86713657716324 14.2883
42.89105582671383 14.2744
42.91516392983864 14.2083
42.939087119032166 14.2362
42.963012272677304 14.1991
42.98693939230129 14.1751
43.01105543317513 14.1559
43.034986504731386 14.124
43.05891954686589 14.0748
43.08285456110972 14.1071
43.10697856448665 14.0177
43.130917542983475 13.9974
43.15485849820081 13.9775
43.17880143167367 13.9387
43.20293342237094 13.9462
43.226880332449 13.8868
43.25082922540554 13.9029
43.27496722682525 13.8763
43.29892010567796 13.8166
43.32287497204102 13.8078
43.34683182745632 13.7668
43.370977859791836 13.7608
43.39493871351105 13.7658
43.41890156092628 13.7481
43.44286640358341 13.6953
43.46702049182749 13.7213
43.49098934522816 13.6755
43.51496019852649 13.6042
43.5389330532723 13.633
43.56309522248204 13.5783
43.58707210044314 13.5722
43.61105098451946 13.5116
43.63503187626491 13.5067
43.659202151562134 13.4209
43.68318707902681 13.4665
43.70717401884041 13.4395
43.731162972560874 13.4471
43.75534137913236 13.3758
43.779334381108384 13.3689
43.803329401683186 13.3347
43.82732644241872 13.335
43.8515130055166 13.3148
43.87551410707659 13.2437
43.89951723350145 13.2589
43.923709934595614 13.1986
43.94771713129917 13.209000000000001
43.97172635758096 13.1838
43.99573761501002 13.1109
44.0199385169922 13.1365
44.04395385732619 13.1188
44.067971233533086 13.0569
44.09199064718605 13.0629
44.11619977548961 13.0707
44.14022328470671 13.054
44.16424883610785 13.0469
44.18827643127035 13.0443
44.21249381139513 12.997
44.236525514814076 12.9663
44.26055926674478 12.9162
44.28459506876863 12.9268
44.3088207262813 12.8513
44.33286064928722 12.8272
44.35690262714919 12.850999999999999
44.38094666145278 12.8088
44.4051806219871 12.7919
44.42922879003185 12.7538
44.45327901929361 12.6863
44.477331311362136 12.7161
44.501573600619416 12.6587
44.525630039221795 12.6609
44.54968854541895 12.6656
44.573937102200176 12.6385
44.5979997645541 12.5849
44.622064499300315 12.5991
44.64613130803592 12.5489
44.67038823869318 12.5815
44.69445921643748 12.5012
44.718532272981385 12.47
44.742607409926194 12.4702
44.76687274034801 12.4494
44.79095205918753 12.3828
44.81503346325094 12.3985
44.839116954143876 12.3929
44.86339071028742 12.3442
44.88747839599524 12.3343
44.91156817336837 12.3085
44.93566004401666 12.2874
44.959942251908146 12.2338
44.984038330325966 12.2435
45.00813650686762 12.1862
45.03223678314731 12.2192
45.05652746888232 12.1847
45.08063196592069 12.1981
45.104738567558705 12.1279
45.128847275414856 12.1242
45.15314646515866 12.0628
45.17725940679741 12.0802
45.20137445952892 12.0676
45.22568004865265 12.069
45.24979934496396 12.0463
45.27392075725247 12.0202
45.29804428714431 11.9622
45.322358426247604 11.9431
45.346486212804315 11.9124
45.370616121861914 11.933
45.39474815505086 11.9107
45.41907087049246 11.8593
45.4432071734666 11.8377
45.46734560548283 11.8532
45.49148616817604 11.8728
45.51581748638564 11.8342
45.5399623320197 11.7792
45.56410931325473 11.7421
45.58825843173002 11.7369
45.61259837920865 11.7117
45.636751793816 11.7117
45.66090735060093 11.6652
45.68506505120716 11.6164
45.7094136545275 11.6187
45.73357566449271 11.5653
45.75773982322992 11.589
45.78190613238733 11.565999999999999
45.806263418194064 11.5021
45.83043404997326 11.4997
45.85460683713677 11.484000000000002
45.87897065658495 11.4924
45.90314777634752 11.4178
45.92732705646868 11.4398
45.9515084986045 11.4325
45.97588104735473 11.3818
46.00006683541565 11.3877
46.02425479047904 11.3382
46.04844491420549 11.3264
46.0728262191024 11.3081
46.09702070211635 11.3153
46.12121735879483 11.2795
46.14541619080294 11.2606
46.169806278764455 11.2144
46.194009483459034 11.2066
46.21821486849841 11.1848
46.24242243555223 11.196
46.266821333570014 11.1636
46.29103328674601 11.1652
46.31524742696538 11.1792
46.33946375590237 11.0939
46.36387149104216 11.052
46.38809221957392 11.027000000000001
46.41231514186606 11.0473
46.436540259597464 11.0464
46.460956858999374 10.9871
46.48518638983522 10.9793
46.509418121166966 10.9123
46.533652054678114 10.9128
46.55807754555709 10.879000000000001
46.58231590571962 10.8667
46.60655647313217 10.8401
46.630988654873654 10.8274
46.655233659129024 10.7758
46.67948087571551 10.8091
46.70373030632484 10.779000000000002
46.72817142736393 10.7801
46.752425308428684 10.755
46.77668140861147 10.7665
46.80093972960865 10.6839
46.82538981736788 10.6647
46.849652602470904 10.6096
46.87391761349769 10.658
46.8981848521493 10.6206
46.9226439341274 10.5968
46.946915650573224 10.5742
46.97118959976749 10.5803
46.99546578341598 10.5409
47.019933887188216 10.5266
47.04421456235744 10.5219
47.06849747711879 10.4903
47.09278263318286 10.4433
47.11725978640143 10.4714
47.14154944775105 10.4257
47.165841355555656 10.4372
47.1901355115306 10.3661
47.214621741924994 10.3677
47.23892041698887 10.3429
47.26322134538975 10.3059
47.28771440635075 10.2914
47.31201986422527 10.2844
47.33632758061436 10.2497
47.360637557241866 10.2433
47.38513974410611 10.2641
47.40945426407847 10.1849
47.43377104948137 10.2011
47.45809010204344 10.2012
47.48260144275502 10.1382
47.506925052572285 10.1634
47.53125093475548 10.1198
47.55557909103813 10.1168
47.58009961361992 10.0987
47.60443234110732 10.0529
47.62876734791564 10.0571
47.65310463578333 10.0237
47.6776343683373 10.017000000000001
47.7019762413987 10.0026
47.72632040075572 10.002
47.75066684815169 9.97232
47.77520581885936 9.93155
47.799556865477655 9.911489999999999
47.823910205386 9.91227
47.84826584033272 9.90896
47.87281407745551 9.85051
47.89717432569297 9.866610000000001
47.92153687423484 9.86358
47.94609208429692 9.82991
47.97045925671401 9.7944
47.99482873471275 9.75566
48.01920052005013 9.73888
48.04376504619224 9.71777
48.068141469543484 9.736310000000001
48.09252020552573 9.73338
48.11690125590099 9.7076
48.1414751266064 9.68735
48.16586082917454 9.65757
48.19024885144316 9.66035
48.2146391951793 9.634160000000001
48.239222439012764 9.606810000000001
48.26361744916137 9.581560000000001
48.28801478610016 9.6039
48.31241445160131 9.59635
48.337007097209366 9.58003
48.36141144338331 9.555710000000001
48.38581812345755 9.52175
48.41022713920929 9.48753
48.434829215320704 9.486
48.45924292604658 9.466460000000001
48.48365897780325 9.46853
48.50807737237308 9.44005
48.532688907799276 9.44998
48.55711201168574 9.38075
48.581537463754074 9.3494
48.60615611725119 9.37262
48.63058628942721 9.35257
48.65501881516546 9.34078
48.6794536962573 9.300510000000001
48.70408185970339 9.29631
48.72852147531801 9.26495
48.75296345168211 9.25933
48.77740779059232 9.27362
48.80204549302823 9.23348
48.82649458091802 9.21636
48.85094603676547 9.1779
48.87539986237231 9.15903
48.90004713292306 9.152000000000001
48.92450572200832 9.140880000000001
48.94896668628025 9.0962
48.97343002754588 9.08808
48.99808689542115 9.093010000000001
49.02255501470614 9.028189999999999
49.04702551642794 9.03655
49.0714984023988 9.04681
49.096164896893235 9.00887
49.120642575466796 9.01401
49.145122643748394 8.97682
49.16960510355558 8.9348
49.19428125404938 8.942960000000001
49.2187685210852 8.96375
49.243258185121555 8.896510000000001
49.26794160167084 8.85569
49.2924360839405 8.84008
49.31693296869764 8.85467
49.34143225776915 8.86123
49.36612538195438 8.80637
49.39062950396021 8.8213
49.41513603578346 8.801839999999999
49.4396449792564 8.7758
49.46434784069503 8.75925
49.488861631846454 8.69412
49.513377840166804 8.71839
49.537896467493745 8.68367
49.56260909589029 8.662560000000001
49.587132585683285 8.65794
49.611658500018365 8.62539
49.636186840738596 8.63372
49.66090926588511 8.63727
49.685442483902584 8.60895
49.70997813385706 8.58284
49.734516217597076 8.551210000000001
49.75924846937352 8.53908
49.7837914452858 8.517510000000001
49.80833686055187 8.50787
49.83288471702571 8.50261
49.85762682540054 8.52034
49.882179588965734 8.46888
49.9067347993235 8.45335
49.93129245833333 8.4507
49.95604445336378 8.46059
49.98060703442832 8.40755
50.005172069746266 8.354
50.02993150438364 8.384730000000001
50.05450147301533 8.38574
50.07907390151433 8.33617
50.10364879174981 8.31767
50.12841816587289 8.319519999999999
50.1529980044635 8.31855
50.17758031042124 8.27491
50.20216508562089 8.25349
50.22694442953363 8.24147
50.25153416817468 8.21135
50.27612638170508 8.2076
50.300721072005196 8.15363
50.325510416102105 8.198189999999999
50.350110084975064 8.1787
50.37471223628208 8.19508
50.39931687190919 8.14093
50.424116246675766 8.114239999999999
50.44872587605249 8.10287
50.47333799543065 8.04706
50.49795260670191 8.09021
50.52276204271512 8.08565
50.54738166295838 8.070210000000001
50.57200378079314 8.03758
50.596628398116835 8.00798
50.62144792604559 8.00718
50.646077567609396 8.015989999999999
50.670709714377715 7.99228
50.69553683636198 7.980580000000001
50.72017401885922 7.96612
50.7448137122895 7.938460000000001
50.76945591856022 7.93151
50.79429318636823 7.92357
50.818940443716784 7.8990800000000005
50.84359021965163 7.857489999999999
50.868242516085964 7.8431
50.893089960641895 7.83863
50.917747323549435 7.77584
50.94240721271973 7.80635
50.96706963007175 7.78032
50.99192728239342 7.7614
51.01659478166073 7.787539999999999
51.04126481489051 7.75857
51.06593738400761 7.728260000000001
51.090805275207074 7.7342699999999995
51.11548294172845 7.70242
51.14016314993547 7.65637
51.164845901758845 7.66918
51.18972406304274 7.6334
51.21441192780656 7.60435
51.23910234200271 7.604210000000001
51.2637953075678 7.59885
51.288683770237945 7.57365
51.31338186432707 7.56358
51.33808251561888 7.54939
51.362978729967345 7.55278
51.387684521509755 7.5347100000000005
51.41239287610203 7.49591
51.437103795691165 7.478610000000001
51.46201036644977 7.48388
51.486726441956634 7.46082
51.51144508832545 7.455260000000001
51.536166307509156 7.436939999999999
51.56108326624387 7.41736
51.58580965706056 7.413119999999999
51.61053862657523 7.387410000000001
51.635270176746864 7.3819
51.66019755512065 7.3657
51.68493429268881 7.321739999999999
51.70967361681515 7.340260000000001
51.73441552946465 7.31797
51.759353359237934 7.32533
51.7841004750961 7.280589999999999
51.80885018539685 7.286230000000001
51.833602492111254 7.25016
51.8585508051424 7.20901
51.883308330926425 7.20834
51.90806845906181 7.16395
51.932831191525715 7.20343
51.95779001977161 7.17963
51.98255798721516 7.1557
52.00732856494335 7.1245199999999995
52.03229530577543 7.13588
52.057071130455945 7.12362
52.081849571391054 7.10845
52.106630630568695 7.07017
52.13160794279417 7.058839999999999
52.15639426492067 7.0460899999999995
52.18118321127822 7.0608699999999995
52.205974783860896 7.0148600000000005
52.23096269971011 7.010110000000001
52.255759551287994 6.992089999999999
52.280559035098186 6.97075
52.30536115314103 6.97397
52.33035970494467 6.97519
52.35516711807904 6.95023
52.37997717147198 6.88293
52.40478986713005 6.91316
52.42979908731974 6.90062
52.454617094216 6.84373
52.47943774942214 6.85118
52.50426105495102 6.84997
52.529280976059844 6.8353
52.554109609024096 6.7996
52.57894089837482 6.8379199999999996
52.60377484613117 6.83182
52.62880550079408 6.7720199999999995
52.65364479223379 6.79287
52.67848674816189 6.71535
52.70352547971946 6.7103
52.72837279155837 6.7281
52.753222773982785 6.69603
52.778075429022984 6.70955
52.80312495150885 6.709339999999999
52.827982978797436 6.72693
52.85284368481815 6.6899
52.87770707160767 6.652989999999999
52.90276741793998 6.60637
52.92763619336701 6.62495
52.952507655698504 6.6031699999999995
52.977381806977576 6.60549
53.00245301017842 6.59046
53.02733256653592 6.574610000000001
53.052214817996074 6.52416
53.077099766608484 6.5002
53.102181859804446 6.51524
53.127072229988265 6.50327
53.15196530349892 6.47604
53.17686108239249 6.4539599999999995
53.20195409881522 6.48912
53.22685531582556 6.508380000000001
53.25175924441303 6.44704
53.27666588664027 6.42673
53.30176985962693 6.40207
53.3266819565689 6.401619999999999
53.35159677336455 6.36271
53.376514312083096 6.39085
53.40162927507703 6.36808
53.42655228516116 6.38699
53.45147802340193 6.323580000000001
53.47660125628886 6.34814
53.50153247842639 6.30848
53.52646643496923 6.27921
53.55140312799818 6.29507
53.576537409691696 6.29633
53.60147960336152 6.29384
53.626424539786164 6.29131
53.65137222105307 6.254569999999999
53.67651758529126 6.244190000000001
53.70147078399681 6.17981
53.72642673383343 6.17218
53.75138543689533 6.15433
53.776541917524526 6.1469
53.801506154876755 6.1472
53.826473151763246 6.1352199999999995
53.851442910284916 6.14395
53.87661054126026 6.0697
53.9015858509782 6.10214
53.92656392866066 6.08902
53.95154477641532 6.06241
53.976723591801296 6.00842
54.00171000771266 6.02744
54.02669920004598 6.02383
54.051691170915745 5.99737
54.076881204886796 5.97865
54.101878760928514 6.00496
54.12687910187696 5.9898
54.152077577768296 5.94528
54.1770835166946 5.93979
54.20209224691339 5.97964
54.22710377055121 5.91395
54.25231352511594 5.9051599999999995
54.27733066384342 5.8621
54.30235060239643 5.83436
54.32737334290836 5.82714
54.35259441062629 5.81404
54.377622783395324 5.83111
54.40265396455061 5.785819999999999
54.42768795623251 5.78426
54.45292037169559 5.76581
54.477960012857906 5.76358
54.50300247099511 5.72283
54.52804774825457 5.73307
54.55329154616743 5.69528
54.57834249018678 5.67636
54.6033962597977 5.6532800000000005
54.6284528571545 5.62893
54.653708072335164 5.61001
54.67877035378786 5.6178
54.70383546947698 5.5626
54.72890342156389 5.53285
54.7541700889442 5.50605
54.77924374251975 5.553730000000001
54.8043202390049 5.5389
54.82959552413022 5.53432
54.8546777351945 5.45065
54.87976279569621 5.43485
54.90485070780914 5.4720699999999995
54.930137506558005 5.38246
54.95523115074295 5.41181
54.98032765308844 5.35645
55.005427015775496 5.39864
55.03072536339621 5.3660000000000005
55.05583047570572 5.33228
55.080938454927676 5.30771
55.10604930325027 5.29035
55.131359235107396 5.2805
55.15647585066083 5.2198199999999995
55.181595341907496 5.21598
55.20671771104285 5.15433
55.232039262617704 5.12016
55.25716741665048 5.16362
55.28229845518636 5.14867
55.30743238042802 5.08925
55.33276558731939 5.09163
55.357905315183636 5.10299
55.383047936390035 5.00605
55.40819345314859 5.0191300000000005
55.433538351073295 5.00172
55.458689688238415 5.02053
55.483843927614096 4.94321
55.509197623043605 4.9261
55.53435769621134 4.894
55.55952067826466 4.9006099999999995
55.5846865714265 4.84626
55.61005202069737 4.85573
55.63522376553902 4.83599
55.66039842818645 4.785069999999999
55.68557601087004 4.79996
55.7109532500271 4.713369999999999
55.73613670233794 4.70672
