TT I
1.2716486653135266 7.487889999999999
1.2939594142134223 6.88635
1.3162702121660406 6.85308
1.3385810600174564 6.3071
1.3608919586137629 6.914969999999999
1.383202908801069 6.730860000000001
1.405513911425503 5.88834
1.4278249673332093 5.831580000000001
1.4501343378461518 6.03886
1.4724455028545926 5.89086
1.4947567236847858 6.11975
1.517068001182951 5.7342699999999995
1.5393793361953272 5.8943
1.5616907295681737 6.32639
1.5840021821477681 5.58436
1.60631369478041 5.18243
1.6286252683124185 5.34469
1.6509369035901333 4.58156
1.6732468618895553 4.61437
1.695558623192809 4.44635
1.7178704487808514 4.89553
1.7401823395001077 4.5263800000000005
1.7625012545597203 4.40907
1.7848028405262486 4.90885
1.8071218901122095 4.7083699999999995
1.8294236121921872 4.63221
1.8517427996910911 4.2462599999999995
1.8740620574440425 5.04009
1.8963639900671978 4.9292
1.9186833908139995 4.8866
1.9409854680117449 4.98712
1.9633050151394713 4.52871
1.9856246367570705 4.4627099999999995
2.0079269371922672 4.18715
2.03024671027244 3.9823699999999995
2.0525491637446027 4.07757
2.074869091674931 4.40039
2.097171701569106 4.84366
2.1194917877373847 5.2178
2.141811954326636 4.8097199999999996
2.164114805233074 4.79649
2.186435135143035 5.5669900000000005
2.208738150935709 12.6257
2.231058647554722 25.8095
2.2533792288321184 19.7899
2.275682498336085 9.422830000000001
2.298003251406138 5.60334
2.3203066942619714 4.98952
2.3426276225136022 5.21622
2.3649486396617507 5.5442800000000005
2.387252348930071 6.2905
2.4095735463442893 5.62076
2.4318774374315884 6.11797
2.4541988185014043 5.9644
2.476502894794693 6.6475800000000005
2.498824462909887 6.4955300000000005
2.521146125856138 6.07751
2.5434504863470337 7.54018
2.5657723414244717 7.5808
2.588076895590662 7.68192
2.610398946189713 8.0926
2.6327210958598384 8.41265
2.6550259469304716 7.4336199999999995
2.6773482972090137 7.95615
2.6996533504259 7.45288
2.7219759047039602 8.1297
2.744298562293959 8.26004
2.7666039251246595 8.094619999999999
2.7889267918020164 8.33559
2.8112323652516555 8.62429
2.833555444408179 8.64672
2.8558786311183852 8.35185
2.8781845268938557 8.75923
2.9005079311721484 8.87642
2.9228140460410397 9.36882
2.9451376712799635 9.769210000000001
2.967444008632326 10.0135
2.9897678582247247 9.52742
3.0120918213106695 10.5206
3.0343984987899373 11.0265
3.0567226913198637 11.3869
3.079029599759726 11.7786
3.101354025127254 11.739
3.123678568232338 12.7704
3.145985829517914 12.6667
3.16831061055229 13.186
3.1906181112775593 14.4586
3.212943133635653 15.0896
3.2352682779763207 15.4265
3.2575761442691227 15.8403
3.2799015350264273 15.7177
3.302209649240067 16.17
3.3245352898092655 16.6956
3.3468436553365257 17.3612
3.369169549113219 17.4968
3.3914955708171384 18.6782
3.413804319727358 19.2837
3.4361305997334863 19.3881
3.4584396084414553 19.8784
3.4807661501462652 20.0037
3.503092824025881 20.878
3.5254022288463154 21.4029
3.5477291695206588 21.9599
3.5700388426251948 22.3815
3.5923660534916446 23.9251
3.6146934007816114 37.592
3.637003482731501 82.0656
3.6593311053109985 89.1614
3.681641464033634 52.0562
3.7039693653009733 29.822
3.726297407241705 26.0905
3.7486081875460804 25.4843
3.7709365132734978 26.0032
3.793247578841633 26.299
3.8155761917550093 26.6279
3.8378875459837216 27.0193
3.8602164494827234 27.5428
3.882545499606844 28.4322
3.9048572932539183 29.0813
3.9271866390645718 29.1767
3.9494987298666713 29.6192
3.971828374764527 29.9304
3.9941581705403255 30.5591
4.016470713506008 31.4587
4.038800813471445 31.7594
4.061113662089144 32.746
4.0834440696459176 33.5949
4.105774632334751 34.032
4.128087945865126 34.6462
4.150418821249301 35.6956
4.172732448931298 36.4578
4.195063640413578 38.4513
4.2173775856475215 42.1036
4.239709096631102 72.4298
4.262040768704612 216.773
4.284355196706267 287.027
4.306687193387355 187.113
4.329001947444346 77.2006
4.35133427213731 47.5455
4.373666762177566 44.3433
4.395982011761091 44.6123
4.418314834921175 45.5144
4.44063041906622 52.6422
4.4629635787515625 62.0719
4.4852969080429785 62.358000000000004
4.5076130004776225 53.1202
4.529946671403969 50.18
4.552263106909177 50.2213
4.574597122877047 51.0817
4.596931312711224 52.3728
4.619248269273446 53.129
4.6415828092605835 54.4108
4.663900117405352 55.2054
4.686235010953232 56.8047
4.708552674085913 57.9137
4.730887924602802 59.2223
4.753223354952695 60.8233
4.775541557023902 62.4358
4.797877349456786 63.8336
4.820195915032126 66.195
4.842532072957498 67.4633
4.864868414979744 68.9081
4.88718753227192 71.3137
4.909524244902505 73.5812
4.931843734218147 74.8045
4.954180820867835 77.568
4.976518095879839 80.2977
4.998838149695359 83.1174
5.021175803844231 86.7351
5.043496238205739 89.6797
5.065834274903528 94.1805
5.088172504230693 98.7786
5.1104935158799565 105.24700000000001
5.132832132875765 126.015
5.155153533596801 164.293
5.1774925416746225 195.74
5.199814334878411 336.94300000000004
5.2221537374521505 948.9119999999999
5.244493338631803 2857.53
5.266815727034316 7744.17
5.289155727832427 12466.2
5.311478517248165 8889.76
5.333818921080011 2886.48
5.356159527788849 553.891
5.3784829252032536 184.328
5.400823940070432 143.608
5.423147747031976 127.5
5.445489173474152 118.66799999999999
5.467830807066149 112.995
5.490155234831516 109.59299999999999
5.512497285125229 106.00200000000001
5.534822130975162 103.926
5.557164601388673 101.69
5.579489868738879 99.2212
5.601832762690846 98.4751
5.6241758697774475 96.995
5.646501775867269 96.1641
5.668845311622074 95.0
5.691171647754637 93.8989
5.713515615597765 92.7844
5.735859800852677 91.8836
5.758186788542988 90.965
5.780531411018185 91.1128
5.802858837297399 90.7294
5.825203900414495 90.8128
5.8475491852224 91.2805
5.869877275883075 91.6175
5.892223006467101 92.179
5.914551544266608 93.3304
5.936897724049891 95.824
5.959244129804903 100.51299999999999
5.981573344815301 117.171
6.0039202049061 200.293
6.026249875609095 439.105
6.04859719346037 951.1389999999999
6.070927323278297 2202.62
6.093275102315365 4482.23
6.115623113320588 5065.78
6.137953938319995 3202.07
6.160302415650845 974.7869999999999
6.182633708324452 234.11900000000003
6.2049826554078376 113.07700000000001
6.227331838745022 91.7175
6.249663839443684 84.709
6.27201349767565 82.359
6.294345974611799 87.8139
6.316696111167083 97.5224
6.339046488263839 92.0785
6.361379686074702 78.5501
6.383730546639482 71.4674
6.406064229255215 68.6896
6.428415576718203 67.8435
6.450749747566656 66.8777
6.47310158535871 66.0842
6.495453669698332 64.9349
6.517788579421056 64.3605
6.540141159237969 63.7259
6.562476565766648 63.272
6.5848296444934045 62.648999999999994
6.607182974060425 62.306000000000004
6.6295191323281015 62.5065
6.651872965955752 65.9989
6.6742096296068985 89.22200000000001
6.6965639707294615 130.184
6.71891856698715 128.779
6.741255995248479 90.0198
6.763611104154477 67.2163
6.785949046381137 60.4285
6.808304671371482 58.2392
6.8306605557940046 57.9707
6.852999275508618 57.0286
6.875355681171544 57.013999999999996
6.897694923437771 56.8492
6.92005185377892 56.4344
6.9423916220322655 56.4269
6.964749080490181 55.5919
6.987106804399774 55.4985
7.009447368180821 55.7521
7.031805625367033 55.323
7.054146723727803 55.383
7.076505517631004 54.8467
7.098864581288365 55.0444
7.121206488070854 54.7149
7.143566093607822 55.2486
7.165908543567245 55.0684
7.188268694426048 55.0481
7.2106291193438095 55.2194
7.232972390625943 56.6165
7.255333366030969 68.8648
7.277677189091925 116.712
7.300038718428332 158.894
7.322400526130865 133.659
7.344745183422596 84.4321
7.367107550224791 60.7663
7.389452767901992 56.0952
7.411815697249891 55.0699
7.434161478756298 54.3369
7.456524974096713 54.3517
7.478888753837185 54.364
7.501235387657368 54.5401
7.523599738562711 54.6754
7.545946944825532 54.6113
7.568311870344528 55.0469
7.5906770845765665 55.3446
7.613025156078678 56.3939
7.635390950099687 57.5388
7.657739602662809 56.7468
7.680105979923558 55.7503
7.702472650212829 56.0794
7.724822180948224 55.7363
7.747189439655568 55.8644
7.769539560075357 56.028999999999996
7.791907410653562 56.3019
7.81425812420825 56.3492
7.836626570110925 56.6781
7.858995315087906 57.288999999999994
7.881346924933401 57.6171
7.903716270417482 58.1016
7.926068482028405 58.4391
7.948438431475253 59.1627
7.9708086843180235 59.6841
7.993161805171116 60.1991
8.015532667162402 60.2951
8.037886398416653 61.4887
8.060257873014221 61.8802
8.082629655331942 62.6309
8.104984308787587 63.9619
8.127356708900503 66.7697
8.149711981398308 71.7782
8.172085002766314 74.0008
8.194458336181368 70.9451
8.216814543847752 68.6857
8.23918850371002 69.0225
8.26154533906492 69.9885
8.283919928836452 71.8175
8.306277395339652 72.6252
8.328652618483376 73.5403
8.351028159736202 75.6472
8.373386579575245 77.8365
8.395762759396959 80.0946
8.418121819038275 84.5472
8.440498640894003 96.1841
8.462875785192262 109.28
8.485235811156207 120.031
8.507613602688501 158.514
8.529974277114228 242.488
8.552352719347912 377.962
8.574731488360351 649.7130000000001
8.59709314210385 1193.07
8.619472567021075 1850.17
8.64183487789147 2162.89
8.664214962183097 1782.98
8.686577933647762 957.1339999999999
8.708958680784317 381.091
8.731339760774953 165.567
8.753703729764451 110.677
8.77608547780821 98.8655
8.798450116065078 95.3268
8.820832535634787 92.2825
8.843215292401656 90.9476
8.865580941199045 89.3936
8.887964374703538 88.0696
8.910330701447199 89.0041
8.932714815164482 91.2285
8.955099270424924 90.2634
8.977466620733543 87.3597
8.999851761421976 84.9072
9.022219798361645 83.5198
9.04460562795561 83.287
9.066991803441677 82.3398
9.089360876979615 82.4259
9.111747746589993 82.3919
9.13411751544971 81.5765
9.156505082664324 81.6101
9.178875550323522 81.9971
9.20126381862328 82.4305
9.223652438908596 82.6552
9.246023961427412 82.2859
9.26841328802173 81.8786
9.290785518039224 81.6081
9.313175554425882 82.0158
9.335565947154315 82.0251
9.357939245086508 82.4815
9.380330352834827 82.8625
9.40270436697103 83.0474
9.425096193225055 82.5957
9.447488380180165 83.6838
9.469863475295412 83.7079
9.492256385987508 84.6018
9.514632206018318 85.0227
9.537025843935714 85.0863
9.559402392368193 85.9959
9.581796761000229 87.23299999999999
9.604191496441521 87.8568
9.626569144158516 91.2609
9.648964615551032 95.2447
9.671343000390081 97.1091
9.693739211225699 95.2706
9.716135793237463 93.2522
9.738515290448102 92.9893
9.760912617143402 93.0999
9.783292860202891 94.6592
9.805690935076182 96.0345
9.828089385495742 97.2953
9.850470754023561 99.5382
9.872869957865444 106.727
9.89525208097539 120.488
9.917652041736662 131.444
9.940052382417589 130.832
9.962435644102392 137.274
9.984836746950979 173.007
10.007220771957746 234.672
10.029622640473708 338.439
10.052007432299963 521.258
10.074410069984072 825.243
10.096813093716005 1279.28
10.119199042482517 1764.36
10.141602840636468 1946.57
10.163989564971628 1579.47
10.186394141051062 895.5169999999999
10.208799107559706 403.73400000000004
10.231187001965623 188.312
10.253592751657669 125.633
10.275981430388155 112.851
10.298387966769793 111.999
10.320794897965431 113.945
10.343184759907361 112.316
10.36559248305461 107.37200000000001
10.387983138083852 104.012
10.410391656691655 106.87899999999999
10.432800574501677 117.137
10.455192425893369 133.649
10.47760214443012 158.471
10.499994797678786 203.998
10.522405320453982 286.124
10.54479877906917 410.037
10.567210109595656 510.515
10.5896218454736 578.318
10.612016518879773 508.659
10.634429067781074 355.835
10.656824555333241 204.375
10.679237920773568 125.93
10.701651695961992 96.5569
10.724048411481384 89.3977
10.746463008485165 86.3523
10.768860546937125 84.4402
10.791275969274796 82.7345
10.81369180576079 82.0567
10.836090585366925 80.8315
10.858507252467449 79.5721
10.88090686379991 78.5747
10.903324365036394 77.9401
10.925724811614439 77.9202
10.948143150509463 79.0273
10.970561909719066 78.2319
10.992963615930844 76.36399999999999
11.015383218085756 74.1406
11.037785768347074 73.0644
11.06020621697282 72.5947
11.082627090322113 71.9603
11.105030913430326 71.2676
11.12745263854165 71.9934
11.149857314510728 75.181
11.172279894912576 80.1942
11.194702904450653 80.5646
11.217108866490921 76.7526
11.239532736615194 73.0353
11.26193956033512 71.17699999999999
11.284364294577085 69.814
11.306789462371718 67.8514
11.329197585398376 67.1166
11.351623622610898 66.8707
11.37403261614354 65.7139
11.396459526308487 65.5666
11.418869393879497 65.2943
11.441297180532617 65.0678
11.463725406927658 64.5798
11.486136592353875 64.5478
11.508565700543707 65.1446
11.530977768845315 66.7096
11.553407762368774 67.2477
11.575838200059769 66.6233
11.598251599479612 64.7771
11.620682927815501 63.4862
11.64309721895548 63.3953
11.665529441478206 63.0488
11.687962112597958 62.7556
11.710377748130886 62.8865
11.732811318753434 62.7294
11.755227854859067 62.7995
11.777662328529495 62.6918
11.800079768750786 62.4694
11.822515149015453 62.2108
11.844950984084935 62.5003
11.867369787303163 62.1505
11.889806534289491 62.2149
11.912226250487029 62.4663
11.934663912939751 62.4776
11.9571020346363 62.5253
11.979523127133968 62.4692
12.001962169624331 63.0341
12.024384183972964 64.1247
12.046824150809913 67.0336
12.069264581333726 72.0449
12.091687985297767 78.0118
12.11412934550045 87.0349
12.136553680195208 103.09299999999999
12.158995973632788 124.90299999999999
12.181438735204349 155.825
12.20386447284199 180.763
12.226308172985636 200.549
12.24873485024193 193.838
12.271179492516982 163.257
12.293607112949127 125.104
12.316052700916226 95.4527
12.338498763250042 77.8769
12.360927805303868 69.8249
12.383374818673879 66.0375
12.405804812803074 64.1726
12.428252780773262 64.0448
12.45070122756722 64.069
12.473132656675375 63.9574
12.49558206341869 64.0849
12.518014453510101 64.0588
12.540464823770117 64.25399999999999
12.562915677315177 64.348
12.58534951575545 65.1653
12.607801338171472 67.2672
12.630236146511358 71.9179
12.652688941369085 75.8392
12.675124723177234 76.3055
12.697578494048786 72.8994
12.720032754458185 68.9889
12.742470003354093 67.5684
12.764925245138771 67.5428
12.787363476431278 67.7112
12.809819703166806 68.279
12.83227642391173 69.0023
12.854716135692716 69.3529
12.877173846755147 70.5008
12.899614549869717 70.6504
12.9220732548287 71.5381
12.94453245827299 71.9527
12.966974655289818 73.0206
12.989434858002571 73.7366
13.011878055298721 74.4038
13.034339260862497 75.3008
13.056800969391883 76.5723
13.079245674017244 78.3847
13.101708390774869 80.6586
13.12415410463411 86.9608
13.146617833206086 98.09100000000001
13.169064559883248 109.84299999999999
13.191529303857127 124.296
13.213994557076367 147.35399999999998
13.236442809902437 185.56599999999997
13.258909083908291 241.433
13.28135835851934 305.341
13.30382565690295 370.173
13.326293469022952 417.79400000000004
13.348744283242008 412.54699999999997
13.371213125129904 354.88300000000004
13.39366497011003 264.23400000000004
13.416134845360597 176.415
13.438605238843131 126.26
13.46105863690397 105.766
13.483530069144786 104.324
13.505984506951902 109.3
13.528456981549432 119.105
13.550929978879088 134.489
13.573385983253365 159.234
13.595860028340867 198.979
13.618317081455832 251.385
13.64079217790333 307.047
13.663250283359057 342.629
13.685726434770173 361.466
13.708203115221277 330.273
13.730662806148091 259.105
13.75314054697177 183.78099999999998
13.775601299246777 127.85700000000001
13.798080104050406 97.5122
13.820559442405358 85.171
13.843021793671388 81.4792
13.865502201420897 79.8122
13.887965623051947 79.2997
13.910447103807167 78.0451
13.932929122629764 76.8974
13.955394156785959 76.5222
13.977877254034569 75.7295
14.000343367582113 74.7146
14.022827546871707 73.962
14.045294743423524 73.2608
14.06778000837062 72.7718
14.090265817715476 72.6744
14.112734645763819 72.293
14.13522154619454 71.9022
14.157691466286913 71.9134
14.180179461423874 71.7474
14.202668005486178 71.2554
14.22513957064374 70.7893
14.247629214846473 70.1813
14.270101881097517 69.7405
14.29259262906496 70.0807
14.315083930490205 71.0783
14.337558255389705 71.1641
14.360050666019726 70.8087
14.382526101071944 69.7179
14.405019624534942 69.0568
14.427513705993134 68.5026
14.449990813291825 68.4482
14.47248601302899 68.3288
14.49496423954951 68.6079
14.517460561197822 68.6074
14.539939910570322 68.2733
14.562437357763558 68.8611
14.58493536931253 69.5732
14.607416409993311 70.5345
14.62991555254159 71.3407
14.652397725157423 71.1367
14.674898002342799 70.6838
14.697398848433282 70.1978
14.719882725991326 70.7888
14.74238471217934 71.5916
14.764869730765593 74.6182
14.787372860692983 77.9777
14.809876564079925 82.5437
14.83236330125751 88.2585
14.854868153850365 97.0077
14.877356041159485 111.01799999999999
14.899862046604186 129.872
14.922351087688757 155.231
14.944858249632887 182.12599999999998
14.967365991421232 206.7
14.989856770231246 217.303
15.012365673994204 212.43599999999998
15.03485761569738 184.42700000000002
15.05736768508665 147.05700000000002
15.07987833888692 115.351
15.102372032001655 90.5927
15.124883856909658 77.0376
15.14737872204565 71.9388
15.169891721717274 70.2646
15.192405310371893 70.1657
15.214901940621196 70.42
15.237416709527137 70.4174
15.259914520936249 70.3331
15.282430473753607 69.3952
15.304947020131227 68.2943
15.327446610371178 67.72399999999999
15.349964346154254 66.9268
15.372465126703139 66.5765
15.394984055556009 66.4531
15.417486030076159 65.972
15.44000615566487 66.0124
15.462526881230803 65.8628
15.485030653812652 65.8731
15.507552581617434 66.1938
15.530057557334603 66.0936
15.55258069104857 65.757
15.575104429329837 65.7073
15.597611216864632 65.4713
15.620136166564563 65.51100000000001
15.6426441664095 66.3558
15.665170331202765 68.4674
15.687697105158826 71.442
15.710206930593545 74.8358
15.732734925158933 78.9914
15.755245972089478 85.5191
15.77777519094324 94.7775
15.800287463046663 108.154
15.822817909869592 127.85700000000001
15.84534897229804 150.145
15.867863089299354 172.4
15.890395385222186 187.07299999999998
15.912910736597423 189.076
15.935444269699861 179.429
15.957978423016485 153.37
15.980495633101265 123.76
16.003031029129367 97.4936
16.02554948280019 77.7311
16.048086125229432 68.1654
16.070623392487107 65.0216
16.09314371869582 64.1744
16.11568223789321 63.0825
16.13820381691126 62.1124
16.160743591742527 61.172
16.183283996022084 60.2163
16.205807461423195 59.1881
16.228349126881973 58.6671
16.25087385432698 58.6989
16.27341678466365 58.0088
16.29594277784926 58.2115
16.31848697676433 58.2396
16.341031811604868 58.506
16.36355971058487 58.8783
16.3861058195587 58.3134
16.40863499352978 57.1776
16.431182380342005 56.5473
16.453730407713202 55.9721
16.476261501364792 55.7067
16.498810812136167 55.34
16.52134319004079 55.332
16.54389378792203 55.0751
16.566445031001553 55.123000000000005
16.588979342490088 54.9084
16.61153187824822 54.7927
16.634067483263312 54.5468
16.656621315414416 54.4982
16.679175797408888 54.2133
16.701713349928728 54.3471
16.72426913389191 54.5968
16.74680798922351 54.586999999999996
16.76936507887444 54.5247
16.791905240734874 54.8196
16.814463639794468 54.7572
16.837022695210294 54.5747
16.859564824093756 54.9872
16.882125194503903 55.4895
16.904668639217885 56.1539
16.927230328348003 56.0713
16.949792678493612 56.3449
16.972338104193863 55.8651
16.994901778652235 55.3465
17.017448529496576 55.2169
17.040013531998152 55.6166
17.06257920018044 55.9767
17.0851279459922 56.8442
17.107694947817667 57.6301
17.130245028099072 58.4852
17.15281336730298 59.7805
17.17536478578733 61.2338
17.19793446610687 63.6075
17.220504818648422 66.5734
17.243058251703697 70.0776
17.265629950971032 74.6307
17.288184731571736 78.8762
17.310757781306908 82.0496
17.33333150794385 83.8625
17.355888317140174 81.6449
17.37846339986244 76.2019
17.401021565958885 70.5247
17.42359800851343 65.4843
17.44617513265564 62.0471
17.468735341390783 60.0652
17.491261035594565 58.9199
17.51396340099364 58.7278
17.536490463869136 58.8507
17.559018209820174 58.8808
17.58154663977963 58.8935
17.604251766089718 59.0061
17.626781572227713 59.3204
17.64931206518155 59.5921
17.671843245885103 60.1037
17.69455114821572 60.3978
17.717083712612634 60.6747
17.739616967569667 60.669
17.762150914021706 61.1176
17.78486160749854 60.8628
17.807396945166804 61.5968
17.829932977143503 62.3897
17.85246970436452 64.0101
17.875183204129467 65.7478
17.897721330097664 67.6947
17.920260154126645 70.0468
17.942799677153296 73.2174
17.9655159983646 77.0866
17.988056927677544 82.1792
18.010598558807683 90.4223
18.033140892692916 100.735
18.05586005052525 111.62100000000001
18.07840379824407 122.584
18.10094825154059 132.086
18.12366954819864 138.55200000000002
18.146215420998306 136.881
18.16876200220057 130.273
18.191309292745153 116.89200000000001
18.214033452627167 103.17299999999999
18.236582170236648 91.9714
18.259131600016456 87.1993
18.281681742907335 86.9621
18.304408781233683 91.0216
18.32696035875955 95.7125
18.349512652227624 100.069
18.372065662579683 103.98100000000001
18.394795594587553 104.991
18.41735004715306 101.712
18.43990521943684 94.8133
18.46246111238171 86.3403
18.485193953325208 77.0467
18.507751296070428 69.8635
18.530309362314178 65.7484
18.552868153000343 63.4396
18.57560391815056 62.0073
18.59816416623245 61.2929
18.620725141597372 60.8977
18.643286845190268 60.5517
18.666025549835414 60.1824
18.688588718427933 59.6254
18.711152618092243 59.477
18.73389353884365 59.2929
18.75645890921984 58.5638
18.77902501351406 58.4158
18.801591852673102 58.3612
18.824335739722738 57.8803
18.846904057212626 57.9104
18.8694731124168 57.538999999999994
18.89204290628315 57.4594
18.914789774966803 57.2801
18.937361054791623 57.0979
18.959933076131318 56.86600000000001
18.982505839934877 56.7626
19.00525570560582 56.8881
19.027829963004184 56.6691
19.05040496572238 56.6601
19.072980714710468 56.7292
19.095733592739563 56.8472
19.11831084296757 57.1401
19.140888842324735 57.6059
19.16346759176222 57.7883
19.18622349753803 58.0882
19.208803755869358 59.143
19.231384767143577 60.3864
19.253966532312948 61.9801
19.276725481241822 64.2621
19.29930876296784 66.8501
19.3218928014549 69.9282
19.34465404436217 72.6179
19.36723960516257 74.8424
19.389825925592426 75.5462
19.412413006605938 74.6998
19.43517731967805 71.5155
19.457765930683355 67.3684
19.48035530514408 63.0896
19.50294544401556 59.2608
19.525712842708348 56.5277
19.54830451925909 55.0836
19.570896963095727 53.9735
19.593490175174704 53.7887
19.616260674962184 53.5779
19.638855432416964 53.187
19.661450960992624 53.5462
19.68404726164677 53.2859
19.706820878021247 53.0851
19.729418731756834 53.2542
19.752017360452857 52.9477
19.77461676506804 53.0767
19.797393513540218 53.2432
19.819994478951667 53.8198
19.84259622316767 54.2209
19.8651987471481 54.6339
19.887978643247177 54.6882
19.91058273574792 55.3646
19.933187610901943 56.0488
19.955969879466828 57.2484
19.97857632894404 58.7573
20.00118356396599 60.2962
20.023791585494575 62.4308
20.046577028914875 65.2015
20.069186632506966 67.3212
20.091797025500632 68.7369
20.114408208858933 69.2696
20.137196842715273 68.7737
20.159809615886765 67.78399999999999
20.18242318232135 65.3675
20.20503754298326 63.5141
20.227829382875154 62.2782
20.250445341109344 62.2699
20.27306209647285 62.8838
20.29567964993108 63.7277
20.31847471147704 64.5382
20.34109387027612 64.9829
20.363713830075454 64.48
20.386334591841646 63.1316
20.409132890679302 60.9148
20.431755265564437 58.1614
20.454378445325528 55.3523
20.477002430930366 53.5419
20.499803982716553 52.4683
20.522429589228004 51.5155
20.54505600449589 50.8859
20.567683229489194 50.6322
20.590488049900088 50.3388
20.61311690359731 49.9615
20.63574656993626 49.9537
20.658553853717297 49.5364
20.681185154618298 49.4069
20.703817271080066 49.336999999999996
20.72645020407368 48.902
20.749260783967177 48.8056
20.771895359337133 48.7429
20.794530754161617 48.9252
20.817166969412938 48.65
20.83998086114876 48.7032
20.86261872660049 48.5929
20.885257415405402 48.4022
20.90789692853701 48.3837
20.930714147864748 48.513000000000005
20.953355319030678 48.3899
20.97599731745334 48.4555
20.99864014410749 48.3931
21.021460706796564 48.3157
21.044105199328826 48.7243
21.06675052302631 48.7018
21.089396678865015 49.1199
21.112220600704806 49.3423
21.134868430275347 49.5793
21.15751709492456 49.8156
21.180166595629693 50.1427
21.202993892429635 50.5939
21.22564507473034 50.8109
21.24829709602816 51.1593
21.27112693608965 51.15
21.293780644891275 51.0856
21.316435195634053 50.3567
21.339090589297417 49.8066
21.361923832041875 49.4559
21.384580921090404 48.7263
21.407238856007325 48.0803
21.429897637773326 48.1583
21.45273429906592 48.3175
21.475394784108598 48.3238
21.498056118951983 48.1559
21.520718304578022 48.4
21.543558400304388 48.3469
21.566222297108816 48.5475
21.58888704765135 48.6208
21.61155265291521 48.9186
21.63439619898156 49.4475
21.657063523335786 49.73
21.67973170537063 50.1386
21.7024007460706 50.593999999999994
21.72524775840385 51.3815
21.747918526116475 52.3996
21.770590155457388 53.7026
21.79326264741238 55.3915
21.816113141960237 57.1297
21.838787368860547 58.9683
21.861462461341976 60.7398
21.884315579735777 62.4474
21.90699241312273 63.6301
21.92967011506078 64.4298
21.95234868653799 64.0312
21.9752053151131 62.9354
21.997885635446785 61.2327
22.020566828293532 59.3806
22.04324889464272 57.6905
22.066109049404666 56.3915
22.088792872571794 56.0487
22.111477572219204 55.9318
22.1341631493376 55.7023
22.157026846313123 55.5274
22.179714188221507 55.0503
22.202402410582668 54.0228
22.22509151438863 52.5226
22.24795876962584 51.3843
22.270649646204486 50.3952
22.293341407213727 49.7286
22.316034053646906 49.153999999999996
22.338904883215342 48.8568
22.36159931041458 48.7789
22.38429462602756 48.7946
22.40699083104897 48.5775
22.429865251039757 48.668
22.452563244831367 48.7
22.47526213102522 48.7183
22.49813925616515 48.5667
22.520839937143307 48.4936
22.543541513520587 48.4842
22.56624398629403 48.3123
22.589124730075895 48.2151
22.611829005656723 48.4492
22.63453418063466 48.4523
22.657240256008077 48.7637
22.680124634582935 48.7164
22.70283252079775 49.1092
22.725541310413075 49.3363
22.74825100442868 49.5269
22.771139033969575 50.1115
22.79385054687155 50.3116
22.81656296718292 51.0742
22.83927629590484 51.8633
22.862167992606945 52.8805
22.88488314827121 54.1123
22.907599215359284 55.0582
22.93031619487366 56.0828
22.953211574954405 56.7368
22.975930389478226 57.257
22.998650119445763 57.3684
23.02137076586092 56.7026
23.044269845560063 55.8317
23.06699233506288 54.1296
23.089715744034912 52.6073
23.112617610931565 51.2344
23.135342869061212 49.9885
23.158069049684816 48.9494
23.1807961538087 48.6907
23.20370174880544 48.6997
23.226430710184808 48.5522
23.249160598093425 48.7328
23.271891413539002 48.6055
23.294800752937697 48.5597
23.31753343374794 48.8563
23.340267045128353 48.8106
23.36300158808808 49.391999999999996
23.38591468821339 49.5948
23.408651104658304 50.0429
23.431388455719986 50.4885
23.454126742409 51.4408
23.4770436196085 52.681999999999995
23.499783787914662 53.7932
23.522524894889884 54.9042
23.54526694154616 55.8781
23.56818761219047 56.7361
23.59093154860734 57.2159
23.613676427751283 57.4686
23.636422250635754 56.5684
23.659346731118656 55.06100000000001
23.68209445191868 53.288999999999994
23.704843119509587 51.4717
23.72759273490623 49.5396
23.750521041644767 48.3578
23.77327256312355 47.1803
23.796025035462787 46.5078
23.818956224555475 45.9311
23.841710609113413 45.8151
23.86446594758979 45.6367
23.887222241002014 45.4676
23.910157285144578 45.0853
23.932915498962537 44.9955
23.955674670778713 44.821000000000005
23.978434801611975 44.7396
24.001373717286125 44.5627
24.024135776723917 44.4931
24.046898798245582 44.3709
24.06966278287146 44.28
24.092605586582614 44.0194
24.115371508023642 43.9747
24.1381383956401 43.879
24.16090625045381 43.8021
24.183852958731244 43.7478
24.206622758582608 43.6953
24.229393528706886 43.4657
24.252165270127392 43.5087
24.27511589952438 43.386
24.297889594216997 43.1607
24.32066426328598 43.082
24.34343990775613 43.151
24.36639447485003 43.1272
24.38917208083877 42.9962
24.41195066531332 42.9799
24.43490819850244 42.9846
24.457688750692377 42.7548
24.48047028445616 42.8257
24.503252800821233 42.9021
24.526214300784112 42.9097
24.548998793132213 43.0143
24.57178427117417 42.7531
24.59457073593893 42.8093
24.617536219319863 42.812
24.64032466834748 42.7593
24.663114107195035 42.6607
24.685904536893013 42.4772
24.708874020360852 42.3943
24.731666442613744 42.3272
24.754459858818787 42.2718
24.777254270007962 42.2302
24.80022777025625 42.1402
24.82302418230472 42.0522
24.845821592443674 42.11600000000001
24.86862000170663 42.0537
24.891597535453727 41.9593
24.914397953892728 41.9895
24.93719937456671 41.9911
24.96000179851076 42.16
24.98298338249997 42.3463
25.00578782394922 42.5684
25.028593271784167 42.7524
25.05157790644186 43.1247
25.07438537804115 43.2709
25.097193859145293 43.277
25.120003350792075 43.5583
25.142992065061257 43.9683
25.165803588823465 44.1307
25.18861612625217 44.328
25.211429678386736 44.3965
25.234422489079968 44.5721
25.257238081693636 44.6098
25.280054692141732 44.7402
25.3028723214652 44.7552
25.325869245420463 44.7342
25.348688923599397 44.6352
25.371509623787006 44.6374
25.394331347025812 44.248999999999995
25.41733240110666 43.8754
25.440156181590016 43.3121
25.46298098826268 42.8852
25.48580682216873 42.3924
25.50881202326435 41.7382
25.53163992281684 41.2253
25.55446885274561 41.0664
25.577298814096377 40.7073
25.600308179121807 40.7351
25.623140214533745 40.7188
25.64597328451537 40.5123
25.66898578564376 40.3348
25.691820936010206 40.4616
25.714657124097695 40.2961
25.737494350954734 40.4444
25.760511045684957 40.1613
25.783350361364224 40.1908
25.806190718969255 40.3373
25.82903211955018 40.4687
25.852053024868923 40.5384
25.874896522722523 40.499
25.897741066713106 40.3924
25.920586657892454 40.5515
25.943611790812668 40.6824
25.966459487728237 40.878
25.989308234998564 40.8425
26.01215803367705 41.0917
26.03518741123814 41.2685
26.05803932412957 41.4643
26.080892291600094 41.3915
26.10374631470478 41.3536
26.12677995397268 41.4859
26.14963609978026 41.43600000000001
26.172493304397875 41.2084
26.19535156888223 40.9921
26.218389486949604 40.7215
26.241249882640123 40.3919
26.26411134137826 40.1501
26.28715248187403 40.1499
26.31001607820869 40.0388
26.3328807407756 39.7644
26.35574647063438 39.9223
26.37879191991473 39.9761
26.401659795896734 39.9626
26.424528742360263 40.131
26.447398760366614 40.2868
26.470448535598294 40.2424
26.49332070826805 40.6699
26.516193955675355 40.937
26.53906827888316 41.2002
26.562122397260108 41.243
26.584998883685063 41.6286
26.607876449110325 41.8405
26.63075509460056 41.9568
26.65381357334404 42.0642
26.67669439061878 41.92100000000001
26.699576291163382 41.82
26.722459276044212 41.861000000000004
26.745522132402975 41.4644
26.768407297649354 41.2784
26.791293550442003 40.9464
26.814180891848974 40.7295
26.837248143099337 40.4838
26.860137673466657 40.2954
26.88302829566349 40.0292
26.90592001075963 39.8328
26.92899167420566 39.7066
26.951885586870763 39.2545
26.974780595655517 39.079
26.99785558178161 39.0689
27.020752794605112 38.9335
27.043651106772522 38.775
27.06655051935668 38.8038
27.089629948036183 38.5879
27.112531573292053 38.6068
27.135434302194138 38.6741
27.158338135817015 38.4888
27.181422024430987 38.3684
27.204328079372566 38.2332
27.22723524226965 38.2886
27.250143514198573 38.4898
27.273231880156334 38.3836
27.296142382065014 38.3721
27.319053996245536 38.2839
27.341966723775965 38.2577
27.365059584515222 38.4772
27.38797455070062 38.4483
27.410890633481237 38.3688
27.433807833936918 38.3349
27.456905206923906 38.4211
27.47982465472398 38.3483
27.502745223449743 38.4498
27.525666914182825 38.4974
27.548768816912457 38.4306
27.571692763693633 38.418
27.59461783573812 38.2586
27.617723149491244 38.103
27.640650484125285 38.0373
27.66357894728264 38.2029
27.686508540048052 37.8707
27.709618414237887 37.7982
27.732550278321757 37.8019
27.755483275279115 37.6538
27.778417406196485 37.7522
27.801531858397514 37.6474
27.824468269376716 37.5887
27.847405817586786 37.5946
27.870344504116094 37.8063
27.893463551932008 37.971
27.916404527281053 38.1279
27.93934664422563 38.1609
27.962289903855886 38.3743
27.98541356491974 38.4418
28.00835912214229 38.6227
28.03130582533231 38.8164
28.054253675581805 38.9071
28.077381967556104 38.888000000000005
28.100332124185126 38.8716
28.123283431160893 38.6991
28.146235889577238 38.7708
28.169368830154156 38.4739
28.192323603752033 38.2873
28.215279532083304 38.0034
28.238415973016764 37.9176
28.261374223145094 37.7437
28.284333631303806 37.4259
28.307294198589954 37.4321
28.330435319167677 37.0061
28.353398217078915 36.7256
28.376362277420153 36.5004
28.39932750129032 36.3674
28.422473319286713 36.3728
28.44544088262495 36.3346
28.468409612800283 36.1225
28.491379510913497 36.0107
28.51453004413313 35.8687
28.53750229057244 35.775
28.56047570826344 35.775
28.583450298308804 35.7886
28.606605564586562 35.5902
28.629582511831156 35.6009
28.65256063474956 35.5255
28.675539934446338 35.4649
28.698699951647605 35.5649
28.72168161743193 35.4191
28.74466446331978 35.3365
28.767648490417624 35.4124
28.790813276438353 35.3252
28.813799678527303 35.3299
28.836787265157085 35.2078
28.859955641890075 35.2196
28.882945610203045 35.297
28.905936766392035 35.187
28.928929111566863 35.1514
28.952102288520145 35.2593
28.975097024308607 35.0593
28.998092952423807 34.9761
29.021090073977508 34.8658
29.04426806913204 34.7319
29.067267590245258 34.4834
29.090268308143695 34.5548
29.11327022394099 34.4333
29.13645305530891 34.3271
29.159457379627167 34.3174
29.18246290519685 34.256
29.20546963313352 34.2328
29.22865731875826 34.1999
29.25166646419296 34.1162
29.27467681535305 34.0705
29.29768837335608 34.2098
29.320880931312562 34.1059
29.34389491580634 34.1644
29.366910110507334 34.139
29.38992651653503 34.0772
29.41312396492981 34.0793
29.436142806456754 34.0005
29.45916286268059 33.9344
29.48236399319994 33.7556
29.50538649169417 33.7784
29.528410208259935 33.6388
29.55143514402014 33.3476
29.574641196749695 33.2404
29.597668583816574 33.2826
29.6206971934585 33.0203
29.64372702680042 33.1272
29.666938019934474 32.9993
29.689970313635285 32.824
29.713003834422636 32.8638
29.73603858342347 32.7655
29.759254535188578 32.6237
29.78229175361658 32.6971
29.80533020365064 32.8299
29.82836988641968 32.7556
29.85159081507472 32.734
29.874632976355343 32.6767
29.89767637376955 32.6772
29.920721008448314 32.3614
29.9439469322847 32.5123
29.96699405457564 32.5221
29.9900424175358 32.4961
30.013092022298157 32.5022
30.03632295963995 32.449
30.059375061131373 32.3479
30.08242840783577 32.3022
30.105483000888153 32.4567
30.128718970092244 32.3864
30.151776069006917 32.3606
30.17483441768648 32.2806
30.198074175317235 32.1972
30.221135036724256 32.4045
30.24419715131772 32.1323
30.267260520236203 32.1551
30.290505341942243 32.1749
30.313571232750228 32.2706
30.336638381310948 32.2209
30.35970678876503 32.1135
30.38295669299435 32.0861
30.40602763151657 32.0517
30.429099832366074 32.0514
30.452173296685572 31.9412
30.47542830191959 31.9445
30.498504306502497 31.9208
30.521581577995562 31.9702
30.544660117543582 32.1327
30.56792024229725 32.0799
30.59100133132069 32.0955
30.614083691845494 32.067
30.637167325018545 32.165
30.660432587840603 32.0378
30.683518779717886 32.0103
30.70660624769615 32.1404
30.729694992924372 31.9673
30.75296541239743 32.1188
30.77605672557558 31.9757
30.799149319462742 31.9746
30.8224236211637 31.825
30.845518789950724 31.7478
30.868615242910597 31.7615
30.891712981195973 31.6009
30.91499247215866 31.4657
30.938092794619365 31.4796
30.96119440587579 31.4088
30.984297307082752 31.2425
31.00758200598383 31.156999999999996
31.030687500658694 31.0797
31.053794288760695 31.0763
31.076902371446767 30.9474
31.100192296997445 31.0048
31.12330298246119 30.8917
31.14641496599209 30.8011
31.169528248749216 30.9005
31.19282341969534 30.8108
31.215939314557186 30.8769
31.239056512134788 30.8668
31.262175013589378 30.7983
31.28547544871168 30.746
31.30859657161541 30.7008
31.331719001892175 30.7787
31.35484274070538 30.8694
31.378148458819545 30.7805
31.401274828443725 30.7568
31.424402510106933 30.7686
31.447712205419993 30.8782
31.470842524931633 30.7406
31.493974159989783 30.734
31.51710711176168 30.6764
31.54042212308802 30.6896
31.563557722100917 30.7005
31.586694641341655 30.4875
31.609832881979628 30.4142
31.63315322823208 30.3736
31.656294125521327 30.2462
31.679436347728515 30.1906
31.70257989602529 30.1842
31.725905596152327 30.1009
31.74905181052835 30.0247
31.772199354521323 30.1804
31.79534822930507 30.0678
31.818679302290967 30.0037
31.84183085259981 30.0237
31.864983737233473 30.0053
31.88813795736804 30.0641
31.911474422233013 29.8916
31.934631327356435 30.0108
31.9577895715215 29.9996
31.980949155906522 29.9242
32.004291031706956 29.9181
32.027453310562606 29.7904
32.05061693318573 29.595
32.07396288236386 29.69
32.09712920658542 29.6888
32.12029687812702 29.5286
32.14346589817093 29.458000000000002
32.166817291729984 29.4631
32.18998902288583 29.344
32.21316210610336 29.2596
32.23633654256711 29.1215
32.259693399663725 29.206999999999997
32.282870556771144 29.1875
32.30604907069099 29.1544
32.329228942610065 29.0026
32.35259128243769 28.9227
32.375773884550505 28.8454
32.398957848235646 28.7788
32.422143174682176 28.826
32.445511016471215 28.6408
32.468699082679954 28.618000000000002
32.49188851523011 28.7099
32.51507931531304 28.4726
32.538452678331 28.5165
32.56164622776311 28.4747
32.58484114831493 28.4622
32.60803744118015 28.4448
32.631416344731896 28.4306
32.654615396551876 28.3984
32.67781582427913 28.3478
32.701198898634416 28.1835
32.72440209253756 28.1711
32.747606665947124 28.1361
32.77081262006088 27.9768
32.79420126883317 27.9628
32.81740999876112 27.9725
32.840620112999424 27.8812
32.86383161274818 27.8502
32.88722585534586 27.8917
32.91044014056596 27.9423
32.933655814909734 27.9378
32.95687287957963 27.9105
32.98027273544904 27.7794
33.00349259526636 27.7692
33.026713849030116 27.7963
33.04993649794511 27.7396
33.073341986570746 27.7221
33.09656744032826 27.6773
33.11979429286444 27.6839
33.14302254538647 27.6697
33.166433686291185 27.6845
33.18966475336992 27.5087
33.212897224069096 27.5007
33.23613109959831 27.5351
33.259547912343415 27.4208
33.2827846121627 27.5252
33.306022720453775 27.4127
33.32926223842861 27.2928
33.352684742614166 27.2476
33.37592709463173 27.3067
33.399170859982064 27.2086
33.422597648419426 27.1182
33.44584425514446 26.9629
33.46909227885668 27.0021
33.4923417207723 26.8729
33.51577423505344 26.8969
33.539026528130385 26.8039
33.56228024307245 26.7473
33.585535381098246 26.6741
33.60897364093058 26.6435
33.63223163992385 26.728
33.6554910656699 26.5374
33.678751919389796 26.5364
33.702195944520106 26.5121
33.72545966903325 26.5369
33.74872482519663 26.3735
33.771991414233746 26.4233
33.79544122444841 26.4157
33.81871069412428 26.2446
33.84198160035767 26.3159
33.86525394437455 26.3281
33.88870955949969 26.2452
33.911984794020626 26.1948
33.93526147001624 26.2255
33.958539588715006 26.219
33.98200102861669 26.1021
34.0052820477047 26.0023
34.02856451319451 25.8965
34.05203033759056 25.8271
34.07531571090147 25.9311
34.09860253431845 25.8701
34.121890809074316 25.7646
34.145362493118924 25.7925
34.16865368561615 25.7169
34.191946333164054 25.6636
34.21524043699793 25.7056
34.23871800066799 25.6352
34.26201503218366 25.5859
34.28531352370466 25.5375
34.30861347646881 25.4804
34.33209693978188 25.4478
34.3553998301885 25.4189
34.378704185565205 25.3281
34.402010007152356 25.2267
34.42549939016683 25.2986
34.44880815937748 25.2513
34.472118398533134 25.1625
34.49543010887669 25.1834
34.51892543169198 25.0338
34.54224009966052 25.0625
34.56555624255917 25.0413
34.58887386163339 24.9581
34.61237514439016 24.8325
34.6356957311114 24.8507
34.65901779775809 24.865
34.68252356662995 24.8952
34.705848608458616 24.8564
34.72917513396849 24.7687
34.75250314440949 24.6426
34.77601490857862 24.5471
34.799345904259795 24.6188
34.82267838863559 24.6523
34.846012362958525 24.5576
34.869530142679984 24.5651
34.89286711232212 24.5296
34.91620557568269 24.4883
34.93954553401677 24.4929
34.9630693495876 24.4212
34.986412313340814 24.3765
35.00975677584668 24.3232
35.033102738362956 24.3312
35.05663261012228 24.2277
35.0799815881786 24.1537
35.10333207003229 24.1093
35.12668405694369 24.2033
35.150220005273056 24.1759
35.17357501786656 24.1504
35.19693153931268 24.0986
35.220289570874385 24.0328
35.24383161619786 24.1162
35.267192683604904 24.0792
35.290555264930376 23.9719
35.314101899412165 24.0017
35.33746752422433 23.9823
35.36083466676374 23.951
35.38420332829803 23.9307
35.407756095629054 23.9034
35.43112781085063 23.8171
35.45450104888391 23.8056
35.477875810999194 23.8728
35.50143473172161 23.7403
35.52481255774625 23.7719
35.54819191167777 23.7291
35.57157279478914 23.6548
35.595137889488406 23.7169
35.61852184675279 23.619
35.641907337029984 23.5957
35.665294361595684 23.5603
35.68886565090076 23.5227
35.7122557598848 23.5275
35.73564740699838 23.4306
35.759040593519934 23.3476
35.78261809810353 23.3598
35.80601437933051 23.3186
35.829412203814705 23.2523
35.85281157283719 23.1168
35.876395313415884 23.1929
35.8997977874528 23.1397
35.92320180988546 23.085
35.946790244133936 23.0288
35.97019737933222 23.0795
35.993606066789866 23.0598
36.01701630779276 23.0159
36.04061101440684 22.8983
36.06402437852291 22.9058
36.08743930005611 22.9877
36.1108557802951 22.9083
36.13445678011326 22.8346
36.15787639383515 22.6925
36.18129757014299 22.6844
36.20472031032821 22.6571
36.22832762423364 22.6399
36.25175350829375 22.6274
36.275180960119776 22.5301
36.298609981005924 22.5743
36.32222362992669 22.5802
36.34565580510207 22.5166
36.36908955323448 22.4143
36.39252487562093 22.3604
36.416144880530226 22.3786
36.43958336764275 22.4043
36.463023432914625 22.4004
36.486465077645676 22.3555
36.51009145956204 22.3127
36.53353627947859 22.2708
36.55698268276811 22.2095
36.58043067073321 22.2379
36.60406345072071 22.0878
36.62751462435344 22.1039
36.65096738658405 22.023000000000003
36.67460498210655 22.0012
36.69806093788647 22.0048
36.72151848619297 21.8576
36.744977628333636 21.9759
36.76862165890998 21.8521
36.79208400512205 21.8675
36.81554794910557 21.848000000000003
36.83901349217101 21.7587
36.862663978991606 21.7125
36.88613273667352 21.7746
36.90960309738324 21.785999999999998
36.933075062434064 21.7027
36.95673202673572 21.6645
36.98020721697122 21.569000000000003
37.003684015502365 21.5348
37.027162423645365 21.5293
37.050825886711465 21.543000000000003
37.07430753063053 21.3555
37.09779078812467 21.4118
37.121275660513014 21.3272
37.144945643673694 21.2944
37.16843376245278 21.2926
37.19192350009803 21.3523
37.215414857931435 21.3257
37.239091382563885 21.2111
37.262585997426164 21.1559
37.28608223645736 21.1305
37.309763684451696 21.0717
37.33326318851098 21.0777
37.356764320726555 21.0684
37.380267082425526 21.0685
37.40395510942588 21.0623
37.42746114683234 20.9989
37.45096881771841 20.9044
37.474478123414166 20.9484
37.49817275092816 20.8876
37.52168534303452 20.8965
37.54519957395567 20.7525
37.568715445024665 20.8556
37.592416694607714 20.7253
37.61593586281424 20.7992
37.63945667518264 20.7459
37.66297913304891 20.5831
37.68668702630454 20.6968
37.710212792059274 20.6277
37.733740207334854 20.5525
37.757269273470364 20.4668
37.780983832050374 20.4598
37.80451621684926 20.3691
37.82805025654007 20.4072
37.851585952464795 20.3253
37.8753071980695 20.2813
37.89884622345676 20.2605
37.92238690911902 20.2353
37.94611318753442 20.2488
37.969657210779765 20.1711
37.99320289834801 20.1529
38.016750251586465 20.1498
38.04048325513017 20.042
38.06403395679343 20.1036
38.087586328183946 20.0145
38.11114037065203 20.0595
38.13488012115898 19.9715
38.1584375229181 19.8922
38.181996599821 19.8685
38.205557353221124 19.8606
38.229303872575656 19.8328
38.2528679961576 19.906
38.27643380031219 19.8056
38.30000128639589 19.7674
38.32375459653193 19.8362
38.34732546371299 19.803
38.37089801690786 19.6676
38.39447225747609 19.6287
38.418232380377425 19.5817
38.441810012983396 19.5702
38.46538933705673 19.6007
38.488970353960084 19.5297
38.51273731166058 19.4968
38.536321731567014 19.4469
38.55990784840681 19.3963
38.58367995004091 19.3524
38.60726947812959 19.2689
38.63086070726198 19.3338
38.654453638806274 19.3109
38.678232613930824 19.288
38.70182896773327 19.2315
38.72542702806741 19.1766
38.7490267963045 19.1021
38.77281266709232 19.0969
38.79641586862214 19.1077
38.8200207821842 19.0754
38.843627409152944 19.1161
38.86742019782782 19.0492
38.891030269149255 18.9928
38.914642058016156 19.0066
38.938255565806124 18.9178
38.96205529464307 18.8968
38.98567225787121 18.8394
39.00929094417078 18.8952
39.03291135492255 18.8224
39.05671804624804 18.7906
39.080341923549106 18.7512
39.103967529460334 18.7447
39.127594865365744 18.6697
39.15140854155791 18.6259
39.17503935514948 18.6032
39.19867190290282 18.5635
39.22249083587951 18.5814
39.24612686969409 18.5669
39.269764641845306 18.5542
39.293404153722804 18.5267
39.317230110864074 18.4774
39.34087311998506 18.396
39.36451787301696 18.4276
39.388164371352595 18.3162
39.41199737518003 18.2905
39.43564738196752 18.2465
39.45929913825317 18.2424
39.48295264543308 18.2802
39.506792718520884 18.2583
39.530449745387216 18.201
39.55410852735203 18.1937
39.57776906581474 18.1469
39.60161623079 18.0605
39.625280300200025 18.0503
39.64894613032202 17.9983
39.67261372255866 18.019000000000002
39.6964680021016 17.9786
39.72013913657293 17.9723
39.74381203738292 17.9612
39.76748670593756 17.9144
39.79134812278169 17.9238
39.81502634488497 17.8516
39.83870633896685 17.8409
39.862388106436654 17.7945
39.88625668336918 17.7744
39.90994201572829 17.7693
39.933629125719285 17.7122
39.957503091207826 17.5849
39.9811937746168 17.682000000000002
40.00488623990914 17.6153
40.02858048850006 17.6165
40.05246165409549 17.5313
40.076159487492085 17.4871
40.099859108448875 17.5224
40.123560518384345 17.5112
40.1474489070226 17.4587
40.171153913178564 17.3817
40.194860712584955 17.3684
40.2185693066637 17.379
40.242464941335314 17.357
40.26617714307655 17.2541
40.289891143772046 17.2695
40.3136069448471 17.2635
40.33750984859743 17.1999
40.3612292688043 17.1695
40.3849504936829 17.2108
40.40867352466194 17.2085
40.43258372059144 17.1453
40.45631038219906 17.1106
40.48003885420956 17.0234
40.503769138055105 16.996
40.52768664931955 17.0414
40.55142057531802 17.0405
40.57515631746428 16.958
40.599079334038514 16.9146
40.62281872700477 16.8819
40.64655994043941 16.9289
40.67030297578061 16.9075
40.69423334835778 16.8789
40.71798004609188 16.794
40.74172857006355 16.7333
40.76547892171441 16.8254
40.7894166736039 16.7685
40.813170699248566 16.6665
40.83692655691388 16.6428
40.86068424804498 16.6763
40.884629402612525 16.6428
40.908390779366385 16.5818
40.932153993938 16.5691
40.95591904777605 16.6075
40.979871628443995 16.6028
41.003640379561936 16.5244
41.02741097430883 16.4867
41.05118341413683 16.4888
41.075143444384416 16.4286
41.098919593177826 16.4294
41.1226975914255 16.3627
41.14647744058318 16.338
41.170444943946755 16.2942
41.19422851378379 16.3087
41.218013938914645 16.2828
41.24198706625173 16.2005
41.26577622087193 16.1982
41.289567235177785 16.1672
41.31336011063129 16.1531
41.337340752422875 16.0771
41.361137369129835 16.0868
41.38493585138705 16.0158
41.40873620066004 16.0548
41.43272438060107 16.0063
41.45652848292052 15.9484
41.48033445666918 15.8691
41.50414230331616 15.8878
41.528138045159764 15.9141
41.551949656675205 15.8148
41.575763145513235 15.7812
41.59957851314666 15.7489
41.62358184070442 15.7615
41.64740098505737 15.7965
41.6712220126409 15.73
41.69504492493139 15.7096
41.71905586207357 15.6882
41.74288256296395 15.6727
41.766711153007456 15.5865
41.79054163368412 15.5414
41.814560204340054 15.5764
41.838394485526365 15.5576
41.86223066180303 15.5051
41.88625497706819 15.522
41.910094962812 15.4954
41.93393684811168 15.4757
41.95778063445365 15.3375
41.981812625263366 15.3706
42.00566023303407 15.3493
42.029509746323676 15.2907
42.05336116662236 15.3056
42.077400857069705 15.2643
42.10125611078846 15.247
42.12511327600405 15.2008
42.14897235421036 15.1511
42.173019768448455 15.1493
42.19688269209613 15.1872
42.22074753323349 15.1563
42.24461429335818 15.1244
42.268669455600495 15.0952
42.292540073217886 15.0976
42.31641261433284 15.0453
42.34028708044675 15.0172
42.36435001496739 15.0115
42.38822835065557 14.9922
42.41210861586426 14.9164
42.4359908120986 14.8965
42.46006154323262 14.8797
42.48394762115317 14.8695
42.507835634632315 14.854000000000001
42.531912233047436 14.8699
42.55580413732265 14.7964
42.579697981698 14.7618
42.60359376768525 14.739
42.62767820545945 14.7555
42.65157789440821 14.7119
42.67547952952185 14.7049
42.699383112316 14.6101
42.72347541395347 14.6077
42.74738291190531 14.5624
42.771292362102166 14.5809
42.795203766063516 14.5161
42.819303956130405 14.5019
42.843219287476536 14.4433
42.86713657716324 14.4406
42.89105582671383 14.4396
42.91516392983864 14.3914
42.939087119032166 14.3396
42.963012272677304 14.3877
42.98693939230129 14.3819
43.01105543317513 14.2943
43.034986504731386 14.2614
43.05891954686589 14.2677
43.08285456110972 14.2398
43.10697856448665 14.2494
43.130917542983475 14.2196
43.15485849820081 14.2051
43.17880143167367 14.089
43.20293342237094 14.069
43.226880332449 14.0605
43.25082922540554 14.1156
43.27496722682525 14.0971
43.29892010567796 14.0194
43.32287497204102 14.0326
43.34683182745632 13.968
43.370977859791836 13.9369
43.39493871351105 13.9457
43.41890156092628 13.932
43.44286640358341 13.9329
43.46702049182749 13.8861
43.49098934522816 13.885
43.51496019852649 13.8405
43.5389330532723 13.8126
43.56309522248204 13.7284
43.58707210044314 13.7334
43.61105098451946 13.6703
43.63503187626491 13.6841
43.659202151562134 13.6682
43.68318707902681 13.6689
43.70717401884041 13.6567
43.731162972560874 13.5972
43.75534137913236 13.5377
43.779334381108384 13.5533
43.803329401683186 13.4979
43.82732644241872 13.548
43.8515130055166 13.5571
43.87551410707659 13.4695
43.89951723350145 13.4286
43.923709934595614 13.3943
43.94771713129917 13.3977
43.97172635758096 13.4154
43.99573761501002 13.3429
44.0199385169922 13.3141
44.04395385732619 13.3073
44.067971233533086 13.2696
44.09199064718605 13.2396
44.11619977548961 13.1961
44.14022328470671 13.1865
44.16424883610785 13.1679
44.18827643127035 13.147
44.21249381139513 13.1472
44.236525514814076 13.1421
44.26055926674478 13.0751
44.28459506876863 13.107000000000001
44.3088207262813 13.0193
44.33286064928722 12.9844
44.35690262714919 12.9853
44.38094666145278 13.0293
44.4051806219871 12.9983
44.42922879003185 12.9023
44.45327901929361 12.9205
44.477331311362136 12.8926
44.501573600619416 12.8164
44.525630039221795 12.8145
44.54968854541895 12.8279
44.573937102200176 12.7885
44.5979997645541 12.7511
44.622064499300315 12.744000000000002
44.64613130803592 12.6938
44.67038823869318 12.7227
44.69445921643748 12.7043
44.718532272981385 12.6553
44.742607409926194 12.6445
44.76687274034801 12.6004
44.79095205918753 12.5515
44.81503346325094 12.5535
44.839116954143876 12.5048
44.86339071028742 12.4764
44.88747839599524 12.4939
44.91156817336837 12.5069
44.93566004401666 12.4694
44.959942251908146 12.4477
44.984038330325966 12.4109
45.00813650686762 12.3811
45.03223678314731 12.3843
45.05652746888232 12.3721
45.08063196592069 12.3804
45.104738567558705 12.2959
45.128847275414856 12.2868
45.15314646515866 12.2625
45.17725940679741 12.2739
45.20137445952892 12.235999999999999
45.22568004865265 12.2093
45.24979934496396 12.200999999999999
45.27392075725247 12.1748
45.29804428714431 12.1812
45.322358426247604 12.1245
45.346486212804315 12.0933
45.370616121861914 12.1026
45.39474815505086 12.0479
45.41907087049246 12.0199
45.4432071734666 12.0081
45.46734560548283 12.027000000000001
45.49148616817604 11.999
45.51581748638564 11.9422
45.5399623320197 11.9562
45.56410931325473 11.9583
45.58825843173002 11.9243
45.61259837920865 11.8835
45.636751793816 11.8613
45.66090735060093 11.8157
45.68506505120716 11.7766
45.7094136545275 11.7574
45.73357566449271 11.744000000000002
45.75773982322992 11.7125
45.78190613238733 11.7224
45.806263418194064 11.6682
45.83043404997326 11.6882
45.85460683713677 11.6521
45.87897065658495 11.629000000000001
45.90314777634752 11.5953
45.92732705646868 11.5821
45.9515084986045 11.5815
45.97588104735473 11.5533
46.00006683541565 11.5172
46.02425479047904 11.5058
46.04844491420549 11.5094
46.0728262191024 11.4869
46.09702070211635 11.4094
46.12121735879483 11.4048
46.14541619080294 11.4043
46.169806278764455 11.3773
46.194009483459034 11.3608
46.21821486849841 11.3756
46.24242243555223 11.3068
46.266821333570014 11.2627
46.29103328674601 11.2923
46.31524742696538 11.2819
46.33946375590237 11.2392
46.36387149104216 11.2293
46.38809221957392 11.1662
46.41231514186606 11.2128
46.436540259597464 11.1851
46.460956858999374 11.1241
46.48518638983522 11.1149
46.509418121166966 11.0801
46.533652054678114 11.0634
46.55807754555709 11.0216
46.58231590571962 11.025
46.60655647313217 10.9938
46.630988654873654 10.9959
46.655233659129024 10.9928
46.67948087571551 10.9973
46.70373030632484 10.9509
46.72817142736393 10.9572
46.752425308428684 10.8766
46.77668140861147 10.8617
46.80093972960865 10.8594
46.82538981736788 10.8127
46.849652602470904 10.8401
46.87391761349769 10.7919
46.8981848521493 10.7655
46.9226439341274 10.7532
46.946915650573224 10.7277
46.97118959976749 10.6621
46.99546578341598 10.6816
47.019933887188216 10.6632
47.04421456235744 10.6436
47.06849747711879 10.6576
47.09278263318286 10.5645
47.11725978640143 10.5788
47.14154944775105 10.6023
47.165841355555656 10.5395
47.1901355115306 10.4912
47.214621741924994 10.5189
47.23892041698887 10.4644
47.26322134538975 10.4542
47.28771440635075 10.4463
47.31201986422527 10.4742
47.33632758061436 10.4212
47.360637557241866 10.4135
47.38513974410611 10.4126
47.40945426407847 10.3566
47.43377104948137 10.3281
47.45809010204344 10.3377
47.48260144275502 10.2806
47.506925052572285 10.2605
47.53125093475548 10.2294
47.55557909103813 10.2565
47.58009961361992 10.2452
47.60443234110732 10.1977
47.62876734791564 10.1781
47.65310463578333 10.1634
47.6776343683373 10.1662
47.7019762413987 10.0869
47.72632040075572 10.0982
47.75066684815169 10.0976
47.77520581885936 10.0541
47.799556865477655 10.0637
47.823910205386 10.0511
47.84826584033272 10.0413
47.87281407745551 9.98355
47.89717432569297 9.987860000000001
47.92153687423484 9.97082
47.94609208429692 9.95761
47.97045925671401 9.95887
47.99482873471275 9.89407
48.01920052005013 9.88142
48.04376504619224 9.85866
48.068141469543484 9.86164
48.09252020552573 9.8387
48.11690125590099 9.87337
48.1414751266064 9.87425
48.16586082917454 9.80417
48.19024885144316 9.75489
48.2146391951793 9.75432
48.239222439012764 9.76022
48.26361744916137 9.69634
48.28801478610016 9.69267
48.31241445160131 9.67884
48.337007097209366 9.64488
48.36141144338331 9.67228
48.38581812345755 9.62598
48.41022713920929 9.61552
48.434829215320704 9.58281
48.45924292604658 9.56883
48.48365897780325 9.56297
48.50807737237308 9.54987
48.532688907799276 9.54369
48.55711201168574 9.54525
48.581537463754074 9.48108
48.60615611725119 9.496789999999999
48.63058628942721 9.44893
48.65501881516546 9.43655
48.6794536962573 9.44365
48.70408185970339 9.435260000000001
48.72852147531801 9.36704
48.75296345168211 9.34331
48.77740779059232 9.317110000000001
48.80204549302823 9.34554
48.82649458091802 9.330210000000001
48.85094603676547 9.28535
48.87539986237231 9.260010000000001
48.90004713292306 9.2647
48.92450572200832 9.24907
48.94896668628025 9.21932
48.97343002754588 9.20405
48.99808689542115 9.20421
49.02255501470614 9.20982
49.04702551642794 9.16463
49.0714984023988 9.139439999999999
49.096164896893235 9.12047
49.120642575466796 9.09325
49.145122643748394 9.11993
49.16960510355558 9.093060000000001
49.19428125404938 9.0899
49.2187685210852 9.06836
49.243258185121555 9.07269
49.26794160167084 9.02923
49.2924360839405 9.01552
49.31693296869764 8.976980000000001
49.34143225776915 8.93977
49.36612538195438 8.94295
49.39062950396021 8.90437
49.41513603578346 8.90656
49.4396449792564 8.90536
49.46434784069503 8.868360000000001
49.488861631846454 8.847669999999999
49.513377840166804 8.809619999999999
49.537896467493745 8.80522
49.56260909589029 8.801810000000001
49.587132585683285 8.76079
49.611658500018365 8.762
49.636186840738596 8.70756
49.66090926588511 8.70838
49.685442483902584 8.689219999999999
49.70997813385706 8.70385
49.734516217597076 8.717989999999999
49.75924846937352 8.66002
49.7837914452858 8.67742
49.80833686055187 8.63599
49.83288471702571 8.61275
49.85762682540054 8.609580000000001
49.882179588965734 8.57355
49.9067347993235 8.579419999999999
49.93129245833333 8.53856
49.95604445336378 8.5353
49.98060703442832 8.51987
50.005172069746266 8.48648
50.02993150438364 8.51636
50.05450147301533 8.47794
50.07907390151433 8.46735
50.10364879174981 8.45373
50.12841816587289 8.416260000000001
50.1529980044635 8.39968
50.17758031042124 8.42034
50.20216508562089 8.37607
50.22694442953363 8.36636
50.25153416817468 8.36134
50.27612638170508 8.35114
50.300721072005196 8.262039999999999
50.325510416102105 8.26009
50.350110084975064 8.24169
50.37471223628208 8.297189999999999
50.39931687190919 8.2467
50.424116246675766 8.19698
50.44872587605249 8.194280000000001
50.47333799543065 8.172789999999999
50.49795260670191 8.15173
50.52276204271512 8.17023
50.54738166295838 8.14065
50.57200378079314 8.1346
50.596628398116835 8.10572
50.62144792604559 8.10533
50.646077567609396 8.10101
50.670709714377715 8.11234
50.69553683636198 8.05188
50.72017401885922 8.05001
50.7448137122895 8.0202
50.76945591856022 8.0034
50.79429318636823 8.00595
50.818940443716784 7.96948
50.84359021965163 7.974139999999999
50.868242516085964 7.94423
50.893089960641895 7.9261
50.917747323549435 7.91383
50.94240721271973 7.91183
50.96706963007175 7.8733699999999995
50.99192728239342 7.861439999999999
51.01659478166073 7.8879600000000005
51.04126481489051 7.85469
51.06593738400761 7.83972
51.090805275207074 7.80753
51.11548294172845 7.7679
51.14016314993547 7.78941
51.164845901758845 7.7429
51.18972406304274 7.752669999999999
51.21441192780656 7.7353
51.23910234200271 7.73459
51.2637953075678 7.68655
51.288683770237945 7.688460000000001
51.31338186432707 7.6707600000000005
51.33808251561888 7.651610000000001
51.362978729967345 7.63105
51.387684521509755 7.6184899999999995
51.41239287610203 7.5997
51.437103795691165 7.59704
51.46201036644977 7.57349
51.486726441956634 7.57572
51.51144508832545 7.5635
51.536166307509156 7.50902
51.56108326624387 7.49804
51.58580965706056 7.51545
51.61053862657523 7.525239999999999
51.635270176746864 7.45107
51.66019755512065 7.4361
51.68493429268881 7.441669999999999
51.70967361681515 7.40722
51.73441552946465 7.38908
51.759353359237934 7.406000000000001
51.7841004750961 7.362839999999999
51.80885018539685 7.363639999999999
51.833602492111254 7.398739999999999
51.8585508051424 7.341489999999999
51.883308330926425 7.314089999999999
51.90806845906181 7.29175
51.932831191525715 7.311660000000001
51.95779001977161 7.27302
51.98255798721516 7.25718
52.00732856494335 7.26047
52.03229530577543 7.224260000000001
52.057071130455945 7.1962
52.081849571391054 7.1695
52.106630630568695 7.17116
52.13160794279417 7.145789999999999
52.15639426492067 7.158810000000001
52.18118321127822 7.1153699999999995
52.205974783860896 7.103219999999999
52.23096269971011 7.12403
52.255759551287994 7.072139999999999
52.280559035098186 7.07937
52.30536115314103 7.057639999999999
52.33035970494467 7.06323
52.35516711807904 7.051130000000001
52.37997717147198 7.00644
52.40478986713005 7.00585
52.42979908731974 6.9839899999999995
52.454617094216 6.95825
52.47943774942214 6.94199
52.50426105495102 6.918069999999999
52.529280976059844 6.9135100000000005
52.554109609024096 6.91811
52.57894089837482 6.88961
52.60377484613117 6.90755
52.62880550079408 6.86397
52.65364479223379 6.83027
52.67848674816189 6.83643
52.70352547971946 6.83372
52.72837279155837 6.831639999999999
52.753222773982785 6.794739999999999
52.778075429022984 6.73561
52.80312495150885 6.7590699999999995
52.827982978797436 6.80961
52.85284368481815 6.72145
52.87770707160767 6.699739999999999
52.90276741793998 6.724260000000001
52.92763619336701 6.688560000000001
52.952507655698504 6.71679
52.977381806977576 6.671989999999999
53.00245301017842 6.6654100000000005
53.02733256653592 6.651160000000001
53.052214817996074 6.6127199999999995
53.077099766608484 6.6013399999999995
53.102181859804446 6.60699
53.127072229988265 6.61526
53.15196530349892 6.59172
53.17686108239249 6.581580000000001
53.20195409881522 6.577439999999999
53.22685531582556 6.55502
53.25175924441303 6.4747699999999995
53.27666588664027 6.5065599999999995
53.30176985962693 6.472
53.3266819565689 6.43578
53.35159677336455 6.4429
53.376514312083096 6.43501
53.40162927507703 6.45571
53.42655228516116 6.45336
53.45147802340193 6.41832
53.47660125628886 6.39308
53.50153247842639 6.433
53.52646643496923 6.380669999999999
53.55140312799818 6.36709
53.576537409691696 6.3383199999999995
53.60147960336152 6.3019300000000005
53.626424539786164 6.31578
53.65137222105307 6.29531
53.67651758529126 6.3163800000000005
53.70147078399681 6.25724
53.72642673383343 6.25411
53.75138543689533 6.24667
53.776541917524526 6.27034
53.801506154876755 6.22309
53.826473151763246 6.1765099999999995
53.851442910284916 6.16363
53.87661054126026 6.19118
53.9015858509782 6.18098
53.92656392866066 6.17251
53.95154477641532 6.18105
53.976723591801296 6.1079300000000005
54.00171000771266 6.07332
54.02669920004598 6.1211199999999995
54.051691170915745 6.07963
54.076881204886796 6.0698300000000005
54.101878760928514 6.06562
54.12687910187696 6.0561
54.152077577768296 6.0111
54.1770835166946 6.05818
54.20209224691339 6.04448
54.22710377055121 5.9765
54.25231352511594 5.9579
54.27733066384342 5.95449
54.30235060239643 5.98359
54.32737334290836 5.94195
54.35259441062629 5.91286
54.377622783395324 5.8869
54.40265396455061 5.8737699999999995
54.42768795623251 5.86779
54.45292037169559 5.81942
54.477960012857906 5.8410400000000005
54.50300247099511 5.80502
54.52804774825457 5.79626
54.55329154616743 5.746519999999999
54.57834249018678 5.77453
54.6033962597977 5.73599
54.6284528571545 5.69123
54.653708072335164 5.680619999999999
54.67877035378786 5.647480000000001
54.70383546947698 5.59046
54.72890342156389 5.648569999999999
54.7541700889442 5.59793
54.77924374251975 5.58573
54.8043202390049 5.58516
54.82959552413022 5.49059
54.8546777351945 5.4551099999999995
54.87976279569621 5.47035
54.90485070780914 5.49489
54.930137506558005 5.4542
54.95523115074295 5.4663
54.98032765308844 5.42886
55.005427015775496 5.40639
55.03072536339621 5.4048300000000005
55.05583047570572 5.34892
55.080938454927676 5.34157
55.10604930325027 5.34384
55.131359235107396 5.358230000000001
55.15647585066083 5.28071
55.181595341907496 5.22865
55.20671771104285 5.250030000000001
55.232039262617704 5.20921
55.25716741665048 5.1872300000000005
55.28229845518636 5.21847
55.30743238042802 5.13333
55.33276558731939 5.13404
55.357905315183636 5.11714
55.383047936390035 5.09335
55.40819345314859 5.11196
55.433538351073295 5.08361
55.458689688238415 5.085780000000001
55.483843927614096 4.99216
55.509197623043605 5.03629
55.53435769621134 4.9791
55.55952067826466 4.94921
55.5846865714265 4.94832
55.61005202069737 4.945819999999999
55.63522376553902 4.90455
55.66039842818645 4.85606
55.68557601087004 4.81693
55.7109532500271 4.74057
55.73613670233794 4.79285
