TT I
1.2716486653135266 7.499389999999999
1.2939594142134223 7.35848
1.3162702121660406 6.53233
1.3385810600174564 6.201219999999999
1.3608919586137629 6.44391
1.383202908801069 6.736330000000001
1.405513911425503 6.14458
1.4278249673332093 6.24569
1.4501343378461518 6.02805
1.4724455028545926 5.84435
1.4947567236847858 6.0576
1.517068001182951 6.4417
1.5393793361953272 6.1933
1.5616907295681737 6.3437
1.5840021821477681 5.50448
1.60631369478041 5.450819999999999
1.6286252683124185 5.8478699999999995
1.6509369035901333 5.52527
1.6732468618895553 4.85899
1.695558623192809 4.52569
1.7178704487808514 4.61131
1.7401823395001077 4.41288
1.7625012545597203 4.96542
1.7848028405262486 4.70331
1.8071218901122095 5.3688
1.8294236121921872 5.42473
1.8517427996910911 4.7272099999999995
1.8740620574440425 5.1881900000000005
1.8963639900671978 5.06453
1.9186833908139995 5.36796
1.9409854680117449 5.04617
1.9633050151394713 5.1565
1.9856246367570705 5.206259999999999
2.0079269371922672 4.60339
2.03024671027244 4.5012300000000005
2.0525491637446027 4.33957
2.074869091674931 4.657830000000001
2.097171701569106 4.90984
2.1194917877373847 4.88213
2.141811954326636 4.98646
2.164114805233074 4.99137
2.186435135143035 6.366969999999999
2.208738150935709 12.9166
2.231058647554722 23.8748
2.2533792288321184 18.5107
2.275682498336085 9.703610000000001
2.298003251406138 5.94646
2.3203066942619714 5.48631
2.3426276225136022 5.65508
2.3649486396617507 5.95557
2.387252348930071 6.36995
2.4095735463442893 5.66466
2.4318774374315884 5.81775
2.4541988185014043 6.21465
2.476502894794693 7.29351
2.498824462909887 6.71673
2.521146125856138 7.01973
2.5434504863470337 7.42325
2.5657723414244717 7.515060000000001
2.588076895590662 8.079310000000001
2.610398946189713 8.73137
2.6327210958598384 8.23265
2.6550259469304716 8.76553
2.6773482972090137 8.815760000000001
2.6996533504259 8.55119
2.7219759047039602 8.24028
2.744298562293959 8.82005
2.7666039251246595 7.61958
2.7889267918020164 8.495510000000001
2.8112323652516555 7.45193
2.833555444408179 8.725610000000001
2.8558786311183852 8.54088
2.8781845268938557 8.62833
2.9005079311721484 9.10568
2.9228140460410397 9.24873
2.9451376712799635 9.429210000000001
2.967444008632326 9.909189999999999
2.9897678582247247 10.2362
3.0120918213106695 10.2686
3.0343984987899373 11.3191
3.0567226913198637 11.2597
3.079029599759726 11.8247
3.101354025127254 11.8933
3.123678568232338 12.6523
3.145985829517914 13.3303
3.16831061055229 13.5296
3.1906181112775593 14.5675
3.212943133635653 15.0387
3.2352682779763207 14.5602
3.2575761442691227 15.1794
3.2799015350264273 15.6111
3.302209649240067 16.4181
3.3245352898092655 16.8906
3.3468436553365257 17.3841
3.369169549113219 17.5928
3.3914955708171384 18.5615
3.413804319727358 18.6121
3.4361305997334863 19.06
3.4584396084414553 19.646
3.4807661501462652 19.8724
3.503092824025881 20.3374
3.5254022288463154 20.8154
3.5477291695206588 21.7014
3.5700388426251948 22.1641
3.5923660534916446 23.6706
3.6146934007816114 36.4632
3.637003482731501 76.5524
3.6593311053109985 83.9484
3.681641464033634 51.0146
3.7039693653009733 29.3655
3.726297407241705 25.6692
3.7486081875460804 25.4428
3.7709365132734978 25.9285
3.793247578841633 26.4845
3.8155761917550093 26.4994
3.8378875459837216 26.8532
3.8602164494827234 27.3106
3.882545499606844 28.2359
3.9048572932539183 28.9164
3.9271866390645718 29.0
3.9494987298666713 29.7302
3.971828374764527 30.2144
3.9941581705403255 30.9385
4.016470713506008 31.1751
4.038800813471445 32.2032
4.061113662089144 32.9722
4.0834440696459176 33.367
4.105774632334751 33.7922
4.128087945865126 34.3108
4.150418821249301 35.1296
4.172732448931298 36.2983
4.195063640413578 38.2679
4.2173775856475215 42.3818
4.239709096631102 69.3279
4.262040768704612 202.18400000000003
4.284355196706267 269.61400000000003
4.306687193387355 174.78099999999998
4.329001947444346 73.4988
4.35133427213731 46.6449
4.373666762177566 44.0403
4.395982011761091 44.1098
4.418314834921175 45.4475
4.44063041906622 52.0378
4.4629635787515625 60.6733
4.4852969080429785 60.8171
4.5076130004776225 53.0691
4.529946671403969 50.5202
4.552263106909177 51.2224
4.574597122877047 51.6681
4.596931312711224 52.1382
4.619248269273446 52.855
4.6415828092605835 54.1565
4.663900117405352 55.1695
4.686235010953232 56.525
4.708552674085913 57.4802
4.730887924602802 59.0898
4.753223354952695 60.178000000000004
4.775541557023902 62.0651
4.797877349456786 63.9261
4.820195915032126 65.3898
4.842532072957498 66.7437
4.864868414979744 68.899
4.88718753227192 71.3369
4.909524244902505 72.9073
4.931843734218147 74.1678
4.954180820867835 76.8094
4.976518095879839 79.5659
4.998838149695359 82.2133
5.021175803844231 85.8885
5.043496238205739 88.7891
5.065834274903528 93.0531
5.088172504230693 97.3045
5.1104935158799565 103.264
5.132832132875765 122.92399999999999
5.155153533596801 159.349
5.1774925416746225 189.57
5.199814334878411 318.601
5.2221537374521505 862.916
5.244493338631803 2673.56
5.266815727034316 7810.44
5.289155727832427 12422.4
5.311478517248165 8681.11
5.333818921080011 2704.45
5.356159527788849 512.048
5.3784829252032536 179.25799999999998
5.400823940070432 141.246
5.423147747031976 125.581
5.445489173474152 116.73899999999999
5.467830807066149 112.59200000000001
5.490155234831516 109.089
5.512497285125229 105.62799999999999
5.534822130975162 103.40899999999999
5.557164601388673 101.259
5.579489868738879 98.1056
5.601832762690846 97.3944
5.6241758697774475 96.5133
5.646501775867269 95.7132
5.668845311622074 94.1557
5.691171647754637 93.5683
5.713515615597765 92.1128
5.735859800852677 91.4176
5.758186788542988 90.9958
5.780531411018185 91.1257
5.802858837297399 90.9331
5.825203900414495 90.7366
5.8475491852224 91.4731
5.869877275883075 91.9276
5.892223006467101 91.9189
5.914551544266608 92.4671
5.936897724049891 94.3085
5.959244129804903 99.2516
5.981573344815301 114.196
6.0039202049061 191.417
6.026249875609095 410.414
6.04859719346037 906.7130000000001
6.070927323278297 2139.54
6.093275102315365 4361.28
6.115623113320588 5205.41
6.137953938319995 3097.53
6.160302415650845 931.258
6.182633708324452 225.22099999999998
6.2049826554078376 109.411
6.227331838745022 89.6076
6.249663839443684 83.2414
6.27201349767565 80.7221
6.294345974611799 85.669
6.316696111167083 94.4109
6.339046488263839 89.93
6.361379686074702 77.7058
6.383730546639482 70.8597
6.406064229255215 68.4642
6.428415576718203 67.9504
6.450749747566656 66.6891
6.47310158535871 65.1669
6.495453669698332 64.4064
6.517788579421056 64.0989
6.540141159237969 63.0357
6.562476565766648 62.446999999999996
6.5848296444934045 62.1649
6.607182974060425 62.0292
6.6295191323281015 61.9924
6.651872965955752 65.1397
6.6742096296068985 86.3464
6.6965639707294615 123.42200000000001
6.71891856698715 121.60600000000001
6.741255995248479 86.8766
6.763611104154477 65.4234
6.785949046381137 59.6964
6.808304671371482 57.7135
6.8306605557940046 57.7687
6.852999275508618 57.2039
6.875355681171544 56.6059
6.897694923437771 56.4997
6.92005185377892 56.3702
6.9423916220322655 56.2353
6.964749080490181 55.0317
6.987106804399774 55.4286
7.009447368180821 55.5273
7.031805625367033 54.9158
7.054146723727803 54.6584
7.076505517631004 54.5118
7.098864581288365 54.6548
7.121206488070854 54.4501
7.143566093607822 54.3458
7.165908543567245 54.7026
7.188268694426048 54.3207
7.2106291193438095 54.8243
7.232972390625943 56.1094
7.255333366030969 67.8722
7.277677189091925 110.493
7.300038718428332 147.101
7.322400526130865 125.455
7.344745183422596 81.9524
7.367107550224791 59.7764
7.389452767901992 55.552
7.411815697249891 54.6083
7.434161478756298 53.7522
7.456524974096713 53.8795
7.478888753837185 54.1274
7.501235387657368 54.2927
7.523599738562711 54.5553
7.545946944825532 54.3365
7.568311870344528 54.6102
7.5906770845765665 54.8458
7.613025156078678 56.0538
7.635390950099687 57.2722
7.657739602662809 56.1922
7.680105979923558 55.3697
7.702472650212829 55.48
7.724822180948224 55.4072
7.747189439655568 55.386
7.769539560075357 55.4869
7.791907410653562 55.9937
7.81425812420825 56.0049
7.836626570110925 56.3665
7.858995315087906 57.181000000000004
7.881346924933401 57.4458
7.903716270417482 57.8933
7.926068482028405 58.0506
7.948438431475253 58.5549
7.9708086843180235 59.0531
7.993161805171116 59.6567
8.015532667162402 60.235
8.037886398416653 61.06
8.060257873014221 61.6332
8.082629655331942 62.1155
8.104984308787587 63.1761
8.127356708900503 66.3794
8.149711981398308 71.4036
8.172085002766314 73.1728
8.194458336181368 70.493
8.216814543847752 68.2411
8.23918850371002 68.6763
8.26154533906492 69.583
8.283919928836452 70.8976
8.306277395339652 71.7928
8.328652618483376 73.1792
8.351028159736202 75.2141
8.373386579575245 77.2338
8.395762759396959 78.9414
8.418121819038275 83.4725
8.440498640894003 94.5939
8.462875785192262 106.529
8.485235811156207 117.635
8.507613602688501 153.039
8.529974277114228 235.68200000000002
8.552352719347912 362.022
8.574731488360351 631.744
8.59709314210385 1170.19
8.619472567021075 1900.27
8.64183487789147 2157.89
8.664214962183097 1781.28
8.686577933647762 939.862
8.708958680784317 360.903
8.731339760774953 162.715
8.753703729764451 109.397
8.77608547780821 97.3414
8.798450116065078 93.7834
8.820832535634787 91.5495
8.843215292401656 90.3574
8.865580941199045 88.9988
8.887964374703538 88.0299
8.910330701447199 88.7094
8.932714815164482 90.9738
8.955099270424924 89.4353
8.977466620733543 86.7097
8.999851761421976 84.3966
9.022219798361645 83.1601
9.04460562795561 82.6179
9.066991803441677 82.4347
9.089360876979615 82.2749
9.111747746589993 81.8792
9.13411751544971 81.0477
9.156505082664324 81.1748
9.178875550323522 81.3344
9.20126381862328 81.525
9.223652438908596 81.5221
9.246023961427412 81.4379
9.26841328802173 81.138
9.290785518039224 81.2525
9.313175554425882 82.2766
9.335565947154315 82.3901
9.357939245086508 82.4478
9.380330352834827 82.5766
9.40270436697103 82.7145
9.425096193225055 82.9126
9.447488380180165 83.3485
9.469863475295412 83.2875
9.492256385987508 83.5919
9.514632206018318 84.3774
9.537025843935714 84.5687
9.559402392368193 85.1743
9.581796761000229 86.5309
9.604191496441521 87.7368
9.626569144158516 91.1954
9.648964615551032 94.7036
9.671343000390081 95.87899999999999
9.693739211225699 94.2834
9.716135793237463 92.1318
9.738515290448102 91.7543
9.760912617143402 93.0225
9.783292860202891 94.3285
9.805690935076182 95.7629
9.828089385495742 96.9581
9.850470754023561 98.8404
9.872869957865444 105.113
9.89525208097539 117.725
9.917652041736662 127.836
9.940052382417589 127.852
9.962435644102392 134.805
9.984836746950979 165.175
10.007220771957746 225.333
10.029622640473708 322.671
10.052007432299963 499.485
10.074410069984072 804.847
10.096813093716005 1287.49
10.119199042482517 1757.12
10.141602840636468 1953.18
10.163989564971628 1552.16
10.186394141051062 887.067
10.208799107559706 404.426
10.231187001965623 187.236
10.253592751657669 125.12899999999999
10.275981430388155 111.777
10.298387966769793 110.71
10.320794897965431 112.25299999999999
10.343184759907361 110.806
10.36559248305461 106.053
10.387983138083852 102.87700000000001
10.410391656691655 105.038
10.432800574501677 114.281
10.455192425893369 130.634
10.47760214443012 155.702
10.499994797678786 202.327
10.522405320453982 286.189
10.54479877906917 414.07300000000004
10.567210109595656 526.856
10.5896218454736 586.352
10.612016518879773 510.936
10.634429067781074 346.62800000000004
10.656824555333241 200.578
10.679237920773568 123.477
10.701651695961992 95.8115
10.724048411481384 88.2564
10.746463008485165 85.4222
10.768860546937125 84.1879
10.791275969274796 82.1751
10.81369180576079 81.4503
10.836090585366925 80.5228
10.858507252467449 78.9863
10.88090686379991 78.1551
10.903324365036394 77.4112
10.925724811614439 77.4483
10.948143150509463 78.3642
10.970561909719066 77.2799
10.992963615930844 75.748
11.015383218085756 73.9002
11.037785768347074 72.3967
11.06020621697282 72.0406
11.082627090322113 71.4153
11.105030913430326 70.8278
11.12745263854165 71.5662
11.149857314510728 74.1097
11.172279894912576 79.2126
11.194702904450653 79.3552
11.217108866490921 75.6394
11.239532736615194 72.2154
11.26193956033512 70.1238
11.284364294577085 68.8398
11.306789462371718 67.1964
11.329197585398376 66.3784
11.351623622610898 66.1012
11.37403261614354 65.3039
11.396459526308487 65.3207
11.418869393879497 64.78
11.441297180532617 64.5619
11.463725406927658 64.2215
11.486136592353875 63.9799
11.508565700543707 64.6116
11.530977768845315 66.0317
11.553407762368774 66.4263
11.575838200059769 66.0643
11.598251599479612 64.4122
11.620682927815501 63.11600000000001
11.64309721895548 62.7957
11.665529441478206 62.4059
11.687962112597958 62.2357
11.710377748130886 62.013000000000005
11.732811318753434 62.0216
11.755227854859067 61.8794
11.777662328529495 61.9908
11.800079768750786 61.8197
11.822515149015453 61.785
11.844950984084935 62.1127
11.867369787303163 61.6496
11.889806534289491 61.5375
11.912226250487029 61.977
11.934663912939751 62.176
11.9571020346363 62.416000000000004
11.979523127133968 62.3968
12.001962169624331 62.6935
12.024384183972964 63.5396
12.046824150809913 66.4058
12.069264581333726 71.1939
12.091687985297767 76.8926
12.11412934550045 85.5157
12.136553680195208 101.265
12.158995973632788 125.516
12.181438735204349 156.735
12.20386447284199 190.328
12.226308172985636 207.49
12.24873485024193 203.171
12.271179492516982 170.125
12.293607112949127 124.49
12.316052700916226 93.9186
12.338498763250042 76.3714
12.360927805303868 68.3939
12.383374818673879 65.1403
12.405804812803074 63.8439
12.428252780773262 63.5512
12.45070122756722 63.5687
12.473132656675375 63.1843
12.49558206341869 63.4935
12.518014453510101 63.5364
12.540464823770117 63.6612
12.562915677315177 63.9988
12.58534951575545 64.6788
12.607801338171472 66.3866
12.630236146511358 70.7448
12.652688941369085 74.3634
12.675124723177234 74.5939
12.697578494048786 71.5781
12.720032754458185 68.472
12.742470003354093 66.8777
12.764925245138771 66.9061
12.787363476431278 67.3093
12.809819703166806 67.6717
12.83227642391173 68.4828
12.854716135692716 68.7737
12.877173846755147 69.6882
12.899614549869717 70.2505
12.9220732548287 71.32300000000001
12.94453245827299 71.3444
12.966974655289818 72.4898
12.989434858002571 73.2616
13.011878055298721 73.7676
13.034339260862497 74.8742
13.056800969391883 76.0861
13.079245674017244 77.9591
13.101708390774869 79.7672
13.12415410463411 86.0664
13.146617833206086 96.5295
13.169064559883248 107.76100000000001
13.191529303857127 122.243
13.213994557076367 144.613
13.236442809902437 183.137
13.258909083908291 242.42
13.28135835851934 309.37
13.30382565690295 382.37699999999995
13.326293469022952 418.954
13.348744283242008 412.17
13.371213125129904 347.139
13.39366497011003 252.81
13.416134845360597 169.187
13.438605238843131 121.94200000000001
13.46105863690397 103.17200000000001
13.483530069144786 102.846
13.505984506951902 107.49799999999999
13.528456981549432 116.96700000000001
13.550929978879088 131.188
13.573385983253365 155.912
13.595860028340867 196.768
13.618317081455832 252.267
13.64079217790333 310.178
13.663250283359057 351.29
13.685726434770173 364.074
13.708203115221277 327.85400000000004
13.730662806148091 254.614
13.75314054697177 179.65900000000002
13.775601299246777 125.546
13.798080104050406 96.0168
13.820559442405358 84.4247
13.843021793671388 80.6257
13.865502201420897 79.0636
13.887965623051947 78.5049
13.910447103807167 77.5386
13.932929122629764 76.0749
13.955394156785959 75.6942
13.977877254034569 74.6848
14.000343367582113 73.9984
14.022827546871707 73.2663
14.045294743423524 72.6164
14.06778000837062 72.0316
14.090265817715476 71.9062
14.112734645763819 71.6873
14.13522154619454 71.4215
14.157691466286913 71.3807
14.180179461423874 71.0605
14.202668005486178 70.5008
14.22513957064374 69.9689
14.247629214846473 69.4726
14.270101881097517 69.4909
14.29259262906496 69.6839
14.315083930490205 70.1957
14.337558255389705 70.4284
14.360050666019726 70.1041
14.382526101071944 69.0529
14.405019624534942 68.2116
14.427513705993134 67.9008
14.449990813291825 67.9059
14.47248601302899 67.837
14.49496423954951 68.1233
14.517460561197822 68.0184
14.539939910570322 67.8514
14.562437357763558 68.2107
14.58493536931253 69.0663
14.607416409993311 70.0049
14.62991555254159 70.5871
14.652397725157423 70.2464
14.674898002342799 69.7865
14.697398848433282 69.3859
14.719882725991326 70.17
14.74238471217934 71.1472
14.764869730765593 73.7701
14.787372860692983 76.7765
14.809876564079925 80.7759
14.83236330125751 86.6393
14.854868153850365 95.0933
14.877356041159485 109.05
14.899862046604186 128.609
14.922351087688757 154.947
14.944858249632887 184.78599999999997
14.967365991421232 211.271
14.989856770231246 220.86900000000003
15.012365673994204 214.8
15.03485761569738 186.456
15.05736768508665 146.2
15.07987833888692 113.19200000000001
15.102372032001655 90.0418
15.124883856909658 76.5109
15.14737872204565 71.5117
15.169891721717274 69.8225
15.192405310371893 69.5719
15.214901940621196 69.4557
15.237416709527137 69.5604
15.259914520936249 69.7443
15.282430473753607 68.9033
15.304947020131227 67.6622
15.327446610371178 67.0532
15.349964346154254 66.3893
15.372465126703139 65.9554
15.394984055556009 65.832
15.417486030076159 65.4004
15.44000615566487 65.2071
15.462526881230803 65.4176
15.485030653812652 65.5372
15.507552581617434 65.2454
15.530057557334603 65.3881
15.55258069104857 65.1959
15.575104429329837 65.1597
15.597611216864632 64.8332
15.620136166564563 64.9788
15.6426441664095 65.5766
15.665170331202765 67.8611
15.687697105158826 70.6749
15.710206930593545 74.1639
15.732734925158933 77.9901
15.755245972089478 84.1613
15.77777519094324 93.1763
15.800287463046663 106.946
15.822817909869592 126.92399999999999
15.84534897229804 149.523
15.867863089299354 172.343
15.890395385222186 187.771
15.912910736597423 189.854
15.935444269699861 179.734
15.957978423016485 150.16299999999998
15.980495633101265 119.745
16.003031029129367 93.8446
16.02554948280019 75.7477
16.048086125229432 67.0403
16.070623392487107 64.3947
16.09314371869582 63.437
16.11568223789321 62.5052
16.13820381691126 61.3576
16.160743591742527 60.2838
16.183283996022084 59.688
16.205807461423195 58.8115
16.228349126881973 58.1656
16.25087385432698 58.248999999999995
16.27341678466365 57.5826
16.29594277784926 57.6435
16.31848697676433 57.681000000000004
16.341031811604868 57.8938
16.36355971058487 58.1805
16.3861058195587 57.9692
16.40863499352978 56.802
16.431182380342005 55.9489
16.453730407713202 55.5722
16.476261501364792 55.1506
16.498810812136167 54.8323
16.52134319004079 55.0265
16.54389378792203 54.9212
16.566445031001553 54.4977
16.588979342490088 54.3852
16.61153187824822 54.233999999999995
16.634067483263312 54.0492
16.656621315414416 54.0642
16.679175797408888 53.7719
16.701713349928728 53.8672
16.72426913389191 54.3894
16.74680798922351 54.3303
16.76936507887444 54.2632
16.791905240734874 54.2045
16.814463639794468 54.0622
16.837022695210294 54.0778
16.859564824093756 54.5159
16.882125194503903 54.998000000000005
16.904668639217885 55.4946
16.927230328348003 55.7848
16.949792678493612 56.0221
16.972338104193863 55.3747
16.994901778652235 54.9607
17.017448529496576 54.9627
17.040013531998152 55.0361
17.06257920018044 55.4866
17.0851279459922 56.1164
17.107694947817667 56.8948
17.130245028099072 57.7764
17.15281336730298 59.1056
17.17536478578733 60.8919
17.19793446610687 63.1374
17.220504818648422 66.1431
17.243058251703697 69.6814
17.265629950971032 74.825
17.288184731571736 79.3412
17.310757781306908 81.9945
17.33333150794385 83.4996
17.355888317140174 80.9273
17.37846339986244 75.8729
17.401021565958885 70.1123
17.42359800851343 65.0295
17.44617513265564 61.3817
17.468735341390783 59.3801
17.491261035594565 58.5344
17.51396340099364 58.2221
17.536490463869136 58.4015
17.559018209820174 58.1902
17.58154663977963 58.4822
17.604251766089718 58.7092
17.626781572227713 58.7498
17.64931206518155 58.8845
17.671843245885103 59.5815
17.69455114821572 59.7747
17.717083712612634 59.9888
17.739616967569667 60.3194
17.762150914021706 60.4137
17.78486160749854 60.5559
17.807396945166804 61.0294
17.829932977143503 61.8545
17.85246970436452 63.3437
17.875183204129467 65.0486
17.897721330097664 66.8442
17.920260154126645 69.1514
17.942799677153296 72.306
17.9655159983646 76.1276
17.988056927677544 81.6163
18.010598558807683 89.469
18.033140892692916 99.8405
18.05586005052525 111.36399999999999
18.07840379824407 122.259
18.10094825154059 132.105
18.12366954819864 137.648
18.146215420998306 135.55
18.16876200220057 126.74799999999999
18.191309292745153 113.471
18.214033452627167 101.065
18.236582170236648 90.9847
18.259131600016456 85.9141
18.281681742907335 86.242
18.304408781233683 90.8601
18.32696035875955 96.3864
18.349512652227624 100.45200000000001
18.372065662579683 103.72200000000001
18.394795594587553 103.791
18.41735004715306 100.205
18.43990521943684 93.4819
18.46246111238171 84.5278
18.485193953325208 76.0391
18.507751296070428 68.9529
18.530309362314178 65.0724
18.552868153000343 62.926
18.57560391815056 61.3026
18.59816416623245 61.071000000000005
18.620725141597372 60.5064
18.643286845190268 60.0218
18.666025549835414 59.8801
18.688588718427933 59.1738
18.711152618092243 59.0347
18.73389353884365 58.6691
18.75645890921984 58.2719
18.77902501351406 57.8222
18.801591852673102 58.0002
18.824335739722738 57.4109
18.846904057212626 57.3791
18.8694731124168 57.1451
18.89204290628315 57.1295
18.914789774966803 56.8962
18.937361054791623 56.7082
18.959933076131318 56.2504
18.982505839934877 56.2657
19.00525570560582 56.4707
19.027829963004184 56.1232
19.05040496572238 56.3446
19.072980714710468 56.1624
19.095733592739563 56.3014
19.11831084296757 56.5109
19.140888842324735 57.1194
19.16346759176222 57.3484
19.18622349753803 57.8019
19.208803755869358 58.585
19.231384767143577 59.9086
19.253966532312948 61.441
19.276725481241822 63.6424
19.29930876296784 66.1948
19.3218928014549 69.1528
19.34465404436217 72.1471
19.36723960516257 74.8653
19.389825925592426 75.3383
19.412413006605938 74.3657
19.43517731967805 70.6489
19.457765930683355 66.5215
19.48035530514408 62.17100000000001
19.50294544401556 58.5734
19.525712842708348 55.7937
19.54830451925909 54.593999999999994
19.570896963095727 53.4819
19.593490175174704 53.0928
19.616260674962184 53.0964
19.638855432416964 52.9424
19.661450960992624 53.0155
19.68404726164677 52.9421
19.706820878021247 52.5741
19.729418731756834 52.8631
19.752017360452857 52.4422
19.77461676506804 52.6936
19.797393513540218 53.0692
19.819994478951667 53.1813
19.84259622316767 53.5442
19.8651987471481 53.946999999999996
19.887978643247177 54.1144
19.91058273574792 54.6382
19.933187610901943 55.4067
19.955969879466828 56.7505
19.97857632894404 58.2799
20.00118356396599 59.986999999999995
20.023791585494575 62.1257
20.046577028914875 64.8896
20.069186632506966 66.9206
20.091797025500632 68.6684
20.114408208858933 69.0794
20.137196842715273 68.7858
20.159809615886765 67.3641
20.18242318232135 64.8535
20.20503754298326 62.8308
20.227829382875154 61.963
20.250445341109344 61.8129
20.27306209647285 62.6209
20.29567964993108 63.6233
20.31847471147704 64.5465
20.34109387027612 64.7414
20.363713830075454 64.2439
20.386334591841646 63.065
20.409132890679302 60.5361
20.431755265564437 57.4104
20.454378445325528 54.8947
20.477002430930366 52.9705
20.499803982716553 51.7697
20.522429589228004 50.8827
20.54505600449589 50.2946
20.567683229489194 50.1759
20.590488049900088 49.9427
20.61311690359731 49.5988
20.63574656993626 49.4782
20.658553853717297 48.9074
20.681185154618298 49.1226
20.703817271080066 49.0854
20.72645020407368 48.6095
20.749260783967177 48.4316
20.771895359337133 48.3915
20.794530754161617 48.2924
20.817166969412938 48.3758
20.83998086114876 48.3854
20.86261872660049 48.24100000000001
20.885257415405402 48.066
20.90789692853701 47.9632
20.930714147864748 47.9268
20.953355319030678 47.92
20.97599731745334 48.0681
20.99864014410749 47.8328
21.021460706796564 47.8324
21.044105199328826 48.446000000000005
21.06675052302631 48.468
21.089396678865015 48.7111
21.112220600704806 48.8998
21.134868430275347 49.323
21.15751709492456 49.5845
21.180166595629693 49.823
21.202993892429635 50.4118
21.22564507473034 50.6821
21.24829709602816 50.888000000000005
21.27112693608965 50.7056
21.293780644891275 50.6266
21.316435195634053 50.0608
21.339090589297417 49.4162
21.361923832041875 48.9551
21.384580921090404 48.4481
21.407238856007325 47.9909
21.429897637773326 47.938
21.45273429906592 47.7748
21.475394784108598 47.8355
21.498056118951983 47.5618
21.520718304578022 47.8816
21.543558400304388 48.0984
21.566222297108816 48.268
21.58888704765135 48.3636
21.61155265291521 48.6053
21.63439619898156 48.9831
21.657063523335786 49.2772
21.67973170537063 49.8156
21.7024007460706 50.2013
21.72524775840385 50.9121
21.747918526116475 51.9264
21.770590155457388 53.1534
21.79326264741238 54.7996
21.816113141960237 56.7377
21.838787368860547 58.7669
21.861462461341976 60.5586
21.884315579735777 62.1583
21.90699241312273 63.3539
21.92967011506078 63.4609
21.95234868653799 63.0535
21.9752053151131 61.9377
21.997885635446785 60.0409
22.020566828293532 58.7113
22.04324889464272 57.1476
22.066109049404666 55.9472
22.088792872571794 55.6354
22.111477572219204 55.4747
22.1341631493376 55.3955
22.157026846313123 55.1083
22.179714188221507 54.3739
22.202402410582668 53.3152
22.22509151438863 51.983000000000004
22.24795876962584 50.9232
22.270649646204486 49.9024
22.293341407213727 49.1769
22.316034053646906 48.6483
22.338904883215342 48.3694
22.36159931041458 48.4456
22.38429462602756 48.3976
22.40699083104897 48.1504
22.429865251039757 48.1705
22.452563244831367 48.2575
22.47526213102522 48.1698
22.49813925616515 48.1228
22.520839937143307 48.0179
22.543541513520587 48.0928
22.56624398629403 47.9859
22.589124730075895 47.87
22.611829005656723 47.9567
22.63453418063466 47.9946
22.657240256008077 48.26
22.680124634582935 48.3564
22.70283252079775 48.5602
22.725541310413075 48.9891
22.74825100442868 49.0504
22.771139033969575 49.5961
22.79385054687155 49.6981
22.81656296718292 50.4189
22.83927629590484 51.3829
22.862167992606945 52.4301
22.88488314827121 53.8346
22.907599215359284 54.7396
22.93031619487366 55.9124
22.953211574954405 56.7783
22.975930389478226 57.1251
22.998650119445763 57.282
23.02137076586092 56.3017
23.044269845560063 55.1801
23.06699233506288 53.7016
23.089715744034912 52.0673
23.112617610931565 50.431000000000004
23.135342869061212 49.4762
23.158069049684816 48.7112
23.1807961538087 48.2886
23.20370174880544 48.2525
23.226430710184808 48.2524
23.249160598093425 48.2193
23.271891413539002 48.2267
23.294800752937697 48.27
23.31753343374794 48.5471
23.340267045128353 48.6047
23.36300158808808 48.79600000000001
23.38591468821339 49.2572
23.408651104658304 49.5838
23.431388455719986 50.1636
23.454126742409 51.1675
23.4770436196085 52.1718
23.499783787914662 53.5785
23.522524894889884 54.6324
23.54526694154616 55.5439
23.56818761219047 56.5712
23.59093154860734 57.0414
23.613676427751283 57.148999999999994
23.636422250635754 56.2004
23.659346731118656 54.6987
23.68209445191868 52.8577
23.704843119509587 51.0485
23.72759273490623 49.138999999999996
23.750521041644767 47.8179
23.77327256312355 46.7971
23.796025035462787 46.1611
23.818956224555475 45.5946
23.841710609113413 45.608000000000004
23.86446594758979 45.3086
23.887222241002014 45.0025
23.910157285144578 44.7552
23.932915498962537 44.7315
23.955674670778713 44.5378
23.978434801611975 44.3115
24.001373717286125 44.2424
24.024135776723917 44.0769
24.046898798245582 43.986999999999995
24.06966278287146 43.9216
24.092605586582614 43.6409
24.115371508023642 43.6204
24.1381383956401 43.5537
24.16090625045381 43.543
24.183852958731244 43.372
24.206622758582608 43.2874
24.229393528706886 43.0234
24.252165270127392 43.201
24.27511589952438 43.1143
24.297889594216997 43.0141
24.32066426328598 42.8072
24.34343990775613 42.7868
24.36639447485003 42.6212
24.38917208083877 42.7168
24.41195066531332 42.6069
24.43490819850244 42.56399999999999
24.457688750692377 42.3471
24.48047028445616 42.4102
24.503252800821233 42.4516
24.526214300784112 42.6844
24.548998793132213 42.5659
24.57178427117417 42.4053
24.59457073593893 42.5053
24.617536219319863 42.3881
24.64032466834748 42.3149
24.663114107195035 42.4279
24.685904536893013 42.0523
24.708874020360852 41.9459
24.731666442613744 41.8636
24.754459858818787 41.9186
24.777254270007962 41.8669
24.80022777025625 41.7452
24.82302418230472 41.5693
24.845821592443674 41.68899999999999
24.86862000170663 41.8532
24.891597535453727 41.3764
24.914397953892728 41.678999999999995
24.93719937456671 41.7975
24.96000179851076 42.0099
24.98298338249997 42.141999999999996
25.00578782394922 42.1151
25.028593271784167 42.4784
25.05157790644186 42.7208
25.07438537804115 42.808
25.097193859145293 43.0675
25.120003350792075 43.1833
25.142992065061257 43.5563
25.165803588823465 43.8498
25.18861612625217 44.1449
25.211429678386736 44.1172
25.234422489079968 44.1917
25.257238081693636 44.2712
25.280054692141732 44.4792
25.3028723214652 44.4187
25.325869245420463 44.4685
25.348688923599397 44.3821
25.371509623787006 44.3158
25.394331347025812 43.99
25.41733240110666 43.6059
25.440156181590016 42.9725
25.46298098826268 42.5403
25.48580682216873 42.0114
25.50881202326435 41.3367
25.53163992281684 40.8718
25.55446885274561 40.672
25.577298814096377 40.303000000000004
25.600308179121807 40.2643
25.623140214533745 40.4472
25.64597328451537 40.299
25.66898578564376 40.0551
25.691820936010206 40.083
25.714657124097695 40.006
25.737494350954734 40.0473
25.760511045684957 40.0078
25.783350361364224 40.0241
25.806190718969255 39.9452
25.82903211955018 39.9796
25.852053024868923 40.2518
25.874896522722523 40.2907
25.897741066713106 40.1507
25.920586657892454 40.402
25.943611790812668 40.454
25.966459487728237 40.5312
25.989308234998564 40.4738
26.01215803367705 40.9596
26.03518741123814 41.1866
26.05803932412957 41.2211
26.080892291600094 41.0021
26.10374631470478 41.0584
26.12677995397268 41.1488
26.14963609978026 41.0587
26.172493304397875 40.9507
26.19535156888223 40.6441
26.218389486949604 40.2329
26.241249882640123 39.9388
26.26411134137826 39.8093
26.28715248187403 39.7884
26.31001607820869 39.6726
26.3328807407756 39.4203
26.35574647063438 39.6918
26.37879191991473 39.5402
26.401659795896734 39.6501
26.424528742360263 39.7754
26.447398760366614 39.8854
26.470448535598294 40.0887
26.49332070826805 40.3907
26.516193955675355 40.6184
26.53906827888316 40.8749
26.562122397260108 41.0337
26.584998883685063 41.2458
26.607876449110325 41.3876
26.63075509460056 41.5239
26.65381357334404 41.653999999999996
26.67669439061878 41.6652
26.699576291163382 41.5833
26.722459276044212 41.5143
26.745522132402975 41.1737
26.768407297649354 41.0015
26.791293550442003 40.6011
26.814180891848974 40.4661
26.837248143099337 40.1399
26.860137673466657 39.8718
26.88302829566349 39.6533
26.90592001075963 39.5636
26.92899167420566 39.4189
26.951885586870763 39.0884
26.974780595655517 38.9653
26.99785558178161 38.7648
27.020752794605112 38.4902
27.043651106772522 38.3484
27.06655051935668 38.3339
27.089629948036183 38.2251
27.112531573292053 38.1893
27.135434302194138 38.3472
27.158338135817015 38.0173
27.181422024430987 38.0141
27.204328079372566 37.9626
27.22723524226965 38.1239
27.250143514198573 38.1993
27.273231880156334 38.1743
27.296142382065014 37.9895
27.319053996245536 37.7754
27.341966723775965 38.0303
27.365059584515222 37.9704
27.38797455070062 38.0222
27.410890633481237 37.897
27.433807833936918 37.9539
27.456905206923906 37.9904
27.47982465472398 38.0645
27.502745223449743 38.046
27.525666914182825 38.1286
27.548768816912457 38.0582
27.571692763693633 37.991
27.59461783573812 37.9828
27.617723149491244 37.7346
27.640650484125285 37.677
27.66357894728264 37.5056
27.686508540048052 37.589
27.709618414237887 37.6391
27.732550278321757 37.4224
27.755483275279115 37.4552
27.778417406196485 37.4938
27.801531858397514 37.4479
27.824468269376716 37.3421
27.847405817586786 37.4057
27.870344504116094 37.5623
27.893463551932008 37.5614
27.916404527281053 37.8596
27.93934664422563 38.0394
27.962289903855886 38.1229
27.98541356491974 38.2641
28.00835912214229 38.1967
28.03130582533231 38.4892
28.054253675581805 38.7224
28.077381967556104 38.6584
28.100332124185126 38.5137
28.123283431160893 38.5079
28.146235889577238 38.3112
28.169368830154156 38.1784
28.192323603752033 37.9075
28.215279532083304 37.6936
28.238415973016764 37.5417
28.261374223145094 37.4066
28.284333631303806 37.2654
28.307294198589954 37.0308
28.330435319167677 36.7653
28.353398217078915 36.4712
28.376362277420153 36.3234
28.39932750129032 36.2691
28.422473319286713 36.0353
28.44544088262495 35.9728
28.468409612800283 35.7958
28.491379510913497 35.6305
28.51453004413313 35.5475
28.53750229057244 35.4652
28.56047570826344 35.4114
28.583450298308804 35.5136
28.606605564586562 35.1805
28.629582511831156 35.3269
28.65256063474956 35.2175
28.675539934446338 35.1715
28.698699951647605 35.2152
28.72168161743193 35.1026
28.74466446331978 35.0854
28.767648490417624 35.0512
28.790813276438353 35.0912
28.813799678527303 34.9708
28.836787265157085 35.0965
28.859955641890075 35.0419
28.882945610203045 35.0674
28.905936766392035 34.9113
28.928929111566863 34.9265
28.952102288520145 34.7924
28.975097024308607 34.681
28.998092952423807 34.584
29.021090073977508 34.481
29.04426806913204 34.3734
29.067267590245258 34.2862
29.090268308143695 34.1491
29.11327022394099 34.1999
29.13645305530891 34.0589
29.159457379627167 34.0533
29.18246290519685 33.9097
29.20546963313352 33.9078
29.22865731875826 33.9303
29.25166646419296 34.0172
29.27467681535305 33.8741
29.29768837335608 33.9068
29.320880931312562 33.8796
29.34389491580634 33.8815
29.366910110507334 33.6881
29.38992651653503 33.8424
29.41312396492981 33.8658
29.436142806456754 33.7072
29.45916286268059 33.5687
29.48236399319994 33.5796
29.50538649169417 33.4629
29.528410208259935 33.3167
29.55143514402014 33.1541
29.574641196749695 33.0871
29.597668583816574 32.9851
29.6206971934585 32.8451
29.64372702680042 32.8373
29.666938019934474 32.7243
29.689970313635285 32.518
29.713003834422636 32.5307
29.73603858342347 32.538000000000004
29.759254535188578 32.5278
29.78229175361658 32.4839
29.80533020365064 32.4574
29.82836988641968 32.4379
29.85159081507472 32.3871
29.874632976355343 32.3501
29.89767637376955 32.4389
29.920721008448314 32.2351
29.9439469322847 32.2725
29.96699405457564 32.2139
29.9900424175358 32.1933
30.013092022298157 32.1077
30.03632295963995 32.0459
30.059375061131373 32.006
30.08242840783577 32.2049
30.105483000888153 32.0803
30.128718970092244 32.0468
30.151776069006917 32.05
30.17483441768648 32.0714
30.198074175317235 32.0256
30.221135036724256 31.9938
30.24419715131772 31.8469
30.267260520236203 31.8006
30.290505341942243 31.976999999999997
30.313571232750228 31.9466
30.336638381310948 31.8857
30.35970678876503 31.9142
30.38295669299435 31.7819
30.40602763151657 31.8574
30.429099832366074 31.7145
30.452173296685572 31.6631
30.47542830191959 31.7349
30.498504306502497 31.6582
30.521581577995562 31.7465
30.544660117543582 31.7447
30.56792024229725 31.8583
30.59100133132069 31.7651
30.614083691845494 31.7182
30.637167325018545 31.8118
30.660432587840603 31.8022
30.683518779717886 31.8148
30.70660624769615 31.9153
30.729694992924372 31.8405
30.75296541239743 31.8455
30.77605672557558 31.8305
30.799149319462742 31.826
30.8224236211637 31.6322
30.845518789950724 31.5386
30.868615242910597 31.519000000000002
30.891712981195973 31.2044
30.91499247215866 31.2837
30.938092794619365 31.2683
30.96119440587579 31.0734
30.984297307082752 30.9675
31.00758200598383 30.8851
31.030687500658694 30.8431
31.053794288760695 30.7953
31.076902371446767 30.7345
31.100192296997445 30.7403
31.12330298246119 30.6434
31.14641496599209 30.6082
31.169528248749216 30.6167
31.19282341969534 30.6275
31.215939314557186 30.5538
31.239056512134788 30.6382
31.262175013589378 30.5789
31.28547544871168 30.5309
31.30859657161541 30.4764
31.331719001892175 30.5728
31.35484274070538 30.552
31.378148458819545 30.6265
31.401274828443725 30.504
31.424402510106933 30.5397
31.447712205419993 30.5552
31.470842524931633 30.5124
31.493974159989783 30.4892
31.51710711176168 30.4399
31.54042212308802 30.4415
31.563557722100917 30.3964
31.586694641341655 30.2344
31.609832881979628 30.1487
31.63315322823208 30.2262
31.656294125521327 30.075
31.679436347728515 29.9383
31.70257989602529 29.8758
31.725905596152327 29.8788
31.74905181052835 29.8349
31.772199354521323 29.8447
31.79534822930507 29.8781
31.818679302290967 29.8141
31.84183085259981 29.7804
31.864983737233473 29.8585
31.88813795736804 29.9066
31.911474422233013 29.713
31.934631327356435 29.7756
31.9577895715215 29.7097
31.980949155906522 29.6767
32.004291031706956 29.7167
32.027453310562606 29.6383
32.05061693318573 29.5073
32.07396288236386 29.4803
32.09712920658542 29.3859
32.12029687812702 29.2761
32.14346589817093 29.1867
32.166817291729984 29.2518
32.18998902288583 29.1193
32.21316210610336 29.0339
32.23633654256711 28.925
32.259693399663725 28.8866
32.282870556771144 28.8981
32.30604907069099 28.8368
32.329228942610065 28.768
32.35259128243769 28.7227
32.375773884550505 28.6191
32.398957848235646 28.6196
32.422143174682176 28.5406
32.445511016471215 28.4015
32.468699082679954 28.4371
32.49188851523011 28.2988
32.51507931531304 28.2517
32.538452678331 28.2823
32.56164622776311 28.2011
32.58484114831493 28.0891
32.60803744118015 28.155
32.631416344731896 28.0957
32.654615396551876 28.0966
32.67781582427913 28.0401
32.701198898634416 27.9869
32.72440209253756 27.9841
32.747606665947124 27.9987
32.77081262006088 27.8337
32.79420126883317 27.8449
32.81740999876112 27.8293
32.840620112999424 27.7932
32.86383161274818 27.6502
32.88722585534586 27.7409
32.91044014056596 27.7016
32.933655814909734 27.686
32.95687287957963 27.6494
32.98027273544904 27.5959
33.00349259526636 27.5443
33.026713849030116 27.6334
33.04993649794511 27.5766
33.073341986570746 27.4631
33.09656744032826 27.537
33.11979429286444 27.5459
33.14302254538647 27.5389
33.166433686291185 27.4771
33.18966475336992 27.3999
33.212897224069096 27.2287
33.23613109959831 27.2442
33.259547912343415 27.1978
33.2827846121627 27.3217
33.306022720453775 27.1872
33.32926223842861 27.0854
33.352684742614166 27.1106
33.37592709463173 27.0581
33.399170859982064 26.9331
33.422597648419426 26.8876
33.44584425514446 26.8332
33.46909227885668 26.8245
33.4923417207723 26.703000000000003
33.51577423505344 26.7115
33.539026528130385 26.5733
33.56228024307245 26.568
33.585535381098246 26.5333
33.60897364093058 26.4564
33.63223163992385 26.3827
33.6554910656699 26.4612
33.678751919389796 26.4009
33.702195944520106 26.3412
33.72545966903325 26.2903
33.74872482519663 26.2061
33.771991414233746 26.2465
33.79544122444841 26.1572
33.81871069412428 26.0243
33.84198160035767 26.0257
33.86525394437455 26.1333
33.88870955949969 26.1158
33.911984794020626 26.0116
33.93526147001624 25.9285
33.958539588715006 25.8852
33.98200102861669 25.8523
34.0052820477047 25.7968
34.02856451319451 25.754
34.05203033759056 25.6941
34.07531571090147 25.6663
34.09860253431845 25.6051
34.121890809074316 25.6275
34.145362493118924 25.6011
34.16865368561615 25.6196
34.191946333164054 25.5182
34.21524043699793 25.3723
34.23871800066799 25.4256
34.26201503218366 25.2819
34.28531352370466 25.326999999999998
34.30861347646881 25.3337
34.33209693978188 25.3339
34.3553998301885 25.2403
34.378704185565205 25.1971
34.402010007152356 25.057
34.42549939016683 25.1026
34.44880815937748 24.9766
34.472118398533134 25.0175
34.49543010887669 24.9535
34.51892543169198 24.8571
34.54224009966052 24.9482
34.56555624255917 24.9303
34.58887386163339 24.7475
34.61237514439016 24.6753
34.6356957311114 24.7062
34.65901779775809 24.7331
34.68252356662995 24.6054
34.705848608458616 24.641
34.72917513396849 24.5748
34.75250314440949 24.5181
34.77601490857862 24.4318
34.799345904259795 24.3684
34.82267838863559 24.4024
34.846012362958525 24.4661
34.869530142679984 24.4045
34.89286711232212 24.3247
34.91620557568269 24.3589
34.93954553401677 24.3646
34.9630693495876 24.2134
34.986412313340814 24.2273
35.00975677584668 24.2277
35.033102738362956 24.0872
35.05663261012228 24.0598
35.0799815881786 24.0879
35.10333207003229 24.0267
35.12668405694369 24.0518
35.150220005273056 24.0377
35.17357501786656 24.0283
35.19693153931268 23.9914
35.220289570874385 23.8528
35.24383161619786 23.9358
35.267192683604904 23.933000000000003
35.290555264930376 23.8965
35.314101899412165 23.843000000000004
35.33746752422433 23.76
35.36083466676374 23.8123
35.38420332829803 23.7804
35.407756095629054 23.7846
35.43112781085063 23.7837
35.45450104888391 23.6612
35.477875810999194 23.7117
35.50143473172161 23.6368
35.52481255774625 23.6716
35.54819191167777 23.5875
35.57157279478914 23.5111
35.595137889488406 23.4907
35.61852184675279 23.4251
35.641907337029984 23.3986
35.665294361595684 23.2384
35.68886565090076 23.2548
35.7122557598848 23.2463
35.73564740699838 23.266
35.759040593519934 23.2357
35.78261809810353 23.1857
35.80601437933051 23.0924
35.829412203814705 23.0485
35.85281157283719 23.0329
35.876395313415884 23.0569
35.8997977874528 22.8924
35.92320180988546 22.899
35.946790244133936 22.8472
35.97019737933222 22.8487
35.993606066789866 22.888
36.01701630779276 22.8515
36.04061101440684 22.8106
36.06402437852291 22.7755
36.08743930005611 22.6093
36.1108557802951 22.6461
36.13445678011326 22.6032
36.15787639383515 22.5534
36.18129757014299 22.5964
36.20472031032821 22.4908
36.22832762423364 22.3898
36.25175350829375 22.478
36.275180960119776 22.4034
36.298609981005924 22.4588
36.32222362992669 22.4337
36.34565580510207 22.4232
36.36908955323448 22.2536
36.39252487562093 22.2665
36.416144880530226 22.2142
36.43958336764275 22.2087
36.463023432914625 22.2563
36.486465077645676 22.0952
36.51009145956204 22.1631
36.53353627947859 22.1869
36.55698268276811 22.1258
36.58043067073321 22.0978
36.60406345072071 22.0
36.62751462435344 21.9431
36.65096738658405 21.9302
36.67460498210655 21.8979
36.69806093788647 21.9087
36.72151848619297 21.8013
36.744977628333636 21.7613
36.76862165890998 21.7374
36.79208400512205 21.7293
36.81554794910557 21.6692
36.83901349217101 21.6253
36.862663978991606 21.5856
36.88613273667352 21.4916
36.90960309738324 21.5186
36.933075062434064 21.4902
36.95673202673572 21.5137
36.98020721697122 21.4901
37.003684015502365 21.4611
37.027162423645365 21.3388
37.050825886711465 21.3547
37.07430753063053 21.2105
37.09779078812467 21.2351
37.121275660513014 21.259
37.144945643673694 21.1805
37.16843376245278 21.2318
37.19192350009803 21.2108
37.215414857931435 21.1031
37.239091382563885 21.0374
37.262585997426164 21.0021
37.28608223645736 21.0575
37.309763684451696 20.9599
37.33326318851098 20.9903
37.356764320726555 20.923000000000002
37.380267082425526 20.9665
37.40395510942588 20.8447
37.42746114683234 20.8505
37.45096881771841 20.7273
37.474478123414166 20.7185
37.49817275092816 20.7186
37.52168534303452 20.7597
37.54519957395567 20.5314
37.568715445024665 20.6291
37.592416694607714 20.5627
37.61593586281424 20.5894
37.63945667518264 20.6455
37.66297913304891 20.475
37.68668702630454 20.4961
37.710212792059274 20.4818
37.733740207334854 20.3945
37.757269273470364 20.4085
37.780983832050374 20.2769
37.80451621684926 20.2721
37.82805025654007 20.3461
37.851585952464795 20.1946
37.8753071980695 20.1294
37.89884622345676 20.1391
37.92238690911902 20.114
37.94611318753442 20.0069
37.969657210779765 20.055999999999997
37.99320289834801 20.0896
38.016750251586465 20.0236
38.04048325513017 19.9651
38.06403395679343 19.9151
38.087586328183946 19.9097
38.11114037065203 19.8291
38.13488012115898 19.849
38.1584375229181 19.7381
38.181996599821 19.7363
38.205557353221124 19.7758
38.229303872575656 19.7351
38.2528679961576 19.6785
38.27643380031219 19.6168
38.30000128639589 19.5788
38.32375459653193 19.602999999999998
38.34732546371299 19.635
38.37089801690786 19.4833
38.39447225747609 19.5003
38.418232380377425 19.4389
38.441810012983396 19.4498
38.46538933705673 19.3741
38.488970353960084 19.4171
38.51273731166058 19.3161
38.536321731567014 19.2824
38.55990784840681 19.2531
38.58367995004091 19.2787
38.60726947812959 19.1326
38.63086070726198 19.2049
38.654453638806274 19.0969
38.678232613930824 19.0185
38.70182896773327 19.0036
38.72542702806741 18.9969
38.7490267963045 19.0015
38.77281266709232 18.995
38.79641586862214 18.99
38.8200207821842 18.9289
38.843627409152944 19.0002
38.86742019782782 18.8841
38.891030269149255 18.8885
38.914642058016156 18.9105
38.938255565806124 18.8365
38.96205529464307 18.7127
38.98567225787121 18.7302
39.00929094417078 18.741
39.03291135492255 18.7684
39.05671804624804 18.6807
39.080341923549106 18.6499
39.103967529460334 18.6385
39.127594865365744 18.5115
39.15140854155791 18.5229
39.17503935514948 18.5069
39.19867190290282 18.5056
39.22249083587951 18.4427
39.24612686969409 18.4087
39.269764641845306 18.3921
39.293404153722804 18.3908
39.317230110864074 18.3112
39.34087311998506 18.3367
39.36451787301696 18.2553
39.388164371352595 18.2314
39.41199737518003 18.1998
39.43564738196752 18.1673
39.45929913825317 18.1342
39.48295264543308 18.0915
39.506792718520884 18.1137
39.530449745387216 18.0479
39.55410852735203 17.9918
39.57776906581474 18.0047
39.60161623079 18.0076
39.625280300200025 17.9587
39.64894613032202 17.8437
39.67261372255866 17.8788
39.6964680021016 17.8202
39.72013913657293 17.8855
39.74381203738292 17.8108
39.76748670593756 17.7902
39.79134812278169 17.7905
39.81502634488497 17.6852
39.83870633896685 17.6824
39.862388106436654 17.6198
39.88625668336918 17.5749
39.90994201572829 17.6001
39.933629125719285 17.5795
39.957503091207826 17.5595
39.9811937746168 17.5468
40.00488623990914 17.52
40.02858048850006 17.4996
40.05246165409549 17.4603
40.076159487492085 17.3617
40.099859108448875 17.4788
40.123560518384345 17.3938
40.1474489070226 17.3384
40.171153913178564 17.3342
40.194860712584955 17.2681
40.2185693066637 17.2583
40.242464941335314 17.2194
40.26617714307655 17.141
40.289891143772046 17.1595
40.3136069448471 17.1265
40.33750984859743 17.1318
40.3612292688043 17.0401
40.3849504936829 17.0151
40.40867352466194 17.0272
40.43258372059144 16.97
40.45631038219906 17.0461
40.48003885420956 16.9723
40.503769138055105 16.9104
40.52768664931955 16.9244
40.55142057531802 16.862000000000002
40.57515631746428 16.8189
40.599079334038514 16.8232
40.62281872700477 16.7708
40.64655994043941 16.7309
40.67030297578061 16.7568
40.69423334835778 16.7123
40.71798004609188 16.6448
40.74172857006355 16.6235
40.76547892171441 16.6212
40.7894166736039 16.6018
40.813170699248566 16.5178
40.83692655691388 16.5248
40.86068424804498 16.5225
40.884629402612525 16.4981
40.908390779366385 16.4941
40.932153993938 16.4583
40.95591904777605 16.4142
40.979871628443995 16.4251
41.003640379561936 16.3826
41.02741097430883 16.3075
41.05118341413683 16.2962
41.075143444384416 16.2511
41.098919593177826 16.2643
41.1226975914255 16.2472
41.14647744058318 16.2339
41.170444943946755 16.168
41.19422851378379 16.2053
41.218013938914645 16.1231
41.24198706625173 16.0626
41.26577622087193 16.0787
41.289567235177785 16.0598
41.31336011063129 16.0815
41.337340752422875 16.0329
41.361137369129835 16.0007
41.38493585138705 15.9527
41.40873620066004 15.9299
41.43272438060107 15.9312
41.45652848292052 15.8731
41.48033445666918 15.823
41.50414230331616 15.8048
41.528138045159764 15.7904
41.551949656675205 15.7418
41.575763145513235 15.7129
41.59957851314666 15.6812
41.62358184070442 15.6513
41.64740098505737 15.6541
41.6712220126409 15.6261
41.69504492493139 15.618
41.71905586207357 15.5971
41.74288256296395 15.5815
41.766711153007456 15.4792
41.79054163368412 15.4711
41.814560204340054 15.5079
41.838394485526365 15.4802
41.86223066180303 15.4287
41.88625497706819 15.3925
41.910094962812 15.335999999999999
41.93393684811168 15.3659
41.95778063445365 15.2919
41.981812625263366 15.2598
42.00566023303407 15.2506
42.029509746323676 15.2013
42.05336116662236 15.2168
42.077400857069705 15.1851
42.10125611078846 15.1756
42.12511327600405 15.1719
42.14897235421036 15.0709
42.173019768448455 15.0697
42.19688269209613 15.0278
42.22074753323349 15.0126
42.24461429335818 14.9825
42.268669455600495 14.9689
42.292540073217886 14.9615
42.31641261433284 14.9499
42.34028708044675 14.9569
42.36435001496739 14.9282
42.38822835065557 14.8364
42.41210861586426 14.8496
42.4359908120986 14.9217
42.46006154323262 14.829
42.48394762115317 14.776
42.507835634632315 14.8012
42.531912233047436 14.7375
42.55580413732265 14.6921
42.579697981698 14.6932
42.60359376768525 14.6173
42.62767820545945 14.5814
42.65157789440821 14.5698
42.67547952952185 14.6011
42.699383112316 14.5812
42.72347541395347 14.4687
42.74738291190531 14.4434
42.771292362102166 14.4881
42.795203766063516 14.4397
42.819303956130405 14.4534
42.843219287476536 14.3729
42.86713657716324 14.3149
42.89105582671383 14.2853
42.91516392983864 14.3022
42.939087119032166 14.3171
42.963012272677304 14.3102
42.98693939230129 14.2726
43.01105543317513 14.1989
43.034986504731386 14.2466
43.05891954686589 14.1862
43.08285456110972 14.145
43.10697856448665 14.1483
43.130917542983475 14.0507
43.15485849820081 14.1037
43.17880143167367 14.0496
43.20293342237094 14.0384
43.226880332449 13.9193
43.25082922540554 13.9427
43.27496722682525 13.9831
43.29892010567796 13.9404
43.32287497204102 13.9113
43.34683182745632 13.8714
43.370977859791836 13.8387
43.39493871351105 13.8578
43.41890156092628 13.8494
43.44286640358341 13.7496
43.46702049182749 13.7616
43.49098934522816 13.6871
43.51496019852649 13.692
43.5389330532723 13.7065
43.56309522248204 13.622
43.58707210044314 13.6195
43.61105098451946 13.5873
43.63503187626491 13.5992
43.659202151562134 13.5268
43.68318707902681 13.5733
43.70717401884041 13.5169
43.731162972560874 13.4703
43.75534137913236 13.4628
43.779334381108384 13.4673
43.803329401683186 13.4238
43.82732644241872 13.3768
43.8515130055166 13.3619
43.87551410707659 13.3302
43.89951723350145 13.3417
43.923709934595614 13.306
43.94771713129917 13.2928
43.97172635758096 13.2653
43.99573761501002 13.302999999999999
44.0199385169922 13.2657
44.04395385732619 13.1559
44.067971233533086 13.1876
44.09199064718605 13.1705
44.11619977548961 13.1426
44.14022328470671 13.1486
44.16424883610785 13.1365
44.18827643127035 13.0999
44.21249381139513 13.0706
44.236525514814076 13.0157
44.26055926674478 12.9959
44.28459506876863 13.0117
44.3088207262813 12.9346
44.33286064928722 12.9667
44.35690262714919 12.93
44.38094666145278 12.9031
44.4051806219871 12.8646
44.42922879003185 12.8435
44.45327901929361 12.7515
44.477331311362136 12.782
44.501573600619416 12.7395
44.525630039221795 12.7794
44.54968854541895 12.7425
44.573937102200176 12.6887
44.5979997645541 12.6586
44.622064499300315 12.6999
44.64613130803592 12.6149
44.67038823869318 12.6463
44.69445921643748 12.6254
44.718532272981385 12.5416
44.742607409926194 12.5208
44.76687274034801 12.5177
44.79095205918753 12.5203
44.81503346325094 12.4731
44.839116954143876 12.5
44.86339071028742 12.4682
44.88747839599524 12.4264
44.91156817336837 12.3997
44.93566004401666 12.3727
44.959942251908146 12.3603
44.984038330325966 12.3132
45.00813650686762 12.3001
45.03223678314731 12.2192
45.05652746888232 12.2612
45.08063196592069 12.2612
45.104738567558705 12.2246
45.128847275414856 12.2106
45.15314646515866 12.1356
45.17725940679741 12.1216
45.20137445952892 12.129000000000001
45.22568004865265 12.1426
45.24979934496396 12.0721
45.27392075725247 12.0444
45.29804428714431 12.045
45.322358426247604 12.0387
45.346486212804315 11.9937
45.370616121861914 11.9725
45.39474815505086 11.9073
45.41907087049246 11.8791
45.4432071734666 11.9144
45.46734560548283 11.9081
45.49148616817604 11.904000000000002
45.51581748638564 11.9009
45.5399623320197 11.7961
45.56410931325473 11.7901
45.58825843173002 11.8291
45.61259837920865 11.7829
45.636751793816 11.7777
45.66090735060093 11.7364
45.68506505120716 11.6883
45.7094136545275 11.6672
45.73357566449271 11.6007
45.75773982322992 11.6112
45.78190613238733 11.647
45.806263418194064 11.5602
45.83043404997326 11.5322
45.85460683713677 11.5464
45.87897065658495 11.5521
45.90314777634752 11.5308
45.92732705646868 11.4872
45.9515084986045 11.4686
45.97588104735473 11.4895
46.00006683541565 11.4569
46.02425479047904 11.44
46.04844491420549 11.4077
46.0728262191024 11.3783
46.09702070211635 11.3714
46.12121735879483 11.3561
46.14541619080294 11.3188
46.169806278764455 11.3358
46.194009483459034 11.2962
46.21821486849841 11.2644
46.24242243555223 11.2263
46.266821333570014 11.1898
46.29103328674601 11.1896
46.31524742696538 11.1517
46.33946375590237 11.1453
46.36387149104216 11.1258
46.38809221957392 11.1124
46.41231514186606 11.0995
46.436540259597464 11.1041
46.460956858999374 11.085999999999999
46.48518638983522 11.025
46.509418121166966 10.9928
46.533652054678114 10.9746
46.55807754555709 10.9675
46.58231590571962 10.9799
46.60655647313217 10.8768
46.630988654873654 10.9059
46.655233659129024 10.8888
46.67948087571551 10.8928
46.70373030632484 10.8717
46.72817142736393 10.8559
46.752425308428684 10.8344
46.77668140861147 10.8024
46.80093972960865 10.7668
46.82538981736788 10.7461
46.849652602470904 10.7302
46.87391761349769 10.6806
46.8981848521493 10.7302
46.9226439341274 10.6657
46.946915650573224 10.6647
46.97118959976749 10.6368
46.99546578341598 10.6173
47.019933887188216 10.585999999999999
47.04421456235744 10.5823
47.06849747711879 10.5627
47.09278263318286 10.5481
47.11725978640143 10.5682
47.14154944775105 10.492
47.165841355555656 10.4657
47.1901355115306 10.4303
47.214621741924994 10.4356
47.23892041698887 10.4186
47.26322134538975 10.4358
47.28771440635075 10.3958
47.31201986422527 10.3992
47.33632758061436 10.3194
47.360637557241866 10.3328
47.38513974410611 10.2918
47.40945426407847 10.2453
47.43377104948137 10.2815
47.45809010204344 10.2563
47.48260144275502 10.2362
47.506925052572285 10.226
47.53125093475548 10.2155
47.55557909103813 10.1909
47.58009961361992 10.1446
47.60443234110732 10.116
47.62876734791564 10.1082
47.65310463578333 10.1023
47.6776343683373 10.0732
47.7019762413987 10.0606
47.72632040075572 10.0165
47.75066684815169 10.0025
47.77520581885936 10.0072
47.799556865477655 9.9451
47.823910205386 9.97359
47.84826584033272 9.948319999999999
47.87281407745551 9.909880000000001
47.89717432569297 9.926839999999999
47.92153687423484 9.92734
47.94609208429692 9.89398
47.97045925671401 9.886239999999999
47.99482873471275 9.801839999999999
48.01920052005013 9.8224
48.04376504619224 9.827910000000001
48.068141469543484 9.82318
48.09252020552573 9.77229
48.11690125590099 9.78161
48.1414751266064 9.73391
48.16586082917454 9.71166
48.19024885144316 9.66966
48.2146391951793 9.66879
48.239222439012764 9.67117
48.26361744916137 9.64867
48.28801478610016 9.65434
48.31241445160131 9.63322
48.337007097209366 9.57778
48.36141144338331 9.564739999999999
48.38581812345755 9.55458
48.41022713920929 9.55844
48.434829215320704 9.54677
48.45924292604658 9.54327
48.48365897780325 9.52314
48.50807737237308 9.48295
48.532688907799276 9.49211
48.55711201168574 9.44905
48.581537463754074 9.394
48.60615611725119 9.39916
48.63058628942721 9.38387
48.65501881516546 9.39752
48.6794536962573 9.37326
48.70408185970339 9.3282
48.72852147531801 9.31395
48.75296345168211 9.27217
48.77740779059232 9.28485
48.80204549302823 9.29247
48.82649458091802 9.29636
48.85094603676547 9.22896
48.87539986237231 9.207310000000001
48.90004713292306 9.19704
48.92450572200832 9.20877
48.94896668628025 9.17315
48.97343002754588 9.14621
48.99808689542115 9.1179
49.02255501470614 9.139510000000001
49.04702551642794 9.10595
49.0714984023988 9.091660000000001
49.096164896893235 9.09159
49.120642575466796 9.02905
49.145122643748394 9.00334
49.16960510355558 9.00098
49.19428125404938 8.97725
49.2187685210852 9.03443
49.243258185121555 8.96089
49.26794160167084 8.8972
49.2924360839405 8.922360000000001
49.31693296869764 8.86595
49.34143225776915 8.89354
49.36612538195438 8.874789999999999
49.39062950396021 8.85618
49.41513603578346 8.84266
49.4396449792564 8.80344
49.46434784069503 8.85539
49.488861631846454 8.82563
49.513377840166804 8.765260000000001
49.537896467493745 8.752
49.56260909589029 8.70909
49.587132585683285 8.727319999999999
49.611658500018365 8.7149
49.636186840738596 8.66634
49.66090926588511 8.68347
49.685442483902584 8.634960000000001
49.70997813385706 8.61791
49.734516217597076 8.623280000000001
49.75924846937352 8.60805
49.7837914452858 8.583689999999999
49.80833686055187 8.56053
49.83288471702571 8.53864
49.85762682540054 8.53552
49.882179588965734 8.49278
49.9067347993235 8.45765
49.93129245833333 8.48213
49.95604445336378 8.45503
49.98060703442832 8.45472
50.005172069746266 8.43934
50.02993150438364 8.39823
50.05450147301533 8.42356
50.07907390151433 8.39949
50.10364879174981 8.3811
50.12841816587289 8.38171
50.1529980044635 8.34737
50.17758031042124 8.32868
50.20216508562089 8.3321
50.22694442953363 8.2844
50.25153416817468 8.29787
50.27612638170508 8.26436
50.300721072005196 8.220310000000001
50.325510416102105 8.19558
50.350110084975064 8.19041
50.37471223628208 8.182910000000001
50.39931687190919 8.17915
50.424116246675766 8.15547
50.44872587605249 8.12968
50.47333799543065 8.11656
50.49795260670191 8.103530000000001
50.52276204271512 8.11929
50.54738166295838 8.10735
50.57200378079314 8.114130000000001
50.596628398116835 8.10806
50.62144792604559 8.03928
50.646077567609396 7.9948
50.670709714377715 8.04677
50.69553683636198 7.99873
50.72017401885922 7.96242
50.7448137122895 7.97744
50.76945591856022 7.973339999999999
50.79429318636823 7.94
50.818940443716784 7.9283600000000005
50.84359021965163 7.91395
50.868242516085964 7.88559
50.893089960641895 7.87581
50.917747323549435 7.82919
50.94240721271973 7.840330000000001
50.96706963007175 7.813269999999999
50.99192728239342 7.799930000000001
51.01659478166073 7.82148
51.04126481489051 7.8063
51.06593738400761 7.77112
51.090805275207074 7.7413
51.11548294172845 7.75132
51.14016314993547 7.746
51.164845901758845 7.73197
51.18972406304274 7.692139999999999
51.21441192780656 7.68048
51.23910234200271 7.636880000000001
51.2637953075678 7.62713
51.288683770237945 7.60027
51.31338186432707 7.57746
51.33808251561888 7.564369999999999
51.362978729967345 7.604419999999999
51.387684521509755 7.55282
51.41239287610203 7.58467
51.437103795691165 7.515110000000001
51.46201036644977 7.520239999999999
51.486726441956634 7.47958
51.51144508832545 7.4961
51.536166307509156 7.46996
51.56108326624387 7.4493100000000005
51.58580965706056 7.4547300000000005
51.61053862657523 7.44755
51.635270176746864 7.36994
51.66019755512065 7.374289999999999
51.68493429268881 7.354760000000001
51.70967361681515 7.380269999999999
51.73441552946465 7.35
51.759353359237934 7.36025
51.7841004750961 7.3326199999999995
51.80885018539685 7.33299
51.833602492111254 7.25977
51.8585508051424 7.225339999999999
51.883308330926425 7.25966
51.90806845906181 7.25962
51.932831191525715 7.196000000000001
51.95779001977161 7.198919999999999
51.98255798721516 7.1879100000000005
52.00732856494335 7.177810000000001
52.03229530577543 7.182189999999999
52.057071130455945 7.15935
52.081849571391054 7.169110000000001
52.106630630568695 7.113360000000001
52.13160794279417 7.10389
52.15639426492067 7.100060000000001
52.18118321127822 7.11314
52.205974783860896 7.090610000000001
52.23096269971011 7.07361
52.255759551287994 7.02528
52.280559035098186 7.027310000000001
52.30536115314103 6.981889999999999
52.33035970494467 7.010619999999999
52.35516711807904 6.98045
52.37997717147198 6.98227
52.40478986713005 6.952369999999999
52.42979908731974 6.93423
52.454617094216 6.92324
52.47943774942214 6.931539999999999
52.50426105495102 6.93065
52.529280976059844 6.89124
52.554109609024096 6.8865
52.57894089837482 6.83293
52.60377484613117 6.827789999999999
52.62880550079408 6.80398
52.65364479223379 6.80545
52.67848674816189 6.7915600000000005
52.70352547971946 6.75508
52.72837279155837 6.77128
52.753222773982785 6.752269999999999
52.778075429022984 6.765560000000001
52.80312495150885 6.76545
52.827982978797436 6.72317
52.85284368481815 6.68898
52.87770707160767 6.677689999999999
52.90276741793998 6.634119999999999
52.92763619336701 6.634410000000001
52.952507655698504 6.673589999999999
52.977381806977576 6.63283
53.00245301017842 6.61282
53.02733256653592 6.54405
53.052214817996074 6.57442
53.077099766608484 6.59858
53.102181859804446 6.5458099999999995
53.127072229988265 6.5621100000000006
53.15196530349892 6.54362
53.17686108239249 6.52339
53.20195409881522 6.539619999999999
53.22685531582556 6.5321
53.25175924441303 6.45004
53.27666588664027 6.45139
53.30176985962693 6.431719999999999
53.3266819565689 6.4318
53.35159677336455 6.39153
53.376514312083096 6.4413599999999995
53.40162927507703 6.39586
53.42655228516116 6.403490000000001
53.45147802340193 6.35743
53.47660125628886 6.34788
53.50153247842639 6.3440900000000005
53.52646643496923 6.3069
53.55140312799818 6.31574
53.576537409691696 6.32031
53.60147960336152 6.2961800000000006
53.626424539786164 6.27951
53.65137222105307 6.2296
53.67651758529126 6.21598
53.70147078399681 6.205509999999999
53.72642673383343 6.2087
53.75138543689533 6.19224
53.776541917524526 6.16955
53.801506154876755 6.16637
53.826473151763246 6.12959
53.851442910284916 6.1474400000000005
53.87661054126026 6.15394
53.9015858509782 6.083469999999999
53.92656392866066 6.11027
53.95154477641532 6.14449
53.976723591801296 6.06754
54.00171000771266 6.04287
54.02669920004598 6.05544
54.051691170915745 6.03721
54.076881204886796 6.01215
54.101878760928514 6.0333
54.12687910187696 6.01175
54.152077577768296 6.0381
54.1770835166946 5.9802
54.20209224691339 5.97917
54.22710377055121 5.95373
54.25231352511594 5.95022
54.27733066384342 5.88903
54.30235060239643 5.91247
54.32737334290836 5.86715
54.35259441062629 5.80435
54.377622783395324 5.8409699999999996
54.40265396455061 5.82874
54.42768795623251 5.85404
54.45292037169559 5.80326
54.477960012857906 5.79031
54.50300247099511 5.7480400000000005
54.52804774825457 5.75179
54.55329154616743 5.69808
54.57834249018678 5.66971
54.6033962597977 5.66581
54.6284528571545 5.67389
54.653708072335164 5.64192
54.67877035378786 5.63598
54.70383546947698 5.61792
54.72890342156389 5.63165
54.7541700889442 5.541919999999999
54.77924374251975 5.54386
54.8043202390049 5.526669999999999
54.82959552413022 5.5103599999999995
54.8546777351945 5.4766699999999995
54.87976279569621 5.436380000000001
54.90485070780914 5.484780000000001
54.930137506558005 5.43614
54.95523115074295 5.352469999999999
54.98032765308844 5.34631
55.005427015775496 5.39042
55.03072536339621 5.40205
55.05583047570572 5.30556
55.080938454927676 5.29956
55.10604930325027 5.29729
55.131359235107396 5.28751
55.15647585066083 5.2418
55.181595341907496 5.2283
55.20671771104285 5.20859
55.232039262617704 5.2350699999999994
55.25716741665048 5.17769
55.28229845518636 5.15509
55.30743238042802 5.10998
55.33276558731939 5.07572
55.357905315183636 5.09127
55.383047936390035 5.03059
55.40819345314859 4.99403
55.433538351073295 4.953790000000001
55.458689688238415 4.99057
55.483843927614096 4.95977
55.509197623043605 4.92876
55.53435769621134 4.91743
55.55952067826466 4.86585
55.5846865714265 4.85076
55.61005202069737 4.88563
55.63522376553902 4.8245
55.66039842818645 4.76918
55.68557601087004 4.8408
55.7109532500271 4.73586
55.73613670233794 4.76738
