TT I
1.2716486653135266 8.51116
1.2939594142134223 7.6501600000000005
1.3162702121660406 7.67315
1.3385810600174564 8.11208
1.3608919586137629 7.32855
1.383202908801069 7.37102
1.405513911425503 7.13364
1.4278249673332093 7.13922
1.4501343378461518 6.9575
1.4724455028545926 6.711139999999999
1.4947567236847858 7.756989999999999
1.517068001182951 6.8403
1.5393793361953272 6.2432
1.5616907295681737 5.87248
1.5840021821477681 5.96065
1.60631369478041 6.50793
1.6286252683124185 6.11036
1.6509369035901333 5.59615
1.6732468618895553 5.74755
1.695558623192809 5.87732
1.7178704487808514 6.231669999999999
1.7401823395001077 5.4364099999999995
1.7625012545597203 5.60754
1.7848028405262486 5.34095
1.8071218901122095 5.41892
1.8294236121921872 5.16294
1.8517427996910911 5.23062
1.8740620574440425 5.57571
1.8963639900671978 5.77871
1.9186833908139995 5.43558
1.9409854680117449 5.6067800000000005
1.9633050151394713 5.4888
1.9856246367570705 5.282719999999999
2.0079269371922672 4.88875
2.03024671027244 4.77716
2.0525491637446027 4.91568
2.074869091674931 4.7817300000000005
2.097171701569106 5.3236099999999995
2.1194917877373847 5.17133
2.141811954326636 4.90857
2.164114805233074 4.73937
2.186435135143035 4.46201
2.208738150935709 4.4699
2.231058647554722 4.14999
2.2533792288321184 4.75715
2.275682498336085 4.35847
2.298003251406138 4.79204
2.3203066942619714 4.52569
2.3426276225136022 4.1706199999999995
2.3649486396617507 4.2988599999999995
2.387252348930071 4.203
2.4095735463442893 4.39331
2.4318774374315884 4.6586099999999995
2.4541988185014043 4.61344
2.476502894794693 4.72815
2.498824462909887 4.32493
2.521146125856138 5.10364
2.5434504863470337 4.76192
2.5657723414244717 4.83821
2.588076895590662 5.21272
2.610398946189713 5.64974
2.6327210958598384 5.34638
2.6550259469304716 5.6615400000000005
2.6773482972090137 5.5234
2.6996533504259 5.86491
2.7219759047039602 6.36024
2.744298562293959 6.3438300000000005
2.7666039251246595 6.662939999999999
2.7889267918020164 7.209630000000001
2.8112323652516555 6.57472
2.833555444408179 7.088310000000001
2.8558786311183852 7.2529
2.8781845268938557 7.521139999999999
2.9005079311721484 8.39777
2.9228140460410397 8.46643
2.9451376712799635 8.236
2.967444008632326 8.73141
2.9897678582247247 9.50722
3.0120918213106695 10.2315
3.0343984987899373 10.6291
3.0567226913198637 11.8858
3.079029599759726 11.5649
3.101354025127254 11.9932
3.123678568232338 13.1057
3.145985829517914 12.9606
3.16831061055229 13.5352
3.1906181112775593 14.5419
3.212943133635653 14.8341
3.2352682779763207 14.9898
3.2575761442691227 15.7496
3.2799015350264273 16.0775
3.302209649240067 16.2735
3.3245352898092655 16.7327
3.3468436553365257 17.3356
3.369169549113219 17.9552
3.3914955708171384 18.4863
3.413804319727358 18.7604
3.4361305997334863 19.1594
3.4584396084414553 19.7247
3.4807661501462652 20.1204
3.503092824025881 21.0464
3.5254022288463154 21.2624
3.5477291695206588 21.7029
3.5700388426251948 22.175
3.5923660534916446 22.5876
3.6146934007816114 22.8909
3.637003482731501 23.4795
3.6593311053109985 23.715999999999998
3.681641464033634 23.8575
3.7039693653009733 24.6931
3.726297407241705 25.0031
3.7486081875460804 25.4883
3.7709365132734978 26.0208
3.793247578841633 26.6931
3.8155761917550093 26.6761
3.8378875459837216 27.09
3.8602164494827234 28.0237
3.882545499606844 28.4992
3.9048572932539183 29.0022
3.9271866390645718 29.7563
3.9494987298666713 30.2126
3.971828374764527 30.878
3.9941581705403255 31.3026
4.016470713506008 31.9523
4.038800813471445 32.7052
4.061113662089144 33.0264
4.0834440696459176 34.4399
4.105774632334751 34.5653
4.128087945865126 35.3814
4.150418821249301 35.8174
4.172732448931298 36.812
4.195063640413578 37.2911
4.2173775856475215 38.2231
4.239709096631102 38.4197
4.262040768704612 39.3789
4.284355196706267 39.9869
4.306687193387355 40.328
4.329001947444346 41.8928
4.35133427213731 42.8155
4.373666762177566 43.6596
4.395982011761091 44.191
4.418314834921175 45.8083
4.44063041906622 46.9121
4.4629635787515625 47.4196
4.4852969080429785 48.7791
4.5076130004776225 50.3033
4.529946671403969 51.5335
4.552263106909177 52.1013
4.574597122877047 53.7533
4.596931312711224 54.8731
4.619248269273446 55.4742
4.6415828092605835 56.9683
4.663900117405352 58.0908
4.686235010953232 60.0626
4.708552674085913 61.7948
4.730887924602802 63.0491
4.753223354952695 64.6058
4.775541557023902 66.6137
4.797877349456786 68.4925
4.820195915032126 70.1018
4.842532072957498 71.6696
4.864868414979744 74.0103
4.88718753227192 76.6102
4.909524244902505 79.3522
4.931843734218147 82.2286
4.954180820867835 85.4292
4.976518095879839 89.2236
4.998838149695359 92.8639
5.021175803844231 97.5879
5.043496238205739 101.99799999999999
5.065834274903528 108.271
5.088172504230693 116.32700000000001
5.1104935158799565 125.507
5.132832132875765 141.593
5.155153533596801 170.352
5.1774925416746225 281.362
5.199814334878411 889.3760000000001
5.2221537374521505 2260.75
5.244493338631803 3956.3
5.266815727034316 6518.63
5.289155727832427 10243.0
5.311478517248165 9452.29
5.333818921080011 4412.27
5.356159527788849 1073.9
5.3784829252032536 288.802
5.400823940070432 186.828
5.423147747031976 156.088
5.445489173474152 138.991
5.467830807066149 130.352
5.490155234831516 123.478
5.512497285125229 118.602
5.534822130975162 115.92
5.557164601388673 113.374
5.579489868738879 109.28
5.601832762690846 107.69
5.6241758697774475 106.4
5.646501775867269 105.139
5.668845311622074 104.196
5.691171647754637 103.66
5.713515615597765 102.884
5.735859800852677 101.75299999999999
5.758186788542988 100.779
5.780531411018185 101.52
5.802858837297399 101.57600000000001
5.825203900414495 102.244
5.8475491852224 103.391
5.869877275883075 105.12899999999999
5.892223006467101 107.79799999999999
5.914551544266608 111.43299999999999
5.936897724049891 119.266
5.959244129804903 135.007
5.981573344815301 195.56099999999998
6.0039202049061 445.01800000000003
6.026249875609095 915.2360000000001
6.04859719346037 1436.4
6.070927323278297 2161.67
6.093275102315365 3540.57
6.115623113320588 4539.36
6.137953938319995 3858.4
6.160302415650845 1542.84
6.182633708324452 403.25800000000004
6.2049826554078376 157.079
6.227331838745022 112.73299999999999
6.249663839443684 97.8248
6.27201349767565 90.3366
6.294345974611799 86.1927
6.316696111167083 81.8908
6.339046488263839 79.3784
6.361379686074702 76.9471
6.383730546639482 75.3399
6.406064229255215 73.0068
6.428415576718203 72.4634
6.450749747566656 70.8174
6.47310158535871 69.6596
6.495453669698332 68.8724
6.517788579421056 68.2892
6.540141159237969 67.1282
6.562476565766648 66.4606
6.5848296444934045 65.5194
6.607182974060425 64.4998
6.6295191323281015 64.7567
6.651872965955752 63.9943
6.6742096296068985 62.5754
6.6965639707294615 62.3349
6.71891856698715 61.7612
6.741255995248479 61.2251
6.763611104154477 60.9453
6.785949046381137 60.5177
6.808304671371482 60.1733
6.8306605557940046 59.5591
6.852999275508618 59.4101
6.875355681171544 59.2212
6.897694923437771 58.608999999999995
6.92005185377892 58.8197
6.9423916220322655 58.3187
6.964749080490181 57.4917
6.987106804399774 57.5318
7.009447368180821 57.2904
7.031805625367033 57.1861
7.054146723727803 57.398999999999994
7.076505517631004 56.648
7.098864581288365 57.2965
7.121206488070854 56.818000000000005
7.143566093607822 56.5778
7.165908543567245 56.5142
7.188268694426048 56.3469
7.2106291193438095 56.0178
7.232972390625943 56.1863
7.255333366030969 56.0699
7.277677189091925 55.8368
7.300038718428332 56.0929
7.322400526130865 55.7567
7.344745183422596 56.0709
7.367107550224791 55.6597
7.389452767901992 56.3653
7.411815697249891 55.9899
7.434161478756298 55.7387
7.456524974096713 55.7087
7.478888753837185 55.4835
7.501235387657368 56.1303
7.523599738562711 57.1446
7.545946944825532 58.4814
7.568311870344528 58.7868
7.5906770845765665 58.1652
7.613025156078678 57.7776
7.635390950099687 57.8085
7.657739602662809 57.641999999999996
7.680105979923558 57.4293
7.702472650212829 58.1937
7.724822180948224 57.9116
7.747189439655568 58.2226
7.769539560075357 58.5796
7.791907410653562 59.2504
7.81425812420825 58.9744
7.836626570110925 59.3026
7.858995315087906 60.483000000000004
7.881346924933401 60.713
7.903716270417482 60.8453
7.926068482028405 61.4537
7.948438431475253 62.2209
7.9708086843180235 62.8148
7.993161805171116 63.38399999999999
8.015532667162402 63.7268
8.037886398416653 64.7378
8.060257873014221 65.1756
8.082629655331942 66.2649
8.104984308787587 66.9548
8.127356708900503 67.6836
8.149711981398308 68.8946
8.172085002766314 69.8067
8.194458336181368 70.4471
8.216814543847752 71.7373
8.23918850371002 73.4026
8.26154533906492 74.986
8.283919928836452 76.8301
8.306277395339652 78.1311
8.328652618483376 79.546
8.351028159736202 82.2675
8.373386579575245 85.0475
8.395762759396959 87.3902
8.418121819038275 91.0795
8.440498640894003 96.8628
8.462875785192262 109.928
8.485235811156207 158.216
8.507613602688501 289.529
8.529974277114228 463.327
8.552352719347912 598.844
8.574731488360351 753.403
8.59709314210385 1039.86
8.619472567021075 1474.61
8.64183487789147 1937.5
8.664214962183097 1934.13
8.686577933647762 1272.81
8.708958680784317 582.634
8.731339760774953 234.235
8.753703729764451 134.53799999999998
8.77608547780821 112.53399999999999
8.798450116065078 106.065
8.820832535634787 101.145
8.843215292401656 98.8031
8.865580941199045 96.2766
8.887964374703538 94.7035
8.910330701447199 93.5224
8.932714815164482 92.2356
8.955099270424924 90.8881
8.977466620733543 90.4448
8.999851761421976 89.7508
9.022219798361645 88.9356
9.04460562795561 88.7583
9.066991803441677 88.355
9.089360876979615 88.4056
9.111747746589993 88.0187
9.13411751544971 87.5937
9.156505082664324 87.4403
9.178875550323522 87.20200000000001
9.20126381862328 87.0187
9.223652438908596 88.1426
9.246023961427412 89.7092
9.26841328802173 89.5816
9.290785518039224 88.4795
9.313175554425882 88.8344
9.335565947154315 88.1997
9.357939245086508 88.1442
9.380330352834827 88.3817
9.40270436697103 88.5376
9.425096193225055 88.28299999999999
9.447488380180165 88.79799999999999
9.469863475295412 89.2751
9.492256385987508 90.0103
9.514632206018318 90.5131
9.537025843935714 91.7971
9.559402392368193 91.9258
9.581796761000229 92.6438
9.604191496441521 93.1658
9.626569144158516 93.8502
9.648964615551032 94.6341
9.671343000390081 95.8537
9.693739211225699 97.2895
9.716135793237463 98.0716
9.738515290448102 99.094
9.760912617143402 100.355
9.783292860202891 101.911
9.805690935076182 103.34200000000001
9.828089385495742 104.848
9.850470754023561 107.02799999999999
9.872869957865444 109.43
9.89525208097539 113.053
9.917652041736662 118.87899999999999
9.940052382417589 134.512
9.962435644102392 193.533
9.984836746950979 303.323
10.007220771957746 429.591
10.029622640473708 528.6990000000001
10.052007432299963 632.316
10.074410069984072 785.808
10.096813093716005 1037.91
10.119199042482517 1413.21
10.141602840636468 1743.69
10.163989564971628 1735.15
10.186394141051062 1224.0
10.208799107559706 602.656
10.231187001965623 273.166
10.253592751657669 154.588
10.275981430388155 126.352
10.298387966769793 118.946
10.320794897965431 116.462
10.343184759907361 113.59299999999999
10.36559248305461 111.90799999999999
10.387983138083852 114.68799999999999
10.410391656691655 129.826
10.432800574501677 159.70600000000002
10.455192425893369 191.50900000000001
10.47760214443012 216.338
10.499994797678786 238.671
10.522405320453982 278.22900000000004
10.54479877906917 343.02099999999996
10.567210109595656 430.75
10.5896218454736 512.5880000000001
10.612016518879773 532.703
10.634429067781074 426.399
10.656824555333241 261.885
10.679237920773568 157.791
10.701651695961992 110.56
10.724048411481384 97.75299999999999
10.746463008485165 93.1013
10.768860546937125 91.008
10.791275969274796 88.6485
10.81369180576079 87.0528
10.836090585366925 86.1218
10.858507252467449 84.7052
10.88090686379991 83.1907
10.903324365036394 82.4559
10.925724811614439 81.0352
10.948143150509463 80.7304
10.970561909719066 79.3616
10.992963615930844 78.89399999999999
11.015383218085756 78.0987
11.037785768347074 76.7916
11.06020621697282 76.5422
11.082627090322113 75.8485
11.105030913430326 75.3435
11.12745263854165 74.6371
11.149857314510728 73.7164
11.172279894912576 73.521
11.194702904450653 72.5391
11.217108866490921 71.9027
11.239532736615194 71.4788
11.26193956033512 71.1288
11.284364294577085 70.9498
11.306789462371718 70.5555
11.329197585398376 70.1875
11.351623622610898 70.2535
11.37403261614354 69.5558
11.396459526308487 69.4261
11.418869393879497 68.6704
11.441297180532617 68.2766
11.463725406927658 67.9369
11.486136592353875 67.6357
11.508565700543707 67.2313
11.530977768845315 67.317
11.553407762368774 66.9829
11.575838200059769 66.8705
11.598251599479612 66.5069
11.620682927815501 66.4475
11.64309721895548 66.6351
11.665529441478206 66.4266
11.687962112597958 66.082
11.710377748130886 66.0369
11.732811318753434 65.89399999999999
11.755227854859067 65.866
11.777662328529495 65.7527
11.800079768750786 65.6701
11.822515149015453 65.5753
11.844950984084935 65.8878
11.867369787303163 65.5336
11.889806534289491 65.5848
11.912226250487029 66.3605
11.934663912939751 67.0356
11.9571020346363 67.2127
11.979523127133968 67.3403
12.001962169624331 69.0605
12.024384183972964 72.3237
12.046824150809913 79.9807
12.069264581333726 89.2537
12.091687985297767 95.9783
12.11412934550045 101.50200000000001
12.136553680195208 108.499
12.158995973632788 120.545
12.181438735204349 137.191
12.20386447284199 159.498
12.226308172985636 186.06400000000002
12.24873485024193 202.095
12.271179492516982 186.981
12.293607112949127 149.717
12.316052700916226 106.01
12.338498763250042 80.8478
12.360927805303868 70.8895
12.383374818673879 68.5399
12.405804812803074 67.6486
12.428252780773262 67.4447
12.45070122756722 67.4814
12.473132656675375 67.5255
12.49558206341869 67.5086
12.518014453510101 67.3986
12.540464823770117 67.294
12.562915677315177 67.5878
12.58534951575545 68.1812
12.607801338171472 68.0722
12.630236146511358 68.4047
12.652688941369085 68.6659
12.675124723177234 69.0334
12.697578494048786 69.7877
12.720032754458185 69.9332
12.742470003354093 70.5166
12.764925245138771 71.1562
12.787363476431278 71.4693
12.809819703166806 71.9345
12.83227642391173 72.6228
12.854716135692716 73.4289
12.877173846755147 74.5717
12.899614549869717 75.0642
12.9220732548287 76.0638
12.94453245827299 76.7803
12.966974655289818 77.8273
12.989434858002571 78.9171
13.011878055298721 79.8616
13.034339260862497 80.8776
13.056800969391883 82.8915
13.079245674017244 86.2893
13.101708390774869 93.0749
13.12415410463411 109.713
13.146617833206086 132.305
13.169064559883248 150.24200000000002
13.191529303857127 163.58700000000002
13.213994557076367 176.011
13.236442809902437 195.148
13.258909083908291 225.507
13.28135835851934 260.71
13.30382565690295 310.759
13.326293469022952 372.06800000000004
13.348744283242008 414.102
13.371213125129904 394.856
13.39366497011003 318.807
13.416134845360597 223.52599999999998
13.438605238843131 154.003
13.46105863690397 130.80100000000002
13.483530069144786 134.93
13.505984506951902 146.084
13.528456981549432 155.93200000000002
13.550929978879088 163.141
13.573385983253365 174.136
13.595860028340867 192.704
13.618317081455832 220.535
13.64079217790333 257.58799999999997
13.663250283359057 304.02
13.685726434770173 349.561
13.708203115221277 366.18199999999996
13.730662806148091 321.873
13.75314054697177 242.61599999999999
13.775601299246777 168.428
13.798080104050406 116.40799999999999
13.820559442405358 94.4286
13.843021793671388 88.0913
13.865502201420897 85.6129
13.887965623051947 84.6445
13.910447103807167 83.3916
13.932929122629764 81.7903
13.955394156785959 81.4699
13.977877254034569 80.6701
14.000343367582113 79.6686
14.022827546871707 78.9774
14.045294743423524 77.7686
14.06778000837062 77.1359
14.090265817715476 76.8627
14.112734645763819 76.6301
14.13522154619454 76.3761
14.157691466286913 76.2615
14.180179461423874 75.9505
14.202668005486178 75.3978
14.22513957064374 74.8491
14.247629214846473 74.5064
14.270101881097517 74.0472
14.29259262906496 73.709
14.315083930490205 73.5892
14.337558255389705 73.3545
14.360050666019726 73.4505
14.382526101071944 73.0307
14.405019624534942 72.5832
14.427513705993134 72.6508
14.449990813291825 72.9697
14.47248601302899 72.6284
14.49496423954951 72.6298
14.517460561197822 72.9609
14.539939910570322 72.5904
14.562437357763558 72.6978
14.58493536931253 73.273
14.607416409993311 73.2065
14.62991555254159 73.74600000000001
14.652397725157423 74.0881
14.674898002342799 74.5649
14.697398848433282 74.7114
14.719882725991326 76.6736
14.74238471217934 80.5737
14.764869730765593 88.6657
14.787372860692983 96.177
14.809876564079925 103.387
14.83236330125751 108.38799999999999
14.854868153850365 112.211
14.877356041159485 118.76700000000001
14.899862046604186 129.015
14.922351087688757 142.657
14.944858249632887 160.07
14.967365991421232 181.565
14.989856770231246 204.919
15.012365673994204 220.74599999999998
15.03485761569738 210.37400000000002
15.05736768508665 177.7
15.07987833888692 139.1
15.102372032001655 106.39
15.124883856909658 86.0892
15.14737872204565 78.0276
15.169891721717274 74.9606
15.192405310371893 74.1944
15.214901940621196 73.6303
15.237416709527137 72.7208
15.259914520936249 72.6069
15.282430473753607 71.8167
15.304947020131227 71.3536
15.327446610371178 70.9998
15.349964346154254 70.4406
15.372465126703139 70.2974
15.394984055556009 70.2439
15.417486030076159 70.257
15.44000615566487 69.8458
15.462526881230803 69.7518
15.485030653812652 69.6371
15.507552581617434 69.5741
15.530057557334603 69.4968
15.55258069104857 69.7067
15.575104429329837 69.9921
15.597611216864632 70.0641
15.620136166564563 71.3714
15.6426441664095 74.62
15.665170331202765 80.535
15.687697105158826 86.7018
15.710206930593545 92.7052
15.732734925158933 96.5403
15.755245972089478 99.133
15.77777519094324 103.506
15.800287463046663 110.711
15.822817909869592 120.804
15.84534897229804 132.713
15.867863089299354 149.838
15.890395385222186 168.99900000000002
15.912910736597423 187.135
15.935444269699861 192.84
15.957978423016485 177.33900000000003
15.980495633101265 149.364
16.003031029129367 116.351
16.02554948280019 89.7655
16.048086125229432 74.9479
16.070623392487107 69.0211
16.09314371869582 66.3538
16.11568223789321 64.9756
16.13820381691126 64.3046
16.160743591742527 64.0153
16.183283996022084 63.2885
16.205807461423195 62.5316
16.228349126881973 61.8766
16.25087385432698 61.7664
16.27341678466365 61.0294
16.29594277784926 60.6263
16.31848697676433 60.3709
16.341031811604868 59.9701
16.36355971058487 59.753
16.3861058195587 59.4791
16.40863499352978 59.1104
16.431182380342005 58.7204
16.453730407713202 58.8071
16.476261501364792 58.5837
16.498810812136167 58.2724
16.52134319004079 58.3587
16.54389378792203 58.2136
16.566445031001553 58.0825
16.588979342490088 57.8584
16.61153187824822 57.7111
16.634067483263312 57.6098
16.656621315414416 57.4511
16.679175797408888 57.2892
16.701713349928728 57.3421
16.72426913389191 57.368
16.74680798922351 57.2948
16.76936507887444 57.4937
16.791905240734874 57.4942
16.814463639794468 57.2954
16.837022695210294 57.4348
16.859564824093756 57.6768
16.882125194503903 57.4998
16.904668639217885 57.7458
16.927230328348003 57.6034
16.949792678493612 58.0116
16.972338104193863 58.1289
16.994901778652235 58.1734
17.017448529496576 58.5844
17.040013531998152 59.3191
17.06257920018044 60.762
17.0851279459922 62.1381
17.107694947817667 63.4457
17.130245028099072 64.1487
17.15281336730298 64.9955
17.17536478578733 65.7559
17.19793446610687 67.1466
17.220504818648422 68.8417
17.243058251703697 70.5962
17.265629950971032 73.1667
17.288184731571736 76.69800000000001
17.310757781306908 80.8931
17.33333150794385 84.4366
17.355888317140174 85.1057
17.37846339986244 83.5874
17.401021565958885 78.6725
17.42359800851343 72.7428
17.44617513265564 67.7295
17.468735341390783 64.51
17.491261035594565 62.8159
17.51396340099364 61.9856
17.536490463869136 62.1877
17.559018209820174 62.4117
17.58154663977963 62.46
17.604251766089718 62.6094
17.626781572227713 63.0849
17.64931206518155 63.0533
17.671843245885103 63.3869
17.69455114821572 63.5013
17.717083712612634 63.845
17.739616967569667 64.3239
17.762150914021706 65.0738
17.78486160749854 65.2765
17.807396945166804 66.4359
17.829932977143503 68.6869
17.85246970436452 72.2021
17.875183204129467 75.7678
17.897721330097664 79.1129
17.920260154126645 81.3636
17.942799677153296 83.3914
17.9655159983646 85.1451
17.988056927677544 88.1972
18.010598558807683 92.7541
18.033140892692916 98.1128
18.05586005052525 104.51700000000001
18.07840379824407 113.052
18.10094825154059 124.39
18.12366954819864 136.666
18.146215420998306 145.24200000000002
18.16876200220057 145.43
18.191309292745153 135.911
18.214033452627167 122.12700000000001
18.236582170236648 106.15
18.259131600016456 95.4111
18.281681742907335 89.986
18.304408781233683 90.1492
18.32696035875955 92.0986
18.349512652227624 95.7117
18.372065662579683 101.45299999999999
18.394795594587553 106.11399999999999
18.41735004715306 107.162
18.43990521943684 103.17200000000001
18.46246111238171 95.5174
18.485193953325208 85.7061
18.507751296070428 76.8225
18.530309362314178 71.0469
18.552868153000343 67.9365
18.57560391815056 66.0199
18.59816416623245 65.3912
18.620725141597372 64.8175
18.643286845190268 64.2194
18.666025549835414 63.8346
18.688588718427933 62.9773
18.711152618092243 62.8795
18.73389353884365 62.6806
18.75645890921984 62.2933
18.77902501351406 61.698
18.801591852673102 61.9364
18.824335739722738 61.3189
18.846904057212626 61.0676
18.8694731124168 61.0592
18.89204290628315 60.778999999999996
18.914789774966803 60.5632
18.937361054791623 60.2841
18.959933076131318 60.2083
18.982505839934877 60.0492
19.00525570560582 60.0484
19.027829963004184 59.915
19.05040496572238 60.122
19.072980714710468 60.3289
19.095733592739563 61.0198
19.11831084296757 61.5349
19.140888842324735 62.2398
19.16346759176222 62.4512
19.18622349753803 62.589
19.208803755869358 63.3213
19.231384767143577 63.875
19.253966532312948 64.7689
19.276725481241822 65.8783
19.29930876296784 67.1677
19.3218928014549 68.7911
19.34465404436217 70.8696
19.36723960516257 73.6477
19.389825925592426 76.0783
19.412413006605938 77.733
19.43517731967805 76.7542
19.457765930683355 73.9676
19.48035530514408 69.5736
19.50294544401556 64.8786
19.525712842708348 61.0253
19.54830451925909 58.9473
19.570896963095727 57.2353
19.593490175174704 56.8261
19.616260674962184 56.7892
19.638855432416964 56.5667
19.661450960992624 56.6478
19.68404726164677 56.4344
19.706820878021247 56.1674
19.729418731756834 56.4291
19.752017360452857 56.2326
19.77461676506804 56.5658
19.797393513540218 57.1768
19.819994478951667 57.7858
19.84259622316767 58.3464
19.8651987471481 58.988
19.887978643247177 59.0238
19.91058273574792 59.2119
19.933187610901943 59.599
19.955969879466828 60.5751
19.97857632894404 61.5683
20.00118356396599 62.4192
20.023791585494575 63.7256
20.046577028914875 66.1365
20.069186632506966 68.1219
20.091797025500632 70.4352
20.114408208858933 72.3247
20.137196842715273 73.7312
20.159809615886765 73.6689
20.18242318232135 71.42399999999999
20.20503754298326 68.7331
20.227829382875154 66.3451
20.250445341109344 64.6171
20.27306209647285 64.0264
20.29567964993108 64.2682
20.31847471147704 65.3969
20.34109387027612 66.5252
20.363713830075454 67.6785
20.386334591841646 67.7845
20.409132890679302 65.8675
20.431755265564437 63.2929
20.454378445325528 60.2233
20.477002430930366 57.5548
20.499803982716553 55.5372
20.522429589228004 53.9434
20.54505600449589 53.3068
20.567683229489194 53.2071
20.590488049900088 52.9568
20.61311690359731 52.861000000000004
20.63574656993626 52.5299
20.658553853717297 52.3427
20.681185154618298 52.2614
20.703817271080066 52.0008
20.72645020407368 51.6585
20.749260783967177 51.6129
20.771895359337133 51.5642
20.794530754161617 51.4365
20.817166969412938 51.2893
20.83998086114876 51.2395
20.86261872660049 51.2623
20.885257415405402 51.3959
20.90789692853701 51.3934
20.930714147864748 51.2364
20.953355319030678 51.2632
20.97599731745334 51.5545
20.99864014410749 51.5262
21.021460706796564 51.5756
21.044105199328826 51.7748
21.06675052302631 51.8176
21.089396678865015 51.7862
21.112220600704806 52.0121
21.134868430275347 52.1692
21.15751709492456 52.2699
21.180166595629693 52.2428
21.202993892429635 52.7251
21.22564507473034 53.0453
21.24829709602816 53.4152
21.27112693608965 53.7344
21.293780644891275 54.1929
21.316435195634053 53.766999999999996
21.339090589297417 53.0045
21.361923832041875 52.5933
21.384580921090404 51.821999999999996
21.407238856007325 51.2849
21.429897637773326 51.0562
21.45273429906592 51.1097
21.475394784108598 51.0518
21.498056118951983 50.9866
21.520718304578022 51.2857
21.543558400304388 51.6473
21.566222297108816 51.9893
21.58888704765135 52.1428
21.61155265291521 52.9284
21.63439619898156 53.5207
21.657063523335786 53.8188
21.67973170537063 54.3258
21.7024007460706 54.5312
21.72524775840385 54.9198
21.747918526116475 55.6346
21.770590155457388 56.3662
21.79326264741238 57.228
21.816113141960237 58.6742
21.838787368860547 59.915
21.861462461341976 61.3319
21.884315579735777 63.2812
21.90699241312273 64.9538
21.92967011506078 66.6291
21.95234868653799 67.4926
21.9752053151131 67.1023
21.997885635446785 65.564
22.020566828293532 63.5849
22.04324889464272 61.2267
22.066109049404666 59.05
22.088792872571794 57.971000000000004
22.111477572219204 57.8186
22.1341631493376 57.8881
22.157026846313123 58.1634
22.179714188221507 58.2426
22.202402410582668 57.6232
22.22509151438863 56.4339
22.24795876962584 55.0783
22.270649646204486 53.8982
22.293341407213727 52.7647
22.316034053646906 52.0035
22.338904883215342 51.5345
22.36159931041458 51.4394
22.38429462602756 51.4755
22.40699083104897 51.1966
22.429865251039757 51.2382
22.452563244831367 51.1685
22.47526213102522 51.1748
22.49813925616515 51.0506
22.520839937143307 51.2109
22.543541513520587 51.2916
22.56624398629403 51.0946
22.589124730075895 51.0792
22.611829005656723 51.566
22.63453418063466 51.7589
22.657240256008077 52.1735
22.680124634582935 52.3728
22.70283252079775 52.731
22.725541310413075 53.0088
22.74825100442868 53.1388
22.771139033969575 53.3714
22.79385054687155 53.3947
22.81656296718292 53.7903
22.83927629590484 54.3221
22.862167992606945 54.7301
22.88488314827121 55.4491
22.907599215359284 55.9709
22.93031619487366 56.8801
22.953211574954405 57.924
22.975930389478226 59.0114
22.998650119445763 60.0002
23.02137076586092 60.0906
23.044269845560063 59.6003
23.06699233506288 58.53
23.089715744034912 56.7676
23.112617610931565 54.7736
23.135342869061212 53.2566
23.158069049684816 52.284
23.1807961538087 51.6363
23.20370174880544 51.6858
23.226430710184808 51.8081
23.249160598093425 52.0373
23.271891413539002 52.035
23.294800752937697 52.383
23.31753343374794 52.5971
23.340267045128353 52.4711
23.36300158808808 52.7536
23.38591468821339 52.7215
23.408651104658304 52.9389
23.431388455719986 53.3191
23.454126742409 53.8092
23.4770436196085 54.0949
23.499783787914662 54.872
23.522524894889884 55.4773
23.54526694154616 56.1946
23.56818761219047 57.4211
23.59093154860734 58.2893
23.613676427751283 59.5063
23.636422250635754 59.758
23.659346731118656 59.1095
23.68209445191868 57.7867
23.704843119509587 55.6564
23.72759273490623 53.5537
23.750521041644767 51.7722
23.77327256312355 50.1777
23.796025035462787 49.2763
23.818956224555475 48.5879
23.841710609113413 48.4321
23.86446594758979 48.155
23.887222241002014 47.8036
23.910157285144578 47.5394
23.932915498962537 47.5792
23.955674670778713 47.4353
23.978434801611975 47.3093
24.001373717286125 47.0394
24.024135776723917 47.1383
24.046898798245582 46.776
24.06966278287146 46.6597
24.092605586582614 46.3711
24.115371508023642 46.3994
24.1381383956401 46.1731
24.16090625045381 46.0019
24.183852958731244 46.1235
24.206622758582608 45.948
24.229393528706886 45.8585
24.252165270127392 45.9448
24.27511589952438 45.8436
24.297889594216997 45.5505
24.32066426328598 45.4617
24.34343990775613 45.4491
24.36639447485003 45.3563
24.38917208083877 45.45
24.41195066531332 45.2817
24.43490819850244 45.3481
24.457688750692377 45.1074
24.48047028445616 44.9379
24.503252800821233 45.0999
24.526214300784112 45.2107
24.548998793132213 45.1548
24.57178427117417 45.0006
24.59457073593893 45.0939
24.617536219319863 45.0075
24.64032466834748 45.1378
24.663114107195035 45.0475
24.685904536893013 44.7098
24.708874020360852 44.5601
24.731666442613744 44.5221
24.754459858818787 44.5308
24.777254270007962 44.5287
24.80022777025625 44.3787
24.82302418230472 44.5335
24.845821592443674 44.619
24.86862000170663 44.6155
24.891597535453727 44.4282
24.914397953892728 44.5429
24.93719937456671 44.4317
24.96000179851076 44.684
24.98298338249997 44.8069
25.00578782394922 45.0694
25.028593271784167 45.2094
25.05157790644186 45.33
25.07438537804115 45.3853
25.097193859145293 45.6082
25.120003350792075 45.6488
25.142992065061257 45.9717
25.165803588823465 46.2563
25.18861612625217 46.4988
25.211429678386736 46.58
25.234422489079968 46.7277
25.257238081693636 46.6958
25.280054692141732 46.6016
25.3028723214652 46.4818
25.325869245420463 46.4149
25.348688923599397 46.5639
25.371509623787006 46.7102
25.394331347025812 46.7808
25.41733240110666 46.6278
25.440156181590016 46.053999999999995
25.46298098826268 45.5583
25.48580682216873 45.0148
25.50881202326435 44.409
25.53163992281684 43.8834
25.55446885274561 43.5033
25.577298814096377 43.0641
25.600308179121807 42.97
25.623140214533745 42.9785
25.64597328451537 42.9211
25.66898578564376 42.6331
25.691820936010206 42.7088
25.714657124097695 42.678999999999995
25.737494350954734 42.6776
25.760511045684957 42.56
25.783350361364224 42.7077
25.806190718969255 42.638999999999996
25.82903211955018 42.7902
25.852053024868923 42.7651
25.874896522722523 42.7156
25.897741066713106 42.7078
25.920586657892454 42.7509
25.943611790812668 42.7629
25.966459487728237 42.6638
25.989308234998564 42.7137
26.01215803367705 43.0655
26.03518741123814 43.1221
26.05803932412957 43.1466
26.080892291600094 43.2231
26.10374631470478 43.2956
26.12677995397268 43.623000000000005
26.14963609978026 43.85
26.172493304397875 43.6404
26.19535156888223 43.4812
26.218389486949604 43.114
26.241249882640123 43.0351
26.26411134137826 42.6649
26.28715248187403 42.692
26.31001607820869 42.5498
26.3328807407756 42.2294
26.35574647063438 42.2846
26.37879191991473 42.2537
26.401659795896734 42.3165
26.424528742360263 42.1938
26.447398760366614 42.4836
26.470448535598294 42.5614
26.49332070826805 42.6267
26.516193955675355 42.7837
26.53906827888316 42.9347
26.562122397260108 42.9419
26.584998883685063 43.1717
26.607876449110325 43.5197
26.63075509460056 43.6063
26.65381357334404 43.7629
26.67669439061878 43.9342
26.699576291163382 44.0827
26.722459276044212 44.0357
26.745522132402975 43.9025
26.768407297649354 43.6935
26.791293550442003 43.2528
26.814180891848974 42.8717
26.837248143099337 42.4582
26.860137673466657 42.5212
26.88302829566349 42.257
26.90592001075963 42.1714
26.92899167420566 41.8781
26.951885586870763 41.5383
26.974780595655517 41.4917
26.99785558178161 41.4151
27.020752794605112 41.1884
27.043651106772522 40.8807
27.06655051935668 40.8655
27.089629948036183 40.7885
27.112531573292053 40.6836
27.135434302194138 40.7809
27.158338135817015 40.6435
27.181422024430987 40.6042
27.204328079372566 40.4119
27.22723524226965 40.4969
27.250143514198573 40.5801
27.273231880156334 40.4593
27.296142382065014 40.3461
27.319053996245536 40.2783
27.341966723775965 40.2715
27.365059584515222 40.4328
27.38797455070062 40.4755
27.410890633481237 40.2315
27.433807833936918 40.1958
27.456905206923906 40.1825
27.47982465472398 40.2694
27.502745223449743 40.41
27.525666914182825 40.5838
27.548768816912457 40.6298
27.571692763693633 40.4157
27.59461783573812 40.3824
27.617723149491244 40.3406
27.640650484125285 40.1899
27.66357894728264 40.2153
27.686508540048052 40.1402
27.709618414237887 39.9789
27.732550278321757 39.7866
27.755483275279115 39.9546
27.778417406196485 39.894
27.801531858397514 39.8856
27.824468269376716 39.7681
27.847405817586786 39.6861
27.870344504116094 39.8408
27.893463551932008 39.8363
27.916404527281053 40.0865
27.93934664422563 40.1267
27.962289903855886 40.0638
27.98541356491974 40.2814
28.00835912214229 40.3332
28.03130582533231 40.5128
28.054253675581805 40.6542
28.077381967556104 40.6913
28.100332124185126 40.9137
28.123283431160893 40.7901
28.146235889577238 40.7078
28.169368830154156 40.5638
28.192323603752033 40.4249
28.215279532083304 39.9675
28.238415973016764 39.8532
28.261374223145094 39.7654
28.284333631303806 39.5985
28.307294198589954 39.5144
28.330435319167677 39.001999999999995
28.353398217078915 38.8294
28.376362277420153 38.7728
28.39932750129032 38.6291
28.422473319286713 38.2442
28.44544088262495 38.2463
28.468409612800283 37.9665
28.491379510913497 37.8505
28.51453004413313 37.7925
28.53750229057244 37.7844
28.56047570826344 37.6567
28.583450298308804 37.6591
28.606605564586562 37.4934
28.629582511831156 37.453
28.65256063474956 37.3885
28.675539934446338 37.4403
28.698699951647605 37.3695
28.72168161743193 37.2195
28.74466446331978 37.2621
28.767648490417624 37.1358
28.790813276438353 37.1063
28.813799678527303 37.113
28.836787265157085 37.1179
28.859955641890075 37.1471
28.882945610203045 37.0791
28.905936766392035 36.9361
28.928929111566863 37.0183
28.952102288520145 36.9167
28.975097024308607 36.7565
28.998092952423807 36.7214
29.021090073977508 36.7089
29.04426806913204 36.5512
29.067267590245258 36.5422
29.090268308143695 36.3294
29.11327022394099 36.1657
29.13645305530891 36.1022
29.159457379627167 36.16
29.18246290519685 35.9831
29.20546963313352 36.0108
29.22865731875826 35.9436
29.25166646419296 35.9185
29.27467681535305 35.7542
29.29768837335608 35.8309
29.320880931312562 35.9135
29.34389491580634 35.8909
29.366910110507334 35.7779
29.38992651653503 35.7664
29.41312396492981 35.7438
29.436142806456754 35.8617
29.45916286268059 35.6732
29.48236399319994 35.6638
29.50538649169417 35.5767
29.528410208259935 35.4995
29.55143514402014 35.2798
29.574641196749695 35.0672
29.597668583816574 34.8914
29.6206971934585 34.7181
29.64372702680042 34.7415
29.666938019934474 34.7411
29.689970313635285 34.6925
29.713003834422636 34.6883
29.73603858342347 34.6028
29.759254535188578 34.4764
29.78229175361658 34.4089
29.80533020365064 34.5139
29.82836988641968 34.4856
29.85159081507472 34.3936
29.874632976355343 34.3949
29.89767637376955 34.3489
29.920721008448314 34.2341
29.9439469322847 34.247
29.96699405457564 34.0391
29.9900424175358 34.1383
30.013092022298157 34.1786
30.03632295963995 34.0449
30.059375061131373 34.138000000000005
30.08242840783577 34.1361
30.105483000888153 34.0172
30.128718970092244 33.9184
30.151776069006917 33.9051
30.17483441768648 33.9333
30.198074175317235 33.9487
30.221135036724256 33.9664
30.24419715131772 33.8779
30.267260520236203 33.7455
30.290505341942243 33.948
30.313571232750228 33.9859
30.336638381310948 33.9742
30.35970678876503 33.8687
30.38295669299435 33.7755
30.40602763151657 33.8452
30.429099832366074 33.7872
30.452173296685572 33.6773
30.47542830191959 33.693000000000005
30.498504306502497 33.6171
30.521581577995562 33.681
30.544660117543582 33.6564
30.56792024229725 33.6095
30.59100133132069 33.5041
30.614083691845494 33.4653
30.637167325018545 33.691
30.660432587840603 33.7033
30.683518779717886 33.6579
30.70660624769615 33.7607
30.729694992924372 33.7513
30.75296541239743 33.6867
30.77605672557558 33.698
30.799149319462742 33.7236
30.8224236211637 33.54
30.845518789950724 33.384
30.868615242910597 33.4783
30.891712981195973 33.2635
30.91499247215866 33.1713
30.938092794619365 33.0402
30.96119440587579 33.1419
30.984297307082752 33.0846
31.00758200598383 32.8834
31.030687500658694 32.835
31.053794288760695 32.732
31.076902371446767 32.6163
31.100192296997445 32.7019
31.12330298246119 32.6367
31.14641496599209 32.5303
31.169528248749216 32.5093
31.19282341969534 32.4003
31.215939314557186 32.5595
31.239056512134788 32.5404
31.262175013589378 32.4251
31.28547544871168 32.2939
31.30859657161541 32.2291
31.331719001892175 32.3134
31.35484274070538 32.4303
31.378148458819545 32.385
31.401274828443725 32.3337
31.424402510106933 32.345
31.447712205419993 32.431999999999995
31.470842524931633 32.3502
31.493974159989783 32.3421
31.51710711176168 32.2723
31.54042212308802 32.3323
31.563557722100917 32.3619
31.586694641341655 32.1559
31.609832881979628 32.0601
31.63315322823208 31.9798
31.656294125521327 31.9686
31.679436347728515 31.9037
31.70257989602529 31.8271
31.725905596152327 31.7157
31.74905181052835 31.5732
31.772199354521323 31.6377
31.79534822930507 31.639
31.818679302290967 31.6321
31.84183085259981 31.5731
31.864983737233473 31.4425
31.88813795736804 31.5222
31.911474422233013 31.4551
31.934631327356435 31.5417
31.9577895715215 31.4215
31.980949155906522 31.4198
32.004291031706956 31.4636
32.027453310562606 31.43
32.05061693318573 31.2374
32.07396288236386 31.243000000000002
32.09712920658542 31.2745
32.12029687812702 31.0545
32.14346589817093 31.0489
32.166817291729984 31.0135
32.18998902288583 30.9057
32.21316210610336 30.7379
32.23633654256711 30.7629
32.259693399663725 30.7027
32.282870556771144 30.6132
32.30604907069099 30.6295
32.329228942610065 30.5663
32.35259128243769 30.3829
32.375773884550505 30.3503
32.398957848235646 30.3536
32.422143174682176 30.3726
32.445511016471215 30.2125
32.468699082679954 30.0947
32.49188851523011 30.0431
32.51507931531304 30.0009
32.538452678331 30.0206
32.56164622776311 29.9263
32.58484114831493 29.8596
32.60803744118015 29.8821
32.631416344731896 29.8334
32.654615396551876 29.8204
32.67781582427913 29.8406
32.701198898634416 29.6907
32.72440209253756 29.7172
32.747606665947124 29.7285
32.77081262006088 29.5674
32.79420126883317 29.5742
32.81740999876112 29.5187
32.840620112999424 29.4551
32.86383161274818 29.3933
32.88722585534586 29.4092
32.91044014056596 29.3965
32.933655814909734 29.2779
32.95687287957963 29.3997
32.98027273544904 29.3264
33.00349259526636 29.1325
33.026713849030116 29.2702
33.04993649794511 29.195
33.073341986570746 29.1694
33.09656744032826 29.1565
33.11979429286444 29.2032
33.14302254538647 29.1206
33.166433686291185 29.0463
33.18966475336992 28.9504
33.212897224069096 28.974
33.23613109959831 28.9579
33.259547912343415 28.8189
33.2827846121627 28.875
33.306022720453775 28.881999999999998
33.32926223842861 28.7408
33.352684742614166 28.6589
33.37592709463173 28.6984
33.399170859982064 28.6684
33.422597648419426 28.6122
33.44584425514446 28.5607
33.46909227885668 28.475
33.4923417207723 28.296
33.51577423505344 28.3501
33.539026528130385 28.2379
33.56228024307245 28.211
33.585535381098246 27.9805
33.60897364093058 28.0834
33.63223163992385 28.0345
33.6554910656699 27.9452
33.678751919389796 27.936
33.702195944520106 27.8786
33.72545966903325 27.862
33.74872482519663 27.8507
33.771991414233746 27.8352
33.79544122444841 27.7061
33.81871069412428 27.6382
33.84198160035767 27.7309
33.86525394437455 27.6269
33.88870955949969 27.5908
33.911984794020626 27.5818
33.93526147001624 27.5737
33.958539588715006 27.4977
33.98200102861669 27.4107
34.0052820477047 27.3793
34.02856451319451 27.3389
34.05203033759056 27.2847
34.07531571090147 27.3483
34.09860253431845 27.1985
34.121890809074316 27.1448
34.145362493118924 27.1058
34.16865368561615 27.009
34.191946333164054 26.9909
34.21524043699793 27.0448
34.23871800066799 26.9682
34.26201503218366 26.8971
34.28531352370466 26.8237
34.30861347646881 26.819000000000003
34.33209693978188 26.8134
34.3553998301885 26.7672
34.378704185565205 26.7093
34.402010007152356 26.6338
34.42549939016683 26.6503
34.44880815937748 26.5102
34.472118398533134 26.534000000000002
34.49543010887669 26.4906
34.51892543169198 26.3807
34.54224009966052 26.4151
34.56555624255917 26.4258
34.58887386163339 26.2803
34.61237514439016 26.2583
34.6356957311114 26.2557
34.65901779775809 26.1893
34.68252356662995 26.1219
34.705848608458616 26.101999999999997
34.72917513396849 26.0193
34.75250314440949 25.9367
34.77601490857862 25.9722
34.799345904259795 25.8973
34.82267838863559 25.8808
34.846012362958525 25.8086
34.869530142679984 25.8189
34.89286711232212 25.8812
34.91620557568269 25.7577
34.93954553401677 25.7517
34.9630693495876 25.7589
34.986412313340814 25.7114
35.00975677584668 25.6814
35.033102738362956 25.5954
35.05663261012228 25.4548
35.0799815881786 25.4934
35.10333207003229 25.5262
35.12668405694369 25.4495
35.150220005273056 25.3893
35.17357501786656 25.4089
35.19693153931268 25.3017
35.220289570874385 25.2625
35.24383161619786 25.2998
35.267192683604904 25.2569
35.290555264930376 25.176
35.314101899412165 25.2257
35.33746752422433 25.2007
35.36083466676374 25.1453
35.38420332829803 25.1534
35.407756095629054 25.099
35.43112781085063 25.0089
35.45450104888391 25.0061
35.477875810999194 25.0754
35.50143473172161 25.0477
35.52481255774625 24.9792
35.54819191167777 24.9503
35.57157279478914 24.9105
35.595137889488406 24.8658
35.61852184675279 24.8372
35.641907337029984 24.7871
35.665294361595684 24.7229
35.68886565090076 24.7222
35.7122557598848 24.6751
35.73564740699838 24.6886
35.759040593519934 24.6218
35.78261809810353 24.5688
35.80601437933051 24.4993
35.829412203814705 24.35
35.85281157283719 24.3899
35.876395313415884 24.4257
35.8997977874528 24.4194
35.92320180988546 24.3162
35.946790244133936 24.1716
35.97019737933222 24.2074
35.993606066789866 24.2253
36.01701630779276 24.1455
36.04061101440684 24.0684
36.06402437852291 24.0948
36.08743930005611 24.1469
36.1108557802951 23.953000000000003
36.13445678011326 24.0021
36.15787639383515 23.9396
36.18129757014299 23.9554
36.20472031032821 23.8412
36.22832762423364 23.7877
36.25175350829375 23.8307
36.275180960119776 23.7068
36.298609981005924 23.7331
36.32222362992669 23.7736
36.34565580510207 23.7217
36.36908955323448 23.7058
36.39252487562093 23.5974
36.416144880530226 23.4938
36.43958336764275 23.4631
36.463023432914625 23.553
36.486465077645676 23.4531
36.51009145956204 23.5238
36.53353627947859 23.4879
36.55698268276811 23.4767
36.58043067073321 23.2807
36.60406345072071 23.1585
36.62751462435344 23.2745
36.65096738658405 23.2747
36.67460498210655 23.2058
36.69806093788647 23.1937
36.72151848619297 23.1184
36.744977628333636 23.1253
36.76862165890998 23.0286
36.79208400512205 23.0217
36.81554794910557 22.998
36.83901349217101 22.9449
36.862663978991606 22.8608
36.88613273667352 22.906999999999996
36.90960309738324 22.8568
36.933075062434064 22.7817
36.95673202673572 22.7508
36.98020721697122 22.7307
37.003684015502365 22.6108
37.027162423645365 22.5941
37.050825886711465 22.6021
37.07430753063053 22.522
37.09779078812467 22.6063
37.121275660513014 22.531
37.144945643673694 22.4347
37.16843376245278 22.5221
37.19192350009803 22.4776
37.215414857931435 22.3792
37.239091382563885 22.2873
37.262585997426164 22.3537
37.28608223645736 22.2886
37.309763684451696 22.2705
37.33326318851098 22.2376
37.356764320726555 22.1713
37.380267082425526 22.2049
37.40395510942588 22.1394
37.42746114683234 22.0574
37.45096881771841 22.038
37.474478123414166 22.0057
37.49817275092816 21.9704
37.52168534303452 21.8893
37.54519957395567 21.7753
37.568715445024665 21.7448
37.592416694607714 21.7633
37.61593586281424 21.8736
37.63945667518264 21.885
37.66297913304891 21.7444
37.68668702630454 21.6925
37.710212792059274 21.6242
37.733740207334854 21.616
37.757269273470364 21.5297
37.780983832050374 21.5236
37.80451621684926 21.5427
37.82805025654007 21.453000000000003
37.851585952464795 21.4238
37.8753071980695 21.2866
37.89884622345676 21.2759
37.92238690911902 21.3189
37.94611318753442 21.2737
37.969657210779765 21.2461
37.99320289834801 21.2321
38.016750251586465 21.1676
38.04048325513017 21.1132
38.06403395679343 21.0595
38.087586328183946 21.0429
38.11114037065203 21.0931
38.13488012115898 21.0679
38.1584375229181 20.9908
38.181996599821 20.9468
38.205557353221124 20.9482
38.229303872575656 20.8991
38.2528679961576 20.8366
38.27643380031219 20.7711
38.30000128639589 20.7682
38.32375459653193 20.7677
38.34732546371299 20.7247
38.37089801690786 20.622
38.39447225747609 20.6067
38.418232380377425 20.608
38.441810012983396 20.5612
38.46538933705673 20.5468
38.488970353960084 20.5484
38.51273731166058 20.491
38.536321731567014 20.4352
38.55990784840681 20.3947
38.58367995004091 20.3322
38.60726947812959 20.3029
38.63086070726198 20.3037
38.654453638806274 20.3174
38.678232613930824 20.2548
38.70182896773327 20.2371
38.72542702806741 20.2092
38.7490267963045 20.1952
38.77281266709232 20.1458
38.79641586862214 20.1145
38.8200207821842 20.0878
38.843627409152944 20.1089
38.86742019782782 20.0899
38.891030269149255 20.0075
38.914642058016156 20.0056
38.938255565806124 19.9656
38.96205529464307 19.8548
38.98567225787121 19.8874
39.00929094417078 19.8613
39.03291135492255 19.8196
39.05671804624804 19.6984
39.080341923549106 19.7262
39.103967529460334 19.669
39.127594865365744 19.6665
39.15140854155791 19.5824
39.17503935514948 19.5344
39.19867190290282 19.5079
39.22249083587951 19.531
39.24612686969409 19.4863
39.269764641845306 19.511
39.293404153722804 19.4359
39.317230110864074 19.3866
39.34087311998506 19.3229
39.36451787301696 19.361
39.388164371352595 19.3449
39.41199737518003 19.1865
39.43564738196752 19.2166
39.45929913825317 19.22
39.48295264543308 19.2321
39.506792718520884 19.1422
39.530449745387216 19.1063
39.55410852735203 19.0827
39.57776906581474 19.0531
39.60161623079 18.9998
39.625280300200025 18.9644
39.64894613032202 18.9643
39.67261372255866 19.0009
39.6964680021016 18.9915
39.72013913657293 18.896
39.74381203738292 18.8727
39.76748670593756 18.8153
39.79134812278169 18.8646
39.81502634488497 18.8102
39.83870633896685 18.7815
39.862388106436654 18.7436
39.88625668336918 18.6891
39.90994201572829 18.6866
39.933629125719285 18.6217
39.957503091207826 18.6114
39.9811937746168 18.6662
40.00488623990914 18.5404
40.02858048850006 18.5152
40.05246165409549 18.4445
40.076159487492085 18.4144
40.099859108448875 18.4539
40.123560518384345 18.363
40.1474489070226 18.3935
40.171153913178564 18.3807
40.194860712584955 18.3123
40.2185693066637 18.3083
40.242464941335314 18.25
40.26617714307655 18.2004
40.289891143772046 18.2269
40.3136069448471 18.1549
40.33750984859743 18.0853
40.3612292688043 18.1114
40.3849504936829 18.0692
40.40867352466194 18.0485
40.43258372059144 17.9765
40.45631038219906 18.0263
40.48003885420956 17.9568
40.503769138055105 17.9079
40.52768664931955 17.9354
40.55142057531802 17.9265
40.57515631746428 17.8048
40.599079334038514 17.8507
40.62281872700477 17.7435
40.64655994043941 17.777
40.67030297578061 17.7306
40.69423334835778 17.7423
40.71798004609188 17.6967
40.74172857006355 17.6496
40.76547892171441 17.6547
40.7894166736039 17.5716
40.813170699248566 17.587
40.83692655691388 17.5331
40.86068424804498 17.5815
40.884629402612525 17.5371
40.908390779366385 17.5232
40.932153993938 17.426
40.95591904777605 17.4186
40.979871628443995 17.4045
41.003640379561936 17.3549
41.02741097430883 17.3894
41.05118341413683 17.317999999999998
41.075143444384416 17.2712
41.098919593177826 17.2397
41.1226975914255 17.1858
41.14647744058318 17.1636
41.170444943946755 17.1021
41.19422851378379 17.1258
41.218013938914645 17.072
41.24198706625173 17.0775
41.26577622087193 17.0211
41.289567235177785 17.0013
41.31336011063129 16.9541
41.337340752422875 16.9494
41.361137369129835 16.9323
41.38493585138705 16.8994
41.40873620066004 16.8747
41.43272438060107 16.8056
41.45652848292052 16.8098
41.48033445666918 16.7222
41.50414230331616 16.7307
41.528138045159764 16.7481
41.551949656675205 16.6795
41.575763145513235 16.6574
41.59957851314666 16.6038
41.62358184070442 16.5386
41.64740098505737 16.546
41.6712220126409 16.5417
41.69504492493139 16.5358
41.71905586207357 16.4632
41.74288256296395 16.4554
41.766711153007456 16.3983
41.79054163368412 16.4135
41.814560204340054 16.452
41.838394485526365 16.3831
41.86223066180303 16.3173
41.88625497706819 16.3051
41.910094962812 16.2416
41.93393684811168 16.2311
41.95778063445365 16.16
41.981812625263366 16.1552
42.00566023303407 16.1192
42.029509746323676 16.1297
42.05336116662236 16.0877
42.077400857069705 16.1336
42.10125611078846 16.0787
42.12511327600405 16.0512
42.14897235421036 16.0372
42.173019768448455 15.9877
42.19688269209613 15.9381
42.22074753323349 15.9552
42.24461429335818 15.8492
42.268669455600495 15.8437
42.292540073217886 15.8868
42.31641261433284 15.8409
42.34028708044675 15.8154
42.36435001496739 15.7497
42.38822835065557 15.7259
42.41210861586426 15.7135
42.4359908120986 15.7052
42.46006154323262 15.651
42.48394762115317 15.5827
42.507835634632315 15.6125
42.531912233047436 15.6132
42.55580413732265 15.5404
42.579697981698 15.4889
42.60359376768525 15.5332
42.62767820545945 15.4413
42.65157789440821 15.3958
42.67547952952185 15.4176
42.699383112316 15.4034
42.72347541395347 15.3498
42.74738291190531 15.3305
42.771292362102166 15.3125
42.795203766063516 15.3239
42.819303956130405 15.2759
42.843219287476536 15.2587
42.86713657716324 15.2308
42.89105582671383 15.1649
42.91516392983864 15.1503
42.939087119032166 15.1164
42.963012272677304 15.104000000000001
42.98693939230129 15.0449
43.01105543317513 15.0246
43.034986504731386 15.0683
43.05891954686589 14.9445
43.08285456110972 14.9573
43.10697856448665 14.9154
43.130917542983475 14.8693
43.15485849820081 14.8515
43.17880143167367 14.8216
43.20293342237094 14.8836
43.226880332449 14.8004
43.25082922540554 14.8074
43.27496722682525 14.7627
43.29892010567796 14.7863
43.32287497204102 14.6861
43.34683182745632 14.7123
43.370977859791836 14.6513
43.39493871351105 14.6148
43.41890156092628 14.6358
43.44286640358341 14.5812
43.46702049182749 14.5751
43.49098934522816 14.5363
43.51496019852649 14.5206
43.5389330532723 14.4615
43.56309522248204 14.4591
43.58707210044314 14.4377
43.61105098451946 14.3828
43.63503187626491 14.3175
43.659202151562134 14.3194
43.68318707902681 14.2971
43.70717401884041 14.3081
43.731162972560874 14.2942
43.75534137913236 14.2489
43.779334381108384 14.2147
43.803329401683186 14.1968
43.82732644241872 14.2122
43.8515130055166 14.1899
43.87551410707659 14.1636
43.89951723350145 14.1202
43.923709934595614 14.088
43.94771713129917 14.0874
43.97172635758096 14.0735
43.99573761501002 14.0306
44.0199385169922 14.0064
44.04395385732619 13.977
44.067971233533086 13.9196
44.09199064718605 13.9493
44.11619977548961 13.9431
44.14022328470671 13.8823
44.16424883610785 13.8842
44.18827643127035 13.8439
44.21249381139513 13.8393
44.236525514814076 13.7695
44.26055926674478 13.7884
44.28459506876863 13.7017
44.3088207262813 13.6483
44.33286064928722 13.6782
44.35690262714919 13.6549
44.38094666145278 13.6256
44.4051806219871 13.6651
44.42922879003185 13.5843
44.45327901929361 13.602
44.477331311362136 13.5348
44.501573600619416 13.4946
44.525630039221795 13.5257
44.54968854541895 13.4632
44.573937102200176 13.4653
44.5979997645541 13.4532
44.622064499300315 13.4021
44.64613130803592 13.3201
44.67038823869318 13.3752
44.69445921643748 13.2882
44.718532272981385 13.2819
44.742607409926194 13.2996
44.76687274034801 13.2242
44.79095205918753 13.2041
44.81503346325094 13.2248
44.839116954143876 13.1971
44.86339071028742 13.1862
44.88747839599524 13.1512
44.91156817336837 13.1006
44.93566004401666 13.11
44.959942251908146 13.0757
44.984038330325966 13.0534
45.00813650686762 13.0088
45.03223678314731 13.0161
45.05652746888232 12.9874
45.08063196592069 12.9679
45.104738567558705 12.937999999999999
45.128847275414856 12.9276
45.15314646515866 12.8296
45.17725940679741 12.835
45.20137445952892 12.8066
45.22568004865265 12.7868
45.24979934496396 12.7639
45.27392075725247 12.758
45.29804428714431 12.7295
45.322358426247604 12.687999999999999
45.346486212804315 12.6797
45.370616121861914 12.6434
45.39474815505086 12.6401
45.41907087049246 12.6179
45.4432071734666 12.5866
45.46734560548283 12.6055
45.49148616817604 12.6186
45.51581748638564 12.5555
45.5399623320197 12.5482
45.56410931325473 12.4951
45.58825843173002 12.4936
45.61259837920865 12.4468
45.636751793816 12.4355
45.66090735060093 12.4094
45.68506505120716 12.3755
45.7094136545275 12.3514
45.73357566449271 12.3064
45.75773982322992 12.3097
45.78190613238733 12.2822
45.806263418194064 12.2302
45.83043404997326 12.2682
45.85460683713677 12.2217
45.87897065658495 12.2063
45.90314777634752 12.1863
45.92732705646868 12.145
45.9515084986045 12.118
45.97588104735473 12.0957
46.00006683541565 12.1017
46.02425479047904 12.1081
46.04844491420549 12.0946
46.0728262191024 12.0667
46.09702070211635 12.0236
46.12121735879483 12.0072
46.14541619080294 12.0171
46.169806278764455 11.924000000000001
46.194009483459034 11.9414
46.21821486849841 11.9057
46.24242243555223 11.8761
46.266821333570014 11.8388
46.29103328674601 11.8155
46.31524742696538 11.8494
46.33946375590237 11.7951
46.36387149104216 11.7641
46.38809221957392 11.7361
46.41231514186606 11.724
46.436540259597464 11.7491
46.460956858999374 11.7356
46.48518638983522 11.72
46.509418121166966 11.6467
46.533652054678114 11.6258
46.55807754555709 11.5687
46.58231590571962 11.5987
46.60655647313217 11.5631
46.630988654873654 11.561
46.655233659129024 11.5057
46.67948087571551 11.4851
46.70373030632484 11.4702
46.72817142736393 11.5117
46.752425308428684 11.4818
46.77668140861147 11.414000000000001
46.80093972960865 11.360999999999999
46.82538981736788 11.3514
46.849652602470904 11.3151
46.87391761349769 11.2858
46.8981848521493 11.2804
46.9226439341274 11.2486
46.946915650573224 11.2384
46.97118959976749 11.2256
46.99546578341598 11.1931
47.019933887188216 11.1932
47.04421456235744 11.1923
47.06849747711879 11.1564
47.09278263318286 11.1219
47.11725978640143 11.0977
47.14154944775105 11.1186
47.165841355555656 11.0763
47.1901355115306 11.0228
47.214621741924994 11.061
47.23892041698887 11.0297
47.26322134538975 10.9696
47.28771440635075 10.9374
47.31201986422527 10.9749
47.33632758061436 10.8931
47.360637557241866 10.8949
47.38513974410611 10.8991
47.40945426407847 10.8464
47.43377104948137 10.8381
47.45809010204344 10.8078
47.48260144275502 10.8057
47.506925052572285 10.8071
47.53125093475548 10.7417
47.55557909103813 10.7917
47.58009961361992 10.7457
47.60443234110732 10.7289
47.62876734791564 10.6786
47.65310463578333 10.6533
47.6776343683373 10.6315
47.7019762413987 10.6367
47.72632040075572 10.5873
47.75066684815169 10.5806
47.77520581885936 10.5301
47.799556865477655 10.5013
47.823910205386 10.5647
47.84826584033272 10.5133
47.87281407745551 10.4585
47.89717432569297 10.4907
47.92153687423484 10.4737
47.94609208429692 10.4176
47.97045925671401 10.4295
47.99482873471275 10.4186
48.01920052005013 10.3897
48.04376504619224 10.3815
48.068141469543484 10.3566
48.09252020552573 10.3459
48.11690125590099 10.3062
48.1414751266064 10.3065
48.16586082917454 10.2963
48.19024885144316 10.2501
48.2146391951793 10.2399
48.239222439012764 10.2087
48.26361744916137 10.1813
48.28801478610016 10.2256
48.31241445160131 10.2045
48.337007097209366 10.124
48.36141144338331 10.1346
48.38581812345755 10.1402
48.41022713920929 10.1197
48.434829215320704 10.0782
48.45924292604658 10.0597
48.48365897780325 10.0461
48.50807737237308 9.99929
48.532688907799276 9.978069999999999
48.55711201168574 9.97643
48.581537463754074 9.98293
48.60615611725119 9.98709
48.63058628942721 9.93421
48.65501881516546 9.89436
48.6794536962573 9.91505
48.70408185970339 9.86689
48.72852147531801 9.84286
48.75296345168211 9.82263
48.77740779059232 9.8351
48.80204549302823 9.82283
48.82649458091802 9.76949
48.85094603676547 9.76998
48.87539986237231 9.74479
48.90004713292306 9.70196
48.92450572200832 9.7218
48.94896668628025 9.6856
48.97343002754588 9.68318
48.99808689542115 9.66393
49.02255501470614 9.6583
49.04702551642794 9.638869999999999
49.0714984023988 9.60967
49.096164896893235 9.5894
49.120642575466796 9.56978
49.145122643748394 9.572189999999999
49.16960510355558 9.53559
49.19428125404938 9.53611
49.2187685210852 9.538030000000001
49.243258185121555 9.48737
49.26794160167084 9.474310000000001
49.2924360839405 9.44166
49.31693296869764 9.4257
49.34143225776915 9.363
49.36612538195438 9.32372
49.39062950396021 9.36725
49.41513603578346 9.33328
49.4396449792564 9.34257
49.46434784069503 9.305
49.488861631846454 9.2711
49.513377840166804 9.27162
49.537896467493745 9.24667
49.56260909589029 9.24211
49.587132585683285 9.20968
49.611658500018365 9.19688
49.636186840738596 9.15404
49.66090926588511 9.17633
49.685442483902584 9.13598
49.70997813385706 9.12203
49.734516217597076 9.11134
49.75924846937352 9.093810000000001
49.7837914452858 9.07812
49.80833686055187 9.08365
49.83288471702571 9.05681
49.85762682540054 9.05265
49.882179588965734 9.006310000000001
49.9067347993235 8.94523
49.93129245833333 8.94707
49.95604445336378 8.95502
49.98060703442832 8.935830000000001
50.005172069746266 8.899560000000001
50.02993150438364 8.90343
50.05450147301533 8.90157
50.07907390151433 8.88389
50.10364879174981 8.85437
50.12841816587289 8.82446
50.1529980044635 8.79995
50.17758031042124 8.817060000000001
50.20216508562089 8.792
50.22694442953363 8.75941
50.25153416817468 8.72905
50.27612638170508 8.71448
50.300721072005196 8.7012
50.325510416102105 8.70122
50.350110084975064 8.66955
50.37471223628208 8.64886
50.39931687190919 8.66337
50.424116246675766 8.62629
50.44872587605249 8.62301
50.47333799543065 8.59201
50.49795260670191 8.571769999999999
50.52276204271512 8.563260000000001
50.54738166295838 8.56216
50.57200378079314 8.5414
50.596628398116835 8.4939
50.62144792604559 8.51127
50.646077567609396 8.47931
50.670709714377715 8.480780000000001
50.69553683636198 8.46699
50.72017401885922 8.4465
50.7448137122895 8.43867
50.76945591856022 8.43933
50.79429318636823 8.41411
50.818940443716784 8.398539999999999
50.84359021965163 8.36858
50.868242516085964 8.34258
50.893089960641895 8.30603
50.917747323549435 8.29857
50.94240721271973 8.3107
50.96706963007175 8.28022
50.99192728239342 8.23532
51.01659478166073 8.28076
51.04126481489051 8.23271
51.06593738400761 8.20167
51.090805275207074 8.211730000000001
51.11548294172845 8.21217
51.14016314993547 8.165610000000001
51.164845901758845 8.16349
51.18972406304274 8.141739999999999
51.21441192780656 8.13147
51.23910234200271 8.12299
51.2637953075678 8.08648
51.288683770237945 8.07339
51.31338186432707 8.02838
51.33808251561888 8.00858
51.362978729967345 7.996169999999999
51.387684521509755 7.974889999999999
51.41239287610203 7.9383
51.437103795691165 7.95412
51.46201036644977 7.96765
51.486726441956634 7.90716
51.51144508832545 7.88718
51.536166307509156 7.862139999999999
51.56108326624387 7.868760000000001
51.58580965706056 7.85981
51.61053862657523 7.8368899999999995
51.635270176746864 7.811039999999999
51.66019755512065 7.797860000000001
51.68493429268881 7.80848
51.70967361681515 7.80635
51.73441552946465 7.79208
51.759353359237934 7.76301
51.7841004750961 7.748480000000001
51.80885018539685 7.73725
51.833602492111254 7.71505
51.8585508051424 7.66259
51.883308330926425 7.66835
51.90806845906181 7.6352899999999995
51.932831191525715 7.62374
51.95779001977161 7.61452
51.98255798721516 7.5643899999999995
52.00732856494335 7.56285
52.03229530577543 7.560169999999999
52.057071130455945 7.54335
52.081849571391054 7.528060000000001
52.106630630568695 7.53595
52.13160794279417 7.47998
52.15639426492067 7.48539
52.18118321127822 7.45827
52.205974783860896 7.4434
52.23096269971011 7.4510000000000005
52.255759551287994 7.400869999999999
52.280559035098186 7.40975
52.30536115314103 7.422460000000001
52.33035970494467 7.392410000000001
52.35516711807904 7.3637
52.37997717147198 7.34714
52.40478986713005 7.352460000000001
52.42979908731974 7.31297
52.454617094216 7.297630000000001
52.47943774942214 7.2512
52.50426105495102 7.29767
52.529280976059844 7.249
52.554109609024096 7.22995
52.57894089837482 7.2281699999999995
52.60377484613117 7.224189999999999
52.62880550079408 7.18663
52.65364479223379 7.156619999999999
52.67848674816189 7.175889999999999
52.70352547971946 7.181939999999999
52.72837279155837 7.1546
52.753222773982785 7.1102
52.778075429022984 7.08162
52.80312495150885 7.124439999999999
52.827982978797436 7.0675
52.85284368481815 7.030710000000001
52.87770707160767 7.03805
52.90276741793998 7.04482
52.92763619336701 7.0114399999999995
52.952507655698504 7.0348
52.977381806977576 6.99482
53.00245301017842 7.007689999999999
53.02733256653592 6.96875
53.052214817996074 6.95262
53.077099766608484 6.92205
53.102181859804446 6.904260000000001
53.127072229988265 6.92425
53.15196530349892 6.9161
53.17686108239249 6.89262
53.20195409881522 6.839989999999999
53.22685531582556 6.80645
53.25175924441303 6.789060000000001
53.27666588664027 6.81847
53.30176985962693 6.800860000000001
53.3266819565689 6.818160000000001
53.35159677336455 6.7869600000000005
53.376514312083096 6.75427
53.40162927507703 6.7576600000000004
53.42655228516116 6.7318
53.45147802340193 6.700080000000001
53.47660125628886 6.72208
53.50153247842639 6.686839999999999
53.52646643496923 6.66074
53.55140312799818 6.63351
53.576537409691696 6.64342
53.60147960336152 6.611110000000001
53.626424539786164 6.61183
53.65137222105307 6.56533
53.67651758529126 6.585430000000001
53.70147078399681 6.571789999999999
53.72642673383343 6.54996
53.75138543689533 6.576460000000001
53.776541917524526 6.51832
53.801506154876755 6.46634
53.826473151763246 6.44341
53.851442910284916 6.4510000000000005
53.87661054126026 6.43826
53.9015858509782 6.42577
53.92656392866066 6.41831
53.95154477641532 6.45481
53.976723591801296 6.3791400000000005
54.00171000771266 6.37826
54.02669920004598 6.37095
54.051691170915745 6.37195
54.076881204886796 6.38281
54.101878760928514 6.3680900000000005
54.12687910187696 6.33413
54.152077577768296 6.32964
54.1770835166946 6.26861
54.20209224691339 6.26384
54.22710377055121 6.27192
54.25231352511594 6.2537199999999995
54.27733066384342 6.17138
54.30235060239643 6.20251
54.32737334290836 6.2085
54.35259441062629 6.1227
54.377622783395324 6.10075
54.40265396455061 6.14904
54.42768795623251 6.10276
54.45292037169559 6.07455
54.477960012857906 6.060169999999999
54.50300247099511 6.04387
54.52804774825457 6.02568
54.55329154616743 5.9812
54.57834249018678 5.94503
54.6033962597977 5.94917
54.6284528571545 5.95322
54.653708072335164 5.87833
54.67877035378786 5.89856
54.70383546947698 5.87942
54.72890342156389 5.84973
54.7541700889442 5.84736
54.77924374251975 5.79991
54.8043202390049 5.8345
54.82959552413022 5.7721800000000005
54.8546777351945 5.79145
54.87976279569621 5.65399
54.90485070780914 5.72739
54.930137506558005 5.672280000000001
54.95523115074295 5.68649
54.98032765308844 5.6482
55.005427015775496 5.72262
55.03072536339621 5.64652
55.05583047570572 5.53461
55.080938454927676 5.50517
55.10604930325027 5.5169
55.131359235107396 5.55621
55.15647585066083 5.481240000000001
55.181595341907496 5.4318800000000005
55.20671771104285 5.40266
55.232039262617704 5.44806
55.25716741665048 5.34586
55.28229845518636 5.3612
55.30743238042802 5.35459
55.33276558731939 5.28031
55.357905315183636 5.266369999999999
55.383047936390035 5.210030000000001
55.40819345314859 5.23155
55.433538351073295 5.14825
55.458689688238415 5.21291
55.483843927614096 5.1469
55.509197623043605 5.15607
55.53435769621134 5.10292
55.55952067826466 5.06503
55.5846865714265 5.06115
55.61005202069737 5.03603
55.63522376553902 5.10292
55.66039842818645 5.000780000000001
55.68557601087004 4.993609999999999
55.7109532500271 4.92774
55.73613670233794 5.00249
