TT I
1.2716486653135266 7.851389999999999
1.2939594142134223 7.271730000000001
1.3162702121660406 6.84399
1.3385810600174564 7.087560000000001
1.3608919586137629 7.1511
1.383202908801069 6.38743
1.405513911425503 7.52715
1.4278249673332093 7.107530000000001
1.4501343378461518 6.45681
1.4724455028545926 6.1010599999999995
1.4947567236847858 6.14971
1.517068001182951 6.817880000000001
1.5393793361953272 5.97778
1.5616907295681737 6.63512
1.5840021821477681 5.97527
1.60631369478041 5.35645
1.6286252683124185 4.90649
1.6509369035901333 5.38172
1.6732468618895553 5.74737
1.695558623192809 5.63427
1.7178704487808514 5.12566
1.7401823395001077 4.612019999999999
1.7625012545597203 5.51167
1.7848028405262486 5.31438
1.8071218901122095 5.23241
1.8294236121921872 4.78892
1.8517427996910911 4.87351
1.8740620574440425 4.4444
1.8963639900671978 4.76944
1.9186833908139995 5.44348
1.9409854680117449 5.25676
1.9633050151394713 5.07196
1.9856246367570705 5.01861
2.0079269371922672 5.36269
2.03024671027244 4.49899
2.0525491637446027 4.71347
2.074869091674931 4.41956
2.097171701569106 4.32841
2.1194917877373847 5.04261
2.141811954326636 4.87287
2.164114805233074 4.74808
2.186435135143035 4.99337
2.208738150935709 5.29186
2.231058647554722 4.8118099999999995
2.2533792288321184 4.78343
2.275682498336085 4.50178
2.298003251406138 4.44033
2.3203066942619714 4.47386
2.3426276225136022 4.8006
2.3649486396617507 4.95843
2.387252348930071 4.35961
2.4095735463442893 4.52845
2.4318774374315884 4.62679
2.4541988185014043 4.62691
2.476502894794693 4.88781
2.498824462909887 4.0323
2.521146125856138 4.2811
2.5434504863470337 4.48067
2.5657723414244717 5.200830000000001
2.588076895590662 6.0369
2.610398946189713 5.5929199999999994
2.6327210958598384 5.093719999999999
2.6550259469304716 5.79394
2.6773482972090137 5.69284
2.6996533504259 5.76087
2.7219759047039602 6.16293
2.744298562293959 6.4273
2.7666039251246595 6.460369999999999
2.7889267918020164 6.8587
2.8112323652516555 6.83082
2.833555444408179 7.1575
2.8558786311183852 7.98614
2.8781845268938557 8.88867
2.9005079311721484 8.42793
2.9228140460410397 8.70567
2.9451376712799635 9.4588
2.967444008632326 9.77993
2.9897678582247247 9.932
3.0120918213106695 10.5497
3.0343984987899373 11.4691
3.0567226913198637 11.4816
3.079029599759726 11.9956
3.101354025127254 12.5274
3.123678568232338 12.8774
3.145985829517914 13.4303
3.16831061055229 13.8771
3.1906181112775593 14.1591
3.212943133635653 15.1508
3.2352682779763207 15.1938
3.2575761442691227 15.8796
3.2799015350264273 15.9818
3.302209649240067 17.0144
3.3245352898092655 16.9869
3.3468436553365257 17.5342
3.369169549113219 17.9195
3.3914955708171384 18.3408
3.413804319727358 18.8012
3.4361305997334863 19.3769
3.4584396084414553 19.7447
3.4807661501462652 20.2761
3.503092824025881 20.9684
3.5254022288463154 20.9433
3.5477291695206588 21.5539
3.5700388426251948 22.0281
3.5923660534916446 22.4157
3.6146934007816114 22.2661
3.637003482731501 23.2814
3.6593311053109985 23.3001
3.681641464033634 23.846999999999998
3.7039693653009733 24.2214
3.726297407241705 24.6177
3.7486081875460804 25.4022
3.7709365132734978 25.4868
3.793247578841633 26.1226
3.8155761917550093 26.7821
3.8378875459837216 26.9142
3.8602164494827234 27.3038
3.882545499606844 28.0636
3.9048572932539183 28.6715
3.9271866390645718 28.9905
3.9494987298666713 29.4855
3.971828374764527 30.2121
3.9941581705403255 30.6375
4.016470713506008 30.6647
4.038800813471445 31.4899
4.061113662089144 31.7173
4.0834440696459176 32.9754
4.105774632334751 33.4729
4.128087945865126 33.6644
4.150418821249301 34.4827
4.172732448931298 35.135999999999996
4.195063640413578 36.3453
4.2173775856475215 36.494
4.239709096631102 37.3843
4.262040768704612 38.2148
4.284355196706267 38.2993
4.306687193387355 39.2744
4.329001947444346 40.5737
4.35133427213731 41.3992
4.373666762177566 42.0686
4.395982011761091 42.8422
4.418314834921175 43.6459
4.44063041906622 44.3496
4.4629635787515625 45.2222
4.4852969080429785 46.6345
4.5076130004776225 48.2717
4.529946671403969 48.6787
4.552263106909177 49.6717
4.574597122877047 51.1662
4.596931312711224 53.2667
4.619248269273446 54.2397
4.6415828092605835 55.1718
4.663900117405352 56.3257
4.686235010953232 57.5136
4.708552674085913 58.7674
4.730887924602802 60.6765
4.753223354952695 62.2819
4.775541557023902 63.4
4.797877349456786 65.0243
4.820195915032126 67.2162
4.842532072957498 68.4538
4.864868414979744 70.8976
4.88718753227192 73.2385
4.909524244902505 75.7973
4.931843734218147 78.4543
4.954180820867835 81.5061
4.976518095879839 85.28200000000001
4.998838149695359 88.9813
5.021175803844231 93.9367
5.043496238205739 98.2496
5.065834274903528 104.382
5.088172504230693 111.35
5.1104935158799565 120.163
5.132832132875765 134.164
5.155153533596801 157.516
5.1774925416746225 214.356
5.199814334878411 585.944
5.2221537374521505 2006.95
5.244493338631803 3930.59
5.266815727034316 5946.0
5.289155727832427 9124.98
5.311478517248165 9556.95
5.333818921080011 5420.82
5.356159527788849 1514.58
5.3784829252032536 366.356
5.400823940070432 199.458
5.423147747031976 159.84
5.445489173474152 139.744
5.467830807066149 128.825
5.490155234831516 121.712
5.512497285125229 116.391
5.534822130975162 113.215
5.557164601388673 110.214
5.579489868738879 106.71
5.601832762690846 104.945
5.6241758697774475 102.977
5.646501775867269 102.00200000000001
5.668845311622074 101.256
5.691171647754637 100.292
5.713515615597765 99.4357
5.735859800852677 98.3296
5.758186788542988 98.027
5.780531411018185 97.8274
5.802858837297399 97.8789
5.825203900414495 98.64200000000001
5.8475491852224 99.4922
5.869877275883075 101.398
5.892223006467101 103.955
5.914551544266608 107.829
5.936897724049891 114.546
5.959244129804903 127.156
5.981573344815301 159.657
6.0039202049061 307.971
6.026249875609095 787.7080000000001
6.04859719346037 1432.68
6.070927323278297 2066.62
6.093275102315365 3065.88
6.115623113320588 4081.12
6.137953938319995 3906.87
6.160302415650845 1892.37
6.182633708324452 550.408
6.2049826554078376 185.449
6.227331838745022 116.98299999999999
6.249663839443684 98.7191
6.27201349767565 89.8001
6.294345974611799 84.1854
6.316696111167083 80.1042
6.339046488263839 77.1167
6.361379686074702 74.4361
6.383730546639482 72.6759
6.406064229255215 70.7494
6.428415576718203 70.1043
6.450749747566656 68.5301
6.47310158535871 67.3256
6.495453669698332 66.1332
6.517788579421056 65.7486
6.540141159237969 64.3819
6.562476565766648 63.5549
6.5848296444934045 63.4503
6.607182974060425 62.4703
6.6295191323281015 61.8677
6.651872965955752 61.3482
6.6742096296068985 60.6967
6.6965639707294615 60.5756
6.71891856698715 59.4549
6.741255995248479 58.895
6.763611104154477 58.3962
6.785949046381137 58.1272
6.808304671371482 57.7813
6.8306605557940046 57.5574
6.852999275508618 56.8189
6.875355681171544 56.736999999999995
6.897694923437771 56.6617
6.92005185377892 56.5481
6.9423916220322655 56.1827
6.964749080490181 55.6213
6.987106804399774 55.4899
7.009447368180821 55.7563
7.031805625367033 55.0662
7.054146723727803 55.3506
7.076505517631004 55.0807
7.098864581288365 54.5845
7.121206488070854 54.2845
7.143566093607822 54.1815
7.165908543567245 54.2281
7.188268694426048 54.2614
7.2106291193438095 54.0037
7.232972390625943 53.7268
7.255333366030969 53.7695
7.277677189091925 53.57899999999999
7.300038718428332 53.5818
7.322400526130865 53.7813
7.344745183422596 53.8321
7.367107550224791 53.9004
7.389452767901992 54.111999999999995
7.411815697249891 54.1735
7.434161478756298 53.8779
7.456524974096713 53.9046
7.478888753837185 53.9353
7.501235387657368 54.3835
7.523599738562711 57.3786
7.545946944825532 61.9945
7.568311870344528 62.638000000000005
7.5906770845765665 59.0722
7.613025156078678 56.0715
7.635390950099687 55.8364
7.657739602662809 55.4064
7.680105979923558 55.4164
7.702472650212829 55.7533
7.724822180948224 56.0247
7.747189439655568 56.3061
7.769539560075357 56.3791
7.791907410653562 56.8296
7.81425812420825 56.7724
7.836626570110925 57.4043
7.858995315087906 58.1281
7.881346924933401 58.483000000000004
7.903716270417482 58.599
7.926068482028405 59.0992
7.948438431475253 59.7264
7.9708086843180235 60.2665
7.993161805171116 60.9453
8.015532667162402 61.3262
8.037886398416653 62.4958
8.060257873014221 62.9284
8.082629655331942 63.1763
8.104984308787587 64.1716
8.127356708900503 64.8734
8.149711981398308 65.9728
8.172085002766314 67.1653
8.194458336181368 67.8515
8.216814543847752 68.8613
8.23918850371002 70.4248
8.26154533906492 71.922
8.283919928836452 73.6869
8.306277395339652 74.7625
8.328652618483376 76.3598
8.351028159736202 78.679
8.373386579575245 81.2703
8.395762759396959 83.0901
8.418121819038275 86.645
8.440498640894003 91.5875
8.462875785192262 99.0143
8.485235811156207 116.384
8.507613602688501 192.38
8.529974277114228 394.642
8.552352719347912 616.2919999999999
8.574731488360351 789.543
8.59709314210385 958.2610000000001
8.619472567021075 1240.06
8.64183487789147 1657.57
8.664214962183097 1882.36
8.686577933647762 1487.56
8.708958680784317 796.1089999999999
8.731339760774953 326.244
8.753703729764451 154.452
8.77608547780821 114.39299999999999
8.798450116065078 105.036
8.820832535634787 98.9575
8.843215292401656 96.0798
8.865580941199045 93.5843
8.887964374703538 91.8396
8.910330701447199 90.7639
8.932714815164482 89.6514
8.955099270424924 87.9287
8.977466620733543 87.2744
8.999851761421976 86.991
9.022219798361645 85.92
9.04460562795561 85.7649
9.066991803441677 85.3742
9.089360876979615 84.6926
9.111747746589993 84.9773
9.13411751544971 84.1637
9.156505082664324 83.8166
9.178875550323522 84.3718
9.20126381862328 84.8041
9.223652438908596 89.4469
9.246023961427412 95.7274
9.26841328802173 94.8046
9.290785518039224 91.0084
9.313175554425882 87.6861
9.335565947154315 85.2628
9.357939245086508 85.0118
9.380330352834827 85.0823
9.40270436697103 85.1538
9.425096193225055 84.9819
9.447488380180165 86.0102
9.469863475295412 86.2604
9.492256385987508 86.6539
9.514632206018318 87.2543
9.537025843935714 87.883
9.559402392368193 88.3635
9.581796761000229 89.4742
9.604191496441521 89.3791
9.626569144158516 90.3226
9.648964615551032 91.2429
9.671343000390081 91.7704
9.693739211225699 93.1302
9.716135793237463 94.064
9.738515290448102 95.1211
9.760912617143402 96.1949
9.783292860202891 97.7584
9.805690935076182 99.3778
9.828089385495742 100.412
9.850470754023561 102.523
9.872869957865444 104.81700000000001
9.89525208097539 107.405
9.917652041736662 111.73299999999999
9.940052382417589 118.227
9.962435644102392 137.72899999999998
9.984836746950979 205.984
10.007220771957746 368.41900000000004
10.029622640473708 555.31
10.052007432299963 683.435
10.074410069984072 767.56
10.096813093716005 911.455
10.119199042482517 1174.53
10.141602840636468 1526.82
10.163989564971628 1711.46
10.186394141051062 1413.13
10.208799107559706 814.617
10.231187001965623 380.284
10.253592751657669 183.97
10.275981430388155 129.668
10.298387966769793 117.134
10.320794897965431 113.429
10.343184759907361 110.649
10.36559248305461 108.094
10.387983138083852 107.727
10.410391656691655 111.069
10.432800574501677 129.49200000000002
10.455192425893369 173.88
10.47760214443012 220.28400000000002
10.499994797678786 251.235
10.522405320453982 272.303
10.54479877906917 307.79400000000004
10.567210109595656 368.591
10.5896218454736 452.39
10.612016518879773 519.19
10.634429067781074 474.345
10.656824555333241 333.18
10.679237920773568 197.345
10.701651695961992 123.27
10.724048411481384 99.3413
10.746463008485165 91.7997
10.768860546937125 88.5161
10.791275969274796 86.1165
10.81369180576079 84.4865
10.836090585366925 83.1664
10.858507252467449 81.6326
10.88090686379991 80.6503
10.903324365036394 79.5992
10.925724811614439 78.2862
10.948143150509463 77.9255
10.970561909719066 76.6845
10.992963615930844 75.8036
11.015383218085756 74.9293
11.037785768347074 74.2705
11.06020621697282 73.8979
11.082627090322113 73.1676
11.105030913430326 72.4306
11.12745263854165 71.8709
11.149857314510728 70.7811
11.172279894912576 71.25
11.194702904450653 70.1506
11.217108866490921 69.3468
11.239532736615194 68.8676
11.26193956033512 68.5186
11.284364294577085 68.5821
11.306789462371718 67.7251
11.329197585398376 67.7317
11.351623622610898 67.582
11.37403261614354 66.71
11.396459526308487 66.4365
11.418869393879497 66.2552
11.441297180532617 66.1077
11.463725406927658 65.6946
11.486136592353875 65.0793
11.508565700543707 64.8264
11.530977768845315 64.8908
11.553407762368774 64.3625
11.575838200059769 64.3553
11.598251599479612 64.1985
11.620682927815501 64.3189
11.64309721895548 64.1605
11.665529441478206 64.0891
11.687962112597958 63.6264
11.710377748130886 63.677
11.732811318753434 63.5972
11.755227854859067 63.4976
11.777662328529495 63.2345
11.800079768750786 63.1211
11.822515149015453 63.1245
11.844950984084935 63.3794
11.867369787303163 63.4347
11.889806534289491 63.3087
11.912226250487029 64.7976
11.934663912939751 66.2502
11.9571020346363 66.8911
11.979523127133968 66.6865
12.001962169624331 66.7496
12.024384183972964 67.0058
12.046824150809913 70.6604
12.069264581333726 81.5704
12.091687985297767 93.695
12.11412934550045 103.51899999999999
12.136553680195208 109.596
12.158995973632788 116.561
12.181438735204349 126.27600000000001
12.20386447284199 142.662
12.226308172985636 164.535
12.24873485024193 187.888
12.271179492516982 191.507
12.293607112949127 166.112
12.316052700916226 125.854
12.338498763250042 90.1083
12.360927805303868 72.6673
12.383374818673879 67.3672
12.405804812803074 65.3744
12.428252780773262 65.3307
12.45070122756722 65.2612
12.473132656675375 65.0086
12.49558206341869 65.3593
12.518014453510101 65.024
12.540464823770117 65.1139
12.562915677315177 65.2759
12.58534951575545 65.6765
12.607801338171472 65.7445
12.630236146511358 66.0084
12.652688941369085 66.3297
12.675124723177234 66.7083
12.697578494048786 67.2684
12.720032754458185 67.4087
12.742470003354093 67.8751
12.764925245138771 68.4937
12.787363476431278 68.8405
12.809819703166806 69.2908
12.83227642391173 70.1488
12.854716135692716 70.506
12.877173846755147 71.7057
12.899614549869717 71.9325
12.9220732548287 73.0728
12.94453245827299 73.7653
12.966974655289818 74.9125
12.989434858002571 75.8306
13.011878055298721 76.6825
13.034339260862497 77.8307
13.056800969391883 79.3189
13.079245674017244 81.6798
13.101708390774869 83.9345
13.12415410463411 90.7113
13.146617833206086 110.052
13.169064559883248 139.628
13.191529303857127 166.953
13.213994557076367 187.327
13.236442809902437 200.016
13.258909083908291 214.627
13.28135835851934 235.918
13.30382565690295 270.56
13.326293469022952 322.041
13.348744283242008 375.711
13.371213125129904 399.286
13.39366497011003 356.36800000000005
13.416134845360597 266.815
13.438605238843131 182.674
13.46105863690397 131.328
13.483530069144786 120.02600000000001
13.505984506951902 134.845
13.528456981549432 157.069
13.550929978879088 173.15400000000002
13.573385983253365 182.558
13.595860028340867 190.607
13.618317081455832 204.852
13.64079217790333 228.22099999999998
13.663250283359057 261.603
13.685726434770173 304.283
13.708203115221277 343.366
13.730662806148091 334.086
13.75314054697177 277.445
13.775601299246777 201.303
13.798080104050406 135.129
13.820559442405358 99.3931
13.843021793671388 87.8023
13.865502201420897 83.7182
13.887965623051947 82.4028
13.910447103807167 81.1495
13.932929122629764 79.4553
13.955394156785959 79.0317
13.977877254034569 78.2304
14.000343367582113 77.1495
14.022827546871707 76.6233
14.045294743423524 75.9434
14.06778000837062 75.1071
14.090265817715476 74.8579
14.112734645763819 74.971
14.13522154619454 75.3039
14.157691466286913 75.4007
14.180179461423874 74.8837
14.202668005486178 73.9291
14.22513957064374 73.0302
14.247629214846473 72.1393
14.270101881097517 71.7917
14.29259262906496 71.3432
14.315083930490205 71.2035
14.337558255389705 70.7899
14.360050666019726 70.8323
14.382526101071944 70.7691
14.405019624534942 70.217
14.427513705993134 69.9374
14.449990813291825 70.3314
14.47248601302899 70.3686
14.49496423954951 70.3241
14.517460561197822 70.5175
14.539939910570322 70.3048
14.562437357763558 70.4565
14.58493536931253 70.6366
14.607416409993311 70.7354
14.62991555254159 71.1038
14.652397725157423 71.4137
14.674898002342799 71.4856
14.697398848433282 71.7507
14.719882725991326 72.9253
14.74238471217934 73.6151
14.764869730765593 76.9251
14.787372860692983 85.0194
14.809876564079925 97.6489
14.83236330125751 108.916
14.854868153850365 116.887
14.877356041159485 122.015
14.899862046604186 126.51899999999999
14.922351087688757 133.851
14.944858249632887 145.07399999999998
14.967365991421232 160.711
14.989856770231246 181.016
15.012365673994204 203.567
15.03485761569738 210.737
15.05736768508665 193.36599999999999
15.07987833888692 159.727
15.102372032001655 122.884
15.124883856909658 94.0997
15.14737872204565 79.6986
15.169891721717274 74.0313
15.192405310371893 72.5209
15.214901940621196 71.6363
15.237416709527137 70.8856
15.259914520936249 70.4401
15.282430473753607 69.6459
15.304947020131227 68.9308
15.327446610371178 68.6713
15.349964346154254 68.4831
15.372465126703139 68.2137
15.394984055556009 68.0442
15.417486030076159 67.956
15.44000615566487 67.6972
15.462526881230803 67.5247
15.485030653812652 67.3442
15.507552581617434 67.3204
15.530057557334603 67.2657
15.55258069104857 67.482
15.575104429329837 67.7857
15.597611216864632 67.525
15.620136166564563 67.8807
15.6426441664095 68.4697
15.665170331202765 71.0586
15.687697105158826 77.3719
15.710206930593545 87.5117
15.732734925158933 97.0244
15.755245972089478 103.44
15.77777519094324 107.79299999999999
15.800287463046663 110.833
15.822817909869592 115.36
15.84534897229804 122.37799999999999
15.867863089299354 133.99
15.890395385222186 147.873
15.912910736597423 166.46599999999998
15.935444269699861 182.63
15.957978423016485 182.44099999999997
15.980495633101265 164.285
16.003031029129367 135.458
16.02554948280019 103.76
16.048086125229432 81.1568
16.070623392487107 70.60300000000001
16.09314371869582 66.1696
16.11568223789321 64.0579
16.13820381691126 62.9848
16.160743591742527 62.4394
16.183283996022084 61.7988
16.205807461423195 60.8807
16.228349126881973 60.2276
16.25087385432698 60.0246
16.27341678466365 59.6293
16.29594277784926 59.0818
16.31848697676433 58.8169
16.341031811604868 58.3057
16.36355971058487 58.181999999999995
16.3861058195587 57.8113
16.40863499352978 57.438
16.431182380342005 57.269
16.453730407713202 56.9241
16.476261501364792 56.798
16.498810812136167 56.4485
16.52134319004079 56.5248
16.54389378792203 56.6438
16.566445031001553 56.4035
16.588979342490088 56.3518
16.61153187824822 55.8608
16.634067483263312 56.0265
16.656621315414416 55.9237
16.679175797408888 55.5689
16.701713349928728 55.7947
16.72426913389191 55.8954
16.74680798922351 55.81
16.76936507887444 55.7166
16.791905240734874 55.6915
16.814463639794468 55.582
16.837022695210294 55.6434
16.859564824093756 55.7361
16.882125194503903 55.7614
16.904668639217885 56.1503
16.927230328348003 56.0699
16.949792678493612 56.4584
16.972338104193863 56.2418
16.994901778652235 56.446000000000005
17.017448529496576 56.6864
17.040013531998152 56.8062
17.06257920018044 57.254
17.0851279459922 58.6568
17.107694947817667 60.8737
17.130245028099072 62.5731
17.15281336730298 64.3449
17.17536478578733 65.4418
17.19793446610687 66.3135
17.220504818648422 66.8517
17.243058251703697 67.5659
17.265629950971032 69.7884
17.288184731571736 72.2695
17.310757781306908 76.0302
17.33333150794385 79.2381
17.355888317140174 81.9517
17.37846339986244 82.9832
17.401021565958885 79.8986
17.42359800851343 75.066
17.44617513265564 69.2073
17.468735341390783 64.7203
17.491261035594565 61.9514
17.51396340099364 60.7037
17.536490463869136 60.6268
17.559018209820174 60.5141
17.58154663977963 60.5015
17.604251766089718 60.681999999999995
17.626781572227713 60.7348
17.64931206518155 60.9766
17.671843245885103 61.4498
17.69455114821572 61.4214
17.717083712612634 61.9885
17.739616967569667 62.2972
17.762150914021706 63.0059
17.78486160749854 63.0868
17.807396945166804 63.8036
17.829932977143503 64.5047
17.85246970436452 65.8396
17.875183204129467 69.0544
17.897721330097664 74.8828
17.920260154126645 80.4609
17.942799677153296 84.5718
17.9655159983646 87.2516
17.988056927677544 88.87200000000001
18.010598558807683 90.9067
18.033140892692916 94.2145
18.05586005052525 97.9782
18.07840379824407 103.714
18.10094825154059 111.652
18.12366954819864 122.199
18.146215420998306 134.776
18.16876200220057 143.35
18.191309292745153 142.666
18.214033452627167 133.92700000000002
18.236582170236648 118.49
18.259131600016456 103.286
18.281681742907335 92.6138
18.304408781233683 88.5187
18.32696035875955 88.2454
18.349512652227624 90.084
18.372065662579683 94.4353
18.394795594587553 99.0219
18.41735004715306 103.038
18.43990521943684 103.01799999999999
18.46246111238171 99.2363
18.485193953325208 90.708
18.507751296070428 81.4919
18.530309362314178 73.7332
18.552868153000343 68.3365
18.57560391815056 65.4334
18.59816416623245 64.0123
18.620725141597372 63.3344
18.643286845190268 62.8208
18.666025549835414 62.286
18.688588718427933 61.5092
18.711152618092243 61.2222
18.73389353884365 61.0844
18.75645890921984 60.7448
18.77902501351406 60.4129
18.801591852673102 60.2021
18.824335739722738 59.5052
18.846904057212626 59.6193
18.8694731124168 59.1438
18.89204290628315 59.2231
18.914789774966803 58.9775
18.937361054791623 58.6604
18.959933076131318 58.4172
18.982505839934877 58.2572
19.00525570560582 58.4
19.027829963004184 58.1167
19.05040496572238 58.1846
19.072980714710468 58.2741
19.095733592739563 58.3419
19.11831084296757 58.8957
19.140888842324735 60.0095
19.16346759176222 61.0716
19.18622349753803 62.0912
19.208803755869358 62.6705
19.231384767143577 63.0354
19.253966532312948 63.4614
19.276725481241822 64.2528
19.29930876296784 64.9928
19.3218928014549 66.1564
19.34465404436217 67.6271
19.36723960516257 69.722
19.389825925592426 71.6883
19.412413006605938 74.0589
19.43517731967805 75.0722
19.457765930683355 74.1895
19.48035530514408 71.0766
19.50294544401556 66.8696
19.525712842708348 62.4755
19.54830451925909 59.0715
19.570896963095727 56.6438
19.593490175174704 55.5938
19.616260674962184 55.361999999999995
19.638855432416964 54.7895
19.661450960992624 55.0872
19.68404726164677 54.9017
19.706820878021247 54.5655
19.729418731756834 54.7797
19.752017360452857 54.6448
19.77461676506804 54.7948
19.797393513540218 54.7832
19.819994478951667 55.2988
19.84259622316767 56.2395
19.8651987471481 57.3656
19.887978643247177 57.9287
19.91058273574792 58.5197
19.933187610901943 58.9593
19.955969879466828 59.5213
19.97857632894404 59.7718
20.00118356396599 60.2549
20.023791585494575 60.9594
20.046577028914875 62.3368
20.069186632506966 64.2042
20.091797025500632 66.6039
20.114408208858933 69.2451
20.137196842715273 71.5614
20.159809615886765 73.22
20.18242318232135 72.0345
20.20503754298326 69.9253
20.227829382875154 67.2436
20.250445341109344 64.7437
20.27306209647285 62.9114
20.29567964993108 62.1873
20.31847471147704 62.6026
20.34109387027612 63.4381
20.363713830075454 64.8944
20.386334591841646 66.1142
20.409132890679302 65.6383
20.431755265564437 63.9005
20.454378445325528 61.2306
20.477002430930366 58.0866
20.499803982716553 55.5851
20.522429589228004 53.5155
20.54505600449589 52.4415
20.567683229489194 51.9505
20.590488049900088 51.7802
20.61311690359731 51.5733
20.63574656993626 51.3575
20.658553853717297 50.8754
20.681185154618298 50.8643
20.703817271080066 50.8281
20.72645020407368 50.395
20.749260783967177 50.2507
20.771895359337133 50.3701
20.794530754161617 50.3832
20.817166969412938 50.2541
20.83998086114876 50.2375
20.86261872660049 49.913000000000004
20.885257415405402 49.9557
20.90789692853701 49.7439
20.930714147864748 49.6353
20.953355319030678 49.8343
20.97599731745334 49.986000000000004
20.99864014410749 49.9871
21.021460706796564 50.1587
21.044105199328826 50.3904
21.06675052302631 50.7036
21.089396678865015 50.5788
21.112220600704806 50.5491
21.134868430275347 50.6321
21.15751709492456 50.6992
21.180166595629693 50.7847
21.202993892429635 51.0285
21.22564507473034 51.3492
21.24829709602816 51.7227
21.27112693608965 52.0055
21.293780644891275 52.5608
21.316435195634053 52.4628
21.339090589297417 52.1305
21.361923832041875 51.8659
21.384580921090404 51.1589
21.407238856007325 50.253
21.429897637773326 50.0
21.45273429906592 49.6866
21.475394784108598 49.769
21.498056118951983 49.672
21.520718304578022 49.8925
21.543558400304388 49.8873
21.566222297108816 50.1165
21.58888704765135 50.1379
21.61155265291521 50.7573
21.63439619898156 51.7794
21.657063523335786 52.4676
21.67973170537063 53.2989
21.7024007460706 53.7934
21.72524775840385 54.5623
21.747918526116475 54.8599
21.770590155457388 55.1558
21.79326264741238 55.7064
21.816113141960237 56.5803
21.838787368860547 57.431000000000004
21.861462461341976 58.7924
21.884315579735777 60.2744
21.90699241312273 61.8561
21.92967011506078 63.7281
21.95234868653799 65.3576
21.9752053151131 66.2549
21.997885635446785 66.0562
22.020566828293532 64.851
22.04324889464272 62.4092
22.066109049404666 59.8858
22.088792872571794 57.8636
22.111477572219204 56.7542
22.1341631493376 56.4824
22.157026846313123 56.6168
22.179714188221507 56.8459
22.202402410582668 56.9951
22.22509151438863 56.0524
22.24795876962584 54.8506
22.270649646204486 53.6322
22.293341407213727 52.3259
22.316034053646906 51.3313
22.338904883215342 50.6239
22.36159931041458 50.3706
22.38429462602756 50.1687
22.40699083104897 49.9894
22.429865251039757 49.9325
22.452563244831367 49.903
22.47526213102522 49.9553
22.49813925616515 49.8008
22.520839937143307 49.8029
22.543541513520587 49.8624
22.56624398629403 49.7456
22.589124730075895 49.6921
22.611829005656723 49.9909
22.63453418063466 50.0641
22.657240256008077 50.2971
22.680124634582935 50.6819
22.70283252079775 51.2048
22.725541310413075 51.9881
22.74825100442868 52.2577
22.771139033969575 52.6192
22.79385054687155 52.6419
22.81656296718292 52.7773
22.83927629590484 53.016999999999996
22.862167992606945 53.3209
22.88488314827121 53.8683
22.907599215359284 54.1819
22.93031619487366 54.7222
22.953211574954405 55.4847
22.975930389478226 56.5435
22.998650119445763 57.3936
23.02137076586092 58.3482
23.044269845560063 58.50899999999999
23.06699233506288 58.3762
23.089715744034912 57.2233
23.112617610931565 55.3597
23.135342869061212 53.7107
23.158069049684816 52.0849
23.1807961538087 50.9809
23.20370174880544 50.378
23.226430710184808 50.2053
23.249160598093425 50.1238
23.271891413539002 50.2665
23.294800752937697 50.7348
23.31753343374794 51.5942
23.340267045128353 51.7582
23.36300158808808 52.1887
23.38591468821339 52.4553
23.408651104658304 52.4459
23.431388455719986 52.455
23.454126742409 52.5319
23.4770436196085 52.8645
23.499783787914662 53.4919
23.522524894889884 53.6045
23.54526694154616 54.251999999999995
23.56818761219047 55.1507
23.59093154860734 55.8984
23.613676427751283 57.2542
23.636422250635754 58.1966
23.659346731118656 58.3794
23.68209445191868 57.8474
23.704843119509587 56.1984
23.72759273490623 54.5944
23.750521041644767 52.4569
23.77327256312355 50.4993
23.796025035462787 49.0436
23.818956224555475 48.043
23.841710609113413 47.5534
23.86446594758979 47.1954
23.887222241002014 46.9458
23.910157285144578 46.5736
23.932915498962537 46.5666
23.955674670778713 46.2629
23.978434801611975 46.0325
24.001373717286125 45.785
24.024135776723917 45.861000000000004
24.046898798245582 45.553000000000004
24.06966278287146 45.6092
24.092605586582614 45.2886
24.115371508023642 45.1946
24.1381383956401 45.1843
24.16090625045381 45.0691
24.183852958731244 45.1185
24.206622758582608 44.9192
24.229393528706886 44.9016
24.252165270127392 44.7623
24.27511589952438 44.7329
24.297889594216997 44.4767
24.32066426328598 44.3456
24.34343990775613 44.4231
24.36639447485003 44.4504
24.38917208083877 44.1412
24.41195066531332 44.1925
24.43490819850244 44.2775
24.457688750692377 44.0554
24.48047028445616 43.9525
24.503252800821233 43.8977
24.526214300784112 43.9126
24.548998793132213 43.9894
24.57178427117417 43.8012
24.59457073593893 43.9868
24.617536219319863 43.8953
24.64032466834748 44.078
24.663114107195035 44.0641
24.685904536893013 43.6628
24.708874020360852 43.5312
24.731666442613744 43.5551
24.754459858818787 43.5371
24.777254270007962 43.4674
24.80022777025625 43.2984
24.82302418230472 43.2917
24.845821592443674 43.3455
24.86862000170663 43.5169
24.891597535453727 43.3913
24.914397953892728 43.7983
24.93719937456671 43.5016
24.96000179851076 43.5592
24.98298338249997 43.8575
25.00578782394922 43.8674
25.028593271784167 43.9036
25.05157790644186 44.3709
25.07438537804115 44.3988
25.097193859145293 44.6037
25.120003350792075 44.7674
25.142992065061257 44.8886
25.165803588823465 45.1361
25.18861612625217 45.5256
25.211429678386736 45.6488
25.234422489079968 45.6208
25.257238081693636 45.6684
25.280054692141732 45.6427
25.3028723214652 45.5475
25.325869245420463 45.4179
25.348688923599397 45.4493
25.371509623787006 45.5032
25.394331347025812 45.7165
25.41733240110666 45.7074
25.440156181590016 45.3868
25.46298098826268 45.3001
25.48580682216873 44.6371
25.50881202326435 43.9013
25.53163992281684 43.321999999999996
25.55446885274561 42.6633
25.577298814096377 42.2986
25.600308179121807 42.0284
25.623140214533745 42.0624
25.64597328451537 41.7783
25.66898578564376 41.7549
25.691820936010206 41.7519
25.714657124097695 41.6022
25.737494350954734 41.5979
25.760511045684957 41.5801
25.783350361364224 41.7501
25.806190718969255 41.7615
25.82903211955018 41.8062
25.852053024868923 41.7488
25.874896522722523 41.9234
25.897741066713106 41.7193
25.920586657892454 41.7276
25.943611790812668 41.7405
25.966459487728237 41.7539
25.989308234998564 41.6688
26.01215803367705 42.0272
26.03518741123814 41.9824
26.05803932412957 42.1363
26.080892291600094 42.1519
26.10374631470478 42.2287
26.12677995397268 42.5237
26.14963609978026 42.8304
26.172493304397875 42.6685
26.19535156888223 42.6713
26.218389486949604 42.4881
26.241249882640123 42.2328
26.26411134137826 41.8066
26.28715248187403 41.7944
26.31001607820869 41.4491
26.3328807407756 41.4365
26.35574647063438 41.4983
26.37879191991473 41.43
26.401659795896734 41.4738
26.424528742360263 41.6354
26.447398760366614 41.428999999999995
26.470448535598294 41.5969
26.49332070826805 41.7191
26.516193955675355 41.8959
26.53906827888316 41.9742
26.562122397260108 42.0655
26.584998883685063 42.2292
26.607876449110325 42.1794
26.63075509460056 42.3224
26.65381357334404 42.8327
26.67669439061878 42.9679
26.699576291163382 43.0485
26.722459276044212 43.3259
26.745522132402975 43.2804
26.768407297649354 43.02
26.791293550442003 42.7358
26.814180891848974 42.4606
26.837248143099337 41.864
26.860137673466657 41.7138
26.88302829566349 41.5706
26.90592001075963 41.3705
26.92899167420566 41.2578
26.951885586870763 40.9491
26.974780595655517 40.7658
26.99785558178161 40.5474
27.020752794605112 40.3451
27.043651106772522 40.0637
27.06655051935668 39.9757
27.089629948036183 39.7524
27.112531573292053 39.7544
27.135434302194138 39.8791
27.158338135817015 39.5275
27.181422024430987 39.6842
27.204328079372566 39.5661
27.22723524226965 39.5261
27.250143514198573 39.6624
27.273231880156334 39.5897
27.296142382065014 39.5119
27.319053996245536 39.416
27.341966723775965 39.4802
27.365059584515222 39.4746
27.38797455070062 39.5225
27.410890633481237 39.2688
27.433807833936918 39.3618
27.456905206923906 39.3857
27.47982465472398 39.4317
27.502745223449743 39.3686
27.525666914182825 39.5479
27.548768816912457 39.4495
27.571692763693633 39.4351
27.59461783573812 39.5013
27.617723149491244 39.4026
27.640650484125285 39.3354
27.66357894728264 39.441
27.686508540048052 39.3774
27.709618414237887 39.2629
27.732550278321757 39.1312
27.755483275279115 39.2299
27.778417406196485 39.0835
27.801531858397514 39.0623
27.824468269376716 38.8913
27.847405817586786 38.8622
27.870344504116094 38.9732
27.893463551932008 39.0219
27.916404527281053 39.2171
27.93934664422563 39.3034
27.962289903855886 39.294000000000004
27.98541356491974 39.3169
28.00835912214229 39.2511
28.03130582533231 39.5389
28.054253675581805 39.6234
28.077381967556104 39.7113
28.100332124185126 39.9036
28.123283431160893 39.9473
28.146235889577238 39.8538
28.169368830154156 39.8235
28.192323603752033 39.7601
28.215279532083304 39.452
28.238415973016764 39.1815
28.261374223145094 39.0973
28.284333631303806 38.7212
28.307294198589954 38.783
28.330435319167677 38.3954
28.353398217078915 38.2255
28.376362277420153 37.9526
28.39932750129032 37.7044
28.422473319286713 37.5255
28.44544088262495 37.4766
28.468409612800283 37.3406
28.491379510913497 36.9825
28.51453004413313 36.9814
28.53750229057244 36.9386
28.56047570826344 36.8229
28.583450298308804 36.8243
28.606605564586562 36.6182
28.629582511831156 36.7273
28.65256063474956 36.5492
28.675539934446338 36.6739
28.698699951647605 36.5313
28.72168161743193 36.4069
28.74466446331978 36.4995
28.767648490417624 36.3218
28.790813276438353 36.2936
28.813799678527303 36.2173
28.836787265157085 36.1521
28.859955641890075 36.1473
28.882945610203045 36.2164
28.905936766392035 36.0601
28.928929111566863 36.2425
28.952102288520145 36.2369
28.975097024308607 36.0648
28.998092952423807 35.979
29.021090073977508 35.9732
29.04426806913204 35.9607
29.067267590245258 35.717
29.090268308143695 35.6471
29.11327022394099 35.543
29.13645305530891 35.3333
29.159457379627167 35.2869
29.18246290519685 35.3061
29.20546963313352 35.147
29.22865731875826 35.205999999999996
29.25166646419296 35.2037
29.27467681535305 34.8339
29.29768837335608 34.9826
29.320880931312562 34.9843
29.34389491580634 34.9484
29.366910110507334 34.9994
29.38992651653503 34.8963
29.41312396492981 34.9115
29.436142806456754 34.9118
29.45916286268059 34.9429
29.48236399319994 34.9021
29.50538649169417 34.7715
29.528410208259935 34.7644
29.55143514402014 34.584
29.574641196749695 34.4838
29.597668583816574 34.3637
29.6206971934585 34.0805
29.64372702680042 34.097
29.666938019934474 34.0162
29.689970313635285 33.9481
29.713003834422636 33.873000000000005
29.73603858342347 33.7657
29.759254535188578 33.7444
29.78229175361658 33.6965
29.80533020365064 33.6738
29.82836988641968 33.696
29.85159081507472 33.6154
29.874632976355343 33.5099
29.89767637376955 33.5904
29.920721008448314 33.3584
29.9439469322847 33.4701
29.96699405457564 33.5034
29.9900424175358 33.3345
30.013092022298157 33.3051
30.03632295963995 33.2205
30.059375061131373 33.2357
30.08242840783577 33.3161
30.105483000888153 33.2197
30.128718970092244 33.1824
30.151776069006917 33.2421
30.17483441768648 33.1352
30.198074175317235 33.0161
30.221135036724256 33.0644
30.24419715131772 33.0803
30.267260520236203 33.084
30.290505341942243 33.1953
30.313571232750228 33.2038
30.336638381310948 33.2774
30.35970678876503 33.1558
30.38295669299435 33.1303
30.40602763151657 33.225
30.429099832366074 33.1437
30.452173296685572 32.96
30.47542830191959 32.9705
30.498504306502497 32.8781
30.521581577995562 32.9327
30.544660117543582 32.9083
30.56792024229725 32.9057
30.59100133132069 32.8503
30.614083691845494 32.8167
30.637167325018545 32.9396
30.660432587840603 32.9333
30.683518779717886 32.8217
30.70660624769615 32.8224
30.729694992924372 32.9308
30.75296541239743 32.904
30.77605672557558 32.8833
30.799149319462742 32.8781
30.8224236211637 32.830999999999996
30.845518789950724 32.7498
30.868615242910597 32.7796
30.891712981195973 32.7251
30.91499247215866 32.5261
30.938092794619365 32.4801
30.96119440587579 32.4903
30.984297307082752 32.3707
31.00758200598383 32.2324
31.030687500658694 32.1659
31.053794288760695 31.9274
31.076902371446767 31.9078
31.100192296997445 32.0367
31.12330298246119 31.8557
31.14641496599209 31.7363
31.169528248749216 31.8416
31.19282341969534 31.7641
31.215939314557186 31.8389
31.239056512134788 31.7806
31.262175013589378 31.5964
31.28547544871168 31.5737
31.30859657161541 31.5059
31.331719001892175 31.644000000000002
31.35484274070538 31.7413
31.378148458819545 31.6861
31.401274828443725 31.6704
31.424402510106933 31.6442
31.447712205419993 31.7316
31.470842524931633 31.5136
31.493974159989783 31.4917
31.51710711176168 31.5331
31.54042212308802 31.5955
31.563557722100917 31.5272
31.586694641341655 31.4705
31.609832881979628 31.4518
31.63315322823208 31.38
31.656294125521327 31.2893
31.679436347728515 31.2676
31.70257989602529 31.2137
31.725905596152327 31.1478
31.74905181052835 30.9367
31.772199354521323 31.0055
31.79534822930507 30.9596
31.818679302290967 31.0131
31.84183085259981 30.96
31.864983737233473 30.8701
31.88813795736804 30.8681
31.911474422233013 30.7261
31.934631327356435 30.8164
31.9577895715215 30.6436
31.980949155906522 30.666
32.004291031706956 30.8427
32.027453310562606 30.764
32.05061693318573 30.6909
32.07396288236386 30.6743
32.09712920658542 30.4967
32.12029687812702 30.4503
32.14346589817093 30.3947
32.166817291729984 30.3711
32.18998902288583 30.3824
32.21316210610336 30.2417
32.23633654256711 30.0898
32.259693399663725 30.0539
32.282870556771144 29.9265
32.30604907069099 29.9452
32.329228942610065 29.8425
32.35259128243769 29.6876
32.375773884550505 29.6508
32.398957848235646 29.6692
32.422143174682176 29.6325
32.445511016471215 29.5347
32.468699082679954 29.4545
32.49188851523011 29.4199
32.51507931531304 29.3069
32.538452678331 29.3921
32.56164622776311 29.3481
32.58484114831493 29.2064
32.60803744118015 29.2317
32.631416344731896 29.2429
32.654615396551876 29.1424
32.67781582427913 29.1597
32.701198898634416 29.1112
32.72440209253756 29.0484
32.747606665947124 29.0226
32.77081262006088 28.9428
32.79420126883317 28.961
32.81740999876112 28.9947
32.840620112999424 28.8854
32.86383161274818 28.7507
32.88722585534586 28.7216
32.91044014056596 28.7801
32.933655814909734 28.7084
32.95687287957963 28.7734
32.98027273544904 28.7031
33.00349259526636 28.5987
33.026713849030116 28.6251
33.04993649794511 28.5192
33.073341986570746 28.4386
33.09656744032826 28.4309
33.11979429286444 28.3562
33.14302254538647 28.4736
33.166433686291185 28.3463
33.18966475336992 28.3726
33.212897224069096 28.2328
33.23613109959831 28.2608
33.259547912343415 28.2754
33.2827846121627 28.2423
33.306022720453775 28.1612
33.32926223842861 28.2041
33.352684742614166 28.139
33.37592709463173 28.1556
33.399170859982064 28.0369
33.422597648419426 27.9589
33.44584425514446 27.9013
33.46909227885668 27.8175
33.4923417207723 27.6738
33.51577423505344 27.6727
33.539026528130385 27.6984
33.56228024307245 27.6348
33.585535381098246 27.4066
33.60897364093058 27.3697
33.63223163992385 27.4103
33.6554910656699 27.342
33.678751919389796 27.388
33.702195944520106 27.2257
33.72545966903325 27.2849
33.74872482519663 27.1755
33.771991414233746 27.1885
33.79544122444841 27.1799
33.81871069412428 27.03
33.84198160035767 26.9326
33.86525394437455 26.993000000000002
33.88870955949969 26.9264
33.911984794020626 26.9825
33.93526147001624 26.9413
33.958539588715006 26.8744
33.98200102861669 26.7755
34.0052820477047 26.7826
34.02856451319451 26.6209
34.05203033759056 26.4919
34.07531571090147 26.5666
34.09860253431845 26.5966
34.121890809074316 26.5387
34.145362493118924 26.5434
34.16865368561615 26.405
34.191946333164054 26.3985
34.21524043699793 26.3862
34.23871800066799 26.3199
34.26201503218366 26.2987
34.28531352370466 26.2978
34.30861347646881 26.2388
34.33209693978188 26.176
34.3553998301885 26.1396
34.378704185565205 26.0727
34.402010007152356 26.0008
34.42549939016683 25.9133
34.44880815937748 25.9248
34.472118398533134 25.9353
34.49543010887669 25.9024
34.51892543169198 25.7916
34.54224009966052 25.7937
34.56555624255917 25.7451
34.58887386163339 25.6252
34.61237514439016 25.623
34.6356957311114 25.6032
34.65901779775809 25.4964
34.68252356662995 25.4446
34.705848608458616 25.4688
34.72917513396849 25.4448
34.75250314440949 25.4306
34.77601490857862 25.3713
34.799345904259795 25.3125
34.82267838863559 25.3189
34.846012362958525 25.2758
34.869530142679984 25.2815
34.89286711232212 25.2115
34.91620557568269 25.2364
34.93954553401677 25.1688
34.9630693495876 25.0408
34.986412313340814 25.1266
35.00975677584668 25.0987
35.033102738362956 25.0133
35.05663261012228 24.9099
35.0799815881786 25.002
35.10333207003229 24.9005
35.12668405694369 24.9429
35.150220005273056 24.7793
35.17357501786656 24.7439
35.19693153931268 24.7749
35.220289570874385 24.7075
35.24383161619786 24.7796
35.267192683604904 24.7338
35.290555264930376 24.6242
35.314101899412165 24.5922
35.33746752422433 24.6465
35.36083466676374 24.6087
35.38420332829803 24.4751
35.407756095629054 24.5922
35.43112781085063 24.566
35.45450104888391 24.4752
35.477875810999194 24.4487
35.50143473172161 24.3654
35.52481255774625 24.4962
35.54819191167777 24.4629
35.57157279478914 24.4074
35.595137889488406 24.3449
35.61852184675279 24.316
35.641907337029984 24.1873
35.665294361595684 24.2579
35.68886565090076 24.1395
35.7122557598848 24.1376
35.73564740699838 24.1357
35.759040593519934 24.0571
35.78261809810353 24.1036
35.80601437933051 23.9255
35.829412203814705 23.8756
35.85281157283719 23.7426
35.876395313415884 23.8522
35.8997977874528 23.8423
35.92320180988546 23.7
35.946790244133936 23.6356
35.97019737933222 23.7493
35.993606066789866 23.653000000000002
36.01701630779276 23.581999999999997
36.04061101440684 23.5695
36.06402437852291 23.5674
36.08743930005611 23.5367
36.1108557802951 23.5272
36.13445678011326 23.4357
36.15787639383515 23.4189
36.18129757014299 23.3705
36.20472031032821 23.3251
36.22832762423364 23.3192
36.25175350829375 23.3311
36.275180960119776 23.2095
36.298609981005924 23.221999999999998
36.32222362992669 23.2327
36.34565580510207 23.1853
36.36908955323448 23.0959
36.39252487562093 22.9981
36.416144880530226 22.9931
36.43958336764275 23.0356
36.463023432914625 23.0534
36.486465077645676 22.9141
36.51009145956204 22.9504
36.53353627947859 22.9226
36.55698268276811 22.8841
36.58043067073321 22.8838
36.60406345072071 22.7878
36.62751462435344 22.7268
36.65096738658405 22.7193
36.67460498210655 22.7418
36.69806093788647 22.7055
36.72151848619297 22.6234
36.744977628333636 22.5656
36.76862165890998 22.5038
36.79208400512205 22.5113
36.81554794910557 22.5117
36.83901349217101 22.4349
36.862663978991606 22.3364
36.88613273667352 22.4099
36.90960309738324 22.3522
36.933075062434064 22.281
36.95673202673572 22.2115
36.98020721697122 22.162
37.003684015502365 22.1456
37.027162423645365 22.1207
37.050825886711465 22.1095
37.07430753063053 22.0062
37.09779078812467 22.0323
37.121275660513014 22.0285
37.144945643673694 21.9421
37.16843376245278 21.855
37.19192350009803 21.9188
37.215414857931435 21.8177
37.239091382563885 21.811999999999998
37.262585997426164 21.8133
37.28608223645736 21.7658
37.309763684451696 21.7308
37.33326318851098 21.6128
37.356764320726555 21.6821
37.380267082425526 21.6707
37.40395510942588 21.5952
37.42746114683234 21.5466
37.45096881771841 21.4723
37.474478123414166 21.480999999999998
37.49817275092816 21.4448
37.52168534303452 21.4797
37.54519957395567 21.3234
37.568715445024665 21.3117
37.592416694607714 21.2979
37.61593586281424 21.3581
37.63945667518264 21.3543
37.66297913304891 21.2424
37.68668702630454 21.2418
37.710212792059274 21.1232
37.733740207334854 21.0473
37.757269273470364 21.0825
37.780983832050374 21.0761
37.80451621684926 21.0241
37.82805025654007 20.975
37.851585952464795 20.9483
37.8753071980695 20.9116
37.89884622345676 20.9337
37.92238690911902 20.8556
37.94611318753442 20.7926
37.969657210779765 20.7939
37.99320289834801 20.8019
38.016750251586465 20.6855
38.04048325513017 20.6783
38.06403395679343 20.6625
38.087586328183946 20.6302
38.11114037065203 20.5858
38.13488012115898 20.590999999999998
38.1584375229181 20.6399
38.181996599821 20.5027
38.205557353221124 20.4702
38.229303872575656 20.4487
38.2528679961576 20.3698
38.27643380031219 20.3733
38.30000128639589 20.3083
38.32375459653193 20.3079
38.34732546371299 20.3627
38.37089801690786 20.2306
38.39447225747609 20.2364
38.418232380377425 20.1434
38.441810012983396 20.1694
38.46538933705673 20.1335
38.488970353960084 20.0191
38.51273731166058 19.9898
38.536321731567014 20.0302
38.55990784840681 19.9406
38.58367995004091 19.9229
38.60726947812959 19.8616
38.63086070726198 19.8461
38.654453638806274 19.8585
38.678232613930824 19.8164
38.70182896773327 19.7551
38.72542702806741 19.7287
38.7490267963045 19.7191
38.77281266709232 19.6919
38.79641586862214 19.6727
38.8200207821842 19.5646
38.843627409152944 19.5987
38.86742019782782 19.5706
38.891030269149255 19.555999999999997
38.914642058016156 19.5192
38.938255565806124 19.4802
38.96205529464307 19.4079
38.98567225787121 19.4099
39.00929094417078 19.4502
39.03291135492255 19.320999999999998
39.05671804624804 19.3372
39.080341923549106 19.229
39.103967529460334 19.2796
39.127594865365744 19.1668
39.15140854155791 19.1073
39.17503935514948 19.1372
39.19867190290282 19.1777
39.22249083587951 19.0937
39.24612686969409 19.0518
39.269764641845306 19.0845
39.293404153722804 19.0133
39.317230110864074 18.91
39.34087311998506 18.8511
39.36451787301696 18.9459
39.388164371352595 18.8504
39.41199737518003 18.8363
39.43564738196752 18.8132
39.45929913825317 18.7876
39.48295264543308 18.7772
39.506792718520884 18.7566
39.530449745387216 18.6723
39.55410852735203 18.6349
39.57776906581474 18.6323
39.60161623079 18.6608
39.625280300200025 18.5704
39.64894613032202 18.5271
39.67261372255866 18.5892
39.6964680021016 18.4831
39.72013913657293 18.5057
39.74381203738292 18.5395
39.76748670593756 18.4288
39.79134812278169 18.3643
39.81502634488497 18.3952
39.83870633896685 18.3389
39.862388106436654 18.279
39.88625668336918 18.2185
39.90994201572829 18.2688
39.933629125719285 18.1678
39.957503091207826 18.1608
39.9811937746168 18.2181
40.00488623990914 18.1585
40.02858048850006 18.0886
40.05246165409549 18.0448
40.076159487492085 18.0383
40.099859108448875 18.0593
40.123560518384345 18.0049
40.1474489070226 17.9501
40.171153913178564 17.9005
40.194860712584955 17.902
40.2185693066637 17.9146
40.242464941335314 17.7993
40.26617714307655 17.7536
40.289891143772046 17.778
40.3136069448471 17.6988
40.33750984859743 17.6894
40.3612292688043 17.7304
40.3849504936829 17.6439
40.40867352466194 17.6301
40.43258372059144 17.6307
40.45631038219906 17.6501
40.48003885420956 17.5614
40.503769138055105 17.5992
40.52768664931955 17.5765
40.55142057531802 17.503
40.57515631746428 17.4416
40.599079334038514 17.445
40.62281872700477 17.3951
40.64655994043941 17.3429
40.67030297578061 17.3063
40.69423334835778 17.3189
40.71798004609188 17.317
40.74172857006355 17.2444
40.76547892171441 17.3048
40.7894166736039 17.2009
40.813170699248566 17.0796
40.83692655691388 17.105999999999998
40.86068424804498 17.1309
40.884629402612525 17.0765
40.908390779366385 17.0736
40.932153993938 17.0263
40.95591904777605 16.9805
40.979871628443995 16.9864
41.003640379561936 16.9892
41.02741097430883 16.9385
41.05118341413683 16.9562
41.075143444384416 16.9254
41.098919593177826 16.89
41.1226975914255 16.8666
41.14647744058318 16.7962
41.170444943946755 16.7058
41.19422851378379 16.7368
41.218013938914645 16.7001
41.24198706625173 16.6796
41.26577622087193 16.6667
41.289567235177785 16.6692
41.31336011063129 16.5726
41.337340752422875 16.5134
41.361137369129835 16.4621
41.38493585138705 16.5174
41.40873620066004 16.4549
41.43272438060107 16.4871
41.45652848292052 16.4165
41.48033445666918 16.3747
41.50414230331616 16.3721
41.528138045159764 16.3485
41.551949656675205 16.2411
41.575763145513235 16.2503
41.59957851314666 16.2469
41.62358184070442 16.209
41.64740098505737 16.1658
41.6712220126409 16.1105
41.69504492493139 16.1485
41.71905586207357 16.1243
41.74288256296395 16.0487
41.766711153007456 16.0336
41.79054163368412 16.0298
41.814560204340054 16.0508
41.838394485526365 15.9943
41.86223066180303 15.9285
41.88625497706819 15.9089
41.910094962812 15.9555
41.93393684811168 15.9021
41.95778063445365 15.8527
41.981812625263366 15.8102
42.00566023303407 15.7878
42.029509746323676 15.7465
42.05336116662236 15.7144
42.077400857069705 15.6866
42.10125611078846 15.6832
42.12511327600405 15.6988
42.14897235421036 15.6399
42.173019768448455 15.5661
42.19688269209613 15.5729
42.22074753323349 15.5027
42.24461429335818 15.4906
42.268669455600495 15.4977
42.292540073217886 15.4735
42.31641261433284 15.4306
42.34028708044675 15.4423
42.36435001496739 15.4064
42.38822835065557 15.4061
42.41210861586426 15.3244
42.4359908120986 15.3929
42.46006154323262 15.3173
42.48394762115317 15.2572
42.507835634632315 15.2211
42.531912233047436 15.2198
42.55580413732265 15.2072
42.579697981698 15.158
42.60359376768525 15.1441
42.62767820545945 15.0857
42.65157789440821 15.1501
42.67547952952185 15.0539
42.699383112316 15.0596
42.72347541395347 14.98
42.74738291190531 14.945
42.771292362102166 14.9663
42.795203766063516 14.902999999999999
42.819303956130405 14.9239
42.843219287476536 14.8937
42.86713657716324 14.8754
42.89105582671383 14.8603
42.91516392983864 14.7847
42.939087119032166 14.7554
42.963012272677304 14.7493
42.98693939230129 14.7737
43.01105543317513 14.6641
43.034986504731386 14.6481
43.05891954686589 14.6498
43.08285456110972 14.6585
43.10697856448665 14.5985
43.130917542983475 14.5222
43.15485849820081 14.5182
43.17880143167367 14.4854
43.20293342237094 14.5165
43.226880332449 14.4507
43.25082922540554 14.4359
43.27496722682525 14.4588
43.29892010567796 14.4282
43.32287497204102 14.3903
43.34683182745632 14.3253
43.370977859791836 14.3101
43.39493871351105 14.3374
43.41890156092628 14.3102
43.44286640358341 14.3163
43.46702049182749 14.2549
43.49098934522816 14.2135
43.51496019852649 14.1769
43.5389330532723 14.174000000000001
43.56309522248204 14.1412
43.58707210044314 14.1595
43.61105098451946 14.0599
43.63503187626491 14.0366
43.659202151562134 13.998
43.68318707902681 13.9913
43.70717401884041 13.9404
43.731162972560874 13.9561
43.75534137913236 13.9019
43.779334381108384 13.8924
43.803329401683186 13.8919
43.82732644241872 13.883
43.8515130055166 13.8166
43.87551410707659 13.8172
43.89951723350145 13.7884
43.923709934595614 13.7045
43.94771713129917 13.7017
43.97172635758096 13.7299
43.99573761501002 13.700999999999999
44.0199385169922 13.6906
44.04395385732619 13.6225
44.067971233533086 13.671
44.09199064718605 13.6238
44.11619977548961 13.6205
44.14022328470671 13.5508
44.16424883610785 13.5568
44.18827643127035 13.5099
44.21249381139513 13.5178
44.236525514814076 13.4881
44.26055926674478 13.4358
44.28459506876863 13.4353
44.3088207262813 13.3774
44.33286064928722 13.3611
44.35690262714919 13.3447
44.38094666145278 13.3224
44.4051806219871 13.3045
44.42922879003185 13.2997
44.45327901929361 13.2241
44.477331311362136 13.2177
44.501573600619416 13.1581
44.525630039221795 13.1265
44.54968854541895 13.1373
44.573937102200176 13.1379
44.5979997645541 13.097999999999999
44.622064499300315 13.0787
44.64613130803592 13.089
44.67038823869318 13.0805
44.69445921643748 13.0481
44.718532272981385 12.958
44.742607409926194 12.9735
44.76687274034801 12.9323
44.79095205918753 12.9185
44.81503346325094 12.9085
44.839116954143876 12.8713
44.86339071028742 12.8748
44.88747839599524 12.8138
44.91156817336837 12.7807
44.93566004401666 12.7841
44.959942251908146 12.7374
44.984038330325966 12.76
45.00813650686762 12.7269
45.03223678314731 12.7957
45.05652746888232 12.7292
45.08063196592069 12.6197
45.104738567558705 12.6366
45.128847275414856 12.5989
45.15314646515866 12.5624
45.17725940679741 12.5093
45.20137445952892 12.5463
45.22568004865265 12.5034
45.24979934496396 12.514000000000001
45.27392075725247 12.4888
45.29804428714431 12.4065
45.322358426247604 12.4188
45.346486212804315 12.4093
45.370616121861914 12.3742
45.39474815505086 12.3749
45.41907087049246 12.2839
45.4432071734666 12.2927
45.46734560548283 12.297
45.49148616817604 12.292
45.51581748638564 12.324000000000002
45.5399623320197 12.2816
45.56410931325473 12.2008
45.58825843173002 12.1706
45.61259837920865 12.1495
45.636751793816 12.1503
45.66090735060093 12.1479
45.68506505120716 12.059000000000001
45.7094136545275 12.0628
45.73357566449271 12.0454
45.75773982322992 12.0335
45.78190613238733 12.0316
45.806263418194064 11.9581
45.83043404997326 11.9618
45.85460683713677 11.9179
45.87897065658495 11.9432
45.90314777634752 11.9843
45.92732705646868 11.886
45.9515084986045 11.8728
45.97588104735473 11.8159
46.00006683541565 11.8279
46.02425479047904 11.8292
46.04844491420549 11.808
46.0728262191024 11.7913
46.09702070211635 11.7546
46.12121735879483 11.7218
46.14541619080294 11.712
46.169806278764455 11.6632
46.194009483459034 11.640999999999998
46.21821486849841 11.622
46.24242243555223 11.6155
46.266821333570014 11.573
46.29103328674601 11.5623
46.31524742696538 11.5723
46.33946375590237 11.5168
46.36387149104216 11.5177
46.38809221957392 11.4464
46.41231514186606 11.4691
46.436540259597464 11.4441
46.460956858999374 11.4125
46.48518638983522 11.4151
46.509418121166966 11.4025
46.533652054678114 11.3719
46.55807754555709 11.3158
46.58231590571962 11.3401
46.60655647313217 11.3336
46.630988654873654 11.3107
46.655233659129024 11.2238
46.67948087571551 11.2525
46.70373030632484 11.2585
46.72817142736393 11.1958
46.752425308428684 11.2007
46.77668140861147 11.155999999999999
46.80093972960865 11.0705
46.82538981736788 11.065999999999999
46.849652602470904 11.0193
46.87391761349769 11.0134
46.8981848521493 11.0419
46.9226439341274 11.0151
46.946915650573224 10.9835
46.97118959976749 11.0014
46.99546578341598 10.9495
47.019933887188216 10.9428
47.04421456235744 10.9423
47.06849747711879 10.9363
47.09278263318286 10.8605
47.11725978640143 10.8387
47.14154944775105 10.8367
47.165841355555656 10.8255
47.1901355115306 10.7996
47.214621741924994 10.7947
47.23892041698887 10.7724
47.26322134538975 10.755
47.28771440635075 10.7473
47.31201986422527 10.7106
47.33632758061436 10.652999999999999
47.360637557241866 10.6991
47.38513974410611 10.665999999999999
47.40945426407847 10.6129
47.43377104948137 10.6126
47.45809010204344 10.6239
47.48260144275502 10.5616
47.506925052572285 10.5566
47.53125093475548 10.4961
47.55557909103813 10.4974
47.58009961361992 10.4879
47.60443234110732 10.4806
47.62876734791564 10.4856
47.65310463578333 10.4436
47.6776343683373 10.3726
47.7019762413987 10.3632
47.72632040075572 10.3598
47.75066684815169 10.401
47.77520581885936 10.3328
47.799556865477655 10.3147
47.823910205386 10.3368
47.84826584033272 10.2871
47.87281407745551 10.2399
47.89717432569297 10.2643
47.92153687423484 10.2035
47.94609208429692 10.2235
47.97045925671401 10.2354
47.99482873471275 10.1903
48.01920052005013 10.1401
48.04376504619224 10.1236
48.068141469543484 10.1354
48.09252020552573 10.1212
48.11690125590099 10.084
48.1414751266064 10.0341
48.16586082917454 10.0445
48.19024885144316 10.0202
48.2146391951793 10.0161
48.239222439012764 10.0303
48.26361744916137 9.95048
48.28801478610016 9.96145
48.31241445160131 9.911480000000001
48.337007097209366 9.90334
48.36141144338331 9.92028
48.38581812345755 9.8698
48.41022713920929 9.86045
48.434829215320704 9.86435
48.45924292604658 9.85564
48.48365897780325 9.825380000000001
48.50807737237308 9.80591
48.532688907799276 9.79481
48.55711201168574 9.74571
48.581537463754074 9.73732
48.60615611725119 9.75715
48.63058628942721 9.73812
48.65501881516546 9.68099
48.6794536962573 9.67567
48.70408185970339 9.65605
48.72852147531801 9.65056
48.75296345168211 9.61675
48.77740779059232 9.62378
48.80204549302823 9.60324
48.82649458091802 9.57466
48.85094603676547 9.53582
48.87539986237231 9.51913
48.90004713292306 9.50339
48.92450572200832 9.48702
48.94896668628025 9.504710000000001
48.97343002754588 9.47458
48.99808689542115 9.46872
49.02255501470614 9.47384
49.04702551642794 9.431610000000001
49.0714984023988 9.40991
49.096164896893235 9.38759
49.120642575466796 9.361460000000001
49.145122643748394 9.3442
49.16960510355558 9.32292
49.19428125404938 9.31194
49.2187685210852 9.29469
49.243258185121555 9.25942
49.26794160167084 9.24463
49.2924360839405 9.22291
49.31693296869764 9.181389999999999
49.34143225776915 9.18977
49.36612538195438 9.19134
49.39062950396021 9.1856
49.41513603578346 9.17172
49.4396449792564 9.1521
49.46434784069503 9.12947
49.488861631846454 9.08871
49.513377840166804 9.07835
49.537896467493745 9.06943
49.56260909589029 9.041089999999999
49.587132585683285 9.03363
49.611658500018365 9.0339
49.636186840738596 8.98988
49.66090926588511 8.9841
49.685442483902584 8.96335
49.70997813385706 8.89409
49.734516217597076 8.91847
49.75924846937352 8.90508
49.7837914452858 8.89428
49.80833686055187 8.86406
49.83288471702571 8.8448
49.85762682540054 8.83253
49.882179588965734 8.82808
49.9067347993235 8.82742
49.93129245833333 8.782860000000001
49.95604445336378 8.75873
49.98060703442832 8.73436
50.005172069746266 8.7128
50.02993150438364 8.708789999999999
50.05450147301533 8.73134
50.07907390151433 8.70907
50.10364879174981 8.67148
50.12841816587289 8.66242
50.1529980044635 8.610610000000001
50.17758031042124 8.58659
50.20216508562089 8.58747
50.22694442953363 8.562619999999999
50.25153416817468 8.531460000000001
50.27612638170508 8.55838
50.300721072005196 8.5362
50.325510416102105 8.511000000000001
50.350110084975064 8.46112
50.37471223628208 8.499080000000001
50.39931687190919 8.496889999999999
50.424116246675766 8.48452
50.44872587605249 8.46768
50.47333799543065 8.43034
50.49795260670191 8.426219999999999
50.52276204271512 8.37844
50.54738166295838 8.38294
50.57200378079314 8.35904
50.596628398116835 8.34545
50.62144792604559 8.30828
50.646077567609396 8.298
50.670709714377715 8.2961
50.69553683636198 8.269039999999999
50.72017401885922 8.19914
50.7448137122895 8.24966
50.76945591856022 8.25723
50.79429318636823 8.25682
50.818940443716784 8.2075
50.84359021965163 8.21255
50.868242516085964 8.189910000000001
50.893089960641895 8.185960000000001
50.917747323549435 8.12919
50.94240721271973 8.114180000000001
50.96706963007175 8.10798
50.99192728239342 8.06498
51.01659478166073 8.07202
51.04126481489051 8.048910000000001
51.06593738400761 8.03384
51.090805275207074 8.02205
51.11548294172845 8.00884
51.14016314993547 7.97715
51.164845901758845 7.980180000000001
51.18972406304274 7.979189999999999
51.21441192780656 7.95605
51.23910234200271 7.934360000000001
51.2637953075678 7.937869999999999
51.288683770237945 7.89732
51.31338186432707 7.88875
51.33808251561888 7.865539999999999
51.362978729967345 7.8647
51.387684521509755 7.8275
51.41239287610203 7.85418
51.437103795691165 7.79363
51.46201036644977 7.77376
51.486726441956634 7.75931
51.51144508832545 7.798260000000001
51.536166307509156 7.737239999999999
51.56108326624387 7.699210000000001
51.58580965706056 7.668080000000001
51.61053862657523 7.697080000000001
51.635270176746864 7.63731
51.66019755512065 7.66148
51.68493429268881 7.63055
51.70967361681515 7.6539399999999995
51.73441552946465 7.61832
51.759353359237934 7.593789999999999
51.7841004750961 7.59094
51.80885018539685 7.5311699999999995
51.833602492111254 7.521210000000001
51.8585508051424 7.52137
51.883308330926425 7.49815
51.90806845906181 7.44332
51.932831191525715 7.46473
51.95779001977161 7.46453
51.98255798721516 7.42055
52.00732856494335 7.40787
52.03229530577543 7.4078
52.057071130455945 7.39202
52.081849571391054 7.3819300000000005
52.106630630568695 7.3319399999999995
52.13160794279417 7.30595
52.15639426492067 7.35699
52.18118321127822 7.31119
52.205974783860896 7.317489999999999
52.23096269971011 7.28987
52.255759551287994 7.28662
52.280559035098186 7.26123
52.30536115314103 7.256469999999999
52.33035970494467 7.27234
52.35516711807904 7.217689999999999
52.37997717147198 7.23734
52.40478986713005 7.189989999999999
52.42979908731974 7.15537
52.454617094216 7.166110000000001
52.47943774942214 7.14222
52.50426105495102 7.170960000000001
52.529280976059844 7.1386199999999995
52.554109609024096 7.12155
52.57894089837482 7.100230000000001
52.60377484613117 7.071039999999999
52.62880550079408 7.07113
52.65364479223379 7.03216
52.67848674816189 7.02985
52.70352547971946 7.00479
52.72837279155837 6.9867
52.753222773982785 6.99138
52.778075429022984 6.935639999999999
52.80312495150885 6.93566
52.827982978797436 6.95445
52.85284368481815 6.92639
52.87770707160767 6.90672
52.90276741793998 6.91551
52.92763619336701 6.91115
52.952507655698504 6.882460000000001
52.977381806977576 6.88232
53.00245301017842 6.8867
53.02733256653592 6.87033
53.052214817996074 6.8292
53.077099766608484 6.823239999999999
53.102181859804446 6.77774
53.127072229988265 6.75042
53.15196530349892 6.780469999999999
53.17686108239249 6.72215
53.20195409881522 6.73924
53.22685531582556 6.731560000000001
53.25175924441303 6.69055
53.27666588664027 6.710780000000001
53.30176985962693 6.6721
53.3266819565689 6.65888
53.35159677336455 6.63001
53.376514312083096 6.626189999999999
53.40162927507703 6.6135
53.42655228516116 6.5535
53.45147802340193 6.5851
53.47660125628886 6.6162
53.50153247842639 6.57878
53.52646643496923 6.52082
53.55140312799818 6.5231699999999995
53.576537409691696 6.49412
53.60147960336152 6.50384
53.626424539786164 6.48374
53.65137222105307 6.46824
53.67651758529126 6.4450400000000005
53.70147078399681 6.43502
53.72642673383343 6.41425
53.75138543689533 6.42488
53.776541917524526 6.40302
53.801506154876755 6.36281
53.826473151763246 6.331519999999999
53.851442910284916 6.330369999999999
53.87661054126026 6.36076
53.9015858509782 6.333880000000001
53.92656392866066 6.3078199999999995
53.95154477641532 6.295719999999999
53.976723591801296 6.26422
54.00171000771266 6.27011
54.02669920004598 6.2818
54.051691170915745 6.20443
54.076881204886796 6.23497
54.101878760928514 6.2379
54.12687910187696 6.20965
54.152077577768296 6.19152
54.1770835166946 6.180540000000001
54.20209224691339 6.14394
54.22710377055121 6.14825
54.25231352511594 6.12035
54.27733066384342 6.11223
54.30235060239643 6.06586
54.32737334290836 6.00854
54.35259441062629 5.98995
54.377622783395324 6.03257
54.40265396455061 6.01514
54.42768795623251 5.952000000000001
54.45292037169559 5.971369999999999
54.477960012857906 5.98888
54.50300247099511 5.9496199999999995
54.52804774825457 5.94646
54.55329154616743 5.84502
54.57834249018678 5.8230699999999995
54.6033962597977 5.79565
54.6284528571545 5.80014
54.653708072335164 5.792009999999999
54.67877035378786 5.79495
54.70383546947698 5.74008
54.72890342156389 5.71779
54.7541700889442 5.7062
54.77924374251975 5.62054
54.8043202390049 5.646780000000001
54.82959552413022 5.65977
54.8546777351945 5.6311
54.87976279569621 5.531969999999999
54.90485070780914 5.6357
54.930137506558005 5.55239
54.95523115074295 5.5286
54.98032765308844 5.5005
55.005427015775496 5.54954
55.03072536339621 5.54436
55.05583047570572 5.44971
55.080938454927676 5.40672
55.10604930325027 5.37908
55.131359235107396 5.41547
55.15647585066083 5.33252
55.181595341907496 5.26834
55.20671771104285 5.28705
55.232039262617704 5.24132
55.25716741665048 5.2775099999999995
55.28229845518636 5.25429
55.30743238042802 5.16035
55.33276558731939 5.12181
55.357905315183636 5.21133
55.383047936390035 5.16107
55.40819345314859 5.14417
55.433538351073295 5.0484800000000005
55.458689688238415 5.02933
55.483843927614096 5.01967
55.509197623043605 4.99799
55.53435769621134 4.9726099999999995
55.55952067826466 4.94039
55.5846865714265 4.948259999999999
55.61005202069737 4.92577
55.63522376553902 4.9305699999999995
55.66039842818645 4.90895
55.68557601087004 4.90562
55.7109532500271 4.85072
55.73613670233794 4.85755
