TT I
1.2716486653135266 7.6489899999999995
1.2939594142134223 7.0407
1.3162702121660406 6.66397
1.3385810600174564 6.25897
1.3608919586137629 7.11383
1.383202908801069 6.11564
1.405513911425503 6.147419999999999
1.4278249673332093 5.65874
1.4501343378461518 6.27117
1.4724455028545926 6.109430000000001
1.4947567236847858 5.85545
1.517068001182951 6.061719999999999
1.5393793361953272 5.59546
1.5616907295681737 6.17929
1.5840021821477681 5.32484
1.60631369478041 5.02845
1.6286252683124185 4.97898
1.6509369035901333 4.86378
1.6732468618895553 5.185919999999999
1.695558623192809 4.7891900000000005
1.7178704487808514 4.79407
1.7401823395001077 5.05614
1.7625012545597203 4.78306
1.7848028405262486 4.8787400000000005
1.8071218901122095 4.75097
1.8294236121921872 4.680680000000001
1.8517427996910911 4.81773
1.8740620574440425 4.52613
1.8963639900671978 4.31771
1.9186833908139995 4.35418
1.9409854680117449 4.18715
1.9633050151394713 3.97709
1.9856246367570705 4.28218
2.0079269371922672 4.43009
2.03024671027244 4.76699
2.0525491637446027 4.41308
2.074869091674931 4.2382599999999995
2.097171701569106 4.23395
2.1194917877373847 4.81215
2.141811954326636 4.94381
2.164114805233074 4.8449599999999995
2.186435135143035 4.948840000000001
2.208738150935709 7.63612
2.231058647554722 13.5422
2.2533792288321184 10.436
2.275682498336085 7.094939999999999
2.298003251406138 5.92673
2.3203066942619714 5.66366
2.3426276225136022 5.494330000000001
2.3649486396617507 5.52011
2.387252348930071 6.32486
2.4095735463442893 5.99295
2.4318774374315884 6.17746
2.4541988185014043 6.4288099999999995
2.476502894794693 6.94417
2.498824462909887 7.0628899999999994
2.521146125856138 7.57448
2.5434504863470337 7.612889999999999
2.5657723414244717 8.24879
2.588076895590662 8.94487
2.610398946189713 8.180719999999999
2.6327210958598384 8.22362
2.6550259469304716 7.8071399999999995
2.6773482972090137 8.302019999999999
2.6996533504259 8.44806
2.7219759047039602 8.01661
2.744298562293959 7.91248
2.7666039251246595 7.588019999999999
2.7889267918020164 8.27702
2.8112323652516555 8.7428
2.833555444408179 8.79227
2.8558786311183852 7.88077
2.8781845268938557 8.47161
2.9005079311721484 9.4389
2.9228140460410397 9.29082
2.9451376712799635 9.370619999999999
2.967444008632326 9.56265
2.9897678582247247 10.0729
3.0120918213106695 10.437999999999999
3.0343984987899373 10.606
3.0567226913198637 11.0479
3.079029599759726 11.4268
3.101354025127254 12.4777
3.123678568232338 13.0424
3.145985829517914 13.2673
3.16831061055229 13.7349
3.1906181112775593 14.3601
3.212943133635653 14.9736
3.2352682779763207 15.1075
3.2575761442691227 15.7499
3.2799015350264273 15.6529
3.302209649240067 16.39
3.3245352898092655 16.8699
3.3468436553365257 16.7687
3.369169549113219 17.6261
3.3914955708171384 18.4336
3.413804319727358 18.5752
3.4361305997334863 18.8691
3.4584396084414553 18.9975
3.4807661501462652 19.7166
3.503092824025881 20.8161
3.5254022288463154 21.0497
3.5477291695206588 21.4741
3.5700388426251948 22.0351
3.5923660534916446 23.0949
3.6146934007816114 28.7164
3.637003482731501 45.5603
3.6593311053109985 49.1899
3.681641464033634 35.2354
3.7039693653009733 26.1094
3.726297407241705 24.8607
3.7486081875460804 24.9612
3.7709365132734978 25.1015
3.793247578841633 26.3064
3.8155761917550093 26.5464
3.8378875459837216 26.4925
3.8602164494827234 26.8515
3.882545499606844 28.0063
3.9048572932539183 28.4332
3.9271866390645718 28.3686
3.9494987298666713 29.5574
3.971828374764527 29.8054
3.9941581705403255 30.6641
4.016470713506008 31.0225
4.038800813471445 31.5499
4.061113662089144 31.8673
4.0834440696459176 32.6826
4.105774632334751 33.1664
4.128087945865126 33.7495
4.150418821249301 34.4846
4.172732448931298 35.3551
4.195063640413578 36.3315
4.2173775856475215 39.2408
4.239709096631102 52.4443
4.262040768704612 111.277
4.284355196706267 137.298
4.306687193387355 96.46799999999999
4.329001947444346 55.0446
4.35133427213731 43.8081
4.373666762177566 42.8909
4.395982011761091 43.2992
4.418314834921175 44.2885
4.44063041906622 47.4622
4.4629635787515625 52.0687
4.4852969080429785 52.9491
4.5076130004776225 52.1153
4.529946671403969 57.2202
4.552263106909177 62.3445
4.574597122877047 58.3593
4.596931312711224 54.583999999999996
4.619248269273446 53.3799
4.6415828092605835 54.1399
4.663900117405352 55.0119
4.686235010953232 56.0615
4.708552674085913 57.6
4.730887924602802 59.5021
4.753223354952695 61.4701
4.775541557023902 65.4156
4.797877349456786 69.1122
4.820195915032126 69.1018
4.842532072957498 68.4577
4.864868414979744 70.6055
4.88718753227192 75.1635
4.909524244902505 76.8882
4.931843734218147 76.4086
4.954180820867835 78.0696
4.976518095879839 80.743
4.998838149695359 83.273
5.021175803844231 86.8855
5.043496238205739 89.785
5.065834274903528 94.4987
5.088172504230693 99.0526
5.1104935158799565 105.88600000000001
5.132832132875765 125.958
5.155153533596801 154.966
5.1774925416746225 196.715
5.199814334878411 402.978
5.2221537374521505 1022.07
5.244493338631803 2871.78
5.266815727034316 7963.2
5.289155727832427 12361.1
5.311478517248165 8184.0
5.333818921080011 2462.13
5.356159527788849 478.82
5.3784829252032536 193.615
5.400823940070432 153.415
5.423147747031976 130.274
5.445489173474152 120.031
5.467830807066149 119.984
5.490155234831516 120.71799999999999
5.512497285125229 112.714
5.534822130975162 105.525
5.557164601388673 101.618
5.579489868738879 98.7063
5.601832762690846 96.9218
5.6241758697774475 96.2346
5.646501775867269 95.6128
5.668845311622074 94.815
5.691171647754637 93.413
5.713515615597765 92.5489
5.735859800852677 92.4942
5.758186788542988 94.7873
5.780531411018185 98.9556
5.802858837297399 99.1229
5.825203900414495 99.0811
5.8475491852224 102.74
5.869877275883075 102.54799999999999
5.892223006467101 97.0716
5.914551544266608 94.9887
5.936897724049891 96.994
5.959244129804903 104.215
5.981573344815301 132.313
6.0039202049061 241.237
6.026249875609095 474.839
6.04859719346037 969.322
6.070927323278297 2301.29
6.093275102315365 4559.74
6.115623113320588 5262.88
6.137953938319995 3015.72
6.160302415650845 837.102
6.182633708324452 199.266
6.2049826554078376 106.77799999999999
6.227331838745022 88.9014
6.249663839443684 82.7957
6.27201349767565 79.5055
6.294345974611799 80.3166
6.316696111167083 82.6557
6.339046488263839 79.6623
6.361379686074702 73.642
6.383730546639482 70.0271
6.406064229255215 69.8172
6.428415576718203 71.1567
6.450749747566656 69.5483
6.47310158535871 66.8638
6.495453669698332 64.8175
6.517788579421056 63.6584
6.540141159237969 62.979
6.562476565766648 62.2661
6.5848296444934045 62.283
6.607182974060425 62.623000000000005
6.6295191323281015 62.4275
6.651872965955752 62.8779
6.6742096296068985 71.3112
6.6965639707294615 86.0552
6.71891856698715 84.7436
6.741255995248479 70.3939
6.763611104154477 61.1765
6.785949046381137 58.5137
6.808304671371482 59.0806
6.8306605557940046 61.0875
6.852999275508618 59.9549
6.875355681171544 58.0751
6.897694923437771 56.4649
6.92005185377892 55.9922
6.9423916220322655 55.8309
6.964749080490181 54.9536
6.987106804399774 55.3753
7.009447368180821 56.0358
7.031805625367033 55.7284
7.054146723727803 54.8569
7.076505517631004 54.596000000000004
7.098864581288365 54.2703
7.121206488070854 54.3843
7.143566093607822 54.6569
7.165908543567245 55.6221
7.188268694426048 55.7379
7.2106291193438095 55.4199
7.232972390625943 54.7166
7.255333366030969 59.3164
7.277677189091925 77.2714
7.300038718428332 92.4887
7.322400526130865 84.2928
7.344745183422596 65.2053
7.367107550224791 56.2658
7.389452767901992 54.3708
7.411815697249891 53.7094
7.434161478756298 53.1686
7.456524974096713 53.161
7.478888753837185 52.906000000000006
7.501235387657368 53.6219
7.523599738562711 53.7103
7.545946944825532 54.159
7.568311870344528 54.3496
7.5906770845765665 54.4478
7.613025156078678 54.7932
7.635390950099687 55.8061
7.657739602662809 55.4924
7.680105979923558 55.7409
7.702472650212829 56.9061
7.724822180948224 56.3908
7.747189439655568 56.1604
7.769539560075357 55.6092
7.791907410653562 55.6246
7.81425812420825 55.8371
7.836626570110925 55.8943
7.858995315087906 56.9503
7.881346924933401 57.2064
7.903716270417482 57.5655
7.926068482028405 58.151
7.948438431475253 58.6059
7.9708086843180235 59.1353
7.993161805171116 59.8675
8.015532667162402 60.4209
8.037886398416653 61.7156
8.060257873014221 62.5001
8.082629655331942 62.9865
8.104984308787587 64.0014
8.127356708900503 66.1215
8.149711981398308 70.5422
8.172085002766314 72.5585
8.194458336181368 70.6729
8.216814543847752 68.4931
8.23918850371002 68.816
8.26154533906492 69.618
8.283919928836452 71.3798
8.306277395339652 72.1448
8.328652618483376 73.3892
8.351028159736202 75.5621
8.373386579575245 77.6996
8.395762759396959 79.892
8.418121819038275 83.2976
8.440498640894003 90.3719
8.462875785192262 101.58200000000001
8.485235811156207 127.051
8.507613602688501 178.30700000000002
8.529974277114228 259.711
8.552352719347912 383.525
8.574731488360351 662.325
8.59709314210385 1223.68
8.619472567021075 1950.35
8.64183487789147 2212.47
8.664214962183097 1744.14
8.686577933647762 833.683
8.708958680784317 313.58799999999997
8.731339760774953 146.85
8.753703729764451 106.087
8.77608547780821 96.7463
8.798450116065078 93.4525
8.820832535634787 91.6198
8.843215292401656 92.3121
8.865580941199045 92.2958
8.887964374703538 92.0101
8.910330701447199 92.1851
8.932714815164482 91.9896
8.955099270424924 89.2646
8.977466620733543 86.3074
8.999851761421976 84.7332
9.022219798361645 83.9456
9.04460562795561 83.4486
9.066991803441677 83.4372
9.089360876979615 83.7323
9.111747746589993 83.4665
9.13411751544971 82.5395
9.156505082664324 81.3763
9.178875550323522 81.1668
9.20126381862328 81.63
9.223652438908596 81.6959
9.246023961427412 81.6487
9.26841328802173 81.3934
9.290785518039224 82.0697
9.313175554425882 84.6769
9.335565947154315 86.5721
9.357939245086508 86.7584
9.380330352834827 86.4202
9.40270436697103 86.1322
9.425096193225055 85.2875
9.447488380180165 84.6113
9.469863475295412 84.2388
9.492256385987508 84.655
9.514632206018318 85.1224
9.537025843935714 84.85799999999999
9.559402392368193 86.5302
9.581796761000229 88.9755
9.604191496441521 91.7926
9.626569144158516 94.7509
9.648964615551032 95.5209
9.671343000390081 95.0552
9.693739211225699 93.2037
9.716135793237463 92.147
9.738515290448102 92.7364
9.760912617143402 94.2162
9.783292860202891 97.1066
9.805690935076182 98.9486
9.828089385495742 99.9282
9.850470754023561 100.758
9.872869957865444 103.825
9.89525208097539 110.431
9.917652041736662 117.259
9.940052382417589 125.492
9.962435644102392 151.096
9.984836746950979 190.43400000000003
10.007220771957746 247.176
10.029622640473708 345.66
10.052007432299963 524.629
10.074410069984072 841.273
10.096813093716005 1320.19
10.119199042482517 1826.07
10.141602840636468 1970.62
10.163989564971628 1504.62
10.186394141051062 809.9019999999999
10.208799107559706 350.756
10.231187001965623 169.97799999999998
10.253592751657669 119.936
10.275981430388155 110.53299999999999
10.298387966769793 108.375
10.320794897965431 108.5
10.343184759907361 106.865
10.36559248305461 104.416
10.387983138083852 104.476
10.410391656691655 110.77799999999999
10.432800574501677 121.648
10.455192425893369 136.127
10.47760214443012 162.514
10.499994797678786 209.783
10.522405320453982 296.969
10.54479877906917 431.142
10.567210109595656 540.107
10.5896218454736 586.1419999999999
10.612016518879773 493.624
10.634429067781074 321.422
10.656824555333241 183.84400000000002
10.679237920773568 115.949
10.701651695961992 93.8155
10.724048411481384 88.1655
10.746463008485165 85.1981
10.768860546937125 83.8247
10.791275969274796 82.2345
10.81369180576079 81.3769
10.836090585366925 80.4604
10.858507252467449 79.2387
10.88090686379991 78.0962
10.903324365036394 77.7569
10.925724811614439 77.3411
10.948143150509463 78.2081
10.970561909719066 77.8454
10.992963615930844 76.8087
11.015383218085756 74.7516
11.037785768347074 73.1259
11.06020621697282 72.0972
11.082627090322113 71.5889
11.105030913430326 70.7312
11.12745263854165 70.5693
11.149857314510728 71.2648
11.172279894912576 73.1824
11.194702904450653 73.03
11.217108866490921 71.1204
11.239532736615194 69.4206
11.26193956033512 68.5765
11.284364294577085 67.6247
11.306789462371718 66.6938
11.329197585398376 66.0898
11.351623622610898 66.5844
11.37403261614354 65.5929
11.396459526308487 65.3949
11.418869393879497 65.1111
11.441297180532617 64.4981
11.463725406927658 64.1193
11.486136592353875 64.0717
11.508565700543707 64.1801
11.530977768845315 64.8779
11.553407762368774 64.3993
11.575838200059769 64.2753
11.598251599479612 63.4009
11.620682927815501 62.7851
11.64309721895548 62.6725
11.665529441478206 62.4699
11.687962112597958 62.1188
11.710377748130886 62.348
11.732811318753434 62.2749
11.755227854859067 62.1333
11.777662328529495 62.1619
11.800079768750786 61.8672
11.822515149015453 62.2303
11.844950984084935 62.3575
11.867369787303163 62.0307
11.889806534289491 61.891000000000005
11.912226250487029 61.9835
11.934663912939751 62.2227
11.9571020346363 62.6048
11.979523127133968 62.7173
12.001962169624331 63.9553
12.024384183972964 65.3889
12.046824150809913 68.4353
12.069264581333726 72.5428
12.091687985297767 77.6284
12.11412934550045 86.9702
12.136553680195208 103.664
12.158995973632788 128.887
12.181438735204349 161.887
12.20386447284199 194.903
12.226308172985636 215.76
12.24873485024193 201.767
12.271179492516982 162.467
12.293607112949127 117.04799999999999
12.316052700916226 85.9511
12.338498763250042 71.2495
12.360927805303868 65.8673
12.383374818673879 64.1255
12.405804812803074 63.3305
12.428252780773262 63.5728
12.45070122756722 63.2865
12.473132656675375 63.8406
12.49558206341869 64.2147
12.518014453510101 64.4476
12.540464823770117 64.4873
12.562915677315177 64.3796
12.58534951575545 64.5053
12.607801338171472 65.1342
12.630236146511358 67.4227
12.652688941369085 69.0802
12.675124723177234 69.5036
12.697578494048786 68.6471
12.720032754458185 67.3128
12.742470003354093 66.9994
12.764925245138771 66.7896
12.787363476431278 67.0925
12.809819703166806 67.9947
12.83227642391173 68.7638
12.854716135692716 69.2951
12.877173846755147 70.6112
12.899614549869717 70.8557
12.9220732548287 71.8536
12.94453245827299 72.3608
12.966974655289818 73.5053
12.989434858002571 74.2824
13.011878055298721 74.5516
13.034339260862497 75.4377
13.056800969391883 77.025
13.079245674017244 79.9741
13.101708390774869 84.3369
13.12415410463411 92.1685
13.146617833206086 101.376
13.169064559883248 111.501
13.191529303857127 126.027
13.213994557076367 149.83100000000002
13.236442809902437 189.40599999999998
13.258909083908291 249.627
13.28135835851934 315.81
13.30382565690295 392.93300000000005
13.326293469022952 425.80800000000005
13.348744283242008 411.894
13.371213125129904 329.79
13.39366497011003 233.301
13.416134845360597 155.754
13.438605238843131 116.887
13.46105863690397 104.94
13.483530069144786 105.693
13.505984506951902 109.977
13.528456981549432 120.14399999999999
13.550929978879088 135.637
13.573385983253365 161.66899999999998
13.595860028340867 201.667
13.618317081455832 258.96
13.64079217790333 318.995
13.663250283359057 366.749
13.685726434770173 378.37699999999995
13.708203115221277 328.212
13.730662806148091 246.495
13.75314054697177 168.577
13.775601299246777 117.975
13.798080104050406 93.2477
13.820559442405358 83.7025
13.843021793671388 80.60300000000001
13.865502201420897 79.2706
13.887965623051947 78.9095
13.910447103807167 77.9688
13.932929122629764 76.4778
13.955394156785959 76.077
13.977877254034569 75.0345
14.000343367582113 74.1213
14.022827546871707 73.8049
14.045294743423524 73.0209
14.06778000837062 72.3279
14.090265817715476 72.1527
14.112734645763819 71.7188
14.13522154619454 71.2083
14.157691466286913 71.1659
14.180179461423874 70.8778
14.202668005486178 70.1659
14.22513957064374 70.0371
14.247629214846473 69.6902
14.270101881097517 69.1074
14.29259262906496 69.2454
14.315083930490205 69.6634
14.337558255389705 69.5443
14.360050666019726 69.3557
14.382526101071944 68.8819
14.405019624534942 68.6024
14.427513705993134 68.2722
14.449990813291825 68.331
14.47248601302899 68.087
14.49496423954951 68.459
14.517460561197822 68.308
14.539939910570322 68.0
14.562437357763558 68.2058
14.58493536931253 68.8859
14.607416409993311 69.1189
14.62991555254159 69.6748
14.652397725157423 69.5987
14.674898002342799 69.8603
14.697398848433282 70.1163
14.719882725991326 71.5665
14.74238471217934 73.5437
14.764869730765593 76.9938
14.787372860692983 78.9954
14.809876564079925 82.9661
14.83236330125751 88.7834
14.854868153850365 97.6353
14.877356041159485 111.962
14.899862046604186 132.84
14.922351087688757 160.045
14.944858249632887 190.247
14.967365991421232 218.27900000000002
14.989856770231246 228.56099999999998
15.012365673994204 219.09400000000002
15.03485761569738 185.891
15.05736768508665 139.514
15.07987833888692 106.891
15.102372032001655 85.6018
15.124883856909658 74.5565
15.14737872204565 70.9486
15.169891721717274 69.76100000000001
15.192405310371893 69.2975
15.214901940621196 69.2501
15.237416709527137 68.7809
15.259914520936249 68.8523
15.282430473753607 67.9124
15.304947020131227 67.0495
15.327446610371178 66.6854
15.349964346154254 66.4544
15.372465126703139 66.1194
15.394984055556009 65.9536
15.417486030076159 65.7741
15.44000615566487 65.2648
15.462526881230803 65.1914
15.485030653812652 65.1121
15.507552581617434 64.9743
15.530057557334603 64.9958
15.55258069104857 65.0886
15.575104429329837 65.3264
15.597611216864632 65.3811
15.620136166564563 66.1182
15.6426441664095 67.808
15.665170331202765 69.9734
15.687697105158826 72.5941
15.710206930593545 75.3509
15.732734925158933 79.274
15.755245972089478 85.9003
15.77777519094324 95.6498
15.800287463046663 109.869
15.822817909869592 130.025
15.84534897229804 152.952
15.867863089299354 178.21900000000002
15.890395385222186 195.332
15.912910736597423 196.97
15.935444269699861 179.06599999999997
15.957978423016485 146.921
15.980495633101265 113.056
16.003031029129367 88.7021
16.02554948280019 72.2336
16.048086125229432 65.382
16.070623392487107 63.2744
16.09314371869582 62.1771
16.11568223789321 61.3215
16.13820381691126 60.7883
16.160743591742527 60.1999
16.183283996022084 59.4239
16.205807461423195 58.5989
16.228349126881973 58.108000000000004
16.25087385432698 57.9055
16.27341678466365 57.4671
16.29594277784926 57.4205
16.31848697676433 57.3736
16.341031811604868 57.0281
16.36355971058487 56.958999999999996
16.3861058195587 56.8041
16.40863499352978 56.0332
16.431182380342005 55.7063
16.453730407713202 55.4648
16.476261501364792 55.26
16.498810812136167 54.8311
16.52134319004079 54.8274
16.54389378792203 54.8573
16.566445031001553 54.5934
16.588979342490088 54.555
16.61153187824822 54.4448
16.634067483263312 54.2044
16.656621315414416 54.0752
16.679175797408888 53.8833
16.701713349928728 53.9974
16.72426913389191 54.3193
16.74680798922351 54.0561
16.76936507887444 53.9985
16.791905240734874 54.1926
16.814463639794468 54.0786
16.837022695210294 54.2525
16.859564824093756 54.3092
16.882125194503903 54.4531
16.904668639217885 54.8453
16.927230328348003 54.8484
16.949792678493612 55.0959
16.972338104193863 54.8741
16.994901778652235 54.9098
17.017448529496576 55.3312
17.040013531998152 55.5291
17.06257920018044 56.0115
17.0851279459922 56.7514
17.107694947817667 57.4509
17.130245028099072 58.2335
17.15281336730298 59.6318
17.17536478578733 61.25
17.19793446610687 63.5451
17.220504818648422 66.9485
17.243058251703697 70.4332
17.265629950971032 75.2682
17.288184731571736 80.1841
17.310757781306908 83.7106
17.33333150794385 83.5582
17.355888317140174 80.682
17.37846339986244 74.8683
17.401021565958885 68.3781
17.42359800851343 63.3449
17.44617513265564 60.5927
17.468735341390783 59.0895
17.491261035594565 58.4149
17.51396340099364 58.3743
17.536490463869136 58.7254
17.559018209820174 58.6349
17.58154663977963 58.7556
17.604251766089718 58.8146
17.626781572227713 58.9414
17.64931206518155 59.2032
17.671843245885103 59.7144
17.69455114821572 59.8511
17.717083712612634 60.0764
17.739616967569667 60.3598
17.762150914021706 60.7689
17.78486160749854 60.9083
17.807396945166804 61.9151
17.829932977143503 63.1719
17.85246970436452 64.6442
17.875183204129467 66.1098
17.897721330097664 68.0208
17.920260154126645 70.3252
17.942799677153296 73.1926
17.9655159983646 77.2118
17.988056927677544 82.9768
18.010598558807683 91.5595
18.033140892692916 102.086
18.05586005052525 113.60799999999999
18.07840379824407 125.775
18.10094825154059 136.092
18.12366954819864 141.8
18.146215420998306 137.601
18.16876200220057 126.815
18.191309292745153 111.84299999999999
18.214033452627167 98.8124
18.236582170236648 88.6581
18.259131600016456 84.5519
18.281681742907335 86.0455
18.304408781233683 90.8979
18.32696035875955 96.9364
18.349512652227624 102.069
18.372065662579683 105.412
18.394795594587553 105.13
18.41735004715306 99.804
18.43990521943684 91.3744
18.46246111238171 82.22200000000001
18.485193953325208 73.8636
18.507751296070428 67.5516
18.530309362314178 64.2711
18.552868153000343 62.4729
18.57560391815056 61.3749
18.59816416623245 61.0521
18.620725141597372 60.5135
18.643286845190268 59.9995
18.666025549835414 59.6724
18.688588718427933 59.246
18.711152618092243 58.8906
18.73389353884365 58.6901
18.75645890921984 58.3099
18.77902501351406 57.8667
18.801591852673102 57.9643
18.824335739722738 57.5122
18.846904057212626 57.4502
18.8694731124168 57.2686
18.89204290628315 57.1679
18.914789774966803 57.0229
18.937361054791623 56.628
18.959933076131318 56.606
18.982505839934877 56.4845
19.00525570560582 56.4114
19.027829963004184 56.17100000000001
19.05040496572238 56.5882
19.072980714710468 56.6956
19.095733592739563 56.8163
19.11831084296757 56.645
19.140888842324735 56.9057
19.16346759176222 56.9863
19.18622349753803 57.578
19.208803755869358 58.607
19.231384767143577 59.9526
19.253966532312948 61.4487
19.276725481241822 63.9418
19.29930876296784 66.7924
19.3218928014549 69.6328
19.34465404436217 72.5042
19.36723960516257 75.1391
19.389825925592426 75.2611
19.412413006605938 73.8433
19.43517731967805 69.4959
19.457765930683355 65.1647
19.48035530514408 60.9351
19.50294544401556 57.6666
19.525712842708348 55.2621
19.54830451925909 54.3297
19.570896963095727 53.5588
19.593490175174704 53.2401
19.616260674962184 53.2079
19.638855432416964 52.8814
19.661450960992624 53.1042
19.68404726164677 52.8928
19.706820878021247 52.7003
19.729418731756834 52.8886
19.752017360452857 52.8587
19.77461676506804 53.0558
19.797393513540218 53.0351
19.819994478951667 53.4309
19.84259622316767 53.7688
19.8651987471481 54.2372
19.887978643247177 54.2928
19.91058273574792 54.8781
19.933187610901943 55.727
19.955969879466828 56.9121
19.97857632894404 58.4873
20.00118356396599 60.4333
20.023791585494575 62.6696
20.046577028914875 65.4607
20.069186632506966 67.9371
20.091797025500632 69.7167
20.114408208858933 70.0085
20.137196842715273 69.0878
20.159809615886765 66.9283
20.18242318232135 64.3316
20.20503754298326 62.1777
20.227829382875154 61.327
20.250445341109344 61.6836
20.27306209647285 62.698
20.29567964993108 64.0888
20.31847471147704 64.9593
20.34109387027612 65.3569
20.363713830075454 64.6158
20.386334591841646 62.4592
20.409132890679302 59.9816
20.431755265564437 56.8251
20.454378445325528 54.2074
20.477002430930366 52.5686
20.499803982716553 51.2797
20.522429589228004 50.7046
20.54505600449589 50.1127
20.567683229489194 49.9946
20.590488049900088 49.9553
20.61311690359731 49.559
20.63574656993626 49.3047
20.658553853717297 49.0988
20.681185154618298 49.0866
20.703817271080066 49.0075
20.72645020407368 48.5943
20.749260783967177 48.6715
20.771895359337133 48.4366
20.794530754161617 48.4941
20.817166969412938 48.4926
20.83998086114876 48.4202
20.86261872660049 48.233000000000004
20.885257415405402 48.3482
20.90789692853701 48.2141
20.930714147864748 47.9637
20.953355319030678 48.2209
20.97599731745334 48.3399
20.99864014410749 48.0322
21.021460706796564 47.9014
21.044105199328826 48.1754
21.06675052302631 48.5424
21.089396678865015 48.6175
21.112220600704806 48.9126
21.134868430275347 49.4184
21.15751709492456 49.754
21.180166595629693 49.9511
21.202993892429635 50.4785
21.22564507473034 50.8764
21.24829709602816 51.1641
21.27112693608965 50.9744
21.293780644891275 50.8271
21.316435195634053 50.0341
21.339090589297417 49.2332
21.361923832041875 48.7886
21.384580921090404 48.428000000000004
21.407238856007325 48.0516
21.429897637773326 47.9327
21.45273429906592 47.8909
21.475394784108598 48.0502
21.498056118951983 47.8468
21.520718304578022 48.0455
21.543558400304388 48.3125
21.566222297108816 48.4755
21.58888704765135 48.6213
21.61155265291521 48.8819
21.63439619898156 49.3547
21.657063523335786 49.5279
21.67973170537063 49.8351
21.7024007460706 50.4594
21.72524775840385 51.1272
21.747918526116475 52.4142
21.770590155457388 53.7953
21.79326264741238 55.4426
21.816113141960237 57.403
21.838787368860547 58.9625
21.861462461341976 60.9426
21.884315579735777 62.9186
21.90699241312273 63.7814
21.92967011506078 64.0228
21.95234868653799 63.3269
21.9752053151131 61.824
21.997885635446785 59.7554
22.020566828293532 57.823
22.04324889464272 56.4697
22.066109049404666 55.7407
22.088792872571794 55.551
22.111477572219204 55.6569
22.1341631493376 55.7564
22.157026846313123 55.3711
22.179714188221507 54.2428
22.202402410582668 53.3384
22.22509151438863 51.8666
22.24795876962584 50.3957
22.270649646204486 49.6371
22.293341407213727 49.0773
22.316034053646906 48.7592
22.338904883215342 48.4746
22.36159931041458 48.4602
22.38429462602756 48.3641
22.40699083104897 48.1883
22.429865251039757 48.1836
22.452563244831367 48.1861
22.47526213102522 48.153
22.49813925616515 48.2146
22.520839937143307 47.9524
22.543541513520587 47.9898
22.56624398629403 48.0533
22.589124730075895 48.1149
22.611829005656723 48.2561
22.63453418063466 48.283
22.657240256008077 48.4581
22.680124634582935 48.6656
22.70283252079775 48.8498
22.725541310413075 49.1439
22.74825100442868 49.1583
22.771139033969575 49.7141
22.79385054687155 49.9552
22.81656296718292 50.7883
22.83927629590484 51.7928
22.862167992606945 52.8251
22.88488314827121 53.8301
22.907599215359284 55.0245
22.93031619487366 56.0547
22.953211574954405 56.8673
22.975930389478226 57.3647
22.998650119445763 57.5903
23.02137076586092 56.4632
23.044269845560063 54.9732
23.06699233506288 53.2847
23.089715744034912 51.5641
23.112617610931565 50.2409
23.135342869061212 49.1259
23.158069049684816 48.4743
23.1807961538087 48.2791
23.20370174880544 48.1309
23.226430710184808 48.2748
23.249160598093425 48.3098
23.271891413539002 48.2534
23.294800752937697 48.3223
23.31753343374794 48.7416
23.340267045128353 48.5109
23.36300158808808 48.9567
23.38591468821339 49.2087
23.408651104658304 49.7175
23.431388455719986 50.4248
23.454126742409 51.3257
23.4770436196085 52.4238
23.499783787914662 53.7944
23.522524894889884 54.8816
23.54526694154616 56.1603
23.56818761219047 57.0899
23.59093154860734 57.5045
23.613676427751283 57.5053
23.636422250635754 56.0943
23.659346731118656 54.287
23.68209445191868 52.3971
23.704843119509587 50.3476
23.72759273490623 48.608999999999995
23.750521041644767 47.36600000000001
23.77327256312355 46.5057
23.796025035462787 45.8827
23.818956224555475 45.5143
23.841710609113413 45.4997
23.86446594758979 45.2397
23.887222241002014 44.9528
23.910157285144578 44.763999999999996
23.932915498962537 44.7545
23.955674670778713 44.4714
23.978434801611975 44.1962
24.001373717286125 44.2731
24.024135776723917 44.0894
24.046898798245582 44.0026
24.06966278287146 43.9472
24.092605586582614 43.7591
24.115371508023642 43.6275
24.1381383956401 43.6766
24.16090625045381 43.5681
24.183852958731244 43.4147
24.206622758582608 43.2736
24.229393528706886 43.1439
24.252165270127392 43.1823
24.27511589952438 43.132
24.297889594216997 43.0375
24.32066426328598 42.7606
24.34343990775613 42.8415
24.36639447485003 42.6955
24.38917208083877 42.5343
24.41195066531332 42.5416
24.43490819850244 42.7491
24.457688750692377 42.653999999999996
24.48047028445616 42.5463
24.503252800821233 42.5995
24.526214300784112 42.6445
24.548998793132213 42.7286
24.57178427117417 42.5849
24.59457073593893 42.6272
24.617536219319863 42.5222
24.64032466834748 42.4656
24.663114107195035 42.3713
24.685904536893013 42.0988
24.708874020360852 42.0163
24.731666442613744 41.847
24.754459858818787 41.7446
24.777254270007962 41.8382
24.80022777025625 41.7948
24.82302418230472 41.9557
24.845821592443674 41.8584
24.86862000170663 41.881
24.891597535453727 41.7191
24.914397953892728 41.8698
24.93719937456671 41.8686
24.96000179851076 41.9522
24.98298338249997 42.1135
25.00578782394922 42.4799
25.028593271784167 42.3784
25.05157790644186 42.5914
25.07438537804115 42.8774
25.097193859145293 43.1897
25.120003350792075 43.5183
25.142992065061257 43.7419
25.165803588823465 43.9215
25.18861612625217 44.041000000000004
25.211429678386736 44.261
25.234422489079968 44.4547
25.257238081693636 44.3795
25.280054692141732 44.497
25.3028723214652 44.4926
25.325869245420463 44.5199
25.348688923599397 44.4324
25.371509623787006 44.498999999999995
25.394331347025812 43.926
25.41733240110666 43.56399999999999
25.440156181590016 42.8653
25.46298098826268 42.3265
25.48580682216873 41.7004
25.50881202326435 41.3702
25.53163992281684 40.9002
25.55446885274561 40.6526
25.577298814096377 40.5306
25.600308179121807 40.3429
25.623140214533745 40.4677
25.64597328451537 40.2297
25.66898578564376 40.1075
25.691820936010206 40.0568
25.714657124097695 40.1136
25.737494350954734 40.2007
25.760511045684957 40.0177
25.783350361364224 40.0735
25.806190718969255 40.0203
25.82903211955018 40.2025
25.852053024868923 40.2567
25.874896522722523 40.2674
25.897741066713106 40.2464
25.920586657892454 40.3792
25.943611790812668 40.5318
25.966459487728237 40.6294
25.989308234998564 40.6515
26.01215803367705 40.9461
26.03518741123814 41.1453
26.05803932412957 41.3126
26.080892291600094 41.1793
26.10374631470478 41.2518
26.12677995397268 41.3638
26.14963609978026 41.0414
26.172493304397875 40.8742
26.19535156888223 40.5761
26.218389486949604 40.2736
26.241249882640123 40.0245
26.26411134137826 39.7981
26.28715248187403 39.9038
26.31001607820869 39.6909
26.3328807407756 39.5727
26.35574647063438 39.7292
26.37879191991473 39.5887
26.401659795896734 39.4841
26.424528742360263 39.7524
26.447398760366614 39.9325
26.470448535598294 40.2251
26.49332070826805 40.3469
26.516193955675355 40.7218
26.53906827888316 40.9026
26.562122397260108 41.0798
26.584998883685063 41.3426
26.607876449110325 41.6556
26.63075509460056 41.692
26.65381357334404 41.8386
26.67669439061878 41.8861
26.699576291163382 41.573
26.722459276044212 41.4886
26.745522132402975 41.0817
26.768407297649354 40.8739
26.791293550442003 40.6173
26.814180891848974 40.4758
26.837248143099337 40.1428
26.860137673466657 40.0155
26.88302829566349 39.6048
26.90592001075963 39.5488
26.92899167420566 39.413000000000004
26.951885586870763 38.9147
26.974780595655517 38.830999999999996
26.99785558178161 38.8052
27.020752794605112 38.5724
27.043651106772522 38.3768
27.06655051935668 38.4644
27.089629948036183 38.3633
27.112531573292053 38.2827
27.135434302194138 38.2704
27.158338135817015 38.1433
27.181422024430987 38.1098
27.204328079372566 37.9954
27.22723524226965 38.1934
27.250143514198573 38.1373
27.273231880156334 38.042
27.296142382065014 37.926
27.319053996245536 37.9479
27.341966723775965 38.0687
27.365059584515222 38.0852
27.38797455070062 38.219
27.410890633481237 38.0037
27.433807833936918 38.0579
27.456905206923906 38.1808
27.47982465472398 38.0998
27.502745223449743 38.15
27.525666914182825 38.2792
27.548768816912457 38.1985
27.571692763693633 38.1597
27.59461783573812 37.9755
27.617723149491244 37.8321
27.640650484125285 37.7699
27.66357894728264 37.6318
27.686508540048052 37.7109
27.709618414237887 37.6617
27.732550278321757 37.3465
27.755483275279115 37.3189
27.778417406196485 37.4236
27.801531858397514 37.4577
27.824468269376716 37.446999999999996
27.847405817586786 37.4019
27.870344504116094 37.6459
27.893463551932008 37.7927
27.916404527281053 37.9091
27.93934664422563 37.9047
27.962289903855886 38.0076
27.98541356491974 38.3605
28.00835912214229 38.4199
28.03130582533231 38.6576
28.054253675581805 38.8346
28.077381967556104 38.7581
28.100332124185126 38.8063
28.123283431160893 38.4988
28.146235889577238 38.333
28.169368830154156 38.1201
28.192323603752033 38.0749
28.215279532083304 37.7741
28.238415973016764 37.6016
28.261374223145094 37.378
28.284333631303806 37.1233
28.307294198589954 37.0641
28.330435319167677 36.7513
28.353398217078915 36.4359
28.376362277420153 36.2408
28.39932750129032 36.0949
28.422473319286713 36.0097
28.44544088262495 36.027
28.468409612800283 35.8858
28.491379510913497 35.5876
28.51453004413313 35.516
28.53750229057244 35.5569
28.56047570826344 35.5766
28.583450298308804 35.5014
28.606605564586562 35.3119
28.629582511831156 35.3968
28.65256063474956 35.1428
28.675539934446338 35.2487
28.698699951647605 35.29
28.72168161743193 35.0197
28.74466446331978 35.1132
28.767648490417624 34.9522
28.790813276438353 35.0372
28.813799678527303 35.1817
28.836787265157085 35.0657
28.859955641890075 35.0158
28.882945610203045 35.0814
28.905936766392035 35.0239
28.928929111566863 34.9262
28.952102288520145 34.7868
28.975097024308607 34.7965
28.998092952423807 34.6213
29.021090073977508 34.4843
29.04426806913204 34.3277
29.067267590245258 34.178000000000004
29.090268308143695 34.131
29.11327022394099 34.1691
29.13645305530891 34.063
29.159457379627167 34.0251
29.18246290519685 33.9749
29.20546963313352 33.9537
29.22865731875826 33.9329
29.25166646419296 34.0049
29.27467681535305 33.8566
29.29768837335608 33.9593
29.320880931312562 33.9675
29.34389491580634 33.8141
29.366910110507334 33.7728
29.38992651653503 33.8076
29.41312396492981 33.8765
29.436142806456754 33.7486
29.45916286268059 33.6715
29.48236399319994 33.5215
29.50538649169417 33.3331
29.528410208259935 33.2674
29.55143514402014 33.0632
29.574641196749695 33.0374
29.597668583816574 32.9666
29.6206971934585 32.8032
29.64372702680042 32.8327
29.666938019934474 32.7151
29.689970313635285 32.7185
29.713003834422636 32.6391
29.73603858342347 32.553000000000004
29.759254535188578 32.4841
29.78229175361658 32.4453
29.80533020365064 32.5479
29.82836988641968 32.5629
29.85159081507472 32.3706
29.874632976355343 32.3268
29.89767637376955 32.5025
29.920721008448314 32.2605
29.9439469322847 32.2745
29.96699405457564 32.178000000000004
29.9900424175358 32.1825
30.013092022298157 32.1896
30.03632295963995 32.1331
30.059375061131373 32.1182
30.08242840783577 32.141999999999996
30.105483000888153 32.1455
30.128718970092244 32.1102
30.151776069006917 32.0209
30.17483441768648 32.1041
30.198074175317235 32.1535
30.221135036724256 32.058
30.24419715131772 32.1583
30.267260520236203 31.8946
30.290505341942243 31.9151
30.313571232750228 31.9458
30.336638381310948 32.0242
30.35970678876503 31.9368
30.38295669299435 31.7898
30.40602763151657 31.7646
30.429099832366074 31.7901
30.452173296685572 31.7341
30.47542830191959 31.7278
30.498504306502497 31.7231
30.521581577995562 31.8173
30.544660117543582 31.7953
30.56792024229725 31.8498
30.59100133132069 31.8151
30.614083691845494 31.8814
30.637167325018545 31.9183
30.660432587840603 31.9838
30.683518779717886 31.8467
30.70660624769615 31.9312
30.729694992924372 31.9626
30.75296541239743 31.835
30.77605672557558 31.8143
30.799149319462742 31.7847
30.8224236211637 31.6229
30.845518789950724 31.3994
30.868615242910597 31.4497
30.891712981195973 31.3116
30.91499247215866 31.2679
30.938092794619365 31.1118
30.96119440587579 31.0964
30.984297307082752 31.0555
31.00758200598383 30.9587
31.030687500658694 30.8767
31.053794288760695 30.8095
31.076902371446767 30.7169
31.100192296997445 30.8311
31.12330298246119 30.7276
31.14641496599209 30.5669
31.169528248749216 30.5766
31.19282341969534 30.703000000000003
31.215939314557186 30.655
31.239056512134788 30.612
31.262175013589378 30.5734
31.28547544871168 30.5173
31.30859657161541 30.5122
31.331719001892175 30.5977
31.35484274070538 30.6741
31.378148458819545 30.6991
31.401274828443725 30.5305
31.424402510106933 30.5946
31.447712205419993 30.7215
31.470842524931633 30.568
31.493974159989783 30.51
31.51710711176168 30.4062
31.54042212308802 30.3987
31.563557722100917 30.3227
31.586694641341655 30.3021
31.609832881979628 30.1847
31.63315322823208 30.0257
31.656294125521327 29.9617
31.679436347728515 30.0147
31.70257989602529 30.0042
31.725905596152327 29.8789
31.74905181052835 29.8772
31.772199354521323 29.8567
31.79534822930507 29.9374
31.818679302290967 29.9491
31.84183085259981 29.8472
31.864983737233473 29.8347
31.88813795736804 29.8574
31.911474422233013 29.7209
31.934631327356435 29.8321
31.9577895715215 29.8328
31.980949155906522 29.69
32.004291031706956 29.6943
32.027453310562606 29.5186
32.05061693318573 29.4549
32.07396288236386 29.4324
32.09712920658542 29.3634
32.12029687812702 29.1383
32.14346589817093 29.2064
32.166817291729984 29.1013
32.18998902288583 29.0971
32.21316210610336 29.0301
32.23633654256711 28.9483
32.259693399663725 28.9563
32.282870556771144 28.7984
32.30604907069099 28.85
32.329228942610065 28.8192
32.35259128243769 28.6263
32.375773884550505 28.4948
32.398957848235646 28.6295
32.422143174682176 28.5279
32.445511016471215 28.5042
32.468699082679954 28.4988
32.49188851523011 28.3961
32.51507931531304 28.2726
32.538452678331 28.357
32.56164622776311 28.2912
32.58484114831493 28.1879
32.60803744118015 28.1797
32.631416344731896 28.1397
32.654615396551876 28.1809
32.67781582427913 28.1166
32.701198898634416 28.0044
32.72440209253756 28.0069
32.747606665947124 28.0375
32.77081262006088 27.8758
32.79420126883317 27.8171
32.81740999876112 27.9042
32.840620112999424 27.7214
32.86383161274818 27.6607
32.88722585534586 27.7023
32.91044014056596 27.8545
32.933655814909734 27.6618
32.95687287957963 27.7032
32.98027273544904 27.743000000000002
33.00349259526636 27.659000000000002
33.026713849030116 27.5662
33.04993649794511 27.57
33.073341986570746 27.4451
33.09656744032826 27.555
33.11979429286444 27.5374
33.14302254538647 27.4665
33.166433686291185 27.4656
33.18966475336992 27.3571
33.212897224069096 27.316
33.23613109959831 27.3823
33.259547912343415 27.2167
33.2827846121627 27.2582
33.306022720453775 27.1975
33.32926223842861 27.0769
33.352684742614166 27.125999999999998
33.37592709463173 27.0671
33.399170859982064 26.959
33.422597648419426 26.8992
33.44584425514446 26.765
33.46909227885668 26.7821
33.4923417207723 26.6639
33.51577423505344 26.6517
33.539026528130385 26.6158
33.56228024307245 26.6657
33.585535381098246 26.4751
33.60897364093058 26.4393
33.63223163992385 26.483
33.6554910656699 26.4697
33.678751919389796 26.3928
33.702195944520106 26.2939
33.72545966903325 26.2976
33.74872482519663 26.2875
33.771991414233746 26.2438
33.79544122444841 26.2144
33.81871069412428 26.0996
33.84198160035767 26.0747
33.86525394437455 26.0862
33.88870955949969 26.0169
33.911984794020626 25.9578
33.93526147001624 25.98
33.958539588715006 25.8907
33.98200102861669 25.8548
34.0052820477047 25.7247
34.02856451319451 25.7473
34.05203033759056 25.7013
34.07531571090147 25.7098
34.09860253431845 25.6644
34.121890809074316 25.5756
34.145362493118924 25.590999999999998
34.16865368561615 25.5387
34.191946333164054 25.4272
34.21524043699793 25.4278
34.23871800066799 25.5059
34.26201503218366 25.4001
34.28531352370466 25.2869
34.30861347646881 25.2585
34.33209693978188 25.1914
34.3553998301885 25.2598
34.378704185565205 25.1698
34.402010007152356 25.1585
34.42549939016683 25.1323
34.44880815937748 25.0146
34.472118398533134 25.0125
34.49543010887669 24.988000000000003
34.51892543169198 24.9291
34.54224009966052 24.9354
34.56555624255917 24.88
34.58887386163339 24.7911
34.61237514439016 24.8002
34.6356957311114 24.7205
34.65901779775809 24.7396
34.68252356662995 24.6459
34.705848608458616 24.5874
34.72917513396849 24.5899
34.75250314440949 24.4905
34.77601490857862 24.5095
34.799345904259795 24.4452
34.82267838863559 24.4205
34.846012362958525 24.4326
34.869530142679984 24.3715
34.89286711232212 24.2974
34.91620557568269 24.2754
34.93954553401677 24.2925
34.9630693495876 24.1686
34.986412313340814 24.2545
35.00975677584668 24.2359
35.033102738362956 24.1673
35.05663261012228 24.0705
35.0799815881786 24.0585
35.10333207003229 24.0335
35.12668405694369 24.1095
35.150220005273056 23.9681
35.17357501786656 24.0006
35.19693153931268 24.0091
35.220289570874385 23.8918
35.24383161619786 23.9045
35.267192683604904 23.8778
35.290555264930376 23.8286
35.314101899412165 23.8461
35.33746752422433 23.8002
35.36083466676374 23.7992
35.38420332829803 23.7459
35.407756095629054 23.7337
35.43112781085063 23.7721
35.45450104888391 23.7738
35.477875810999194 23.6852
35.50143473172161 23.6375
35.52481255774625 23.6407
35.54819191167777 23.5763
35.57157279478914 23.5113
35.595137889488406 23.4691
35.61852184675279 23.4861
35.641907337029984 23.3722
35.665294361595684 23.3248
35.68886565090076 23.3069
35.7122557598848 23.2265
35.73564740699838 23.2503
35.759040593519934 23.3059
35.78261809810353 23.2124
35.80601437933051 23.0181
35.829412203814705 23.0101
35.85281157283719 23.0125
35.876395313415884 23.0606
35.8997977874528 22.9766
35.92320180988546 23.0184
35.946790244133936 22.8711
35.97019737933222 22.8866
35.993606066789866 22.8848
36.01701630779276 22.8521
36.04061101440684 22.7179
36.06402437852291 22.8081
36.08743930005611 22.8047
36.1108557802951 22.6162
36.13445678011326 22.6037
36.15787639383515 22.5679
36.18129757014299 22.578000000000003
36.20472031032821 22.5613
36.22832762423364 22.4912
36.25175350829375 22.4403
36.275180960119776 22.2877
36.298609981005924 22.3749
36.32222362992669 22.4496
36.34565580510207 22.4877
36.36908955323448 22.3661
36.39252487562093 22.2421
36.416144880530226 22.2152
36.43958336764275 22.1765
36.463023432914625 22.2126
36.486465077645676 22.1228
36.51009145956204 22.1157
36.53353627947859 22.2429
36.55698268276811 22.058000000000003
36.58043067073321 22.0156
36.60406345072071 21.9577
36.62751462435344 21.9154
36.65096738658405 21.9265
36.67460498210655 21.8798
36.69806093788647 21.8684
36.72151848619297 21.8359
36.744977628333636 21.8906
36.76862165890998 21.6895
36.79208400512205 21.7523
36.81554794910557 21.7316
36.83901349217101 21.6804
36.862663978991606 21.5886
36.88613273667352 21.5372
36.90960309738324 21.5516
36.933075062434064 21.4905
36.95673202673572 21.5286
36.98020721697122 21.4755
37.003684015502365 21.4355
37.027162423645365 21.384
37.050825886711465 21.3307
37.07430753063053 21.2551
37.09779078812467 21.2461
37.121275660513014 21.2428
37.144945643673694 21.1038
37.16843376245278 21.1362
37.19192350009803 21.1207
37.215414857931435 21.1301
37.239091382563885 21.0558
37.262585997426164 21.016
37.28608223645736 21.026
37.309763684451696 20.9623
37.33326318851098 20.9545
37.356764320726555 20.8484
37.380267082425526 20.9076
37.40395510942588 20.8746
37.42746114683234 20.7981
37.45096881771841 20.7898
37.474478123414166 20.6927
37.49817275092816 20.6821
37.52168534303452 20.6683
37.54519957395567 20.5989
37.568715445024665 20.5859
37.592416694607714 20.5525
37.61593586281424 20.5903
37.63945667518264 20.5641
37.66297913304891 20.47
37.68668702630454 20.4055
37.710212792059274 20.4108
37.733740207334854 20.3775
37.757269273470364 20.2965
37.780983832050374 20.3093
37.80451621684926 20.35
37.82805025654007 20.3029
37.851585952464795 20.2073
37.8753071980695 20.1724
37.89884622345676 20.1008
37.92238690911902 20.1244
37.94611318753442 20.0742
37.969657210779765 19.9892
37.99320289834801 20.0077
38.016750251586465 19.9383
38.04048325513017 19.9274
38.06403395679343 19.945
38.087586328183946 19.9259
38.11114037065203 19.9186
38.13488012115898 19.9172
38.1584375229181 19.7991
38.181996599821 19.7598
38.205557353221124 19.7279
38.229303872575656 19.7158
38.2528679961576 19.7045
38.27643380031219 19.7056
38.30000128639589 19.5665
38.32375459653193 19.5527
38.34732546371299 19.5707
38.37089801690786 19.512999999999998
38.39447225747609 19.4728
38.418232380377425 19.4449
38.441810012983396 19.4892
38.46538933705673 19.3869
38.488970353960084 19.3705
38.51273731166058 19.3129
38.536321731567014 19.3201
38.55990784840681 19.2675
38.58367995004091 19.2091
38.60726947812959 19.1027
38.63086070726198 19.1626
38.654453638806274 19.2016
38.678232613930824 19.0754
38.70182896773327 19.0345
38.72542702806741 19.073
38.7490267963045 19.0483
38.77281266709232 19.0112
38.79641586862214 18.9401
38.8200207821842 18.8743
38.843627409152944 18.8834
38.86742019782782 18.9022
38.891030269149255 18.7773
38.914642058016156 18.8457
38.938255565806124 18.7967
38.96205529464307 18.7496
38.98567225787121 18.8011
39.00929094417078 18.7379
39.03291135492255 18.6864
39.05671804624804 18.6653
39.080341923549106 18.6589
39.103967529460334 18.6106
39.127594865365744 18.5121
39.15140854155791 18.4826
39.17503935514948 18.484
39.19867190290282 18.486
39.22249083587951 18.4491
39.24612686969409 18.3947
39.269764641845306 18.3869
39.293404153722804 18.3703
39.317230110864074 18.2806
39.34087311998506 18.2466
39.36451787301696 18.2873
39.388164371352595 18.2539
39.41199737518003 18.1355
39.43564738196752 18.1066
39.45929913825317 18.1066
39.48295264543308 18.0748
39.506792718520884 18.0671
39.530449745387216 17.9864
39.55410852735203 17.9779
39.57776906581474 17.9896
39.60161623079 17.9564
39.625280300200025 17.8943
39.64894613032202 17.8536
39.67261372255866 17.8369
39.6964680021016 17.8229
39.72013913657293 17.8504
39.74381203738292 17.8492
39.76748670593756 17.8039
39.79134812278169 17.7665
39.81502634488497 17.7352
39.83870633896685 17.6934
39.862388106436654 17.6268
39.88625668336918 17.6294
39.90994201572829 17.574
39.933629125719285 17.5653
39.957503091207826 17.524
39.9811937746168 17.5259
40.00488623990914 17.5015
40.02858048850006 17.4513
40.05246165409549 17.4034
40.076159487492085 17.4091
40.099859108448875 17.3726
40.123560518384345 17.3766
40.1474489070226 17.3586
40.171153913178564 17.3422
40.194860712584955 17.289
40.2185693066637 17.2567
40.242464941335314 17.2538
40.26617714307655 17.1672
40.289891143772046 17.139
40.3136069448471 17.1685
40.33750984859743 17.1024
40.3612292688043 17.0872
40.3849504936829 17.0474
40.40867352466194 17.0424
40.43258372059144 16.9749
40.45631038219906 16.9829
40.48003885420956 16.9463
40.503769138055105 16.9355
40.52768664931955 16.9088
40.55142057531802 16.8855
40.57515631746428 16.8626
40.599079334038514 16.7705
40.62281872700477 16.7672
40.64655994043941 16.7712
40.67030297578061 16.8004
40.69423334835778 16.7288
40.71798004609188 16.6739
40.74172857006355 16.6394
40.76547892171441 16.691
40.7894166736039 16.6227
40.813170699248566 16.5081
40.83692655691388 16.6008
40.86068424804498 16.5811
40.884629402612525 16.5008
40.908390779366385 16.4747
40.932153993938 16.4166
40.95591904777605 16.3723
40.979871628443995 16.3924
41.003640379561936 16.3759
41.02741097430883 16.3598
41.05118341413683 16.3137
41.075143444384416 16.3146
41.098919593177826 16.2788
41.1226975914255 16.2543
41.14647744058318 16.2017
41.170444943946755 16.1561
41.19422851378379 16.1883
41.218013938914645 16.1175
41.24198706625173 16.0962
41.26577622087193 16.0135
41.289567235177785 16.0066
41.31336011063129 16.041
41.337340752422875 15.975
41.361137369129835 15.9262
41.38493585138705 15.9424
41.40873620066004 15.882
41.43272438060107 15.8839
41.45652848292052 15.7941
41.48033445666918 15.8274
41.50414230331616 15.7303
41.528138045159764 15.7344
41.551949656675205 15.7074
41.575763145513235 15.7037
41.59957851314666 15.687000000000001
41.62358184070442 15.6261
41.64740098505737 15.687000000000001
41.6712220126409 15.6681
41.69504492493139 15.5619
41.71905586207357 15.565
41.74288256296395 15.5342
41.766711153007456 15.4891
41.79054163368412 15.4073
41.814560204340054 15.4364
41.838394485526365 15.4502
41.86223066180303 15.4617
41.88625497706819 15.4173
41.910094962812 15.3771
41.93393684811168 15.3445
41.95778063445365 15.2978
41.981812625263366 15.231
42.00566023303407 15.2247
42.029509746323676 15.2179
42.05336116662236 15.1703
42.077400857069705 15.197000000000001
42.10125611078846 15.1732
42.12511327600405 15.1086
42.14897235421036 15.1408
42.173019768448455 15.0776
42.19688269209613 15.0655
42.22074753323349 15.0322
42.24461429335818 14.9773
42.268669455600495 14.977
42.292540073217886 14.9685
42.31641261433284 14.9339
42.34028708044675 14.8555
42.36435001496739 14.8621
42.38822835065557 14.8114
42.41210861586426 14.7901
42.4359908120986 14.8327
42.46006154323262 14.8424
42.48394762115317 14.7089
42.507835634632315 14.767000000000001
42.531912233047436 14.7033
42.55580413732265 14.6774
42.579697981698 14.6171
42.60359376768525 14.6206
42.62767820545945 14.6351
42.65157789440821 14.591
42.67547952952185 14.5643
42.699383112316 14.5353
42.72347541395347 14.4854
42.74738291190531 14.4902
42.771292362102166 14.4496
42.795203766063516 14.4098
42.819303956130405 14.3945
42.843219287476536 14.3891
42.86713657716324 14.3454
42.89105582671383 14.3462
42.91516392983864 14.309000000000001
42.939087119032166 14.3029
42.963012272677304 14.2706
42.98693939230129 14.2576
43.01105543317513 14.2357
43.034986504731386 14.1721
43.05891954686589 14.1498
43.08285456110972 14.1125
43.10697856448665 14.1459
43.130917542983475 14.1196
43.15485849820081 14.067
43.17880143167367 14.0037
43.20293342237094 14.0167
43.226880332449 13.9824
43.25082922540554 13.9727
43.27496722682525 13.9719
43.29892010567796 13.9073
43.32287497204102 13.9053
43.34683182745632 13.875
43.370977859791836 13.8467
43.39493871351105 13.8523
43.41890156092628 13.8154
43.44286640358341 13.7382
43.46702049182749 13.7228
43.49098934522816 13.7647
43.51496019852649 13.73
43.5389330532723 13.6812
43.56309522248204 13.6692
43.58707210044314 13.5845
43.61105098451946 13.5937
43.63503187626491 13.5594
43.659202151562134 13.6082
43.68318707902681 13.5819
43.70717401884041 13.5511
43.731162972560874 13.4722
43.75534137913236 13.4314
43.779334381108384 13.4389
43.803329401683186 13.4007
43.82732644241872 13.3934
43.8515130055166 13.3883
43.87551410707659 13.355
43.89951723350145 13.3289
43.923709934595614 13.2587
43.94771713129917 13.3341
43.97172635758096 13.2733
43.99573761501002 13.2739
44.0199385169922 13.1872
44.04395385732619 13.2076
44.067971233533086 13.1892
44.09199064718605 13.1637
44.11619977548961 13.1207
44.14022328470671 13.0591
44.16424883610785 13.0551
44.18827643127035 13.0234
44.21249381139513 13.0235
44.236525514814076 13.0495
44.26055926674478 12.9906
44.28459506876863 13.0234
44.3088207262813 12.9109
44.33286064928722 12.8395
44.35690262714919 12.8679
44.38094666145278 12.8885
44.4051806219871 12.8604
44.42922879003185 12.7778
44.45327901929361 12.7957
44.477331311362136 12.8286
44.501573600619416 12.7576
44.525630039221795 12.7244
44.54968854541895 12.7377
44.573937102200176 12.6424
44.5979997645541 12.6813
44.622064499300315 12.6449
44.64613130803592 12.5685
44.67038823869318 12.6166
44.69445921643748 12.5476
44.718532272981385 12.5601
44.742607409926194 12.558
44.76687274034801 12.4911
44.79095205918753 12.4695
44.81503346325094 12.4725
44.839116954143876 12.4601
44.86339071028742 12.3965
44.88747839599524 12.3811
44.91156817336837 12.3484
44.93566004401666 12.4046
44.959942251908146 12.3461
44.984038330325966 12.2987
45.00813650686762 12.2336
45.03223678314731 12.3123
45.05652746888232 12.2763
45.08063196592069 12.2391
45.104738567558705 12.142999999999999
45.128847275414856 12.1482
45.15314646515866 12.1031
45.17725940679741 12.1001
45.20137445952892 12.1334
45.22568004865265 12.117
45.24979934496396 12.1045
45.27392075725247 12.0612
45.29804428714431 12.0526
45.322358426247604 12.042
45.346486212804315 12.0096
45.370616121861914 11.9759
45.39474815505086 11.95
45.41907087049246 11.9091
45.4432071734666 11.8511
45.46734560548283 11.8607
45.49148616817604 11.9126
45.51581748638564 11.8525
45.5399623320197 11.8222
45.56410931325473 11.8041
45.58825843173002 11.7993
45.61259837920865 11.7259
45.636751793816 11.7506
45.66090735060093 11.7042
45.68506505120716 11.6933
45.7094136545275 11.6787
45.73357566449271 11.6386
45.75773982322992 11.6589
45.78190613238733 11.6254
45.806263418194064 11.5852
45.83043404997326 11.5825
45.85460683713677 11.605
45.87897065658495 11.5422
45.90314777634752 11.5426
45.92732705646868 11.4824
45.9515084986045 11.4908
45.97588104735473 11.4625
46.00006683541565 11.419
46.02425479047904 11.4227
46.04844491420549 11.415
46.0728262191024 11.3848
46.09702070211635 11.3835
46.12121735879483 11.3741
46.14541619080294 11.3308
46.169806278764455 11.3145
46.194009483459034 11.2858
46.21821486849841 11.2743
46.24242243555223 11.2497
46.266821333570014 11.2545
46.29103328674601 11.2275
46.31524742696538 11.2228
46.33946375590237 11.1764
46.36387149104216 11.082
46.38809221957392 11.0645
46.41231514186606 11.1138
46.436540259597464 11.0566
46.460956858999374 11.0452
46.48518638983522 11.0707
46.509418121166966 11.0372
46.533652054678114 10.9894
46.55807754555709 11.0044
46.58231590571962 11.0003
46.60655647313217 10.9318
46.630988654873654 10.8941
46.655233659129024 10.8902
46.67948087571551 10.8872
46.70373030632484 10.844000000000001
46.72817142736393 10.8605
46.752425308428684 10.8665
46.77668140861147 10.8317
46.80093972960865 10.7588
46.82538981736788 10.75
46.849652602470904 10.7263
46.87391761349769 10.7272
46.8981848521493 10.712
46.9226439341274 10.7005
46.946915650573224 10.5845
46.97118959976749 10.6242
46.99546578341598 10.6076
47.019933887188216 10.5885
47.04421456235744 10.6028
47.06849747711879 10.5549
47.09278263318286 10.5159
47.11725978640143 10.4916
47.14154944775105 10.4976
47.165841355555656 10.4605
47.1901355115306 10.4571
47.214621741924994 10.4579
47.23892041698887 10.4581
47.26322134538975 10.3897
47.28771440635075 10.3718
47.31201986422527 10.3603
47.33632758061436 10.3213
47.360637557241866 10.3289
47.38513974410611 10.3114
47.40945426407847 10.287
47.43377104948137 10.2556
47.45809010204344 10.2258
47.48260144275502 10.2128
47.506925052572285 10.2244
47.53125093475548 10.1859
47.55557909103813 10.1625
47.58009961361992 10.1655
47.60443234110732 10.1276
47.62876734791564 10.1183
47.65310463578333 10.0581
47.6776343683373 10.0606
47.7019762413987 10.0203
47.72632040075572 10.0108
47.75066684815169 10.0166
47.77520581885936 9.99883
47.799556865477655 9.99699
47.823910205386 9.96579
47.84826584033272 9.91305
47.87281407745551 9.93336
47.89717432569297 9.900830000000001
47.92153687423484 9.902989999999999
47.94609208429692 9.86713
47.97045925671401 9.8298
47.99482873471275 9.8063
48.01920052005013 9.81529
48.04376504619224 9.80824
48.068141469543484 9.81569
48.09252020552573 9.7781
48.11690125590099 9.7665
48.1414751266064 9.74958
48.16586082917454 9.683010000000001
48.19024885144316 9.67071
48.2146391951793 9.67515
48.239222439012764 9.68426
48.26361744916137 9.61183
48.28801478610016 9.62998
48.31241445160131 9.6228
48.337007097209366 9.61805
48.36141144338331 9.600060000000001
48.38581812345755 9.53023
48.41022713920929 9.54472
48.434829215320704 9.51383
48.45924292604658 9.53166
48.48365897780325 9.50644
48.50807737237308 9.506689999999999
48.532688907799276 9.46203
48.55711201168574 9.44864
48.581537463754074 9.44078
48.60615611725119 9.438260000000001
48.63058628942721 9.38039
48.65501881516546 9.37498
48.6794536962573 9.34795
48.70408185970339 9.34109
48.72852147531801 9.323960000000001
48.75296345168211 9.27893
48.77740779059232 9.27775
48.80204549302823 9.24112
48.82649458091802 9.2517
48.85094603676547 9.21599
48.87539986237231 9.23725
48.90004713292306 9.18792
48.92450572200832 9.1857
48.94896668628025 9.16192
48.97343002754588 9.1331
48.99808689542115 9.124080000000001
49.02255501470614 9.121839999999999
49.04702551642794 9.09602
49.0714984023988 9.06298
49.096164896893235 9.07607
49.120642575466796 9.04445
49.145122643748394 9.04326
49.16960510355558 9.01919
49.19428125404938 8.98329
49.2187685210852 8.99092
49.243258185121555 8.98039
49.26794160167084 8.93003
49.2924360839405 8.89209
49.31693296869764 8.91266
49.34143225776915 8.87534
49.36612538195438 8.86262
49.39062950396021 8.8571
49.41513603578346 8.82584
49.4396449792564 8.798210000000001
49.46434784069503 8.79723
49.488861631846454 8.769730000000001
49.513377840166804 8.8071
49.537896467493745 8.76682
49.56260909589029 8.72693
49.587132585683285 8.75501
49.611658500018365 8.67515
49.636186840738596 8.71826
49.66090926588511 8.68547
49.685442483902584 8.670910000000001
49.70997813385706 8.5924
49.734516217597076 8.60721
49.75924846937352 8.569939999999999
49.7837914452858 8.57363
49.80833686055187 8.54256
49.83288471702571 8.5188
49.85762682540054 8.51587
49.882179588965734 8.5233
49.9067347993235 8.4728
49.93129245833333 8.49511
49.95604445336378 8.47372
49.98060703442832 8.4519
50.005172069746266 8.40142
50.02993150438364 8.44932
50.05450147301533 8.42741
50.07907390151433 8.3597
50.10364879174981 8.38082
50.12841816587289 8.34849
50.1529980044635 8.335139999999999
50.17758031042124 8.34737
50.20216508562089 8.28646
50.22694442953363 8.30818
50.25153416817468 8.26817
50.27612638170508 8.27396
50.300721072005196 8.25918
50.325510416102105 8.24487
50.350110084975064 8.19559
50.37471223628208 8.19069
50.39931687190919 8.192169999999999
50.424116246675766 8.175360000000001
50.44872587605249 8.15906
50.47333799543065 8.10988
50.49795260670191 8.1057
50.52276204271512 8.08109
50.54738166295838 8.07369
50.57200378079314 8.101389999999999
50.596628398116835 8.0287
50.62144792604559 8.041039999999999
50.646077567609396 8.005460000000001
50.670709714377715 8.02763
50.69553683636198 8.0188
50.72017401885922 7.979830000000001
50.7448137122895 7.955369999999999
50.76945591856022 7.92937
50.79429318636823 7.935510000000001
50.818940443716784 7.937460000000001
50.84359021965163 7.879560000000001
50.868242516085964 7.888139999999999
50.893089960641895 7.846360000000001
50.917747323549435 7.863460000000001
50.94240721271973 7.873480000000001
50.96706963007175 7.81268
50.99192728239342 7.818280000000001
51.01659478166073 7.8021
51.04126481489051 7.79005
51.06593738400761 7.773810000000001
51.090805275207074 7.73499
51.11548294172845 7.744689999999999
51.14016314993547 7.7359100000000005
51.164845901758845 7.71448
51.18972406304274 7.682
51.21441192780656 7.64533
51.23910234200271 7.65066
51.2637953075678 7.64202
51.288683770237945 7.65712
51.31338186432707 7.595680000000001
51.33808251561888 7.56295
51.362978729967345 7.54805
51.387684521509755 7.5558
51.41239287610203 7.5529399999999995
51.437103795691165 7.50691
51.46201036644977 7.50201
51.486726441956634 7.5018899999999995
51.51144508832545 7.47616
51.536166307509156 7.4920800000000005
51.56108326624387 7.45567
51.58580965706056 7.45073
51.61053862657523 7.423589999999999
51.635270176746864 7.388999999999999
51.66019755512065 7.369260000000001
51.68493429268881 7.38065
51.70967361681515 7.38355
51.73441552946465 7.3477
51.759353359237934 7.35274
51.7841004750961 7.347460000000001
51.80885018539685 7.32322
51.833602492111254 7.292889999999999
51.8585508051424 7.277880000000001
51.883308330926425 7.25087
51.90806845906181 7.25915
51.932831191525715 7.215889999999999
51.95779001977161 7.2053899999999995
51.98255798721516 7.19575
52.00732856494335 7.19072
52.03229530577543 7.191139999999999
52.057071130455945 7.12609
52.081849571391054 7.093489999999999
52.106630630568695 7.1226199999999995
52.13160794279417 7.0603
52.15639426492067 7.09087
52.18118321127822 7.06757
52.205974783860896 7.07923
52.23096269971011 7.03768
52.255759551287994 7.0231699999999995
52.280559035098186 7.01865
52.30536115314103 6.99901
52.33035970494467 6.9639999999999995
52.35516711807904 6.95839
52.37997717147198 6.94925
52.40478986713005 6.95792
52.42979908731974 6.9065
52.454617094216 6.8888300000000005
52.47943774942214 6.88209
52.50426105495102 6.8441600000000005
52.529280976059844 6.889139999999999
52.554109609024096 6.847160000000001
52.57894089837482 6.84655
52.60377484613117 6.837110000000001
52.62880550079408 6.83828
52.65364479223379 6.7533199999999995
52.67848674816189 6.802339999999999
52.70352547971946 6.79351
52.72837279155837 6.765619999999999
52.753222773982785 6.76081
52.778075429022984 6.714110000000001
52.80312495150885 6.7251
52.827982978797436 6.6808
52.85284368481815 6.65292
52.87770707160767 6.6416
52.90276741793998 6.64012
52.92763619336701 6.6429100000000005
52.952507655698504 6.6159300000000005
52.977381806977576 6.61137
53.00245301017842 6.62937
53.02733256653592 6.622269999999999
53.052214817996074 6.5918399999999995
53.077099766608484 6.53979
53.102181859804446 6.55319
53.127072229988265 6.564260000000001
53.15196530349892 6.5198599999999995
53.17686108239249 6.50995
53.20195409881522 6.4751900000000004
53.22685531582556 6.477580000000001
53.25175924441303 6.42699
53.27666588664027 6.45812
53.30176985962693 6.4486300000000005
53.3266819565689 6.40257
53.35159677336455 6.39018
53.376514312083096 6.3959
53.40162927507703 6.386080000000001
53.42655228516116 6.4012400000000005
53.45147802340193 6.37735
53.47660125628886 6.36634
53.50153247842639 6.3155
53.52646643496923 6.30101
53.55140312799818 6.32108
53.576537409691696 6.29122
53.60147960336152 6.256
53.626424539786164 6.26518
53.65137222105307 6.2315
53.67651758529126 6.257000000000001
53.70147078399681 6.2212
53.72642673383343 6.18991
53.75138543689533 6.22055
53.776541917524526 6.21385
53.801506154876755 6.1700800000000005
53.826473151763246 6.14495
53.851442910284916 6.07334
53.87661054126026 6.10257
53.9015858509782 6.10887
53.92656392866066 6.10405
53.95154477641532 6.109780000000001
53.976723591801296 6.07529
54.00171000771266 6.07306
54.02669920004598 6.03348
54.051691170915745 6.01335
54.076881204886796 6.02102
54.101878760928514 6.0502
54.12687910187696 6.00241
54.152077577768296 5.99301
54.1770835166946 5.9439400000000004
54.20209224691339 5.93736
54.22710377055121 5.93801
54.25231352511594 5.91704
54.27733066384342 5.88849
54.30235060239643 5.8981699999999995
54.32737334290836 5.9021300000000005
54.35259441062629 5.81356
54.377622783395324 5.81264
54.40265396455061 5.83501
54.42768795623251 5.7941199999999995
54.45292037169559 5.7416
54.477960012857906 5.769769999999999
54.50300247099511 5.76675
54.52804774825457 5.72848
54.55329154616743 5.690869999999999
54.57834249018678 5.68807
54.6033962597977 5.66898
54.6284528571545 5.63091
54.653708072335164 5.6205099999999995
54.67877035378786 5.63261
54.70383546947698 5.6081900000000005
54.72890342156389 5.6043400000000005
54.7541700889442 5.5146
54.77924374251975 5.519340000000001
54.8043202390049 5.5317
54.82959552413022 5.54588
54.8546777351945 5.50477
54.87976279569621 5.43518
54.90485070780914 5.45982
54.930137506558005 5.39149
54.95523115074295 5.39996
54.98032765308844 5.40182
55.005427015775496 5.41475
55.03072536339621 5.39403
55.05583047570572 5.31915
55.080938454927676 5.28846
55.10604930325027 5.2596099999999995
55.131359235107396 5.31942
55.15647585066083 5.25842
55.181595341907496 5.16218
55.20671771104285 5.17684
55.232039262617704 5.20402
55.25716741665048 5.16852
55.28229845518636 5.15829
55.30743238042802 5.09734
55.33276558731939 5.08148
55.357905315183636 5.07779
55.383047936390035 5.02517
55.40819345314859 5.0443
55.433538351073295 5.05115
55.458689688238415 5.00288
55.483843927614096 4.96391
55.509197623043605 4.87565
55.53435769621134 4.899290000000001
55.55952067826466 4.8484
55.5846865714265 4.86224
55.61005202069737 4.87769
55.63522376553902 4.8316099999999995
55.66039842818645 4.8144599999999995
55.68557601087004 4.79237
55.7109532500271 4.73346
55.73613670233794 4.77284
