TT I
1.2716486653135266 7.611669999999999
1.2939594142134223 6.729660000000001
1.3162702121660406 6.1394400000000005
1.3385810600174564 6.672160000000001
1.3608919586137629 6.50411
1.383202908801069 6.23486
1.405513911425503 6.7815
1.4278249673332093 6.33925
1.4501343378461518 6.1673599999999995
1.4724455028545926 5.844869999999999
1.4947567236847858 5.49458
1.517068001182951 5.35354
1.5393793361953272 5.877759999999999
1.5616907295681737 5.83374
1.5840021821477681 5.24855
1.60631369478041 5.31264
1.6286252683124185 5.38839
1.6509369035901333 5.00094
1.6732468618895553 4.94384
1.695558623192809 4.68562
1.7178704487808514 5.05823
1.7401823395001077 5.33283
1.7625012545597203 4.60535
1.7848028405262486 5.02504
1.8071218901122095 5.05985
1.8294236121921872 4.81738
1.8517427996910911 4.55795
1.8740620574440425 4.71589
1.8963639900671978 4.98086
1.9186833908139995 4.82945
1.9409854680117449 5.26619
1.9633050151394713 5.87335
1.9856246367570705 4.62106
2.0079269371922672 4.94492
2.03024671027244 4.37563
2.0525491637446027 4.493580000000001
2.074869091674931 3.99275
2.097171701569106 4.3495099999999995
2.1194917877373847 5.5518
2.141811954326636 5.0008300000000006
2.164114805233074 4.52004
2.186435135143035 5.51392
2.208738150935709 9.67849
2.231058647554722 17.6803
2.2533792288321184 14.4354
2.275682498336085 7.296710000000001
2.298003251406138 5.11395
2.3203066942619714 5.49746
2.3426276225136022 5.0042599999999995
2.3649486396617507 5.5123
2.387252348930071 5.46021
2.4095735463442893 5.13161
2.4318774374315884 5.95277
2.4541988185014043 5.9012199999999995
2.476502894794693 6.61083
2.498824462909887 6.605860000000001
2.521146125856138 6.74918
2.5434504863470337 6.912610000000001
2.5657723414244717 7.097119999999999
2.588076895590662 7.38133
2.610398946189713 7.4692
2.6327210958598384 7.351610000000001
2.6550259469304716 7.59302
2.6773482972090137 8.042869999999999
2.6996533504259 7.96367
2.7219759047039602 7.54082
2.744298562293959 7.68155
2.7666039251246595 7.4473
2.7889267918020164 8.3487
2.8112323652516555 9.031839999999999
2.833555444408179 9.2992
2.8558786311183852 8.1121
2.8781845268938557 8.862119999999999
2.9005079311721484 8.5458
2.9228140460410397 8.68167
2.9451376712799635 9.10714
2.967444008632326 9.73442
2.9897678582247247 9.524519999999999
3.0120918213106695 10.0545
3.0343984987899373 11.0307
3.0567226913198637 11.0723
3.079029599759726 11.3226
3.101354025127254 12.1097
3.123678568232338 12.3768
3.145985829517914 12.9043
3.16831061055229 13.0329
3.1906181112775593 14.2652
3.212943133635653 14.5696
3.2352682779763207 14.9716
3.2575761442691227 15.1158
3.2799015350264273 16.0139
3.302209649240067 16.7242
3.3245352898092655 16.968
3.3468436553365257 16.7816
3.369169549113219 17.4519
3.3914955708171384 18.5476
3.413804319727358 18.7571
3.4361305997334863 18.5852
3.4584396084414553 19.3082
3.4807661501462652 20.0251
3.503092824025881 20.8163
3.5254022288463154 21.0426
3.5477291695206588 21.3879
3.5700388426251948 21.9324
3.5923660534916446 22.7755
3.6146934007816114 31.8994
3.637003482731501 58.5792
3.6593311053109985 64.347
3.681641464033634 41.8758
3.7039693653009733 27.5706
3.726297407241705 25.2773
3.7486081875460804 25.4242
3.7709365132734978 25.7901
3.793247578841633 26.2615
3.8155761917550093 26.4791
3.8378875459837216 26.9438
3.8602164494827234 27.2998
3.882545499606844 28.2931
3.9048572932539183 28.4979
3.9271866390645718 29.2987
3.9494987298666713 29.9706
3.971828374764527 30.1052
3.9941581705403255 30.7612
4.016470713506008 31.2153
4.038800813471445 31.7607
4.061113662089144 32.5582
4.0834440696459176 33.7537
4.105774632334751 33.9464
4.128087945865126 34.6761
4.150418821249301 35.2972
4.172732448931298 36.1845
4.195063640413578 37.5796
4.2173775856475215 40.4117
4.239709096631102 58.4729
4.262040768704612 147.781
4.284355196706267 191.459
4.306687193387355 128.944
4.329001947444346 62.5949
4.35133427213731 45.0527
4.373666762177566 43.6292
4.395982011761091 44.0921
4.418314834921175 45.0325
4.44063041906622 49.5737
4.4629635787515625 56.5848
4.4852969080429785 57.0284
4.5076130004776225 52.3788
4.529946671403969 52.8083
4.552263106909177 53.9131
4.574597122877047 53.2584
4.596931312711224 53.1899
4.619248269273446 53.9753
4.6415828092605835 54.42
4.663900117405352 55.5501
4.686235010953232 57.2553
4.708552674085913 58.8183
4.730887924602802 60.0706
4.753223354952695 61.8595
4.775541557023902 63.9678
4.797877349456786 65.7978
4.820195915032126 67.5035
4.842532072957498 68.0616
4.864868414979744 70.1089
4.88718753227192 73.0994
4.909524244902505 75.0167
4.931843734218147 76.7432
4.954180820867835 78.936
4.976518095879839 82.4176
4.998838149695359 84.8821
5.021175803844231 88.2453
5.043496238205739 91.5535
5.065834274903528 96.6588
5.088172504230693 101.84299999999999
5.1104935158799565 108.76799999999999
5.132832132875765 127.875
5.155153533596801 163.565
5.1774925416746225 212.24099999999999
5.199814334878411 460.595
5.2221537374521505 1249.02
5.244493338631803 3200.61
5.266815727034316 7740.67
5.289155727832427 12289.2
5.311478517248165 8369.22
5.333818921080011 2828.26
5.356159527788849 584.097
5.3784829252032536 197.34099999999998
5.400823940070432 150.819
5.423147747031976 131.501
5.445489173474152 121.43799999999999
5.467830807066149 117.036
5.490155234831516 114.449
5.512497285125229 109.65
5.534822130975162 105.816
5.557164601388673 103.09100000000001
5.579489868738879 100.23
5.601832762690846 98.9278
5.6241758697774475 97.8615
5.646501775867269 97.47
5.668845311622074 96.3008
5.691171647754637 95.4558
5.713515615597765 94.1754
5.735859800852677 93.3977
5.758186788542988 93.95299999999999
5.780531411018185 95.3675
5.802858837297399 95.1166
5.825203900414495 95.30799999999999
5.8475491852224 96.6938
5.869877275883075 96.9123
5.892223006467101 96.1751
5.914551544266608 96.7087
5.936897724049891 100.666
5.959244129804903 108.43799999999999
5.981573344815301 139.82399999999998
6.0039202049061 266.738
6.026249875609095 549.025
6.04859719346037 1101.72
6.070927323278297 2346.16
6.093275102315365 4431.77
6.115623113320588 5477.05
6.137953938319995 3351.6
6.160302415650845 1018.88
6.182633708324452 242.68900000000002
6.2049826554078376 115.63600000000001
6.227331838745022 93.4755
6.249663839443684 85.4561
6.27201349767565 82.1958
6.294345974611799 83.8498
6.316696111167083 89.0383
6.339046488263839 85.7607
6.361379686074702 76.6338
6.383730546639482 71.6408
6.406064229255215 69.8089
6.428415576718203 69.8046
6.450749747566656 68.3258
6.47310158535871 66.557
6.495453669698332 65.5073
6.517788579421056 64.9421
6.540141159237969 63.8333
6.562476565766648 63.5048
6.5848296444934045 62.9787
6.607182974060425 62.5949
6.6295191323281015 62.4363
6.651872965955752 64.3532
6.6742096296068985 78.0361
6.6965639707294615 103.691
6.71891856698715 103.615
6.741255995248479 78.9918
6.763611104154477 64.0369
6.785949046381137 59.4019
6.808304671371482 58.7037
6.8306605557940046 59.1763
6.852999275508618 58.0784
6.875355681171544 57.456
6.897694923437771 56.9638
6.92005185377892 56.5806
6.9423916220322655 56.3287
6.964749080490181 55.6083
6.987106804399774 55.443000000000005
7.009447368180821 56.1039
7.031805625367033 55.6037
7.054146723727803 55.5565
7.076505517631004 55.1668
7.098864581288365 55.1044
7.121206488070854 55.122
7.143566093607822 55.3322
7.165908543567245 55.667
7.188268694426048 55.5522
7.2106291193438095 55.0772
7.232972390625943 56.1315
7.255333366030969 63.0282
7.277677189091925 91.3274
7.300038718428332 118.661
7.322400526130865 103.595
7.344745183422596 73.8776
7.367107550224791 58.7367
7.389452767901992 55.3797
7.411815697249891 54.8046
7.434161478756298 54.2507
7.456524974096713 53.9088
7.478888753837185 54.3003
7.501235387657368 54.7712
7.523599738562711 54.7177
7.545946944825532 55.0603
7.568311870344528 55.2847
7.5906770845765665 55.4312
7.613025156078678 56.1491
7.635390950099687 56.9881
7.657739602662809 56.4663
7.680105979923558 56.1846
7.702472650212829 56.6182
7.724822180948224 56.2135
7.747189439655568 56.7522
7.769539560075357 56.1283
7.791907410653562 56.6438
7.81425812420825 56.9989
7.836626570110925 57.2432
7.858995315087906 57.8442
7.881346924933401 57.9085
7.903716270417482 58.5736
7.926068482028405 58.995
7.948438431475253 59.3998
7.9708086843180235 59.9742
7.993161805171116 60.6978
8.015532667162402 61.3213
8.037886398416653 62.0337
8.060257873014221 62.4923
8.082629655331942 63.6002
8.104984308787587 64.2971
8.127356708900503 66.752
8.149711981398308 70.7632
8.172085002766314 72.361
8.194458336181368 70.8865
8.216814543847752 69.2867
8.23918850371002 69.9732
8.26154533906492 71.1684
8.283919928836452 72.4311
8.306277395339652 73.1212
8.328652618483376 74.9991
8.351028159736202 76.946
8.373386579575245 79.1239
8.395762759396959 81.1882
8.418121819038275 85.3211
8.440498640894003 94.7015
8.462875785192262 107.652
8.485235811156207 133.483
8.507613602688501 192.69400000000002
8.529974277114228 289.383
8.552352719347912 435.236
8.574731488360351 713.678
8.59709314210385 1253.84
8.619472567021075 1870.23
8.64183487789147 2194.52
8.664214962183097 1769.49
8.686577933647762 946.329
8.708958680784317 368.57300000000004
8.731339760774953 161.44299999999998
8.753703729764451 111.26100000000001
8.77608547780821 99.8086
8.798450116065078 95.8403
8.820832535634787 93.1645
8.843215292401656 92.1964
8.865580941199045 91.0388
8.887964374703538 90.3088
8.910330701447199 90.5411
8.932714815164482 90.9122
8.955099270424924 89.7372
8.977466620733543 87.4954
8.999851761421976 85.7782
9.022219798361645 84.4072
9.04460562795561 84.2313
9.066991803441677 84.18
9.089360876979615 84.2739
9.111747746589993 83.3787
9.13411751544971 82.7404
9.156505082664324 82.5321
9.178875550323522 82.6538
9.20126381862328 82.8037
9.223652438908596 82.6851
9.246023961427412 83.3374
9.26841328802173 82.641
9.290785518039224 82.6207
9.313175554425882 84.162
9.335565947154315 84.5976
9.357939245086508 84.8381
9.380330352834827 84.4368
9.40270436697103 84.7008
9.425096193225055 84.1408
9.447488380180165 84.8555
9.469863475295412 84.9445
9.492256385987508 85.1785
9.514632206018318 86.2178
9.537025843935714 86.1922
9.559402392368193 87.3677
9.581796761000229 88.6683
9.604191496441521 90.1196
9.626569144158516 92.3825
9.648964615551032 95.3974
9.671343000390081 96.0025
9.693739211225699 94.5368
9.716135793237463 93.613
9.738515290448102 94.1918
9.760912617143402 95.1373
9.783292860202891 96.6617
9.805690935076182 98.34899999999999
9.828089385495742 99.4681
9.850470754023561 101.275
9.872869957865444 106.196
9.89525208097539 115.706
9.917652041736662 125.04700000000001
9.940052382417589 132.52
9.962435644102392 157.283
9.984836746950979 207.053
10.007220771957746 273.329
10.029622640473708 379.455
10.052007432299963 570.831
10.074410069984072 858.2810000000001
10.096813093716005 1280.63
10.119199042482517 1718.64
10.141602840636468 1918.93
10.163989564971628 1541.18
10.186394141051062 860.0360000000001
10.208799107559706 374.108
10.231187001965623 180.13
10.253592751657669 125.557
10.275981430388155 113.333
10.298387966769793 111.05
10.320794897965431 111.87
10.343184759907361 110.76700000000001
10.36559248305461 107.477
10.387983138083852 106.663
10.410391656691655 113.492
10.432800574501677 126.544
10.455192425893369 143.435
10.47760214443012 171.12
10.499994797678786 215.91
10.522405320453982 298.11400000000003
10.54479877906917 409.125
10.567210109595656 523.45
10.5896218454736 568.4590000000001
10.612016518879773 498.173
10.634429067781074 333.601
10.656824555333241 192.426
10.679237920773568 120.26299999999999
10.701651695961992 95.8532
10.724048411481384 89.7627
10.746463008485165 87.1099
10.768860546937125 85.2847
10.791275969274796 83.5753
10.81369180576079 82.7533
10.836090585366925 81.342
10.858507252467449 80.2222
10.88090686379991 79.3739
10.903324365036394 78.65
10.925724811614439 78.1383
10.948143150509463 78.6787
10.970561909719066 78.1836
10.992963615930844 76.945
11.015383218085756 74.9445
11.037785768347074 73.8341
11.06020621697282 73.1011
11.082627090322113 72.4411
11.105030913430326 71.932
11.12745263854165 72.2221
11.149857314510728 73.3769
11.172279894912576 76.8771
11.194702904450653 76.9481
11.217108866490921 74.2857
11.239532736615194 71.817
11.26193956033512 70.5275
11.284364294577085 69.3131
11.306789462371718 67.9153
11.329197585398376 67.3778
11.351623622610898 67.2005
11.37403261614354 66.4453
11.396459526308487 66.17
11.418869393879497 66.0829
11.441297180532617 65.3365
11.463725406927658 64.8918
11.486136592353875 64.8953
11.508565700543707 65.0712
11.530977768845315 66.1186
11.553407762368774 66.5752
11.575838200059769 66.0076
11.598251599479612 64.8689
11.620682927815501 64.1415
11.64309721895548 64.0053
11.665529441478206 63.6005
11.687962112597958 63.1983
11.710377748130886 63.3903
11.732811318753434 63.0237
11.755227854859067 62.9349
11.777662328529495 63.1029
11.800079768750786 62.8142
11.822515149015453 62.9809
11.844950984084935 63.065
11.867369787303163 62.7925
11.889806534289491 62.81100000000001
11.912226250487029 63.0646
11.934663912939751 63.2886
11.9571020346363 63.4446
11.979523127133968 63.4191
12.001962169624331 64.6063
12.024384183972964 66.6684
12.046824150809913 70.2819
12.069264581333726 75.5662
12.091687985297767 81.6137
12.11412934550045 91.0507
12.136553680195208 106.211
12.158995973632788 129.259
12.181438735204349 155.435
12.20386447284199 181.97799999999998
12.226308172985636 203.328
12.24873485024193 197.236
12.271179492516982 162.108
12.293607112949127 121.57600000000001
12.316052700916226 89.4342
12.338498763250042 74.27
12.360927805303868 68.1472
12.383374818673879 65.8204
12.405804812803074 64.5937
12.428252780773262 64.525
12.45070122756722 64.5693
12.473132656675375 64.4623
12.49558206341869 64.7772
12.518014453510101 64.8111
12.540464823770117 64.5926
12.562915677315177 64.9217
12.58534951575545 65.7069
12.607801338171472 66.8537
12.630236146511358 69.6032
12.652688941369085 72.1864
12.675124723177234 72.7523
12.697578494048786 71.268
12.720032754458185 68.829
12.742470003354093 67.8483
12.764925245138771 68.0257
12.787363476431278 68.1864
12.809819703166806 68.9477
12.83227642391173 69.6413
12.854716135692716 70.0766
12.877173846755147 71.5227
12.899614549869717 71.7557
12.9220732548287 72.5734
12.94453245827299 72.8692
12.966974655289818 74.0503
12.989434858002571 75.0331
13.011878055298721 75.7819
13.034339260862497 76.7546
13.056800969391883 78.2152
13.079245674017244 80.6874
13.101708390774869 85.1254
13.12415410463411 94.5824
13.146617833206086 105.94200000000001
13.169064559883248 117.434
13.191529303857127 133.217
13.213994557076367 157.56
13.236442809902437 196.549
13.258909083908291 251.483
13.28135835851934 310.61
13.30382565690295 375.476
13.326293469022952 427.936
13.348744283242008 425.647
13.371213125129904 348.158
13.39366497011003 253.112
13.416134845360597 167.547
13.438605238843131 122.01299999999999
13.46105863690397 108.93799999999999
13.483530069144786 110.616
13.505984506951902 116.28200000000001
13.528456981549432 126.072
13.550929978879088 142.674
13.573385983253365 167.838
13.595860028340867 206.609
13.618317081455832 254.114
13.64079217790333 307.82599999999996
13.663250283359057 349.202
13.685726434770173 366.23400000000004
13.708203115221277 334.45099999999996
13.730662806148091 255.834
13.75314054697177 182.53099999999998
13.775601299246777 125.507
13.798080104050406 96.3541
13.820559442405358 85.3914
13.843021793671388 82.2576
13.865502201420897 80.7151
13.887965623051947 79.9947
13.910447103807167 78.8629
13.932929122629764 77.6272
13.955394156785959 77.1778
13.977877254034569 76.2166
14.000343367582113 75.2408
14.022827546871707 74.8401
14.045294743423524 74.053
14.06778000837062 73.462
14.090265817715476 73.3865
14.112734645763819 72.8815
14.13522154619454 72.4887
14.157691466286913 72.5533
14.180179461423874 72.3747
14.202668005486178 71.6266
14.22513957064374 71.426
14.247629214846473 70.5933
14.270101881097517 70.5721
14.29259262906496 70.6867
14.315083930490205 70.9188
14.337558255389705 71.1871
14.360050666019726 71.056
14.382526101071944 70.2219
14.405019624534942 69.8912
14.427513705993134 69.2781
14.449990813291825 69.2842
14.47248601302899 69.2958
14.49496423954951 69.1701
14.517460561197822 69.4966
14.539939910570322 69.1984
14.562437357763558 69.5832
14.58493536931253 70.4418
14.607416409993311 70.86399999999999
14.62991555254159 71.6644
14.652397725157423 71.4378
14.674898002342799 71.1973
14.697398848433282 71.0118
14.719882725991326 72.154
14.74238471217934 74.5745
14.764869730765593 78.39399999999999
14.787372860692983 81.9229
14.809876564079925 86.5238
14.83236330125751 92.4173
14.854868153850365 101.551
14.877356041159485 115.87799999999999
14.899862046604186 134.27200000000002
14.922351087688757 158.055
14.944858249632887 184.78799999999998
14.967365991421232 210.011
14.989856770231246 223.173
15.012365673994204 215.523
15.03485761569738 184.84
15.05736768508665 144.22
15.07987833888692 110.95100000000001
15.102372032001655 88.9722
15.124883856909658 76.5669
15.14737872204565 72.5095
15.169891721717274 70.9267
15.192405310371893 70.5688
15.214901940621196 70.6694
15.237416709527137 70.2926
15.259914520936249 70.3845
15.282430473753607 69.3185
15.304947020131227 68.6803
15.327446610371178 68.0779
15.349964346154254 67.487
15.372465126703139 67.1955
15.394984055556009 66.7943
15.417486030076159 66.8488
15.44000615566487 66.5474
15.462526881230803 66.4289
15.485030653812652 66.4359
15.507552581617434 66.2611
15.530057557334603 66.5174
15.55258069104857 66.72
15.575104429329837 66.6507
15.597611216864632 66.2856
15.620136166564563 67.1555
15.6426441664095 69.0142
15.665170331202765 71.94
15.687697105158826 74.7807
15.710206930593545 78.1501
15.732734925158933 82.406
15.755245972089478 89.3504
15.77777519094324 98.8376
15.800287463046663 112.486
15.822817909869592 130.759
15.84534897229804 150.667
15.867863089299354 173.197
15.890395385222186 190.40599999999998
15.912910736597423 193.956
15.935444269699861 181.187
15.957978423016485 151.781
15.980495633101265 119.45299999999999
16.003031029129367 94.1043
16.02554948280019 75.2337
16.048086125229432 67.0664
16.070623392487107 64.7539
16.09314371869582 63.8538
16.11568223789321 62.8677
16.13820381691126 62.2566
16.160743591742527 61.4411
16.183283996022084 60.7438
16.205807461423195 59.8613
16.228349126881973 59.2196
16.25087385432698 59.1323
16.27341678466365 58.5375
16.29594277784926 58.2749
16.31848697676433 58.3661
16.341031811604868 58.346000000000004
16.36355971058487 58.5404
16.3861058195587 58.1856
16.40863499352978 57.3901
16.431182380342005 56.9794
16.453730407713202 56.4314
16.476261501364792 56.0245
16.498810812136167 55.8463
16.52134319004079 56.0764
16.54389378792203 55.8937
16.566445031001553 55.7625
16.588979342490088 55.5575
16.61153187824822 55.2658
16.634067483263312 55.1544
16.656621315414416 54.9804
16.679175797408888 54.6556
16.701713349928728 55.0012
16.72426913389191 55.257
16.74680798922351 54.9702
16.76936507887444 55.0728
16.791905240734874 55.1233
16.814463639794468 54.9434
16.837022695210294 55.0135
16.859564824093756 55.1876
16.882125194503903 55.8219
16.904668639217885 56.201
16.927230328348003 56.2292
16.949792678493612 56.476000000000006
16.972338104193863 56.0474
16.994901778652235 55.9586
17.017448529496576 56.0178
17.040013531998152 56.3071
17.06257920018044 57.0212
17.0851279459922 57.9263
17.107694947817667 58.9498
17.130245028099072 59.6809
17.15281336730298 60.9891
17.17536478578733 62.6592
17.19793446610687 65.0476
17.220504818648422 67.7114
17.243058251703697 71.0756
17.265629950971032 75.1928
17.288184731571736 78.9064
17.310757781306908 82.4664
17.33333150794385 83.9598
17.355888317140174 81.5939
17.37846339986244 77.1929
17.401021565958885 71.0319
17.42359800851343 65.8211
17.44617513265564 62.0652
17.468735341390783 60.3976
17.491261035594565 59.4875
17.51396340099364 59.2029
17.536490463869136 59.4826
17.559018209820174 59.6682
17.58154663977963 59.7152
17.604251766089718 59.7778
17.626781572227713 60.0718
17.64931206518155 60.3726
17.671843245885103 60.7196
17.69455114821572 60.9988
17.717083712612634 61.1081
17.739616967569667 61.4652
17.762150914021706 61.8142
17.78486160749854 61.9096
17.807396945166804 63.0771
17.829932977143503 64.1332
17.85246970436452 66.1559
17.875183204129467 67.8293
17.897721330097664 70.0152
17.920260154126645 72.3885
17.942799677153296 75.7238
17.9655159983646 79.5026
17.988056927677544 85.2099
18.010598558807683 93.1763
18.033140892692916 102.8
18.05586005052525 112.70100000000001
18.07840379824407 123.469
18.10094825154059 134.739
18.12366954819864 141.084
18.146215420998306 141.265
18.16876200220057 132.441
18.191309292745153 117.037
18.214033452627167 103.51700000000001
18.236582170236648 91.9222
18.259131600016456 87.2554
18.281681742907335 87.7591
18.304408781233683 91.9721
18.32696035875955 96.5891
18.349512652227624 101.18799999999999
18.372065662579683 105.465
18.394795594587553 106.369
18.41735004715306 103.262
18.43990521943684 95.8316
18.46246111238171 86.441
18.485193953325208 76.8892
18.507751296070428 69.7776
18.530309362314178 65.7844
18.552868153000343 63.6498
18.57560391815056 62.5244
18.59816416623245 61.9353
18.620725141597372 61.6992
18.643286845190268 61.2754
18.666025549835414 60.7459
18.688588718427933 60.2842
18.711152618092243 60.0898
18.73389353884365 59.6618
18.75645890921984 59.4119
18.77902501351406 59.0756
18.801591852673102 59.0468
18.824335739722738 58.6075
18.846904057212626 58.4954
18.8694731124168 58.0447
18.89204290628315 58.2131
18.914789774966803 57.9288
18.937361054791623 57.7106
18.959933076131318 57.3824
18.982505839934877 57.2946
19.00525570560582 57.505
19.027829963004184 57.12
19.05040496572238 57.4047
19.072980714710468 57.4782
19.095733592739563 57.6175
19.11831084296757 57.7512
19.140888842324735 58.2982
19.16346759176222 58.731
19.18622349753803 59.3209
19.208803755869358 60.1084
19.231384767143577 61.4338
19.253966532312948 62.9372
19.276725481241822 65.0687
19.29930876296784 67.3992
19.3218928014549 70.0133
19.34465404436217 72.828
19.36723960516257 75.046
19.389825925592426 76.0325
19.412413006605938 75.2094
19.43517731967805 72.0906
19.457765930683355 67.5828
19.48035530514408 63.141000000000005
19.50294544401556 59.2058
19.525712842708348 56.5884
19.54830451925909 55.3848
19.570896963095727 54.4868
19.593490175174704 54.2181
19.616260674962184 54.1884
19.638855432416964 53.8943
19.661450960992624 54.0131
19.68404726164677 53.8444
19.706820878021247 53.6178
19.729418731756834 53.8201
19.752017360452857 53.7155
19.77461676506804 54.0028
19.797393513540218 54.1675
19.819994478951667 54.2637
19.84259622316767 54.733999999999995
19.8651987471481 55.3217
19.887978643247177 55.5882
19.91058273574792 55.9667
19.933187610901943 56.8936
19.955969879466828 58.2298
19.97857632894404 59.6656
20.00118356396599 61.431000000000004
20.023791585494575 63.4696
20.046577028914875 66.0501
20.069186632506966 67.9381
20.091797025500632 69.7402
20.114408208858933 70.1746
20.137196842715273 69.9154
20.159809615886765 68.344
20.18242318232135 65.79
20.20503754298326 63.9047
20.227829382875154 62.6834
20.250445341109344 62.6776
20.27306209647285 62.9113
20.29567964993108 64.2812
20.31847471147704 65.4734
20.34109387027612 65.8145
20.363713830075454 65.5984
20.386334591841646 64.2534
20.409132890679302 61.6816
20.431755265564437 58.3707
20.454378445325528 55.4587
20.477002430930366 53.6659
20.499803982716553 52.5061
20.522429589228004 51.7386
20.54505600449589 51.2551
20.567683229489194 51.1429
20.590488049900088 50.7767
20.61311690359731 50.4664
20.63574656993626 50.3029
20.658553853717297 49.816
20.681185154618298 49.9087
20.703817271080066 49.8879
20.72645020407368 49.5393
20.749260783967177 49.3587
20.771895359337133 49.257
20.794530754161617 49.3549
20.817166969412938 49.1709
20.83998086114876 49.0752
20.86261872660049 49.1418
20.885257415405402 48.93600000000001
20.90789692853701 48.9954
20.930714147864748 48.9671
20.953355319030678 48.9603
20.97599731745334 49.1282
20.99864014410749 48.9021
21.021460706796564 48.9489
21.044105199328826 49.18899999999999
21.06675052302631 49.5236
21.089396678865015 49.6747
21.112220600704806 49.9928
21.134868430275347 50.2896
21.15751709492456 50.5193
21.180166595629693 50.6883
21.202993892429635 51.3133
21.22564507473034 51.5417
21.24829709602816 51.7999
21.27112693608965 51.802
21.293780644891275 51.8279
21.316435195634053 50.9648
21.339090589297417 50.1917
21.361923832041875 49.8928
21.384580921090404 49.3501
21.407238856007325 48.7796
21.429897637773326 48.6625
21.45273429906592 48.7027
21.475394784108598 48.7048
21.498056118951983 48.6863
21.520718304578022 48.9003
21.543558400304388 49.1679
21.566222297108816 49.5593
21.58888704765135 49.4484
21.61155265291521 49.8771
21.63439619898156 50.2031
21.657063523335786 50.4846
21.67973170537063 51.0064
21.7024007460706 51.4493
21.72524775840385 52.1935
21.747918526116475 53.4592
21.770590155457388 54.6636
21.79326264741238 56.3467
21.816113141960237 57.9755
21.838787368860547 59.6215
21.861462461341976 61.3965
21.884315579735777 63.2735
21.90699241312273 64.6226
21.92967011506078 65.1209
21.95234868653799 64.8192
21.9752053151131 63.4642
21.997885635446785 61.4444
22.020566828293532 59.7337
22.04324889464272 57.8448
22.066109049404666 56.7364
22.088792872571794 56.092
22.111477572219204 56.3183
22.1341631493376 56.5171
22.157026846313123 56.4177
22.179714188221507 55.6898
22.202402410582668 54.6035
22.22509151438863 53.1102
22.24795876962584 51.6225
22.270649646204486 50.6322
22.293341407213727 49.8745
22.316034053646906 49.5239
22.338904883215342 49.305
22.36159931041458 49.1507
22.38429462602756 49.2294
22.40699083104897 48.9838
22.429865251039757 49.0607
22.452563244831367 49.1851
22.47526213102522 49.0811
22.49813925616515 49.0679
22.520839937143307 48.9391
22.543541513520587 48.9906
22.56624398629403 48.7526
22.589124730075895 48.9332
22.611829005656723 49.2477
22.63453418063466 49.2491
22.657240256008077 49.4513
22.680124634582935 49.5655
22.70283252079775 49.8027
22.725541310413075 50.1886
22.74825100442868 50.3073
22.771139033969575 50.7184
22.79385054687155 51.0058
22.81656296718292 51.6287
22.83927629590484 52.4801
22.862167992606945 53.6168
22.88488314827121 54.7477
22.907599215359284 55.7168
22.93031619487366 56.6956
22.953211574954405 57.3991
22.975930389478226 58.2384
22.998650119445763 58.4123
23.02137076586092 57.5764
23.044269845560063 56.3395
23.06699233506288 54.5901
23.089715744034912 52.8044
23.112617610931565 51.1675
23.135342869061212 50.1425
23.158069049684816 49.4613
23.1807961538087 49.122
23.20370174880544 49.1796
23.226430710184808 49.1716
23.249160598093425 49.2576
23.271891413539002 49.3872
23.294800752937697 49.2926
23.31753343374794 49.4496
23.340267045128353 49.6592
23.36300158808808 50.0305
23.38591468821339 50.4294
23.408651104658304 50.7823
23.431388455719986 51.3783
23.454126742409 52.1356
23.4770436196085 53.3157
23.499783787914662 54.5056
23.522524894889884 55.4028
23.54526694154616 56.2257
23.56818761219047 57.452
23.59093154860734 57.9918
23.613676427751283 58.3223
23.636422250635754 57.3297
23.659346731118656 55.7169
23.68209445191868 53.8427
23.704843119509587 51.7665
23.72759273490623 49.6634
23.750521041644767 48.3997
23.77327256312355 47.3341
23.796025035462787 46.8123
23.818956224555475 46.2459
23.841710609113413 46.2531
23.86446594758979 46.0421
23.887222241002014 45.7503
23.910157285144578 45.5827
23.932915498962537 45.5472
23.955674670778713 45.4785
23.978434801611975 45.1758
24.001373717286125 44.9443
24.024135776723917 44.8247
24.046898798245582 44.7432
24.06966278287146 44.6766
24.092605586582614 44.5688
24.115371508023642 44.303000000000004
24.1381383956401 44.136
24.16090625045381 44.0285
24.183852958731244 44.1529
24.206622758582608 44.035
24.229393528706886 43.8799
24.252165270127392 44.0372
24.27511589952438 43.8933
24.297889594216997 43.7416
24.32066426328598 43.6231
24.34343990775613 43.5286
24.36639447485003 43.4971
24.38917208083877 43.2381
24.41195066531332 43.405
24.43490819850244 43.424
24.457688750692377 43.2226
24.48047028445616 43.1791
24.503252800821233 43.3685
24.526214300784112 43.4257
24.548998793132213 43.4471
24.57178427117417 43.3144
24.59457073593893 43.2015
24.617536219319863 43.1069
24.64032466834748 43.1242
24.663114107195035 43.0786
24.685904536893013 42.8918
24.708874020360852 42.7876
24.731666442613744 42.8281
24.754459858818787 42.7214
24.777254270007962 42.5485
24.80022777025625 42.6439
24.82302418230472 42.7005
24.845821592443674 42.5881
24.86862000170663 42.3803
24.891597535453727 42.3451
24.914397953892728 42.4558
24.93719937456671 42.5637
24.96000179851076 42.667
24.98298338249997 42.9133
25.00578782394922 43.1079
25.028593271784167 43.342
25.05157790644186 43.8073
25.07438537804115 43.6796
25.097193859145293 43.8154
25.120003350792075 44.242
25.142992065061257 44.3769
25.165803588823465 44.6419
25.18861612625217 44.878
25.211429678386736 45.0183
25.234422489079968 44.9822
25.257238081693636 45.0745
25.280054692141732 45.1034
25.3028723214652 45.0675
25.325869245420463 45.3206
25.348688923599397 45.3712
25.371509623787006 45.2062
25.394331347025812 44.8167
25.41733240110666 44.3088
25.440156181590016 43.7437
25.46298098826268 43.3258
25.48580682216873 42.6467
25.50881202326435 42.0478
25.53163992281684 41.6184
25.55446885274561 41.2816
25.577298814096377 41.2208
25.600308179121807 41.1442
25.623140214533745 41.1475
25.64597328451537 41.1557
25.66898578564376 40.8633
25.691820936010206 40.9258
25.714657124097695 40.7871
25.737494350954734 40.8102
25.760511045684957 40.9112
25.783350361364224 40.8123
25.806190718969255 40.7853
25.82903211955018 40.7964
25.852053024868923 40.8655
25.874896522722523 40.97
25.897741066713106 40.8805
25.920586657892454 41.0364
25.943611790812668 41.1594
25.966459487728237 41.23
25.989308234998564 41.2639
26.01215803367705 41.6344
26.03518741123814 41.7759
26.05803932412957 41.8204
26.080892291600094 41.8795
26.10374631470478 41.8811
26.12677995397268 41.8972
26.14963609978026 41.9113
26.172493304397875 41.6768
26.19535156888223 41.3508
26.218389486949604 40.9799
26.241249882640123 40.8998
26.26411134137826 40.5376
26.28715248187403 40.5028
26.31001607820869 40.3355
26.3328807407756 40.2119
26.35574647063438 40.3531
26.37879191991473 40.3688
26.401659795896734 40.4184
26.424528742360263 40.5824
26.447398760366614 40.8151
26.470448535598294 40.9914
26.49332070826805 41.0446
26.516193955675355 41.4604
26.53906827888316 41.6785
26.562122397260108 41.7958
26.584998883685063 42.1183
26.607876449110325 42.3048
26.63075509460056 42.4251
26.65381357334404 42.5513
26.67669439061878 42.5519
26.699576291163382 42.3717
26.722459276044212 42.3194
26.745522132402975 41.9456
26.768407297649354 41.7351
26.791293550442003 41.3122
26.814180891848974 41.0207
26.837248143099337 40.824
26.860137673466657 40.6914
26.88302829566349 40.4154
26.90592001075963 40.3393
26.92899167420566 40.2104
26.951885586870763 39.736999999999995
26.974780595655517 39.5506
26.99785558178161 39.366
27.020752794605112 39.2991
27.043651106772522 39.1132
27.06655051935668 39.1368
27.089629948036183 38.8605
27.112531573292053 38.9602
27.135434302194138 39.0632
27.158338135817015 38.7552
27.181422024430987 38.9798
27.204328079372566 38.6946
27.22723524226965 38.7037
27.250143514198573 38.9495
27.273231880156334 38.8061
27.296142382065014 38.6259
27.319053996245536 38.6347
27.341966723775965 38.6789
27.365059584515222 38.8043
27.38797455070062 38.7927
27.410890633481237 38.7095
27.433807833936918 38.5891
27.456905206923906 38.802
27.47982465472398 38.6593
27.502745223449743 38.7957
27.525666914182825 38.9509
27.548768816912457 38.8284
27.571692763693633 38.9054
27.59461783573812 38.6823
27.617723149491244 38.3702
27.640650484125285 38.443000000000005
27.66357894728264 38.3285
27.686508540048052 38.3271
27.709618414237887 38.2365
27.732550278321757 38.0987
27.755483275279115 38.1358
27.778417406196485 38.1924
27.801531858397514 38.1862
27.824468269376716 38.1929
27.847405817586786 38.1508
27.870344504116094 38.2475
27.893463551932008 38.352
27.916404527281053 38.6426
27.93934664422563 38.6853
27.962289903855886 38.7556
27.98541356491974 38.982
28.00835912214229 39.0334
28.03130582533231 39.4176
28.054253675581805 39.4812
28.077381967556104 39.4134
28.100332124185126 39.3676
28.123283431160893 39.1811
28.146235889577238 39.0701
28.169368830154156 38.971
28.192323603752033 38.8116
28.215279532083304 38.3295
28.238415973016764 38.1663
28.261374223145094 38.0726
28.284333631303806 37.7813
28.307294198589954 37.7106
28.330435319167677 37.4121
28.353398217078915 37.1335
28.376362277420153 36.9617
28.39932750129032 36.8552
28.422473319286713 36.7008
28.44544088262495 36.6201
28.468409612800283 36.6258
28.491379510913497 36.2878
28.51453004413313 36.2138
28.53750229057244 36.1043
28.56047570826344 36.0745
28.583450298308804 36.0662
28.606605564586562 35.9518
28.629582511831156 36.0124
28.65256063474956 35.884
28.675539934446338 35.8918
28.698699951647605 35.9018
28.72168161743193 35.6754
28.74466446331978 35.7503
28.767648490417624 35.6292
28.790813276438353 35.6586
28.813799678527303 35.6783
28.836787265157085 35.6165
28.859955641890075 35.6703
28.882945610203045 35.6905
28.905936766392035 35.4428
28.928929111566863 35.5555
28.952102288520145 35.5086
28.975097024308607 35.4435
28.998092952423807 35.2603
29.021090073977508 35.0982
29.04426806913204 35.0488
29.067267590245258 34.8768
29.090268308143695 34.835
29.11327022394099 34.7069
29.13645305530891 34.6207
29.159457379627167 34.5136
29.18246290519685 34.5356
29.20546963313352 34.5819
29.22865731875826 34.7121
29.25166646419296 34.6827
29.27467681535305 34.5128
29.29768837335608 34.5422
29.320880931312562 34.431999999999995
29.34389491580634 34.4151
29.366910110507334 34.5262
29.38992651653503 34.4471
29.41312396492981 34.4576
29.436142806456754 34.3421
29.45916286268059 34.2735
29.48236399319994 34.2444
29.50538649169417 34.0417
29.528410208259935 33.883
29.55143514402014 33.6874
29.574641196749695 33.6115
29.597668583816574 33.4876
29.6206971934585 33.351
29.64372702680042 33.4316
29.666938019934474 33.2645
29.689970313635285 33.1318
29.713003834422636 33.1764
29.73603858342347 33.1531
29.759254535188578 33.0527
29.78229175361658 33.0727
29.80533020365064 33.1407
29.82836988641968 33.1446
29.85159081507472 32.9912
29.874632976355343 32.9331
29.89767637376955 33.0493
29.920721008448314 32.8495
29.9439469322847 32.8339
29.96699405457564 32.8083
29.9900424175358 32.8184
30.013092022298157 32.681
30.03632295963995 32.6834
30.059375061131373 32.76
30.08242840783577 32.7221
30.105483000888153 32.7142
30.128718970092244 32.6794
30.151776069006917 32.6749
30.17483441768648 32.6382
30.198074175317235 32.6632
30.221135036724256 32.7108
30.24419715131772 32.6079
30.267260520236203 32.5119
30.290505341942243 32.6026
30.313571232750228 32.6207
30.336638381310948 32.5537
30.35970678876503 32.5351
30.38295669299435 32.387
30.40602763151657 32.4317
30.429099832366074 32.3987
30.452173296685572 32.3799
30.47542830191959 32.2973
30.498504306502497 32.2709
30.521581577995562 32.431999999999995
30.544660117543582 32.424
30.56792024229725 32.3668
30.59100133132069 32.3085
30.614083691845494 32.4042
30.637167325018545 32.5056
30.660432587840603 32.4133
30.683518779717886 32.4629
30.70660624769615 32.4776
30.729694992924372 32.4228
30.75296541239743 32.4334
30.77605672557558 32.372
30.799149319462742 32.3326
30.8224236211637 32.2054
30.845518789950724 32.0116
30.868615242910597 32.0376
30.891712981195973 32.018
30.91499247215866 31.8954
30.938092794619365 31.8106
30.96119440587579 31.684
30.984297307082752 31.593000000000004
31.00758200598383 31.5742
31.030687500658694 31.4521
31.053794288760695 31.4452
31.076902371446767 31.2389
31.100192296997445 31.3512
31.12330298246119 31.4713
31.14641496599209 31.155
31.169528248749216 31.1032
31.19282341969534 31.1933
31.215939314557186 31.2057
31.239056512134788 31.1494
31.262175013589378 30.9987
31.28547544871168 31.0824
31.30859657161541 30.9929
31.331719001892175 30.9521
31.35484274070538 31.1837
31.378148458819545 31.2713
31.401274828443725 31.0524
31.424402510106933 31.0488
31.447712205419993 31.2407
31.470842524931633 31.1251
31.493974159989783 30.9811
31.51710711176168 31.0022
31.54042212308802 31.1085
31.563557722100917 31.008000000000003
31.586694641341655 30.8258
31.609832881979628 30.7188
31.63315322823208 30.6677
31.656294125521327 30.5422
31.679436347728515 30.53
31.70257989602529 30.4957
31.725905596152327 30.5051
31.74905181052835 30.3774
31.772199354521323 30.4536
31.79534822930507 30.4406
31.818679302290967 30.4354
31.84183085259981 30.2963
31.864983737233473 30.3411
31.88813795736804 30.3674
31.911474422233013 30.2938
31.934631327356435 30.3022
31.9577895715215 30.2787
31.980949155906522 30.2279
32.004291031706956 30.276999999999997
32.027453310562606 30.1165
32.05061693318573 29.9806
32.07396288236386 30.083000000000002
32.09712920658542 30.0934
32.12029687812702 29.8196
32.14346589817093 29.7741
32.166817291729984 29.7656
32.18998902288583 29.6302
32.21316210610336 29.5594
32.23633654256711 29.4827
32.259693399663725 29.4252
32.282870556771144 29.3463
32.30604907069099 29.4022
32.329228942610065 29.3268
32.35259128243769 29.2506
32.375773884550505 29.1872
32.398957848235646 29.1576
32.422143174682176 29.0218
32.445511016471215 29.0023
32.468699082679954 28.8562
32.49188851523011 28.8116
32.51507931531304 28.7659
32.538452678331 28.8268
32.56164622776311 28.6862
32.58484114831493 28.7248
32.60803744118015 28.7615
32.631416344731896 28.6569
32.654615396551876 28.63
32.67781582427913 28.6214
32.701198898634416 28.4978
32.72440209253756 28.487
32.747606665947124 28.5049
32.77081262006088 28.311999999999998
32.79420126883317 28.3637
32.81740999876112 28.3224
32.840620112999424 28.2418
32.86383161274818 28.1828
32.88722585534586 28.264
32.91044014056596 28.3466
32.933655814909734 28.1551
32.95687287957963 28.2171
32.98027273544904 28.1339
33.00349259526636 28.0721
33.026713849030116 28.083000000000002
33.04993649794511 28.0077
33.073341986570746 28.0143
33.09656744032826 27.9981
33.11979429286444 27.9786
33.14302254538647 28.0151
33.166433686291185 28.0235
33.18966475336992 27.9246
33.212897224069096 27.8161
33.23613109959831 27.7649
33.259547912343415 27.9069
33.2827846121627 27.7921
33.306022720453775 27.631999999999998
33.32926223842861 27.555999999999997
33.352684742614166 27.5913
33.37592709463173 27.5378
33.399170859982064 27.4932
33.422597648419426 27.3864
33.44584425514446 27.2206
33.46909227885668 27.2007
33.4923417207723 27.131
33.51577423505344 27.2286
33.539026528130385 27.0946
33.56228024307245 27.0799
33.585535381098246 26.9186
33.60897364093058 26.8511
33.63223163992385 26.9231
33.6554910656699 26.8241
33.678751919389796 26.8373
33.702195944520106 26.7718
33.72545966903325 26.766
33.74872482519663 26.6789
33.771991414233746 26.6747
33.79544122444841 26.6825
33.81871069412428 26.5648
33.84198160035767 26.5386
33.86525394437455 26.5558
33.88870955949969 26.5069
33.911984794020626 26.4031
33.93526147001624 26.4612
33.958539588715006 26.3416
33.98200102861669 26.3047
34.0052820477047 26.2383
34.02856451319451 26.2591
34.05203033759056 26.1188
34.07531571090147 26.1354
34.09860253431845 26.1333
34.121890809074316 26.0627
34.145362493118924 26.0508
34.16865368561615 26.0312
34.191946333164054 25.9452
34.21524043699793 25.8823
34.23871800066799 25.9294
34.26201503218366 25.8631
34.28531352370466 25.8342
34.30861347646881 25.7256
34.33209693978188 25.7269
34.3553998301885 25.6696
34.378704185565205 25.682
34.402010007152356 25.5587
34.42549939016683 25.6441
34.44880815937748 25.5237
34.472118398533134 25.4393
34.49543010887669 25.4151
34.51892543169198 25.2271
34.54224009966052 25.3321
34.56555624255917 25.3247
34.58887386163339 25.2249
34.61237514439016 25.1748
34.6356957311114 25.0711
34.65901779775809 25.0985
34.68252356662995 25.0127
34.705848608458616 25.0683
34.72917513396849 24.9721
34.75250314440949 24.9532
34.77601490857862 24.8923
34.799345904259795 24.8283
34.82267838863559 24.829
34.846012362958525 24.7967
34.869530142679984 24.8011
34.89286711232212 24.7159
34.91620557568269 24.7478
34.93954553401677 24.6986
34.9630693495876 24.595
34.986412313340814 24.6813
35.00975677584668 24.7087
35.033102738362956 24.6176
35.05663261012228 24.5172
35.0799815881786 24.5868
35.10333207003229 24.425
35.12668405694369 24.4812
35.150220005273056 24.4307
35.17357501786656 24.4784
35.19693153931268 24.3422
35.220289570874385 24.2894
35.24383161619786 24.3564
35.267192683604904 24.2865
35.290555264930376 24.2509
35.314101899412165 24.2196
35.33746752422433 24.0844
35.36083466676374 24.0916
35.38420332829803 24.1654
35.407756095629054 24.1555
35.43112781085063 24.2286
35.45450104888391 24.0906
35.477875810999194 24.1621
35.50143473172161 24.0672
35.52481255774625 24.0137
35.54819191167777 23.9288
35.57157279478914 23.8252
35.595137889488406 23.8515
35.61852184675279 23.8122
35.641907337029984 23.753
35.665294361595684 23.7585
35.68886565090076 23.7181
35.7122557598848 23.6754
35.73564740699838 23.6223
35.759040593519934 23.6419
35.78261809810353 23.5756
35.80601437933051 23.529
35.829412203814705 23.4608
35.85281157283719 23.3526
35.876395313415884 23.4657
35.8997977874528 23.3666
35.92320180988546 23.3987
35.946790244133936 23.269000000000002
35.97019737933222 23.2625
35.993606066789866 23.2651
36.01701630779276 23.1929
36.04061101440684 23.1711
36.06402437852291 23.1211
36.08743930005611 23.0854
36.1108557802951 23.0012
36.13445678011326 22.9562
36.15787639383515 23.0513
36.18129757014299 22.9616
36.20472031032821 22.9027
36.22832762423364 22.7401
36.25175350829375 22.8076
36.275180960119776 22.8124
36.298609981005924 22.8263
36.32222362992669 22.775
36.34565580510207 22.6919
36.36908955323448 22.6832
36.39252487562093 22.5705
36.416144880530226 22.5936
36.43958336764275 22.5826
36.463023432914625 22.6558
36.486465077645676 22.5136
36.51009145956204 22.55
36.53353627947859 22.5182
36.55698268276811 22.5668
36.58043067073321 22.4421
36.60406345072071 22.3551
36.62751462435344 22.3229
36.65096738658405 22.329
36.67460498210655 22.293000000000003
36.69806093788647 22.2655
36.72151848619297 22.238000000000003
36.744977628333636 22.1814
36.76862165890998 22.0742
36.79208400512205 22.1541
36.81554794910557 22.1081
36.83901349217101 21.9758
36.862663978991606 22.0017
36.88613273667352 21.9908
36.90960309738324 21.9458
36.933075062434064 21.915
36.95673202673572 21.8697
36.98020721697122 21.809
37.003684015502365 21.7666
37.027162423645365 21.6942
37.050825886711465 21.7392
37.07430753063053 21.7032
37.09779078812467 21.668000000000003
37.121275660513014 21.6022
37.144945643673694 21.5502
37.16843376245278 21.5194
37.19192350009803 21.5536
37.215414857931435 21.4743
37.239091382563885 21.3458
37.262585997426164 21.3722
37.28608223645736 21.3149
37.309763684451696 21.3968
37.33326318851098 21.2262
37.356764320726555 21.2548
37.380267082425526 21.281
37.40395510942588 21.2327
37.42746114683234 21.1963
37.45096881771841 21.1268
37.474478123414166 21.0973
37.49817275092816 21.0667
37.52168534303452 20.9647
37.54519957395567 20.9765
37.568715445024665 20.9762
37.592416694607714 20.9293
37.61593586281424 20.9467
37.63945667518264 20.9625
37.66297913304891 20.8893
37.68668702630454 20.9022
37.710212792059274 20.7286
37.733740207334854 20.6519
37.757269273470364 20.6915
37.780983832050374 20.6581
37.80451621684926 20.6743
37.82805025654007 20.6347
37.851585952464795 20.5907
37.8753071980695 20.4795
37.89884622345676 20.5176
37.92238690911902 20.46
37.94611318753442 20.3968
37.969657210779765 20.4041
37.99320289834801 20.4205
38.016750251586465 20.3297
38.04048325513017 20.285999999999998
38.06403395679343 20.2642
38.087586328183946 20.2184
38.11114037065203 20.1841
38.13488012115898 20.2153
38.1584375229181 20.1059
38.181996599821 20.1206
38.205557353221124 20.0628
38.229303872575656 19.9977
38.2528679961576 19.9767
38.27643380031219 19.9811
38.30000128639589 19.9042
38.32375459653193 20.0
38.34732546371299 20.0107
38.37089801690786 19.8419
38.39447225747609 19.7816
38.418232380377425 19.8135
38.441810012983396 19.7398
38.46538933705673 19.7322
38.488970353960084 19.7456
38.51273731166058 19.7225
38.536321731567014 19.6296
38.55990784840681 19.6113
38.58367995004091 19.4877
38.60726947812959 19.4761
38.63086070726198 19.5425
38.654453638806274 19.5874
38.678232613930824 19.4271
38.70182896773327 19.3656
38.72542702806741 19.3054
38.7490267963045 19.2941
38.77281266709232 19.3602
38.79641586862214 19.3249
38.8200207821842 19.2768
38.843627409152944 19.2862
38.86742019782782 19.2744
38.891030269149255 19.1425
38.914642058016156 19.2166
38.938255565806124 19.1453
38.96205529464307 19.0136
38.98567225787121 19.0706
39.00929094417078 19.101
39.03291135492255 19.0793
39.05671804624804 19.0587
39.080341923549106 18.9013
39.103967529460334 18.8742
39.127594865365744 18.7934
39.15140854155791 18.8739
39.17503935514948 18.8572
39.19867190290282 18.7692
39.22249083587951 18.7434
39.24612686969409 18.7363
39.269764641845306 18.7313
39.293404153722804 18.7256
39.317230110864074 18.6556
39.34087311998506 18.5369
39.36451787301696 18.5871
39.388164371352595 18.5189
39.41199737518003 18.4793
39.43564738196752 18.4564
39.45929913825317 18.4299
39.48295264543308 18.4192
39.506792718520884 18.3578
39.530449745387216 18.3193
39.55410852735203 18.3273
39.57776906581474 18.3423
39.60161623079 18.2194
39.625280300200025 18.1863
39.64894613032202 18.1452
39.67261372255866 18.1155
39.6964680021016 18.1095
39.72013913657293 18.1082
39.74381203738292 18.1594
39.76748670593756 18.0775
39.79134812278169 18.0405
39.81502634488497 18.0417
39.83870633896685 17.9826
39.862388106436654 17.9672
39.88625668336918 17.9463
39.90994201572829 17.8862
39.933629125719285 17.8366
39.957503091207826 17.7978
39.9811937746168 17.7968
40.00488623990914 17.7277
40.02858048850006 17.7614
40.05246165409549 17.7072
40.076159487492085 17.6995
40.099859108448875 17.7351
40.123560518384345 17.7411
40.1474489070226 17.6433
40.171153913178564 17.5549
40.194860712584955 17.5687
40.2185693066637 17.5989
40.242464941335314 17.5179
40.26617714307655 17.4847
40.289891143772046 17.4467
40.3136069448471 17.3959
40.33750984859743 17.3723
40.3612292688043 17.3766
40.3849504936829 17.3296
40.40867352466194 17.3504
40.43258372059144 17.2911
40.45631038219906 17.2563
40.48003885420956 17.2224
40.503769138055105 17.2518
40.52768664931955 17.206
40.55142057531802 17.1841
40.57515631746428 17.1567
40.599079334038514 17.0953
40.62281872700477 17.0799
40.64655994043941 17.073
40.67030297578061 17.0246
40.69423334835778 16.9958
40.71798004609188 16.9967
40.74172857006355 16.9033
40.76547892171441 16.9381
40.7894166736039 16.9
40.813170699248566 16.8788
40.83692655691388 16.811
40.86068424804498 16.8088
40.884629402612525 16.8276
40.908390779366385 16.7826
40.932153993938 16.7261
40.95591904777605 16.7465
40.979871628443995 16.7223
41.003640379561936 16.7101
41.02741097430883 16.6604
41.05118341413683 16.6134
41.075143444384416 16.594
41.098919593177826 16.5922
41.1226975914255 16.5211
41.14647744058318 16.4612
41.170444943946755 16.4497
41.19422851378379 16.3979
41.218013938914645 16.4549
41.24198706625173 16.3783
41.26577622087193 16.3334
41.289567235177785 16.3127
41.31336011063129 16.3538
41.337340752422875 16.2894
41.361137369129835 16.2705
41.38493585138705 16.2203
41.40873620066004 16.1485
41.43272438060107 16.1471
41.45652848292052 16.0926
41.48033445666918 16.0467
41.50414230331616 15.9699
41.528138045159764 16.032
41.551949656675205 15.9805
41.575763145513235 16.0066
41.59957851314666 15.9466
41.62358184070442 15.9139
41.64740098505737 15.9043
41.6712220126409 15.8767
41.69504492493139 15.8122
41.71905586207357 15.8452
41.74288256296395 15.7593
41.766711153007456 15.7338
41.79054163368412 15.7262
41.814560204340054 15.7581
41.838394485526365 15.7378
41.86223066180303 15.6323
41.88625497706819 15.6206
41.910094962812 15.6089
41.93393684811168 15.595
41.95778063445365 15.5637
41.981812625263366 15.5227
42.00566023303407 15.5202
42.029509746323676 15.5116
42.05336116662236 15.5463
42.077400857069705 15.4978
42.10125611078846 15.4239
42.12511327600405 15.3663
42.14897235421036 15.3583
42.173019768448455 15.3807
42.19688269209613 15.3294
42.22074753323349 15.3307
42.24461429335818 15.2441
42.268669455600495 15.2164
42.292540073217886 15.2439
42.31641261433284 15.1715
42.34028708044675 15.1245
42.36435001496739 15.1443
42.38822835065557 15.1548
42.41210861586426 15.0409
42.4359908120986 15.0744
42.46006154323262 15.0642
42.48394762115317 15.0469
42.507835634632315 15.0216
42.531912233047436 14.9913
42.55580413732265 14.9761
42.579697981698 14.9494
42.60359376768525 14.8616
42.62767820545945 14.8838
42.65157789440821 14.870999999999999
42.67547952952185 14.8554
42.699383112316 14.812000000000001
42.72347541395347 14.7494
42.74738291190531 14.6935
42.771292362102166 14.7208
42.795203766063516 14.6767
42.819303956130405 14.6546
42.843219287476536 14.6201
42.86713657716324 14.6222
42.89105582671383 14.5499
42.91516392983864 14.5703
42.939087119032166 14.5469
42.963012272677304 14.4986
42.98693939230129 14.4908
43.01105543317513 14.4617
43.034986504731386 14.458
43.05891954686589 14.3775
43.08285456110972 14.4029
43.10697856448665 14.3336
43.130917542983475 14.2826
43.15485849820081 14.3182
43.17880143167367 14.2723
43.20293342237094 14.2793
43.226880332449 14.1679
43.25082922540554 14.2367
43.27496722682525 14.217
43.29892010567796 14.1423
43.32287497204102 14.1303
43.34683182745632 14.0606
43.370977859791836 14.0468
43.39493871351105 14.0525
43.41890156092628 14.0141
43.44286640358341 13.9651
43.46702049182749 14.0018
43.49098934522816 13.9373
43.51496019852649 13.9496
43.5389330532723 13.9342
43.56309522248204 13.8911
43.58707210044314 13.8463
43.61105098451946 13.823
43.63503187626491 13.8168
43.659202151562134 13.7677
43.68318707902681 13.8054
43.70717401884041 13.7877
43.731162972560874 13.7258
43.75534137913236 13.6571
43.779334381108384 13.6817
43.803329401683186 13.6582
43.82732644241872 13.6431
43.8515130055166 13.6296
43.87551410707659 13.5598
43.89951723350145 13.554
43.923709934595614 13.5307
43.94771713129917 13.5152
43.97172635758096 13.4984
43.99573761501002 13.4529
44.0199385169922 13.4461
44.04395385732619 13.4089
44.067971233533086 13.3712
44.09199064718605 13.3467
44.11619977548961 13.3386
44.14022328470671 13.3393
44.16424883610785 13.3376
44.18827643127035 13.304
44.21249381139513 13.2919
44.236525514814076 13.2403
44.26055926674478 13.2012
44.28459506876863 13.2224
44.3088207262813 13.2015
44.33286064928722 13.1305
44.35690262714919 13.0937
44.38094666145278 13.0826
44.4051806219871 13.1285
44.42922879003185 13.0592
44.45327901929361 13.0508
44.477331311362136 13.0213
44.501573600619416 12.9522
44.525630039221795 12.9395
44.54968854541895 12.925
44.573937102200176 12.8924
44.5979997645541 12.8576
44.622064499300315 12.8541
44.64613130803592 12.845999999999998
44.67038823869318 12.8246
44.69445921643748 12.8171
44.718532272981385 12.7407
44.742607409926194 12.7608
44.76687274034801 12.7556
44.79095205918753 12.7429
44.81503346325094 12.6929
44.839116954143876 12.6818
44.86339071028742 12.6114
44.88747839599524 12.6121
44.91156817336837 12.6137
44.93566004401666 12.5877
44.959942251908146 12.5818
44.984038330325966 12.5257
45.00813650686762 12.4707
45.03223678314731 12.469000000000001
45.05652746888232 12.4405
45.08063196592069 12.4382
45.104738567558705 12.3859
45.128847275414856 12.3872
45.15314646515866 12.3637
45.17725940679741 12.32
45.20137445952892 12.3219
45.22568004865265 12.353
45.24979934496396 12.3071
45.27392075725247 12.2712
45.29804428714431 12.2177
45.322358426247604 12.1881
45.346486212804315 12.2328
45.370616121861914 12.1717
45.39474815505086 12.1074
45.41907087049246 12.1239
45.4432071734666 12.1155
45.46734560548283 12.123
45.49148616817604 12.1072
45.51581748638564 12.0573
45.5399623320197 12.040999999999999
45.56410931325473 12.0085
45.58825843173002 12.062000000000001
45.61259837920865 11.9988
45.636751793816 11.9382
45.66090735060093 11.9244
45.68506505120716 11.9324
45.7094136545275 11.9179
45.73357566449271 11.8667
45.75773982322992 11.8427
45.78190613238733 11.7978
45.806263418194064 11.7808
45.83043404997326 11.7822
45.85460683713677 11.773
45.87897065658495 11.7222
45.90314777634752 11.7293
45.92732705646868 11.6949
45.9515084986045 11.6727
45.97588104735473 11.6452
46.00006683541565 11.6245
46.02425479047904 11.623
46.04844491420549 11.6124
46.0728262191024 11.6103
46.09702070211635 11.5426
46.12121735879483 11.530999999999999
46.14541619080294 11.5019
46.169806278764455 11.5525
46.194009483459034 11.5194
46.21821486849841 11.4404
46.24242243555223 11.4638
46.266821333570014 11.3894
46.29103328674601 11.4039
46.31524742696538 11.3943
46.33946375590237 11.3723
46.36387149104216 11.3034
46.38809221957392 11.231
46.41231514186606 11.2911
46.436540259597464 11.2575
46.460956858999374 11.2431
46.48518638983522 11.2328
46.509418121166966 11.205
46.533652054678114 11.1885
46.55807754555709 11.1671
46.58231590571962 11.1498
46.60655647313217 11.0933
46.630988654873654 11.065
46.655233659129024 11.0799
46.67948087571551 11.0448
46.70373030632484 11.0321
46.72817142736393 11.0216
46.752425308428684 11.0008
46.77668140861147 10.9785
46.80093972960865 10.9641
46.82538981736788 10.9487
46.849652602470904 10.9278
46.87391761349769 10.8984
46.8981848521493 10.8566
46.9226439341274 10.8387
46.946915650573224 10.7937
46.97118959976749 10.8112
46.99546578341598 10.7727
47.019933887188216 10.7792
47.04421456235744 10.7901
47.06849747711879 10.7412
47.09278263318286 10.7327
47.11725978640143 10.6905
47.14154944775105 10.6661
47.165841355555656 10.6316
47.1901355115306 10.5672
47.214621741924994 10.6255
47.23892041698887 10.6027
47.26322134538975 10.5753
47.28771440635075 10.5183
47.31201986422527 10.5527
47.33632758061436 10.5291
47.360637557241866 10.5108
47.38513974410611 10.4398
47.40945426407847 10.4457
47.43377104948137 10.4355
47.45809010204344 10.429
47.48260144275502 10.4195
47.506925052572285 10.3915
47.53125093475548 10.3298
47.55557909103813 10.353
47.58009961361992 10.3451
47.60443234110732 10.3247
47.62876734791564 10.2725
47.65310463578333 10.2675
47.6776343683373 10.2272
47.7019762413987 10.1985
47.72632040075572 10.1825
47.75066684815169 10.1841
47.77520581885936 10.1324
47.799556865477655 10.1581
47.823910205386 10.1746
47.84826584033272 10.151
47.87281407745551 10.0928
47.89717432569297 10.0973
47.92153687423484 10.0502
47.94609208429692 10.0918
47.97045925671401 10.0513
47.99482873471275 10.0086
48.01920052005013 9.991769999999999
48.04376504619224 9.94856
48.068141469543484 9.95689
48.09252020552573 9.92671
48.11690125590099 9.92112
48.1414751266064 9.914860000000001
48.16586082917454 9.89155
48.19024885144316 9.85896
48.2146391951793 9.83734
48.239222439012764 9.81804
48.26361744916137 9.796710000000001
48.28801478610016 9.80001
48.31241445160131 9.79011
48.337007097209366 9.73475
48.36141144338331 9.74569
48.38581812345755 9.71513
48.41022713920929 9.73351
48.434829215320704 9.6781
48.45924292604658 9.68432
48.48365897780325 9.67782
48.50807737237308 9.65142
48.532688907799276 9.66005
48.55711201168574 9.59215
48.581537463754074 9.56444
48.60615611725119 9.62603
48.63058628942721 9.5447
48.65501881516546 9.50358
48.6794536962573 9.51357
48.70408185970339 9.51828
48.72852147531801 9.46376
48.75296345168211 9.44029
48.77740779059232 9.47064
48.80204549302823 9.45065
48.82649458091802 9.39975
48.85094603676547 9.36311
48.87539986237231 9.36562
48.90004713292306 9.34913
48.92450572200832 9.33571
48.94896668628025 9.31558
48.97343002754588 9.27847
48.99808689542115 9.28938
49.02255501470614 9.27866
49.04702551642794 9.25437
49.0714984023988 9.27934
49.096164896893235 9.19395
49.120642575466796 9.19643
49.145122643748394 9.14991
49.16960510355558 9.16548
49.19428125404938 9.16254
49.2187685210852 9.14526
49.243258185121555 9.13681
49.26794160167084 9.1126
49.2924360839405 9.07366
49.31693296869764 9.03102
49.34143225776915 9.02288
49.36612538195438 8.99935
49.39062950396021 9.02505
49.41513603578346 9.0004
49.4396449792564 8.98489
49.46434784069503 8.94744
49.488861631846454 8.94133
49.513377840166804 8.951410000000001
49.537896467493745 8.88461
49.56260909589029 8.8439
49.587132585683285 8.83986
49.611658500018365 8.846589999999999
49.636186840738596 8.827210000000001
49.66090926588511 8.82485
49.685442483902584 8.79358
49.70997813385706 8.78092
49.734516217597076 8.7725
49.75924846937352 8.74375
49.7837914452858 8.71204
49.80833686055187 8.71108
49.83288471702571 8.69505
49.85762682540054 8.68859
49.882179588965734 8.63642
49.9067347993235 8.6131
49.93129245833333 8.628169999999999
49.95604445336378 8.617939999999999
49.98060703442832 8.562339999999999
50.005172069746266 8.54969
50.02993150438364 8.598230000000001
50.05450147301533 8.57635
50.07907390151433 8.55045
50.10364879174981 8.506
50.12841816587289 8.46527
50.1529980044635 8.444560000000001
50.17758031042124 8.47865
50.20216508562089 8.45228
50.22694442953363 8.40455
50.25153416817468 8.379
50.27612638170508 8.378210000000001
50.300721072005196 8.34506
50.325510416102105 8.34382
50.350110084975064 8.32483
50.37471223628208 8.34482
50.39931687190919 8.29524
50.424116246675766 8.2788
50.44872587605249 8.250210000000001
50.47333799543065 8.27853
50.49795260670191 8.23939
50.52276204271512 8.21645
50.54738166295838 8.22579
50.57200378079314 8.19406
50.596628398116835 8.20049
50.62144792604559 8.18256
50.646077567609396 8.128739999999999
50.670709714377715 8.142439999999999
50.69553683636198 8.11618
50.72017401885922 8.10533
50.7448137122895 8.1114
50.76945591856022 8.077580000000001
50.79429318636823 8.063360000000001
50.818940443716784 8.06178
50.84359021965163 8.02517
50.868242516085964 8.00255
50.893089960641895 7.9659699999999996
50.917747323549435 7.98663
50.94240721271973 7.9793199999999995
50.96706963007175 7.94595
50.99192728239342 7.93605
51.01659478166073 7.91039
51.04126481489051 7.93651
51.06593738400761 7.9554800000000006
51.090805275207074 7.8791
51.11548294172845 7.886539999999999
51.14016314993547 7.863580000000001
51.164845901758845 7.82637
51.18972406304274 7.77728
51.21441192780656 7.805389999999999
51.23910234200271 7.773160000000001
51.2637953075678 7.761430000000001
51.288683770237945 7.75247
51.31338186432707 7.73495
51.33808251561888 7.6952
51.362978729967345 7.7232899999999995
51.387684521509755 7.69853
51.41239287610203 7.6585600000000005
51.437103795691165 7.62275
51.46201036644977 7.63099
51.486726441956634 7.61791
51.51144508832545 7.61942
51.536166307509156 7.58188
51.56108326624387 7.59247
51.58580965706056 7.5259100000000005
51.61053862657523 7.54422
51.635270176746864 7.482069999999999
51.66019755512065 7.52375
51.68493429268881 7.50966
51.70967361681515 7.5041
51.73441552946465 7.44124
51.759353359237934 7.43681
51.7841004750961 7.446969999999999
51.80885018539685 7.4177
51.833602492111254 7.37925
51.8585508051424 7.386080000000001
51.883308330926425 7.35301
51.90806845906181 7.37972
51.932831191525715 7.34207
51.95779001977161 7.30058
51.98255798721516 7.3143899999999995
52.00732856494335 7.24482
52.03229530577543 7.254810000000001
52.057071130455945 7.2469
52.081849571391054 7.26863
52.106630630568695 7.22117
52.13160794279417 7.18375
52.15639426492067 7.21972
52.18118321127822 7.213769999999999
52.205974783860896 7.17485
52.23096269971011 7.13779
52.255759551287994 7.1196600000000005
52.280559035098186 7.12015
52.30536115314103 7.10205
52.33035970494467 7.11578
52.35516711807904 7.09968
52.37997717147198 7.069139999999999
52.40478986713005 7.067239999999999
52.42979908731974 7.01514
52.454617094216 7.0089999999999995
52.47943774942214 7.002789999999999
52.50426105495102 6.997210000000001
52.529280976059844 6.94428
52.554109609024096 6.96955
52.57894089837482 6.977
52.60377484613117 6.91904
52.62880550079408 6.95022
52.65364479223379 6.88928
52.67848674816189 6.85952
52.70352547971946 6.90225
52.72837279155837 6.8621
52.753222773982785 6.827719999999999
52.778075429022984 6.86152
52.80312495150885 6.85008
52.827982978797436 6.82815
52.85284368481815 6.832669999999999
52.87770707160767 6.799289999999999
52.90276741793998 6.767339999999999
52.92763619336701 6.75025
52.952507655698504 6.730060000000001
52.977381806977576 6.756130000000001
53.00245301017842 6.73303
53.02733256653592 6.68775
53.052214817996074 6.668260000000001
53.077099766608484 6.6961
53.102181859804446 6.65988
53.127072229988265 6.65873
53.15196530349892 6.606319999999999
53.17686108239249 6.6078
53.20195409881522 6.59753
53.22685531582556 6.625660000000001
53.25175924441303 6.56973
53.27666588664027 6.564039999999999
53.30176985962693 6.52767
53.3266819565689 6.53302
53.35159677336455 6.50456
53.376514312083096 6.51192
53.40162927507703 6.48869
53.42655228516116 6.483569999999999
53.45147802340193 6.491169999999999
53.47660125628886 6.44984
53.50153247842639 6.39351
53.52646643496923 6.40626
53.55140312799818 6.41552
53.576537409691696 6.39174
53.60147960336152 6.358969999999999
53.626424539786164 6.36399
53.65137222105307 6.3596900000000005
53.67651758529126 6.34126
53.70147078399681 6.29777
53.72642673383343 6.31118
53.75138543689533 6.31152
53.776541917524526 6.25135
53.801506154876755 6.271809999999999
53.826473151763246 6.28064
53.851442910284916 6.20858
53.87661054126026 6.20866
53.9015858509782 6.211
53.92656392866066 6.21111
53.95154477641532 6.18286
53.976723591801296 6.18087
54.00171000771266 6.15647
54.02669920004598 6.1792
54.051691170915745 6.10316
54.076881204886796 6.11607
54.101878760928514 6.13361
54.12687910187696 6.07294
54.152077577768296 6.06771
54.1770835166946 6.09753
54.20209224691339 6.033530000000001
54.22710377055121 6.02912
54.25231352511594 6.03939
54.27733066384342 5.98949
54.30235060239643 5.96243
54.32737334290836 5.98361
54.35259441062629 5.92775
54.377622783395324 5.94146
54.40265396455061 5.97087
54.42768795623251 5.93618
54.45292037169559 5.9078
54.477960012857906 5.89874
54.50300247099511 5.87739
54.52804774825457 5.80126
54.55329154616743 5.81438
54.57834249018678 5.799919999999999
54.6033962597977 5.78057
54.6284528571545 5.75062
54.653708072335164 5.71877
54.67877035378786 5.68843
54.70383546947698 5.649030000000001
54.72890342156389 5.64575
54.7541700889442 5.6387
54.77924374251975 5.6429800000000006
54.8043202390049 5.62453
54.82959552413022 5.63261
54.8546777351945 5.58178
54.87976279569621 5.5563
54.90485070780914 5.57364
54.930137506558005 5.48998
54.95523115074295 5.49148
54.98032765308844 5.48851
55.005427015775496 5.48082
55.03072536339621 5.48816
55.05583047570572 5.42089
55.080938454927676 5.42086
55.10604930325027 5.4166
55.131359235107396 5.39237
55.15647585066083 5.39365
55.181595341907496 5.32089
55.20671771104285 5.3108699999999995
55.232039262617704 5.2602
55.25716741665048 5.22529
55.28229845518636 5.26194
55.30743238042802 5.193230000000001
55.33276558731939 5.12392
55.357905315183636 5.1304300000000005
55.383047936390035 5.09596
55.40819345314859 5.07111
55.433538351073295 5.10414
55.458689688238415 5.05635
55.483843927614096 4.99995
55.509197623043605 5.0189699999999995
55.53435769621134 4.98203
55.55952067826466 4.92634
55.5846865714265 4.89571
55.61005202069737 4.92844
55.63522376553902 4.97429
55.66039842818645 4.91332
55.68557601087004 4.8755
55.7109532500271 4.80837
55.73613670233794 4.8365800000000005
