TT I
1.2716486653135266 7.787030000000001
1.2939594142134223 7.306489999999999
1.3162702121660406 6.41446
1.3385810600174564 7.03653
1.3608919586137629 6.650189999999999
1.383202908801069 6.834510000000001
1.405513911425503 6.47677
1.4278249673332093 6.2918400000000005
1.4501343378461518 5.93009
1.4724455028545926 5.77292
1.4947567236847858 6.1523699999999995
1.517068001182951 6.46821
1.5393793361953272 6.07095
1.5616907295681737 6.13443
1.5840021821477681 5.48629
1.60631369478041 5.48691
1.6286252683124185 5.68083
1.6509369035901333 4.9663699999999995
1.6732468618895553 5.073
1.695558623192809 5.08279
1.7178704487808514 5.040080000000001
1.7401823395001077 4.99518
1.7625012545597203 5.132000000000001
1.7848028405262486 4.89945
1.8071218901122095 4.87846
1.8294236121921872 4.5409
1.8517427996910911 5.06829
1.8740620574440425 5.39457
1.8963639900671978 4.458
1.9186833908139995 4.91303
1.9409854680117449 5.08024
1.9633050151394713 4.65074
1.9856246367570705 4.87153
2.0079269371922672 4.88488
2.03024671027244 4.55246
2.0525491637446027 4.04675
2.074869091674931 4.49104
2.097171701569106 4.53415
2.1194917877373847 4.84475
2.141811954326636 4.4304
2.164114805233074 5.2853
2.186435135143035 6.237080000000001
2.208738150935709 14.5577
2.231058647554722 29.149
2.2533792288321184 23.0441
2.275682498336085 10.7246
2.298003251406138 5.51537
2.3203066942619714 5.15244
2.3426276225136022 5.17581
2.3649486396617507 4.94891
2.387252348930071 5.05882
2.4095735463442893 4.84684
2.4318774374315884 5.51215
2.4541988185014043 5.61051
2.476502894794693 5.81769
2.498824462909887 6.97255
2.521146125856138 5.90411
2.5434504863470337 6.44569
2.5657723414244717 6.42471
2.588076895590662 7.39285
2.610398946189713 6.96465
2.6327210958598384 6.27219
2.6550259469304716 7.094360000000001
2.6773482972090137 7.48061
2.6996533504259 6.8807
2.7219759047039602 8.00588
2.744298562293959 7.42247
2.7666039251246595 7.43611
2.7889267918020164 8.024519999999999
2.8112323652516555 7.92278
2.833555444408179 7.98774
2.8558786311183852 7.8711
2.8781845268938557 8.61984
2.9005079311721484 8.87919
2.9228140460410397 8.99978
2.9451376712799635 8.93169
2.967444008632326 9.47534
2.9897678582247247 10.1462
3.0120918213106695 10.5234
3.0343984987899373 10.7754
3.0567226913198637 10.8557
3.079029599759726 12.0007
3.101354025127254 12.6993
3.123678568232338 12.805
3.145985829517914 12.7046
3.16831061055229 13.6139
3.1906181112775593 13.9679
3.212943133635653 14.5735
3.2352682779763207 14.9979
3.2575761442691227 15.6807
3.2799015350264273 15.9124
3.302209649240067 16.3499
3.3245352898092655 16.665
3.3468436553365257 17.2653
3.369169549113219 18.0433
3.3914955708171384 19.0967
3.413804319727358 19.0623
3.4361305997334863 19.1733
3.4584396084414553 19.6346
3.4807661501462652 20.5277
3.503092824025881 20.9516
3.5254022288463154 21.3841
3.5477291695206588 22.0961
3.5700388426251948 22.6671
3.5923660534916446 24.2663
3.6146934007816114 40.2718
3.637003482731501 94.4667
3.6593311053109985 103.98299999999999
3.681641464033634 59.6584
3.7039693653009733 31.6855
3.726297407241705 26.9089
3.7486081875460804 26.6393
3.7709365132734978 26.9815
3.793247578841633 27.1046
3.8155761917550093 27.2963
3.8378875459837216 27.4768
3.8602164494827234 27.9209
3.882545499606844 28.7129
3.9048572932539183 29.3411
3.9271866390645718 29.9514
3.9494987298666713 30.2205
3.971828374764527 31.206999999999997
3.9941581705403255 31.7538
4.016470713506008 32.4252
4.038800813471445 33.1676
4.061113662089144 33.3741
4.0834440696459176 34.0388
4.105774632334751 34.6999
4.128087945865126 35.3384
4.150418821249301 36.5649
4.172732448931298 38.1437
4.195063640413578 39.994
4.2173775856475215 44.4774
4.239709096631102 78.8284
4.262040768704612 254.15599999999998
4.284355196706267 341.327
4.306687193387355 219.544
4.329001947444346 85.1074
4.35133427213731 49.8037
4.373666762177566 45.8219
4.395982011761091 45.4509
4.418314834921175 46.9087
4.44063041906622 54.8291
4.4629635787515625 66.7489
4.4852969080429785 66.6598
4.5076130004776225 56.0486
4.529946671403969 52.28
4.552263106909177 52.5562
4.574597122877047 52.5147
4.596931312711224 53.6672
4.619248269273446 54.6612
4.6415828092605835 55.6359
4.663900117405352 56.2322
4.686235010953232 58.2568
4.708552674085913 59.427
4.730887924602802 60.9732
4.753223354952695 62.7745
4.775541557023902 63.8208
4.797877349456786 65.5118
4.820195915032126 67.6858
4.842532072957498 68.9464
4.864868414979744 71.4324
4.88718753227192 73.4643
4.909524244902505 75.1642
4.931843734218147 77.0823
4.954180820867835 79.3674
4.976518095879839 82.9205
4.998838149695359 85.7059
5.021175803844231 89.7898
5.043496238205739 93.2008
5.065834274903528 97.9832
5.088172504230693 103.625
5.1104935158799565 111.604
5.132832132875765 138.322
5.155153533596801 188.247
5.1774925416746225 232.99200000000002
5.199814334878411 455.805
5.2221537374521505 1267.1
5.244493338631803 3155.97
5.266815727034316 7078.13
5.289155727832427 11419.2
5.311478517248165 9001.02
5.333818921080011 3537.43
5.356159527788849 767.931
5.3784829252032536 224.967
5.400823940070432 161.316
5.423147747031976 139.27200000000002
5.445489173474152 126.75200000000001
5.467830807066149 120.705
5.490155234831516 114.95700000000001
5.512497285125229 110.815
5.534822130975162 107.94
5.557164601388673 105.28200000000001
5.579489868738879 102.446
5.601832762690846 102.005
5.6241758697774475 101.059
5.646501775867269 99.7499
5.668845311622074 98.1998
5.691171647754637 97.0357
5.713515615597765 95.9506
5.735859800852677 95.5177
5.758186788542988 94.4736
5.780531411018185 95.1608
5.802858837297399 94.8687
5.825203900414495 94.9727
5.8475491852224 95.5401
5.869877275883075 95.4472
5.892223006467101 96.8412
5.914551544266608 98.7046
5.936897724049891 102.147
5.959244129804903 108.79700000000001
5.981573344815301 132.471
6.0039202049061 247.12
6.026249875609095 541.07
6.04859719346037 1099.27
6.070927323278297 2167.41
6.093275102315365 3983.26
6.115623113320588 5007.58
6.137953938319995 3492.87
6.160302415650845 1218.62
6.182633708324452 301.54900000000004
6.2049826554078376 130.125
6.227331838745022 100.404
6.249663839443684 90.7248
6.27201349767565 86.875
6.294345974611799 93.1813
6.316696111167083 105.427
6.339046488263839 99.0045
6.361379686074702 82.7923
6.383730546639482 74.2975
6.406064229255215 71.289
6.428415576718203 70.8117
6.450749747566656 69.2059
6.47310158535871 67.7097
6.495453669698332 66.9436
6.517788579421056 66.295
6.540141159237969 65.441
6.562476565766648 64.9134
6.5848296444934045 64.5464
6.607182974060425 64.2038
6.6295191323281015 64.402
6.651872965955752 67.8954
6.6742096296068985 96.1533
6.6965639707294615 146.56799999999998
6.71891856698715 146.22899999999998
6.741255995248479 98.9475
6.763611104154477 70.6421
6.785949046381137 62.1649
6.808304671371482 60.0776
6.8306605557940046 59.8748
6.852999275508618 58.8404
6.875355681171544 58.5406
6.897694923437771 58.5048
6.92005185377892 58.2213
6.9423916220322655 58.2516
6.964749080490181 57.2908
6.987106804399774 57.5701
7.009447368180821 57.2078
7.031805625367033 57.1038
7.054146723727803 56.9625
7.076505517631004 56.3764
7.098864581288365 56.6185
7.121206488070854 56.809
7.143566093607822 56.4412
7.165908543567245 56.5984
7.188268694426048 56.7122
7.2106291193438095 57.0983
7.232972390625943 58.8583
7.255333366030969 72.3883
7.277677189091925 130.881
7.300038718428332 184.00099999999998
7.322400526130865 153.85399999999998
7.344745183422596 93.456
7.367107550224791 63.9925
7.389452767901992 58.0108
7.411815697249891 56.9353
7.434161478756298 56.1723
7.456524974096713 55.5849
7.478888753837185 55.7247
7.501235387657368 55.8636
7.523599738562711 55.7861
7.545946944825532 56.4354
7.568311870344528 56.7674
7.5906770845765665 57.0064
7.613025156078678 58.843999999999994
7.635390950099687 60.0727
7.657739602662809 58.7025
7.680105979923558 57.4801
7.702472650212829 57.9388
7.724822180948224 57.5075
7.747189439655568 57.5533
7.769539560075357 57.5467
7.791907410653562 58.0504
7.81425812420825 58.1563
7.836626570110925 58.2179
7.858995315087906 59.0036
7.881346924933401 59.3035
7.903716270417482 59.61600000000001
7.926068482028405 59.9202
7.948438431475253 60.5353
7.9708086843180235 61.233999999999995
7.993161805171116 62.0081
8.015532667162402 62.4371
8.037886398416653 63.2667
8.060257873014221 63.7906
8.082629655331942 64.6755
8.104984308787587 65.3806
8.127356708900503 69.1771
8.149711981398308 75.3959
8.172085002766314 77.7206
8.194458336181368 73.9571
8.216814543847752 71.1778
8.23918850371002 71.3621
8.26154533906492 71.9316
8.283919928836452 73.6387
8.306277395339652 74.7948
8.328652618483376 75.973
8.351028159736202 77.896
8.373386579575245 80.5193
8.395762759396959 82.4334
8.418121819038275 87.6166
8.440498640894003 102.413
8.462875785192262 118.852
8.485235811156207 133.815
8.507613602688501 183.877
8.529974277114228 288.476
8.552352719347912 433.24300000000005
8.574731488360351 688.007
8.59709314210385 1142.36
8.619472567021075 1690.21
8.64183487789147 2122.5
8.664214962183097 1851.79
8.686577933647762 1159.18
8.708958680784317 476.838
8.731339760774953 198.27900000000002
8.753703729764451 122.40299999999999
8.77608547780821 104.95700000000001
8.798450116065078 99.6566
8.820832535634787 95.9435
8.843215292401656 94.1524
8.865580941199045 92.6966
8.887964374703538 91.5265
8.910330701447199 92.4685
8.932714815164482 94.8006
8.955099270424924 94.0496
8.977466620733543 90.4106
8.999851761421976 87.6994
9.022219798361645 85.6466
9.04460562795561 85.4933
9.066991803441677 84.9336
9.089360876979615 84.8678
9.111747746589993 84.538
9.13411751544971 84.1766
9.156505082664324 84.1213
9.178875550323522 84.0792
9.20126381862328 84.4553
9.223652438908596 84.8144
9.246023961427412 84.4779
9.26841328802173 84.103
9.290785518039224 84.2611
9.313175554425882 85.0975
9.335565947154315 85.2996
9.357939245086508 85.0462
9.380330352834827 85.1832
9.40270436697103 85.5319
9.425096193225055 85.14299999999999
9.447488380180165 86.1967
9.469863475295412 86.5146
9.492256385987508 86.5133
9.514632206018318 87.0369
9.537025843935714 87.5078
9.559402392368193 88.4394
9.581796761000229 89.68
9.604191496441521 90.6051
9.626569144158516 94.2713
9.648964615551032 99.5044
9.671343000390081 101.03200000000001
9.693739211225699 98.5225
9.716135793237463 96.4226
9.738515290448102 95.6131
9.760912617143402 96.8161
9.783292860202891 98.0697
9.805690935076182 99.1281
9.828089385495742 100.17
9.850470754023561 102.463
9.872869957865444 111.24700000000001
9.89525208097539 127.677
9.917652041736662 141.40200000000002
9.940052382417589 141.59799999999998
9.962435644102392 151.44899999999998
9.984836746950979 193.912
10.007220771957746 270.389
10.029622640473708 384.681
10.052007432299963 555.881
10.074410069984072 808.9110000000001
10.096813093716005 1176.9
10.119199042482517 1587.84
10.141602840636468 1855.78
10.163989564971628 1706.44
10.186394141051062 1083.76
10.208799107559706 504.14099999999996
10.231187001965623 236.49599999999998
10.253592751657669 141.575
10.275981430388155 119.99600000000001
10.298387966769793 117.99700000000001
10.320794897965431 120.37100000000001
10.343184759907361 118.809
10.36559248305461 112.426
10.387983138083852 107.866
10.410391656691655 111.74700000000001
10.432800574501677 124.92
10.455192425893369 144.576
10.47760214443012 172.095
10.499994797678786 211.71400000000003
10.522405320453982 280.079
10.54479877906917 378.89599999999996
10.567210109595656 479.712
10.5896218454736 545.8530000000001
10.612016518879773 526.428
10.634429067781074 385.92199999999997
10.656824555333241 229.332
10.679237920773568 138.857
10.701651695961992 102.49600000000001
10.724048411481384 92.8428
10.746463008485165 89.2833
10.768860546937125 87.8464
10.791275969274796 85.4769
10.81369180576079 83.9588
10.836090585366925 83.3108
10.858507252467449 81.9914
10.88090686379991 81.1138
10.903324365036394 80.3372
10.925724811614439 80.5902
10.948143150509463 82.1785
10.970561909719066 81.4462
10.992963615930844 79.2039
11.015383218085756 76.7063
11.037785768347074 75.172
11.06020621697282 74.59100000000001
11.082627090322113 74.2885
11.105030913430326 73.7811
11.12745263854165 74.3119
11.149857314510728 78.138
11.172279894912576 84.5938
11.194702904450653 85.4047
11.217108866490921 81.0281
11.239532736615194 75.9725
11.26193956033512 73.8788
11.284364294577085 72.4952
11.306789462371718 70.0615
11.329197585398376 68.8213
11.351623622610898 68.90100000000001
11.37403261614354 67.899
11.396459526308487 67.9052
11.418869393879497 67.3016
11.441297180532617 66.9493
11.463725406927658 66.6863
11.486136592353875 66.2442
11.508565700543707 67.0733
11.530977768845315 69.2852
11.553407762368774 70.3217
11.575838200059769 69.5041
11.598251599479612 67.4391
11.620682927815501 65.9146
11.64309721895548 65.4423
11.665529441478206 64.9143
11.687962112597958 64.5613
11.710377748130886 64.7065
11.732811318753434 64.5751
11.755227854859067 64.4714
11.777662328529495 64.3436
11.800079768750786 64.1319
11.822515149015453 63.9275
11.844950984084935 64.1114
11.867369787303163 63.988
11.889806534289491 63.8645
11.912226250487029 64.5016
11.934663912939751 64.5744
11.9571020346363 64.4477
11.979523127133968 64.5967
12.001962169624331 65.413
12.024384183972964 66.7889
12.046824150809913 70.3708
12.069264581333726 76.2984
12.091687985297767 83.4149
12.11412934550045 92.505
12.136553680195208 105.64399999999999
12.158995973632788 124.26799999999999
12.181438735204349 148.658
12.20386447284199 175.05200000000002
12.226308172985636 196.19099999999997
12.24873485024193 204.16099999999997
12.271179492516982 179.601
12.293607112949127 141.189
12.316052700916226 107.788
12.338498763250042 84.3744
12.360927805303868 73.3197
12.383374818673879 68.8541
12.405804812803074 66.2843
12.428252780773262 66.1079
12.45070122756722 65.8606
12.473132656675375 65.9024
12.49558206341869 66.2421
12.518014453510101 66.0882
12.540464823770117 65.9505
12.562915677315177 66.6094
12.58534951575545 67.0962
12.607801338171472 69.5694
12.630236146511358 75.4028
12.652688941369085 80.5233
12.675124723177234 80.9257
12.697578494048786 76.553
12.720032754458185 71.7874
12.742470003354093 69.7358
12.764925245138771 69.6735
12.787363476431278 69.6426
12.809819703166806 70.128
12.83227642391173 70.9972
12.854716135692716 71.4725
12.877173846755147 72.5554
12.899614549869717 72.94
12.9220732548287 73.8514
12.94453245827299 74.0721
12.966974655289818 74.9258
12.989434858002571 76.1398
13.011878055298721 76.7153
13.034339260862497 77.7421
13.056800969391883 79.1099
13.079245674017244 80.9314
13.101708390774869 83.6143
13.12415410463411 91.929
13.146617833206086 105.074
13.169064559883248 119.20299999999999
13.191529303857127 134.988
13.213994557076367 156.45600000000002
13.236442809902437 188.981
13.258909083908291 235.675
13.28135835851934 289.33
13.30382565690295 348.07199999999995
13.326293469022952 403.30699999999996
13.348744283242008 423.407
13.371213125129904 382.694
13.39366497011003 296.275
13.416134845360597 202.86599999999999
13.438605238843131 140.23
13.46105863690397 113.98100000000001
13.483530069144786 111.516
13.505984506951902 117.34200000000001
13.528456981549432 128.389
13.550929978879088 142.705
13.573385983253365 163.287
13.595860028340867 195.261
13.618317081455832 238.46200000000002
13.64079217790333 286.599
13.663250283359057 330.095
13.685726434770173 357.51099999999997
13.708203115221277 346.905
13.730662806148091 286.03
13.75314054697177 210.643
13.775601299246777 146.512
13.798080104050406 106.781
13.820559442405358 89.7918
13.843021793671388 84.6899
13.865502201420897 82.4166
13.887965623051947 81.7825
13.910447103807167 80.5177
13.932929122629764 79.1781
13.955394156785959 78.7402
13.977877254034569 77.671
14.000343367582113 76.8119
14.022827546871707 76.1647
14.045294743423524 75.49600000000001
14.06778000837062 74.6283
14.090265817715476 74.5479
14.112734645763819 74.8509
14.13522154619454 74.3716
14.157691466286913 74.4431
14.180179461423874 74.2857
14.202668005486178 73.4445
14.22513957064374 72.7177
14.247629214846473 72.1115
14.270101881097517 72.0259
14.29259262906496 72.4538
14.315083930490205 73.187
14.337558255389705 73.3394
14.360050666019726 73.0419
14.382526101071944 72.2016
14.405019624534942 71.0207
14.427513705993134 70.3313
14.449990813291825 70.6565
14.47248601302899 70.2919
14.49496423954951 70.589
14.517460561197822 70.7103
14.539939910570322 70.5824
14.562437357763558 71.0624
14.58493536931253 72.1919
14.607416409993311 73.0123
14.62991555254159 73.6865
14.652397725157423 73.5485
14.674898002342799 72.8651
14.697398848433282 72.1578
14.719882725991326 73.1794
14.74238471217934 74.3728
14.764869730765593 78.2645
14.787372860692983 82.0991
14.809876564079925 87.3337
14.83236330125751 93.6122
14.854868153850365 102.022
14.877356041159485 113.802
14.899862046604186 129.394
14.922351087688757 150.267
14.944858249632887 174.445
14.967365991421232 197.28900000000002
14.989856770231246 215.555
15.012365673994204 219.92
15.03485761569738 199.84
15.05736768508665 164.243
15.07987833888692 129.071
15.102372032001655 99.4076
15.124883856909658 81.9051
15.14737872204565 75.1074
15.169891721717274 72.7801
15.192405310371893 72.5097
15.214901940621196 73.1104
15.237416709527137 73.1793
15.259914520936249 73.0768
15.282430473753607 72.2631
15.304947020131227 71.0992
15.327446610371178 70.0295
15.349964346154254 69.1603
15.372465126703139 68.9638
15.394984055556009 68.5051
15.417486030076159 68.402
15.44000615566487 67.9001
15.462526881230803 67.7606
15.485030653812652 67.919
15.507552581617434 67.8441
15.530057557334603 68.16199999999999
15.55258069104857 67.9175
15.575104429329837 68.002
15.597611216864632 67.4843
15.620136166564563 67.8087
15.6426441664095 68.8007
15.665170331202765 71.3057
15.687697105158826 75.023
15.710206930593545 79.0481
15.732734925158933 83.9265
15.755245972089478 90.0041
15.77777519094324 98.1617
15.800287463046663 109.404
15.822817909869592 124.83200000000001
15.84534897229804 142.871
15.867863089299354 163.373
15.890395385222186 179.985
15.912910736597423 190.458
15.935444269699861 187.382
15.957978423016485 168.86599999999999
15.980495633101265 137.078
16.003031029129367 106.678
16.02554948280019 83.6666
16.048086125229432 71.6858
16.070623392487107 67.9663
16.09314371869582 66.7635
16.11568223789321 65.7767
16.13820381691126 64.5326
16.160743591742527 63.5113
16.183283996022084 62.3209
16.205807461423195 61.3297
16.228349126881973 60.6523
16.25087385432698 60.5772
16.27341678466365 59.9329
16.29594277784926 59.9905
16.31848697676433 60.3372
16.341031811604868 60.6946
16.36355971058487 60.9743
16.3861058195587 60.6318
16.40863499352978 59.5573
16.431182380342005 58.4897
16.453730407713202 57.7015
16.476261501364792 57.3398
16.498810812136167 56.9883
16.52134319004079 57.2188
16.54389378792203 57.016000000000005
16.566445031001553 56.9204
16.588979342490088 56.7657
16.61153187824822 56.6026
16.634067483263312 56.4954
16.656621315414416 56.5084
16.679175797408888 56.0726
16.701713349928728 56.1694
16.72426913389191 56.3399
16.74680798922351 56.5149
16.76936507887444 56.4437
16.791905240734874 56.3985
16.814463639794468 56.2354
16.837022695210294 56.3775
16.859564824093756 56.6571
16.882125194503903 57.6128
16.904668639217885 58.3183
16.927230328348003 58.3476
16.949792678493612 58.5796
16.972338104193863 57.966
16.994901778652235 57.386
17.017448529496576 57.1734
17.040013531998152 57.3731
17.06257920018044 57.8565
17.0851279459922 58.6613
17.107694947817667 59.6826
17.130245028099072 60.457
17.15281336730298 62.0139
17.17536478578733 63.7151
17.19793446610687 65.5102
17.220504818648422 68.1435
17.243058251703697 70.6964
17.265629950971032 74.729
17.288184731571736 78.8473
17.310757781306908 82.5004
17.33333150794385 84.9101
17.355888317140174 84.948
17.37846339986244 80.6897
17.401021565958885 74.6891
17.42359800851343 68.9954
17.44617513265564 64.5147
17.468735341390783 62.1966
17.491261035594565 60.9961
17.51396340099364 60.5214
17.536490463869136 60.6211
17.559018209820174 60.8398
17.58154663977963 60.9804
17.604251766089718 60.7178
17.626781572227713 61.0458
17.64931206518155 61.4647
17.671843245885103 61.989
17.69455114821572 62.3087
17.717083712612634 62.4155
17.739616967569667 62.4605
17.762150914021706 62.9424
17.78486160749854 62.7099
17.807396945166804 63.6464
17.829932977143503 64.5591
17.85246970436452 66.1745
17.875183204129467 68.37100000000001
17.897721330097664 70.6849
17.920260154126645 73.3749
17.942799677153296 76.4357
17.9655159983646 79.8462
17.988056927677544 84.7291
18.010598558807683 91.3747
18.033140892692916 99.6905
18.05586005052525 108.492
18.07840379824407 118.29
18.10094825154059 128.265
18.12366954819864 137.45600000000002
18.146215420998306 140.826
18.16876200220057 137.017
18.191309292745153 125.70200000000001
18.214033452627167 111.95299999999999
18.236582170236648 99.0017
18.259131600016456 90.90100000000001
18.281681742907335 88.7084
18.304408781233683 90.9142
18.32696035875955 94.6048
18.349512652227624 98.7828
18.372065662579683 103.25299999999999
18.394795594587553 105.84
18.41735004715306 104.868
18.43990521943684 100.355
18.46246111238171 92.1101
18.485193953325208 82.3973
18.507751296070428 73.9768
18.530309362314178 68.8677
18.552868153000343 65.7719
18.57560391815056 64.1433
18.59816416623245 63.5443
18.620725141597372 62.8352
18.643286845190268 62.3755
18.666025549835414 62.0009
18.688588718427933 61.5162
18.711152618092243 61.3483
18.73389353884365 61.0248
18.75645890921984 60.4498
18.77902501351406 60.1815
18.801591852673102 60.2788
18.824335739722738 59.7525
18.846904057212626 59.498000000000005
18.8694731124168 59.3918
18.89204290628315 59.3092
18.914789774966803 58.9242
18.937361054791623 58.7599
18.959933076131318 58.5954
18.982505839934877 58.5925
19.00525570560582 58.5649
19.027829963004184 58.5903
19.05040496572238 58.5344
19.072980714710468 58.6723
19.095733592739563 58.7084
19.11831084296757 59.2465
19.140888842324735 59.6671
19.16346759176222 60.0862
19.18622349753803 60.6373
19.208803755869358 61.3755
19.231384767143577 62.3615
19.253966532312948 63.6578
19.276725481241822 65.0875
19.29930876296784 67.192
19.3218928014549 69.6351
19.34465404436217 72.5079
19.36723960516257 75.2812
19.389825925592426 76.7967
19.412413006605938 76.8482
19.43517731967805 74.646
19.457765930683355 71.203
19.48035530514408 66.7877
19.50294544401556 62.6333
19.525712842708348 59.1117
19.54830451925909 57.148999999999994
19.570896963095727 55.9199
19.593490175174704 55.5342
19.616260674962184 55.3383
19.638855432416964 55.0784
19.661450960992624 55.327
19.68404726164677 55.036
19.706820878021247 54.7414
19.729418731756834 55.0056
19.752017360452857 54.6686
19.77461676506804 54.9489
19.797393513540218 55.075
19.819994478951667 55.5397
19.84259622316767 55.9072
19.8651987471481 56.4305
19.887978643247177 56.7412
19.91058273574792 57.2015
19.933187610901943 57.647
19.955969879466828 58.9054
19.97857632894404 60.0477
20.00118356396599 61.2802
20.023791585494575 63.1613
20.046577028914875 65.5248
20.069186632506966 67.6026
20.091797025500632 69.4551
20.114408208858933 70.6249
20.137196842715273 71.2141
20.159809615886765 70.4938
20.18242318232135 68.3929
20.20503754298326 65.9361
20.227829382875154 64.5909
20.250445341109344 63.6793
20.27306209647285 63.7385
20.29567964993108 64.4226
20.31847471147704 65.1415
20.34109387027612 65.9868
20.363713830075454 66.3491
20.386334591841646 65.8595
20.409132890679302 63.8378
20.431755265564437 61.0068
20.454378445325528 57.9133
20.477002430930366 55.9093
20.499803982716553 54.2812
20.522429589228004 53.3934
20.54505600449589 52.667
20.567683229489194 52.1271
20.590488049900088 51.9002
20.61311690359731 51.4956
20.63574656993626 51.3347
20.658553853717297 51.1407
20.681185154618298 51.033
20.703817271080066 50.9837
20.72645020407368 50.6098
20.749260783967177 50.5734
20.771895359337133 50.3182
20.794530754161617 50.2957
20.817166969412938 50.0932
20.83998086114876 50.1041
20.86261872660049 49.9542
20.885257415405402 49.8608
20.90789692853701 49.9042
20.930714147864748 49.6796
20.953355319030678 49.8467
20.97599731745334 49.8276
20.99864014410749 49.9012
21.021460706796564 49.7354
21.044105199328826 49.9402
21.06675052302631 50.2618
21.089396678865015 50.4526
21.112220600704806 50.7747
21.134868430275347 51.1875
21.15751709492456 51.3147
21.180166595629693 51.5539
21.202993892429635 51.9298
21.22564507473034 52.1922
21.24829709602816 52.5935
21.27112693608965 52.7352
21.293780644891275 52.8362
21.316435195634053 52.2268
21.339090589297417 51.69
21.361923832041875 51.232
21.384580921090404 50.5153
21.407238856007325 49.8626
21.429897637773326 49.8307
21.45273429906592 49.7007
21.475394784108598 49.602
21.498056118951983 49.4565
21.520718304578022 49.7937
21.543558400304388 49.911
21.566222297108816 50.0225
21.58888704765135 50.3973
21.61155265291521 50.5712
21.63439619898156 51.2324
21.657063523335786 51.31100000000001
21.67973170537063 51.9631
21.7024007460706 52.4267
21.72524775840385 53.1148
21.747918526116475 53.9019
21.770590155457388 55.0425
21.79326264741238 56.3922
21.816113141960237 57.9927
21.838787368860547 59.5914
21.861462461341976 61.2239
21.884315579735777 62.913999999999994
21.90699241312273 64.5003
21.92967011506078 65.3913
21.95234868653799 66.0655
21.9752053151131 65.5296
21.997885635446785 63.9991
22.020566828293532 61.9781
22.04324889464272 59.9623
22.066109049404666 58.286
22.088792872571794 57.3035
22.111477572219204 57.1927
22.1341631493376 57.3365
22.157026846313123 57.1345
22.179714188221507 57.0176
22.202402410582668 56.2959
22.22509151438863 54.8245
22.24795876962584 53.2503
22.270649646204486 52.3531
22.293341407213727 51.3893
22.316034053646906 50.9813
22.338904883215342 50.6251
22.36159931041458 50.476000000000006
22.38429462602756 50.4931
22.40699083104897 50.0651
22.429865251039757 50.3262
22.452563244831367 50.2652
22.47526213102522 50.1869
22.49813925616515 49.9877
22.520839937143307 50.0245
22.543541513520587 49.9195
22.56624398629403 49.7553
22.589124730075895 49.711000000000006
22.611829005656723 49.8437
22.63453418063466 50.0452
22.657240256008077 50.2741
22.680124634582935 50.3596
22.70283252079775 50.5527
22.725541310413075 50.9496
22.74825100442868 51.2447
22.771139033969575 51.601000000000006
22.79385054687155 51.9132
22.81656296718292 52.3171
22.83927629590484 53.1394
22.862167992606945 53.9868
22.88488314827121 54.9984
22.907599215359284 55.7021
22.93031619487366 56.6201
22.953211574954405 57.6062
22.975930389478226 58.6341
22.998650119445763 59.0482
23.02137076586092 58.6942
23.044269845560063 57.8701
23.06699233506288 56.7112
23.089715744034912 54.6929
23.112617610931565 53.0396
23.135342869061212 51.7649
23.158069049684816 50.979
23.1807961538087 50.3794
23.20370174880544 50.1827
23.226430710184808 50.2196
23.249160598093425 50.071000000000005
23.271891413539002 50.2021
23.294800752937697 50.3218
23.31753343374794 50.6263
23.340267045128353 50.57899999999999
23.36300158808808 50.8577
23.38591468821339 51.2378
23.408651104658304 51.5586
23.431388455719986 51.8851
23.454126742409 52.6673
23.4770436196085 53.3788
23.499783787914662 54.6376
23.522524894889884 55.4228
23.54526694154616 56.2174
23.56818761219047 57.4462
23.59093154860734 57.8324
23.613676427751283 58.838
23.636422250635754 58.5452
23.659346731118656 57.5975
23.68209445191868 55.8917
23.704843119509587 53.6197
23.72759273490623 51.8538
23.750521041644767 50.3031
23.77327256312355 48.9626
23.796025035462787 48.1634
23.818956224555475 47.6007
23.841710609113413 47.3224
23.86446594758979 47.00899999999999
23.887222241002014 46.7351
23.910157285144578 46.3794
23.932915498962537 46.3047
23.955674670778713 46.2079
23.978434801611975 46.0922
24.001373717286125 45.9592
24.024135776723917 45.9335
24.046898798245582 45.9341
24.06966278287146 45.6521
24.092605586582614 45.4585
24.115371508023642 45.3592
24.1381383956401 45.2255
24.16090625045381 45.1303
24.183852958731244 45.0934
24.206622758582608 45.0437
24.229393528706886 44.8846
24.252165270127392 44.9757
24.27511589952438 44.8427
24.297889594216997 44.6229
24.32066426328598 44.4579
24.34343990775613 44.4853
24.36639447485003 44.3904
24.38917208083877 44.4001
24.41195066531332 44.2461
24.43490819850244 44.3354
24.457688750692377 44.0424
24.48047028445616 43.8395
24.503252800821233 44.0773
24.526214300784112 44.1375
24.548998793132213 44.0276
24.57178427117417 43.9388
24.59457073593893 44.1254
24.617536219319863 44.2091
24.64032466834748 44.0604
24.663114107195035 43.9472
24.685904536893013 43.8653
24.708874020360852 43.7838
24.731666442613744 43.6762
24.754459858818787 43.5615
24.777254270007962 43.58
24.80022777025625 43.477
24.82302418230472 43.3218
24.845821592443674 43.3603
24.86862000170663 43.4756
24.891597535453727 43.1238
24.914397953892728 43.2615
24.93719937456671 43.3949
24.96000179851076 43.4526
24.98298338249997 43.6841
25.00578782394922 43.7277
25.028593271784167 43.8917
25.05157790644186 44.2176
25.07438537804115 44.4797
25.097193859145293 44.6305
25.120003350792075 44.5788
25.142992065061257 45.0344
25.165803588823465 45.1439
25.18861612625217 45.7038
25.211429678386736 45.8067
25.234422489079968 45.7638
25.257238081693636 45.8288
25.280054692141732 45.9575
25.3028723214652 45.9629
25.325869245420463 45.8973
25.348688923599397 45.9377
25.371509623787006 45.7897
25.394331347025812 45.7946
25.41733240110666 45.4616
25.440156181590016 44.9147
25.46298098826268 44.4323
25.48580682216873 43.9047
25.50881202326435 43.2015
25.53163992281684 42.7574
25.55446885274561 42.4107
25.577298814096377 42.0278
25.600308179121807 41.9538
25.623140214533745 42.111999999999995
25.64597328451537 41.8981
25.66898578564376 41.585
25.691820936010206 41.8467
25.714657124097695 41.7414
25.737494350954734 41.6391
25.760511045684957 41.3744
25.783350361364224 41.5614
25.806190718969255 41.6776
25.82903211955018 41.808
25.852053024868923 41.8488
25.874896522722523 41.7839
25.897741066713106 41.763999999999996
25.920586657892454 41.8218
25.943611790812668 41.9146
25.966459487728237 41.958
25.989308234998564 41.9372
26.01215803367705 42.2631
26.03518741123814 42.2327
26.05803932412957 42.35
26.080892291600094 42.3993
26.10374631470478 42.614
26.12677995397268 42.7804
26.14963609978026 42.647
26.172493304397875 42.4956
26.19535156888223 42.438
26.218389486949604 41.9517
26.241249882640123 41.6866
26.26411134137826 41.5216
26.28715248187403 41.3925
26.31001607820869 41.1969
26.3328807407756 41.067
26.35574647063438 41.1586
26.37879191991473 41.1912
26.401659795896734 41.2644
26.424528742360263 41.5066
26.447398760366614 41.5466
26.470448535598294 41.6575
26.49332070826805 41.7265
26.516193955675355 42.0713
26.53906827888316 42.2351
26.562122397260108 42.5083
26.584998883685063 42.7581
26.607876449110325 42.9866
26.63075509460056 42.9066
26.65381357334404 43.1221
26.67669439061878 43.1726
26.699576291163382 43.0899
26.722459276044212 43.0628
26.745522132402975 42.8039
26.768407297649354 42.6011
26.791293550442003 42.3388
26.814180891848974 41.9042
26.837248143099337 41.6282
26.860137673466657 41.6213
26.88302829566349 41.2309
26.90592001075963 41.0794
26.92899167420566 41.0545
26.951885586870763 40.7249
26.974780595655517 40.4308
26.99785558178161 40.2926
27.020752794605112 40.0993
27.043651106772522 39.9654
27.06655051935668 40.0012
27.089629948036183 39.7402
27.112531573292053 39.6881
27.135434302194138 39.7785
27.158338135817015 39.613
27.181422024430987 39.6492
27.204328079372566 39.4881
27.22723524226965 39.5283
27.250143514198573 39.5837
27.273231880156334 39.4667
27.296142382065014 39.4497
27.319053996245536 39.3531
27.341966723775965 39.4098
27.365059584515222 39.4817
27.38797455070062 39.5621
27.410890633481237 39.4208
27.433807833936918 39.3919
27.456905206923906 39.504
27.47982465472398 39.3094
27.502745223449743 39.5143
27.525666914182825 39.5454
27.548768816912457 39.5399
27.571692763693633 39.5154
27.59461783573812 39.3802
27.617723149491244 39.2025
27.640650484125285 39.2376
27.66357894728264 39.2775
27.686508540048052 39.0752
27.709618414237887 38.9271
27.732550278321757 38.9029
27.755483275279115 38.8532
27.778417406196485 38.856
27.801531858397514 38.8417
27.824468269376716 38.7767
27.847405817586786 38.7322
27.870344504116094 39.0253
27.893463551932008 39.0164
27.916404527281053 39.249
27.93934664422563 39.2645
27.962289903855886 39.3658
27.98541356491974 39.5544
28.00835912214229 39.5687
28.03130582533231 39.8321
28.054253675581805 39.9566
28.077381967556104 40.0082
28.100332124185126 39.8531
28.123283431160893 39.9058
28.146235889577238 39.8767
28.169368830154156 39.6421
28.192323603752033 39.51
28.215279532083304 39.1446
28.238415973016764 39.0194
28.261374223145094 38.8032
28.284333631303806 38.692
28.307294198589954 38.6118
28.330435319167677 38.2066
28.353398217078915 37.9581
28.376362277420153 37.7109
28.39932750129032 37.6266
28.422473319286713 37.3903
28.44544088262495 37.4509
28.468409612800283 37.2706
28.491379510913497 37.0606
28.51453004413313 36.8532
28.53750229057244 36.8721
28.56047570826344 36.8294
28.583450298308804 36.8311
28.606605564586562 36.6541
28.629582511831156 36.6221
28.65256063474956 36.5849
28.675539934446338 36.5762
28.698699951647605 36.5978
28.72168161743193 36.4312
28.74466446331978 36.5321
28.767648490417624 36.3763
28.790813276438353 36.4111
28.813799678527303 36.4057
28.836787265157085 36.3602
28.859955641890075 36.2997
28.882945610203045 36.2401
28.905936766392035 36.2124
28.928929111566863 36.2953
28.952102288520145 36.1268
28.975097024308607 36.0157
28.998092952423807 35.8843
29.021090073977508 35.9067
29.04426806913204 35.7397
29.067267590245258 35.5506
29.090268308143695 35.6153
29.11327022394099 35.6316
29.13645305530891 35.4017
29.159457379627167 35.2887
29.18246290519685 35.3348
29.20546963313352 35.2451
29.22865731875826 35.3144
29.25166646419296 35.1539
29.27467681535305 35.1053
29.29768837335608 35.1404
29.320880931312562 35.0699
29.34389491580634 35.1611
29.366910110507334 35.1545
29.38992651653503 35.1619
29.41312396492981 35.074
29.436142806456754 35.0043
29.45916286268059 34.9387
29.48236399319994 34.8662
29.50538649169417 34.5849
29.528410208259935 34.6235
29.55143514402014 34.4564
29.574641196749695 34.2464
29.597668583816574 34.2192
29.6206971934585 33.9876
29.64372702680042 34.0569
29.666938019934474 33.9841
29.689970313635285 33.869
29.713003834422636 33.7574
29.73603858342347 33.7615
29.759254535188578 33.7393
29.78229175361658 33.704
29.80533020365064 33.7479
29.82836988641968 33.8673
29.85159081507472 33.7097
29.874632976355343 33.616
29.89767637376955 33.6701
29.920721008448314 33.5263
29.9439469322847 33.4736
29.96699405457564 33.3391
29.9900424175358 33.3793
30.013092022298157 33.3646
30.03632295963995 33.2908
30.059375061131373 33.449
30.08242840783577 33.3845
30.105483000888153 33.344
30.128718970092244 33.1139
30.151776069006917 33.2247
30.17483441768648 33.1916
30.198074175317235 33.1969
30.221135036724256 33.262
30.24419715131772 33.1737
30.267260520236203 33.1806
30.290505341942243 33.1891
30.313571232750228 33.2424
30.336638381310948 33.1655
30.35970678876503 33.1039
30.38295669299435 32.9775
30.40602763151657 33.1192
30.429099832366074 33.0098
30.452173296685572 32.9127
30.47542830191959 32.9331
30.498504306502497 32.9407
30.521581577995562 32.9052
30.544660117543582 33.0328
30.56792024229725 33.0733
30.59100133132069 32.9103
30.614083691845494 32.884
30.637167325018545 32.9264
30.660432587840603 32.9548
30.683518779717886 32.9706
30.70660624769615 32.9704
30.729694992924372 33.0253
30.75296541239743 33.0861
30.77605672557558 32.9503
30.799149319462742 32.8437
30.8224236211637 32.8215
30.845518789950724 32.7257
30.868615242910597 32.7065
30.891712981195973 32.5582
30.91499247215866 32.391999999999996
30.938092794619365 32.4237
30.96119440587579 32.4016
30.984297307082752 32.3281
31.00758200598383 32.0883
31.030687500658694 32.0558
31.053794288760695 31.994
31.076902371446767 31.9444
31.100192296997445 31.8765
31.12330298246119 31.8788
31.14641496599209 31.6451
31.169528248749216 31.7665
31.19282341969534 31.7907
31.215939314557186 31.8186
31.239056512134788 31.7105
31.262175013589378 31.7157
31.28547544871168 31.6075
31.30859657161541 31.533
31.331719001892175 31.651
31.35484274070538 31.6869
31.378148458819545 31.7805
31.401274828443725 31.6988
31.424402510106933 31.6816
31.447712205419993 31.6539
31.470842524931633 31.5679
31.493974159989783 31.6023
31.51710711176168 31.6432
31.54042212308802 31.6369
31.563557722100917 31.6104
31.586694641341655 31.3944
31.609832881979628 31.3823
31.63315322823208 31.3265
31.656294125521327 31.0861
31.679436347728515 31.1128
31.70257989602529 31.0666
31.725905596152327 30.9268
31.74905181052835 30.8477
31.772199354521323 30.9571
31.79534822930507 30.9038
31.818679302290967 31.0134
31.84183085259981 30.9311
31.864983737233473 30.8603
31.88813795736804 30.8965
31.911474422233013 30.7911
31.934631327356435 30.8657
31.9577895715215 30.9165
31.980949155906522 30.816999999999997
32.004291031706956 30.8094
32.027453310562606 30.717
32.05061693318573 30.5256
32.07396288236386 30.508000000000003
32.09712920658542 30.4512
32.12029687812702 30.3836
32.14346589817093 30.3083
32.166817291729984 30.2277
32.18998902288583 30.2871
32.21316210610336 30.1449
32.23633654256711 30.0313
32.259693399663725 30.0747
32.282870556771144 29.8786
32.30604907069099 29.8908
32.329228942610065 29.9181
32.35259128243769 29.7145
32.375773884550505 29.6882
32.398957848235646 29.7361
32.422143174682176 29.6039
32.445511016471215 29.528000000000002
32.468699082679954 29.4917
32.49188851523011 29.4431
32.51507931531304 29.3666
32.538452678331 29.355
32.56164622776311 29.2713
32.58484114831493 29.218000000000004
32.60803744118015 29.3532
32.631416344731896 29.2617
32.654615396551876 29.1505
32.67781582427913 29.136999999999997
32.701198898634416 29.0158
32.72440209253756 29.0185
32.747606665947124 29.1085
32.77081262006088 28.983
32.79420126883317 28.8906
32.81740999876112 28.9045
32.840620112999424 28.8308
32.86383161274818 28.7389
32.88722585534586 28.7263
32.91044014056596 28.7515
32.933655814909734 28.7608
32.95687287957963 28.7662
32.98027273544904 28.6696
33.00349259526636 28.6035
33.026713849030116 28.609
33.04993649794511 28.6095
33.073341986570746 28.5384
33.09656744032826 28.4671
33.11979429286444 28.4693
33.14302254538647 28.524
33.166433686291185 28.4329
33.18966475336992 28.3173
33.212897224069096 28.2213
33.23613109959831 28.2873
33.259547912343415 28.2387
33.2827846121627 28.2753
33.306022720453775 28.3333
33.32926223842861 28.092
33.352684742614166 28.1818
33.37592709463173 28.1667
33.399170859982064 28.0238
33.422597648419426 27.912
33.44584425514446 27.8657
33.46909227885668 27.9118
33.4923417207723 27.7879
33.51577423505344 27.7045
33.539026528130385 27.579
33.56228024307245 27.5877
33.585535381098246 27.4676
33.60897364093058 27.4827
33.63223163992385 27.485
33.6554910656699 27.3267
33.678751919389796 27.3735
33.702195944520106 27.2422
33.72545966903325 27.2164
33.74872482519663 27.1266
33.771991414233746 27.2818
33.79544122444841 27.1732
33.81871069412428 27.0533
33.84198160035767 26.9973
33.86525394437455 27.0332
33.88870955949969 26.9147
33.911984794020626 26.9426
33.93526147001624 26.868000000000002
33.958539588715006 26.8752
33.98200102861669 26.7851
34.0052820477047 26.6619
34.02856451319451 26.7447
34.05203033759056 26.7228
34.07531571090147 26.7557
34.09860253431845 26.7157
34.121890809074316 26.6396
34.145362493118924 26.596
34.16865368561615 26.488000000000003
34.191946333164054 26.4929
34.21524043699793 26.4927
34.23871800066799 26.4093
34.26201503218366 26.3002
34.28531352370466 26.2632
34.30861347646881 26.163
34.33209693978188 26.1716
34.3553998301885 26.1944
34.378704185565205 26.1183
34.402010007152356 26.0743
34.42549939016683 26.0961
34.44880815937748 25.9604
34.472118398533134 25.9091
34.49543010887669 25.8432
34.51892543169198 25.7731
34.54224009966052 25.8121
34.56555624255917 25.8507
34.58887386163339 25.6914
34.61237514439016 25.5933
34.6356957311114 25.6691
34.65901779775809 25.6589
34.68252356662995 25.5749
34.705848608458616 25.5186
34.72917513396849 25.5186
34.75250314440949 25.4446
34.77601490857862 25.4063
34.799345904259795 25.2695
34.82267838863559 25.4048
34.846012362958525 25.2727
34.869530142679984 25.27
34.89286711232212 25.2753
34.91620557568269 25.184
34.93954553401677 25.1717
34.9630693495876 25.0663
34.986412313340814 25.1366
35.00975677584668 25.1427
35.033102738362956 25.0106
35.05663261012228 24.9689
35.0799815881786 24.9692
35.10333207003229 24.8296
35.12668405694369 24.8337
35.150220005273056 24.7778
35.17357501786656 24.9111
35.19693153931268 24.8424
35.220289570874385 24.756
35.24383161619786 24.7643
35.267192683604904 24.8248
35.290555264930376 24.7799
35.314101899412165 24.7463
35.33746752422433 24.688000000000002
35.36083466676374 24.6496
35.38420332829803 24.5214
35.407756095629054 24.607
35.43112781085063 24.5952
35.45450104888391 24.6137
35.477875810999194 24.5591
35.50143473172161 24.4774
35.52481255774625 24.4603
35.54819191167777 24.4315
35.57157279478914 24.4358
35.595137889488406 24.3514
35.61852184675279 24.2946
35.641907337029984 24.2795
35.665294361595684 24.2695
35.68886565090076 24.1239
35.7122557598848 24.1183
35.73564740699838 24.0349
35.759040593519934 24.0528
35.78261809810353 24.0533
35.80601437933051 23.9384
35.829412203814705 23.8172
35.85281157283719 23.7857
35.876395313415884 23.7933
35.8997977874528 23.6959
35.92320180988546 23.6711
35.946790244133936 23.7282
35.97019737933222 23.7187
35.993606066789866 23.695
36.01701630779276 23.6019
36.04061101440684 23.5231
36.06402437852291 23.5995
36.08743930005611 23.5583
36.1108557802951 23.4138
36.13445678011326 23.4764
36.15787639383515 23.4991
36.18129757014299 23.4335
36.20472031032821 23.2825
36.22832762423364 23.2623
36.25175350829375 23.311
36.275180960119776 23.1149
36.298609981005924 23.2365
36.32222362992669 23.2943
36.34565580510207 23.1804
36.36908955323448 23.0309
36.39252487562093 22.994
36.416144880530226 22.9738
36.43958336764275 22.9518
36.463023432914625 23.0114
36.486465077645676 22.9774
36.51009145956204 22.916
36.53353627947859 22.8729
36.55698268276811 22.9036
36.58043067073321 22.811999999999998
36.60406345072071 22.6937
36.62751462435344 22.7509
36.65096738658405 22.7327
36.67460498210655 22.7743
36.69806093788647 22.6535
36.72151848619297 22.6267
36.744977628333636 22.6046
36.76862165890998 22.5331
36.79208400512205 22.5139
36.81554794910557 22.4802
36.83901349217101 22.4438
36.862663978991606 22.4233
36.88613273667352 22.448
36.90960309738324 22.4114
36.933075062434064 22.3027
36.95673202673572 22.2763
36.98020721697122 22.1998
37.003684015502365 22.1337
37.027162423645365 22.0922
37.050825886711465 22.0782
37.07430753063053 22.0197
37.09779078812467 22.0193
37.121275660513014 21.9289
37.144945643673694 21.9693
37.16843376245278 21.9569
37.19192350009803 21.8975
37.215414857931435 21.9146
37.239091382563885 21.8176
37.262585997426164 21.8203
37.28608223645736 21.7935
37.309763684451696 21.7612
37.33326318851098 21.691
37.356764320726555 21.6366
37.380267082425526 21.678
37.40395510942588 21.6463
37.42746114683234 21.558000000000003
37.45096881771841 21.5077
37.474478123414166 21.5416
37.49817275092816 21.4338
37.52168534303452 21.4844
37.54519957395567 21.391
37.568715445024665 21.4482
37.592416694607714 21.3453
37.61593586281424 21.3602
37.63945667518264 21.3562
37.66297913304891 21.2969
37.68668702630454 21.2398
37.710212792059274 21.1854
37.733740207334854 21.1703
37.757269273470364 21.1506
37.780983832050374 21.0325
37.80451621684926 21.0011
37.82805025654007 21.0018
37.851585952464795 20.9808
37.8753071980695 20.971999999999998
37.89884622345676 20.918000000000003
37.92238690911902 20.863000000000003
37.94611318753442 20.7772
37.969657210779765 20.8345
37.99320289834801 20.8076
38.016750251586465 20.6718
38.04048325513017 20.686
38.06403395679343 20.6683
38.087586328183946 20.6173
38.11114037065203 20.5924
38.13488012115898 20.5676
38.1584375229181 20.5405
38.181996599821 20.5079
38.205557353221124 20.4752
38.229303872575656 20.4465
38.2528679961576 20.4473
38.27643380031219 20.3806
38.30000128639589 20.3203
38.32375459653193 20.3545
38.34732546371299 20.354
38.37089801690786 20.2316
38.39447225747609 20.1496
38.418232380377425 20.2065
38.441810012983396 20.1634
38.46538933705673 20.1612
38.488970353960084 20.1349
38.51273731166058 20.1072
38.536321731567014 19.9946
38.55990784840681 19.9475
38.58367995004091 19.9248
38.60726947812959 19.9381
38.63086070726198 19.9666
38.654453638806274 19.8904
38.678232613930824 19.8777
38.70182896773327 19.77
38.72542702806741 19.7256
38.7490267963045 19.7091
38.77281266709232 19.6971
38.79641586862214 19.7003
38.8200207821842 19.652
38.843627409152944 19.5783
38.86742019782782 19.5954
38.891030269149255 19.5348
38.914642058016156 19.5964
38.938255565806124 19.5392
38.96205529464307 19.4647
38.98567225787121 19.4756
39.00929094417078 19.4362
39.03291135492255 19.4483
39.05671804624804 19.4221
39.080341923549106 19.295
39.103967529460334 19.2737
39.127594865365744 19.261
39.15140854155791 19.2277
39.17503935514948 19.2045
39.19867190290282 19.1433
39.22249083587951 19.1259
39.24612686969409 19.129
39.269764641845306 19.1074
39.293404153722804 19.0533
39.317230110864074 18.9409
39.34087311998506 18.8976
39.36451787301696 19.0143
39.388164371352595 18.8977
39.41199737518003 18.8315
39.43564738196752 18.8315
39.45929913825317 18.7865
39.48295264543308 18.8153
39.506792718520884 18.7391
39.530449745387216 18.7236
39.55410852735203 18.7375
39.57776906581474 18.6677
39.60161623079 18.5899
39.625280300200025 18.5832
39.64894613032202 18.5509
39.67261372255866 18.5475
39.6964680021016 18.5561
39.72013913657293 18.5409
39.74381203738292 18.5349
39.76748670593756 18.4341
39.79134812278169 18.3707
39.81502634488497 18.4323
39.83870633896685 18.396
39.862388106436654 18.2927
39.88625668336918 18.3286
39.90994201572829 18.3049
39.933629125719285 18.2617
39.957503091207826 18.1809
39.9811937746168 18.1776
40.00488623990914 18.1477
40.02858048850006 18.1257
40.05246165409549 18.0745
40.076159487492085 18.0608
40.099859108448875 18.0328
40.123560518384345 17.9909
40.1474489070226 18.0134
40.171153913178564 17.9345
40.194860712584955 17.9394
40.2185693066637 17.9372
40.242464941335314 17.8337
40.26617714307655 17.8181
40.289891143772046 17.817999999999998
40.3136069448471 17.7517
40.33750984859743 17.7995
40.3612292688043 17.699
40.3849504936829 17.6742
40.40867352466194 17.6407
40.43258372059144 17.6008
40.45631038219906 17.6594
40.48003885420956 17.5712
40.503769138055105 17.5566
40.52768664931955 17.5552
40.55142057531802 17.4839
40.57515631746428 17.4575
40.599079334038514 17.46
40.62281872700477 17.3812
40.64655994043941 17.4203
40.67030297578061 17.3727
40.69423334835778 17.3414
40.71798004609188 17.2757
40.74172857006355 17.257
40.76547892171441 17.2688
40.7894166736039 17.2558
40.813170699248566 17.1743
40.83692655691388 17.1035
40.86068424804498 17.155
40.884629402612525 17.1152
40.908390779366385 17.1465
40.932153993938 17.0321
40.95591904777605 17.0361
40.979871628443995 17.0405
41.003640379561936 16.9984
41.02741097430883 16.9209
41.05118341413683 16.9447
41.075143444384416 16.9163
41.098919593177826 16.8812
41.1226975914255 16.8313
41.14647744058318 16.7859
41.170444943946755 16.7958
41.19422851378379 16.8008
41.218013938914645 16.6986
41.24198706625173 16.6378
41.26577622087193 16.6752
41.289567235177785 16.6252
41.31336011063129 16.551
41.337340752422875 16.6219
41.361137369129835 16.5924
41.38493585138705 16.573
41.40873620066004 16.4575
41.43272438060107 16.456
41.45652848292052 16.4479
41.48033445666918 16.3383
41.50414230331616 16.3237
41.528138045159764 16.3734
41.551949656675205 16.2848
41.575763145513235 16.2756
41.59957851314666 16.2947
41.62358184070442 16.2305
41.64740098505737 16.2005
41.6712220126409 16.1395
41.69504492493139 16.1554
41.71905586207357 16.1744
41.74288256296395 16.1236
41.766711153007456 16.1378
41.79054163368412 16.0775
41.814560204340054 16.097
41.838394485526365 16.0458
41.86223066180303 16.0324
41.88625497706819 15.9308
41.910094962812 15.9256
41.93393684811168 15.8715
41.95778063445365 15.8728
41.981812625263366 15.804
42.00566023303407 15.8117
42.029509746323676 15.8019
42.05336116662236 15.7785
42.077400857069705 15.7206
42.10125611078846 15.6947
42.12511327600405 15.7312
42.14897235421036 15.6601
42.173019768448455 15.6292
42.19688269209613 15.602
42.22074753323349 15.5669
42.24461429335818 15.5637
42.268669455600495 15.5405
42.292540073217886 15.5054
42.31641261433284 15.4964
42.34028708044675 15.4713
42.36435001496739 15.4808
42.38822835065557 15.4621
42.41210861586426 15.3923
42.4359908120986 15.3943
42.46006154323262 15.2954
42.48394762115317 15.2658
42.507835634632315 15.334000000000001
42.531912233047436 15.2515
42.55580413732265 15.1965
42.579697981698 15.1518
42.60359376768525 15.1579
42.62767820545945 15.1187
42.65157789440821 15.1032
42.67547952952185 15.0957
42.699383112316 15.07
42.72347541395347 15.0244
42.74738291190531 14.9955
42.771292362102166 15.0113
42.795203766063516 15.0275
42.819303956130405 14.9056
42.843219287476536 14.9301
42.86713657716324 14.895999999999999
42.89105582671383 14.8312
42.91516392983864 14.8745
42.939087119032166 14.8804
42.963012272677304 14.767000000000001
42.98693939230129 14.7516
43.01105543317513 14.6522
43.034986504731386 14.7144
43.05891954686589 14.7416
43.08285456110972 14.6838
43.10697856448665 14.6173
43.130917542983475 14.6001
43.15485849820081 14.584000000000001
43.17880143167367 14.5237
43.20293342237094 14.4858
43.226880332449 14.515
43.25082922540554 14.5484
43.27496722682525 14.4438
43.29892010567796 14.4285
43.32287497204102 14.4453
43.34683182745632 14.3617
43.370977859791836 14.323
43.39493871351105 14.3317
43.41890156092628 14.3494
43.44286640358341 14.3137
43.46702049182749 14.248
43.49098934522816 14.2547
43.51496019852649 14.1628
43.5389330532723 14.1702
43.56309522248204 14.1721
43.58707210044314 14.1874
43.61105098451946 14.1601
43.63503187626491 14.0802
43.659202151562134 14.0383
43.68318707902681 14.027000000000001
43.70717401884041 14.0321
43.731162972560874 14.0531
43.75534137913236 13.9573
43.779334381108384 13.9149
43.803329401683186 13.9301
43.82732644241872 13.9312
43.8515130055166 13.8666
43.87551410707659 13.8047
43.89951723350145 13.8004
43.923709934595614 13.7794
43.94771713129917 13.7844
43.97172635758096 13.7222
43.99573761501002 13.7378
44.0199385169922 13.6945
44.04395385732619 13.6823
44.067971233533086 13.6986
44.09199064718605 13.6313
44.11619977548961 13.5898
44.14022328470671 13.5934
44.16424883610785 13.5962
44.18827643127035 13.5304
44.21249381139513 13.5129
44.236525514814076 13.4855
44.26055926674478 13.4857
44.28459506876863 13.4928
44.3088207262813 13.4218
44.33286064928722 13.3825
44.35690262714919 13.3683
44.38094666145278 13.3645
44.4051806219871 13.317
44.42922879003185 13.2703
44.45327901929361 13.288
44.477331311362136 13.2672
44.501573600619416 13.1877
44.525630039221795 13.182
44.54968854541895 13.2011
44.573937102200176 13.2076
44.5979997645541 13.1654
44.622064499300315 13.1403
44.64613130803592 13.0585
44.67038823869318 13.0876
44.69445921643748 13.0362
44.718532272981385 12.9746
44.742607409926194 12.9989
44.76687274034801 12.9768
44.79095205918753 12.954
44.81503346325094 12.9464
44.839116954143876 12.892000000000001
44.86339071028742 12.8701
44.88747839599524 12.8414
44.91156817336837 12.8103
44.93566004401666 12.874
44.959942251908146 12.8107
44.984038330325966 12.7852
45.00813650686762 12.7032
45.03223678314731 12.6968
45.05652746888232 12.7132
45.08063196592069 12.6768
45.104738567558705 12.6529
45.128847275414856 12.6115
45.15314646515866 12.6074
45.17725940679741 12.6264
45.20137445952892 12.6131
45.22568004865265 12.5645
45.24979934496396 12.58
45.27392075725247 12.532
45.29804428714431 12.4637
45.322358426247604 12.4858
45.346486212804315 12.4414
45.370616121861914 12.4459
45.39474815505086 12.3743
45.41907087049246 12.3595
45.4432071734666 12.3209
45.46734560548283 12.3381
45.49148616817604 12.3191
45.51581748638564 12.2909
45.5399623320197 12.2756
45.56410931325473 12.2386
45.58825843173002 12.2938
45.61259837920865 12.2194
45.636751793816 12.1565
45.66090735060093 12.1235
45.68506505120716 12.1141
45.7094136545275 12.1432
45.73357566449271 12.0578
45.75773982322992 12.0676
45.78190613238733 12.0743
45.806263418194064 11.985
45.83043404997326 12.0528
45.85460683713677 11.9952
45.87897065658495 11.9446
45.90314777634752 11.9543
45.92732705646868 11.8967
45.9515084986045 11.8928
45.97588104735473 11.8672
46.00006683541565 11.8703
46.02425479047904 11.8233
46.04844491420549 11.8136
46.0728262191024 11.7682
46.09702070211635 11.7412
46.12121735879483 11.7323
46.14541619080294 11.7082
46.169806278764455 11.728
46.194009483459034 11.6956
46.21821486849841 11.6956
46.24242243555223 11.6558
46.266821333570014 11.6075
46.29103328674601 11.5711
46.31524742696538 11.5727
46.33946375590237 11.5548
46.36387149104216 11.5172
46.38809221957392 11.4876
46.41231514186606 11.499
46.436540259597464 11.4912
46.460956858999374 11.4556
46.48518638983522 11.4199
46.509418121166966 11.4076
46.533652054678114 11.411
46.55807754555709 11.4052
46.58231590571962 11.3565
46.60655647313217 11.362
46.630988654873654 11.3449
46.655233659129024 11.3055
46.67948087571551 11.2988
46.70373030632484 11.2205
46.72817142736393 11.2416
46.752425308428684 11.2652
46.77668140861147 11.222000000000001
46.80093972960865 11.1249
46.82538981736788 11.1382
46.849652602470904 11.1009
46.87391761349769 11.1101
46.8981848521493 11.0673
46.9226439341274 11.0702
46.946915650573224 10.9983
46.97118959976749 11.0223
46.99546578341598 10.972000000000001
47.019933887188216 10.9809
47.04421456235744 10.9561
47.06849747711879 10.9476
47.09278263318286 10.8854
47.11725978640143 10.8915
47.14154944775105 10.8477
47.165841355555656 10.8679
47.1901355115306 10.8185
47.214621741924994 10.8432
47.23892041698887 10.8222
47.26322134538975 10.8157
47.28771440635075 10.7324
47.31201986422527 10.754000000000001
47.33632758061436 10.7099
47.360637557241866 10.7185
47.38513974410611 10.6864
47.40945426407847 10.6157
47.43377104948137 10.6272
47.45809010204344 10.6313
47.48260144275502 10.5779
47.506925052572285 10.5492
47.53125093475548 10.577
47.55557909103813 10.5624
47.58009961361992 10.5038
47.60443234110732 10.474
47.62876734791564 10.4783
47.65310463578333 10.4487
47.6776343683373 10.4357
47.7019762413987 10.423
47.72632040075572 10.3663
47.75066684815169 10.3558
47.77520581885936 10.4132
47.799556865477655 10.3518
47.823910205386 10.3628
47.84826584033272 10.3144
47.87281407745551 10.2337
47.89717432569297 10.2737
47.92153687423484 10.2672
47.94609208429692 10.2486
47.97045925671401 10.2022
47.99482873471275 10.1578
48.01920052005013 10.2062
48.04376504619224 10.1564
48.068141469543484 10.1715
48.09252020552573 10.1985
48.11690125590099 10.1363
48.1414751266064 10.0917
48.16586082917454 10.0869
48.19024885144316 10.0489
48.2146391951793 10.0334
48.239222439012764 10.0626
48.26361744916137 10.0235
48.28801478610016 9.97916
48.31241445160131 9.95001
48.337007097209366 9.93046
48.36141144338331 9.91264
48.38581812345755 9.90757
48.41022713920929 9.913889999999999
48.434829215320704 9.86293
48.45924292604658 9.86917
48.48365897780325 9.85924
48.50807737237308 9.804039999999999
48.532688907799276 9.8332
48.55711201168574 9.784989999999999
48.581537463754074 9.75164
48.60615611725119 9.80606
48.63058628942721 9.802
48.65501881516546 9.73884
48.6794536962573 9.72964
48.70408185970339 9.6549
48.72852147531801 9.59794
48.75296345168211 9.61095
48.77740779059232 9.63229
48.80204549302823 9.61004
48.82649458091802 9.60754
48.85094603676547 9.5768
48.87539986237231 9.55229
48.90004713292306 9.52505
48.92450572200832 9.55921
48.94896668628025 9.53558
48.97343002754588 9.48568
48.99808689542115 9.46608
49.02255501470614 9.42032
49.04702551642794 9.49194
49.0714984023988 9.45172
49.096164896893235 9.430489999999999
49.120642575466796 9.3918
49.145122643748394 9.38839
49.16960510355558 9.35696
49.19428125404938 9.3336
49.2187685210852 9.3383
49.243258185121555 9.28819
49.26794160167084 9.2433
49.2924360839405 9.24478
49.31693296869764 9.25159
49.34143225776915 9.225530000000001
49.36612538195438 9.156880000000001
49.39062950396021 9.176
49.41513603578346 9.181189999999999
49.4396449792564 9.16965
49.46434784069503 9.17345
49.488861631846454 9.13418
49.513377840166804 9.119110000000001
49.537896467493745 9.07423
49.56260909589029 9.016119999999999
49.587132585683285 9.0407
49.611658500018365 9.03936
49.636186840738596 9.00383
49.66090926588511 9.00164
49.685442483902584 8.999369999999999
49.70997813385706 8.94598
49.734516217597076 8.89453
49.75924846937352 8.90513
49.7837914452858 8.86749
49.80833686055187 8.89137
49.83288471702571 8.84614
49.85762682540054 8.855089999999999
49.882179588965734 8.833060000000001
49.9067347993235 8.80993
49.93129245833333 8.8068
49.95604445336378 8.80515
49.98060703442832 8.748560000000001
50.005172069746266 8.76065
50.02993150438364 8.76004
50.05450147301533 8.74982
50.07907390151433 8.69576
50.10364879174981 8.65122
50.12841816587289 8.63908
50.1529980044635 8.658539999999999
50.17758031042124 8.64906
50.20216508562089 8.62234
50.22694442953363 8.574160000000001
50.25153416817468 8.554689999999999
50.27612638170508 8.57666
50.300721072005196 8.53464
50.325510416102105 8.5292
50.350110084975064 8.51481
50.37471223628208 8.53387
50.39931687190919 8.515310000000001
50.424116246675766 8.5043
50.44872587605249 8.44687
50.47333799543065 8.44395
50.49795260670191 8.40504
50.52276204271512 8.40949
50.54738166295838 8.42708
50.57200378079314 8.39114
50.596628398116835 8.351339999999999
50.62144792604559 8.3531
50.646077567609396 8.322610000000001
50.670709714377715 8.32911
50.69553683636198 8.31225
50.72017401885922 8.27421
50.7448137122895 8.26557
50.76945591856022 8.25343
50.79429318636823 8.236410000000001
50.818940443716784 8.206389999999999
50.84359021965163 8.17051
50.868242516085964 8.14066
50.893089960641895 8.132719999999999
50.917747323549435 8.1663
50.94240721271973 8.14515
50.96706963007175 8.10985
50.99192728239342 8.0758
51.01659478166073 8.099960000000001
51.04126481489051 8.07565
51.06593738400761 8.05775
51.090805275207074 8.007
51.11548294172845 8.0098
51.14016314993547 8.02155
51.164845901758845 8.01972
51.18972406304274 7.97587
51.21441192780656 7.91127
51.23910234200271 7.960889999999999
51.2637953075678 7.9149
51.288683770237945 7.92203
51.31338186432707 7.90152
51.33808251561888 7.83856
51.362978729967345 7.84841
51.387684521509755 7.8349899999999995
51.41239287610203 7.80998
51.437103795691165 7.78115
51.46201036644977 7.77807
51.486726441956634 7.768160000000001
51.51144508832545 7.7816399999999994
51.536166307509156 7.771730000000001
51.56108326624387 7.70374
51.58580965706056 7.71725
51.61053862657523 7.687930000000001
51.635270176746864 7.655239999999999
51.66019755512065 7.65733
51.68493429268881 7.663069999999999
51.70967361681515 7.63558
51.73441552946465 7.5987
51.759353359237934 7.609189999999999
51.7841004750961 7.591589999999999
51.80885018539685 7.6035
51.833602492111254 7.56738
51.8585508051424 7.5357199999999995
51.883308330926425 7.520580000000001
51.90806845906181 7.51222
51.932831191525715 7.46841
51.95779001977161 7.479
51.98255798721516 7.435
52.00732856494335 7.46179
52.03229530577543 7.431369999999999
52.057071130455945 7.39657
52.081849571391054 7.3787899999999995
52.106630630568695 7.39902
52.13160794279417 7.342389999999999
52.15639426492067 7.34483
52.18118321127822 7.35835
52.205974783860896 7.35116
52.23096269971011 7.3052399999999995
52.255759551287994 7.3071
52.280559035098186 7.26996
52.30536115314103 7.26785
52.33035970494467 7.267760000000001
52.35516711807904 7.2325800000000005
52.37997717147198 7.18916
52.40478986713005 7.17935
52.42979908731974 7.210039999999999
52.454617094216 7.1874
52.47943774942214 7.1487
52.50426105495102 7.1271
52.529280976059844 7.128369999999999
52.554109609024096 7.1231800000000005
52.57894089837482 7.16202
52.60377484613117 7.140510000000001
52.62880550079408 7.105589999999999
52.65364479223379 7.02367
52.67848674816189 7.05025
52.70352547971946 7.07383
52.72837279155837 7.01567
52.753222773982785 6.98988
52.778075429022984 6.97888
52.80312495150885 6.98376
52.827982978797436 6.95248
52.85284368481815 6.958489999999999
52.87770707160767 6.90192
52.90276741793998 6.9068
52.92763619336701 6.88727
52.952507655698504 6.86808
52.977381806977576 6.886139999999999
53.00245301017842 6.865660000000001
53.02733256653592 6.87015
53.052214817996074 6.85163
53.077099766608484 6.82724
53.102181859804446 6.82605
53.127072229988265 6.787310000000001
53.15196530349892 6.74909
53.17686108239249 6.7342699999999995
53.20195409881522 6.74299
53.22685531582556 6.718889999999999
53.25175924441303 6.6917800000000005
53.27666588664027 6.6851199999999995
53.30176985962693 6.68122
53.3266819565689 6.6391100000000005
53.35159677336455 6.62966
53.376514312083096 6.628989999999999
53.40162927507703 6.640210000000001
53.42655228516116 6.60992
53.45147802340193 6.57397
53.47660125628886 6.56882
53.50153247842639 6.6216
53.52646643496923 6.53021
53.55140312799818 6.51621
53.576537409691696 6.498880000000001
53.60147960336152 6.51739
53.626424539786164 6.51171
53.65137222105307 6.481380000000001
53.67651758529126 6.49717
53.70147078399681 6.44006
53.72642673383343 6.40869
53.75138543689533 6.43419
53.776541917524526 6.42428
53.801506154876755 6.38045
53.826473151763246 6.37274
53.851442910284916 6.364
53.87661054126026 6.31423
53.9015858509782 6.32054
53.92656392866066 6.345940000000001
53.95154477641532 6.30777
53.976723591801296 6.30167
54.00171000771266 6.31062
54.02669920004598 6.29068
54.051691170915745 6.22612
54.076881204886796 6.2508099999999995
54.101878760928514 6.23391
54.12687910187696 6.1776800000000005
54.152077577768296 6.16873
54.1770835166946 6.13235
54.20209224691339 6.15983
54.22710377055121 6.14586
54.25231352511594 6.1534699999999996
54.27733066384342 6.14576
54.30235060239643 6.13975
54.32737334290836 6.10484
54.35259441062629 6.08986
54.377622783395324 6.08095
54.40265396455061 6.07029
54.42768795623251 6.02755
54.45292037169559 6.04885
54.477960012857906 6.00566
54.50300247099511 5.96636
54.52804774825457 5.96232
54.55329154616743 5.88781
54.57834249018678 5.93077
54.6033962597977 5.853680000000001
54.6284528571545 5.84163
54.653708072335164 5.83819
54.67877035378786 5.81265
54.70383546947698 5.78535
54.72890342156389 5.76846
54.7541700889442 5.71877
54.77924374251975 5.76218
54.8043202390049 5.7286
54.82959552413022 5.72966
54.8546777351945 5.68302
54.87976279569621 5.64631
54.90485070780914 5.68191
54.930137506558005 5.63278
54.95523115074295 5.6247
54.98032765308844 5.58826
55.005427015775496 5.56511
55.03072536339621 5.6211
55.05583047570572 5.55358
55.080938454927676 5.51178
55.10604930325027 5.48318
55.131359235107396 5.460780000000001
55.15647585066083 5.45032
55.181595341907496 5.42354
55.20671771104285 5.37988
55.232039262617704 5.35423
55.25716741665048 5.35005
55.28229845518636 5.33215
55.30743238042802 5.32276
55.33276558731939 5.33919
55.357905315183636 5.330509999999999
55.383047936390035 5.2119599999999995
55.40819345314859 5.24461
55.433538351073295 5.18578
55.458689688238415 5.14962
55.483843927614096 5.14353
55.509197623043605 5.1746
55.53435769621134 5.07787
55.55952067826466 5.03702
55.5846865714265 5.06219
55.61005202069737 5.04741
55.63522376553902 5.05203
55.66039842818645 5.01693
55.68557601087004 4.98453
55.7109532500271 4.91558
55.73613670233794 5.00563
