TT I
1.2716486653135266 7.62257
1.2939594142134223 7.37096
1.3162702121660406 6.7218100000000005
1.3385810600174564 6.69504
1.3608919586137629 6.48053
1.383202908801069 5.74458
1.405513911425503 5.9873
1.4278249673332093 6.24791
1.4501343378461518 5.55652
1.4724455028545926 5.96094
1.4947567236847858 5.71232
1.517068001182951 6.26504
1.5393793361953272 6.107880000000001
1.5616907295681737 5.545059999999999
1.5840021821477681 5.49715
1.60631369478041 6.05206
1.6286252683124185 5.46553
1.6509369035901333 4.97253
1.6732468618895553 4.67824
1.695558623192809 4.41729
1.7178704487808514 4.95409
1.7401823395001077 5.457319999999999
1.7625012545597203 5.00127
1.7848028405262486 5.227469999999999
1.8071218901122095 4.67394
1.8294236121921872 4.58699
1.8517427996910911 4.69362
1.8740620574440425 5.225569999999999
1.8963639900671978 5.15521
1.9186833908139995 4.61298
1.9409854680117449 4.63009
1.9633050151394713 5.00743
1.9856246367570705 4.40062
2.0079269371922672 4.23693
2.03024671027244 3.95194
2.0525491637446027 3.8256699999999997
2.074869091674931 4.44461
2.097171701569106 4.33064
2.1194917877373847 4.95352
2.141811954326636 4.784009999999999
2.164114805233074 4.91311
2.186435135143035 6.2113
2.208738150935709 14.875
2.231058647554722 31.1685
2.2533792288321184 23.7605
2.275682498336085 10.4869
2.298003251406138 5.85005
2.3203066942619714 5.887230000000001
2.3426276225136022 5.39809
2.3649486396617507 5.47861
2.387252348930071 5.96352
2.4095735463442893 5.29825
2.4318774374315884 5.603190000000001
2.4541988185014043 5.5833699999999995
2.476502894794693 5.97406
2.498824462909887 6.94981
2.521146125856138 6.4732199999999995
2.5434504863470337 7.00506
2.5657723414244717 7.232660000000001
2.588076895590662 7.719639999999999
2.610398946189713 7.3981
2.6327210958598384 7.06947
2.6550259469304716 7.85686
2.6773482972090137 7.65906
2.6996533504259 7.56498
2.7219759047039602 7.4154100000000005
2.744298562293959 7.5381800000000005
2.7666039251246595 7.544230000000001
2.7889267918020164 7.7819199999999995
2.8112323652516555 7.79511
2.833555444408179 7.7001100000000005
2.8558786311183852 8.30722
2.8781845268938557 8.53911
2.9005079311721484 8.92029
2.9228140460410397 8.97059
2.9451376712799635 9.02968
2.967444008632326 9.38516
2.9897678582247247 9.639
3.0120918213106695 10.4473
3.0343984987899373 10.6675
3.0567226913198637 11.3284
3.079029599759726 12.0669
3.101354025127254 12.1609
3.123678568232338 12.4677
3.145985829517914 13.1624
3.16831061055229 13.5943
3.1906181112775593 13.8632
3.212943133635653 14.5219
3.2352682779763207 15.0193
3.2575761442691227 15.8233
3.2799015350264273 15.9307
3.302209649240067 16.6072
3.3245352898092655 16.564
3.3468436553365257 16.805999999999997
3.369169549113219 17.8286
3.3914955708171384 18.548
3.413804319727358 19.1675
3.4361305997334863 19.5089
3.4584396084414553 19.7367
3.4807661501462652 20.325
3.503092824025881 20.8839
3.5254022288463154 21.364
3.5477291695206588 22.0643
3.5700388426251948 22.9313
3.5923660534916446 24.2405
3.6146934007816114 40.9776
3.637003482731501 97.8746
3.6593311053109985 108.44200000000001
3.681641464033634 60.88
3.7039693653009733 31.4845
3.726297407241705 26.6561
3.7486081875460804 26.3542
3.7709365132734978 26.7913
3.793247578841633 26.9431
3.8155761917550093 27.3073
3.8378875459837216 27.4754
3.8602164494827234 27.8445
3.882545499606844 28.721999999999998
3.9048572932539183 29.234
3.9271866390645718 29.6616
3.9494987298666713 30.2217
3.971828374764527 31.0342
3.9941581705403255 31.38
4.016470713506008 32.1204
4.038800813471445 32.8744
4.061113662089144 33.3323
4.0834440696459176 34.0884
4.105774632334751 34.3229
4.128087945865126 35.5734
4.150418821249301 36.1899
4.172732448931298 37.42
4.195063640413578 39.266
4.2173775856475215 44.2907
4.239709096631102 80.0189
4.262040768704612 262.085
4.284355196706267 352.18
4.306687193387355 224.32299999999998
4.329001947444346 86.1098
4.35133427213731 49.7066
4.373666762177566 45.7916
4.395982011761091 45.6839
4.418314834921175 46.6212
4.44063041906622 54.8157
4.4629635787515625 67.6922
4.4852969080429785 66.8172
4.5076130004776225 55.0354
4.529946671403969 51.195
4.552263106909177 50.8861
4.574597122877047 51.9309
4.596931312711224 52.8109
4.619248269273446 53.7822
4.6415828092605835 54.7759
4.663900117405352 56.0081
4.686235010953232 57.1832
4.708552674085913 58.4546
4.730887924602802 60.3808
4.753223354952695 61.4439
4.775541557023902 62.7197
4.797877349456786 64.4695
4.820195915032126 66.4011
4.842532072957498 67.8802
4.864868414979744 70.2391
4.88718753227192 72.5526
4.909524244902505 74.1034
4.931843734218147 76.1639
4.954180820867835 78.6892
4.976518095879839 81.4413
4.998838149695359 84.5645
5.021175803844231 88.1596
5.043496238205739 91.7178
5.065834274903528 96.1844
5.088172504230693 101.52799999999999
5.1104935158799565 107.96700000000001
5.132832132875765 133.083
5.155153533596801 181.979
5.1774925416746225 220.157
5.199814334878411 391.38599999999997
5.2221537374521505 1110.9
5.244493338631803 2977.43
5.266815727034316 7349.46
5.289155727832427 12120.3
5.311478517248165 9100.37
5.333818921080011 3244.34
5.356159527788849 663.315
5.3784829252032536 204.535
5.400823940070432 152.99200000000002
5.423147747031976 134.565
5.445489173474152 123.025
5.467830807066149 116.807
5.490155234831516 112.65299999999999
5.512497285125229 108.85799999999999
5.534822130975162 106.512
5.557164601388673 104.01299999999999
5.579489868738879 101.546
5.601832762690846 100.454
5.6241758697774475 99.8366
5.646501775867269 98.3429
5.668845311622074 96.7796
5.691171647754637 96.0173
5.713515615597765 94.6144
5.735859800852677 93.535
5.758186788542988 92.9584
5.780531411018185 93.1238
5.802858837297399 92.8163
5.825203900414495 92.69
5.8475491852224 93.1093
5.869877275883075 93.6497
5.892223006467101 94.4856
5.914551544266608 96.1791
5.936897724049891 98.8819
5.959244129804903 104.39200000000001
5.981573344815301 124.007
6.0039202049061 218.885
6.026249875609095 481.059
6.04859719346037 1009.99
6.070927323278297 2192.37
6.093275102315365 4094.63
6.115623113320588 5208.0
6.137953938319995 3522.14
6.160302415650845 1238.91
6.182633708324452 294.842
6.2049826554078376 123.68299999999999
6.227331838745022 97.1915
6.249663839443684 88.5015
6.27201349767565 85.0723
6.294345974611799 92.3096
6.316696111167083 105.242
6.339046488263839 98.6195
6.361379686074702 82.0025
6.383730546639482 73.4582
6.406064229255215 70.2471
6.428415576718203 69.7425
6.450749747566656 68.7125
6.47310158535871 67.255
6.495453669698332 66.8964
6.517788579421056 65.751
6.540141159237969 64.7965
6.562476565766648 64.1236
6.5848296444934045 63.739
6.607182974060425 63.7721
6.6295191323281015 64.2769
6.651872965955752 67.9082
6.6742096296068985 97.6718
6.6965639707294615 149.954
6.71891856698715 149.716
6.741255995248479 99.3906
6.763611104154477 69.8662
6.785949046381137 61.407
6.808304671371482 59.5568
6.8306605557940046 59.0563
6.852999275508618 58.2416
6.875355681171544 57.8398
6.897694923437771 57.7977
6.92005185377892 57.5392
6.9423916220322655 57.4563
6.964749080490181 56.8774
6.987106804399774 56.5089
7.009447368180821 56.8679
7.031805625367033 56.3737
7.054146723727803 56.2498
7.076505517631004 56.1395
7.098864581288365 56.1985
7.121206488070854 56.065
7.143566093607822 55.8179
7.165908543567245 56.1279
7.188268694426048 56.474
7.2106291193438095 56.6252
7.232972390625943 58.312
7.255333366030969 72.5373
7.277677189091925 134.276
7.300038718428332 187.747
7.322400526130865 155.884
7.344745183422596 93.6709
7.367107550224791 63.2674
7.389452767901992 57.6607
7.411815697249891 56.3595
7.434161478756298 55.5929
7.456524974096713 55.4721
7.478888753837185 55.0166
7.501235387657368 55.5977
7.523599738562711 55.826
7.545946944825532 55.9649
7.568311870344528 56.2423
7.5906770845765665 56.2152
7.613025156078678 57.9547
7.635390950099687 59.4212
7.657739602662809 58.1528
7.680105979923558 56.9735
7.702472650212829 56.8099
7.724822180948224 56.5852
7.747189439655568 56.4811
7.769539560075357 57.0255
7.791907410653562 57.5545
7.81425812420825 56.97
7.836626570110925 57.3469
7.858995315087906 58.2658
7.881346924933401 58.6797
7.903716270417482 59.3926
7.926068482028405 59.5627
7.948438431475253 60.5251
7.9708086843180235 60.7494
7.993161805171116 60.863
8.015532667162402 61.7572
8.037886398416653 62.6318
8.060257873014221 62.9903
8.082629655331942 63.5154
8.104984308787587 64.6469
8.127356708900503 68.6827
8.149711981398308 75.0754
8.172085002766314 77.2909
8.194458336181368 73.3272
8.216814543847752 70.3789
8.23918850371002 70.6244
8.26154533906492 71.5359
8.283919928836452 72.8539
8.306277395339652 73.6509
8.328652618483376 75.1376
8.351028159736202 77.3454
8.373386579575245 79.3614
8.395762759396959 81.0655
8.418121819038275 86.5795
8.440498640894003 101.572
8.462875785192262 116.838
8.485235811156207 128.533
8.507613602688501 168.765
8.529974277114228 261.126
8.552352719347912 402.102
8.574731488360351 669.5219999999999
8.59709314210385 1150.63
8.619472567021075 1774.97
8.64183487789147 2145.2
8.664214962183097 1869.95
8.686577933647762 1062.25
8.708958680784317 411.673
8.731339760774953 180.255
8.753703729764451 116.84299999999999
8.77608547780821 101.946
8.798450116065078 97.7399
8.820832535634787 94.7535
8.843215292401656 92.5664
8.865580941199045 90.9201
8.887964374703538 90.1507
8.910330701447199 91.6614
8.932714815164482 93.9635
8.955099270424924 93.1754
8.977466620733543 89.7548
8.999851761421976 86.7553
9.022219798361645 85.0935
9.04460562795561 84.7796
9.066991803441677 84.3042
9.089360876979615 83.8654
9.111747746589993 83.6598
9.13411751544971 82.7739
9.156505082664324 83.0609
9.178875550323522 83.4644
9.20126381862328 83.6933
9.223652438908596 84.1867
9.246023961427412 83.8064
9.26841328802173 82.9665
9.290785518039224 82.9926
9.313175554425882 83.803
9.335565947154315 83.3942
9.357939245086508 83.662
9.380330352834827 83.6333
9.40270436697103 84.1437
9.425096193225055 84.0817
9.447488380180165 84.8611
9.469863475295412 85.1346
9.492256385987508 85.6228
9.514632206018318 86.3153
9.537025843935714 86.5596
9.559402392368193 87.4769
9.581796761000229 88.4935
9.604191496441521 89.1315
9.626569144158516 93.54799999999999
9.648964615551032 98.3548
9.671343000390081 100.251
9.693739211225699 97.37
9.716135793237463 94.7335
9.738515290448102 94.4917
9.760912617143402 95.3452
9.783292860202891 96.4761
9.805690935076182 97.9619
9.828089385495742 98.5013
9.850470754023561 101.49700000000001
9.872869957865444 109.85600000000001
9.89525208097539 127.12299999999999
9.917652041736662 140.845
9.940052382417589 139.366
9.962435644102392 144.407
9.984836746950979 181.273
10.007220771957746 248.11
10.029622640473708 355.954
10.052007432299963 529.4490000000001
10.074410069984072 804.446
10.096813093716005 1209.82
10.119199042482517 1653.49
10.141602840636468 1892.55
10.163989564971628 1629.9
10.186394141051062 978.2139999999999
10.208799107559706 446.32199999999995
10.231187001965623 212.083
10.253592751657669 134.753
10.275981430388155 117.04
10.298387966769793 116.37
10.320794897965431 119.191
10.343184759907361 117.664
10.36559248305461 110.897
10.387983138083852 106.34299999999999
10.410391656691655 109.038
10.432800574501677 119.98100000000001
10.455192425893369 137.13299999999998
10.47760214443012 162.899
10.499994797678786 205.25400000000002
10.522405320453982 281.892
10.54479877906917 391.44
10.567210109595656 494.39599999999996
10.5896218454736 552.888
10.612016518879773 507.374
10.634429067781074 372.62699999999995
10.656824555333241 223.197
10.679237920773568 133.415
10.701651695961992 99.8544
10.724048411481384 91.0891
10.746463008485165 87.9496
10.768860546937125 86.6558
10.791275969274796 84.4894
10.81369180576079 83.3217
10.836090585366925 82.2557
10.858507252467449 80.8885
10.88090686379991 79.9935
10.903324365036394 79.5046
10.925724811614439 79.8528
10.948143150509463 81.1074
10.970561909719066 80.1804
10.992963615930844 78.0792
11.015383218085756 75.9845
11.037785768347074 74.631
11.06020621697282 74.0246
11.082627090322113 73.3398
11.105030913430326 72.9684
11.12745263854165 73.5985
11.149857314510728 77.5452
11.172279894912576 84.4865
11.194702904450653 85.4327
11.217108866490921 80.6165
11.239532736615194 75.6729
11.26193956033512 73.3875
11.284364294577085 71.6943
11.306789462371718 69.4392
11.329197585398376 68.2267
11.351623622610898 67.8927
11.37403261614354 67.2025
11.396459526308487 66.9222
11.418869393879497 66.345
11.441297180532617 66.1906
11.463725406927658 65.896
11.486136592353875 65.7743
11.508565700543707 66.487
11.530977768845315 68.5727
11.553407762368774 69.6068
11.575838200059769 68.8456
11.598251599479612 66.4589
11.620682927815501 64.9623
11.64309721895548 64.6713
11.665529441478206 64.2164
11.687962112597958 63.6341
11.710377748130886 63.6177
11.732811318753434 63.6934
11.755227854859067 63.6934
11.777662328529495 63.8681
11.800079768750786 63.6938
11.822515149015453 63.3017
11.844950984084935 63.5502
11.867369787303163 63.2512
11.889806534289491 63.1169
11.912226250487029 63.5615
11.934663912939751 63.729
11.9571020346363 63.6204
11.979523127133968 63.5445
12.001962169624331 64.5625
12.024384183972964 65.6827
12.046824150809913 68.8427
12.069264581333726 74.0914
12.091687985297767 80.8744
12.11412934550045 90.1191
12.136553680195208 104.79
12.158995973632788 126.53
12.181438735204349 153.80700000000002
12.20386447284199 179.676
12.226308172985636 202.44
12.24873485024193 202.60299999999998
12.271179492516982 171.97799999999998
12.293607112949127 136.208
12.316052700916226 102.01700000000001
12.338498763250042 82.845
12.360927805303868 72.2752
12.383374818673879 67.7922
12.405804812803074 65.6859
12.428252780773262 65.4956
12.45070122756722 65.4194
12.473132656675375 64.9633
12.49558206341869 65.3353
12.518014453510101 65.1204
12.540464823770117 65.4152
12.562915677315177 65.6083
12.58534951575545 66.6507
12.607801338171472 68.8134
12.630236146511358 74.8568
12.652688941369085 80.1121
12.675124723177234 80.4189
12.697578494048786 76.0241
12.720032754458185 71.0765
12.742470003354093 68.8377
12.764925245138771 68.46
12.787363476431278 68.8033
12.809819703166806 69.2027
12.83227642391173 70.2821
12.854716135692716 71.0288
12.877173846755147 71.8763
12.899614549869717 71.8978
12.9220732548287 72.732
12.94453245827299 73.1841
12.966974655289818 74.0863
12.989434858002571 74.7704
13.011878055298721 75.4466
13.034339260862497 76.6884
13.056800969391883 77.6602
13.079245674017244 80.0099
13.101708390774869 82.3016
13.12415410463411 89.2966
13.146617833206086 101.65799999999999
13.169064559883248 114.134
13.191529303857127 129.43200000000002
13.213994557076367 151.511
13.236442809902437 185.41099999999997
13.258909083908291 235.963
13.28135835851934 296.57599999999996
13.30382565690295 359.17400000000004
13.326293469022952 415.12300000000005
13.348744283242008 423.94300000000004
13.371213125129904 369.728
13.39366497011003 278.92400000000004
13.416134845360597 189.257
13.438605238843131 130.917
13.46105863690397 109.43700000000001
13.483530069144786 107.844
13.505984506951902 113.15299999999999
13.528456981549432 123.428
13.550929978879088 137.817
13.573385983253365 160.389
13.595860028340867 195.97400000000002
13.618317081455832 243.236
13.64079217790333 292.17
13.663250283359057 334.473
13.685726434770173 363.985
13.708203115221277 340.459
13.730662806148091 275.962
13.75314054697177 200.856
13.775601299246777 139.1
13.798080104050406 102.831
13.820559442405358 87.9229
13.843021793671388 83.3063
13.865502201420897 81.4696
13.887965623051947 80.5686
13.910447103807167 79.7664
13.932929122629764 78.3012
13.955394156785959 77.8083
13.977877254034569 76.9624
14.000343367582113 75.9727
14.022827546871707 75.1203
14.045294743423524 74.4246
14.06778000837062 73.8596
14.090265817715476 73.9191
14.112734645763819 73.3776
14.13522154619454 73.4556
14.157691466286913 73.7312
14.180179461423874 73.085
14.202668005486178 72.6341
14.22513957064374 71.9585
14.247629214846473 71.5563
14.270101881097517 71.4627
14.29259262906496 71.7126
14.315083930490205 72.2562
14.337558255389705 72.7463
14.360050666019726 72.3441
14.382526101071944 71.1576
14.405019624534942 70.2885
14.427513705993134 69.82600000000001
14.449990813291825 69.8463
14.47248601302899 69.5246
14.49496423954951 69.4678
14.517460561197822 69.9942
14.539939910570322 69.5168
14.562437357763558 69.9892
14.58493536931253 71.2283
14.607416409993311 72.3292
14.62991555254159 73.1636
14.652397725157423 72.8055
14.674898002342799 72.2135
14.697398848433282 71.4857
14.719882725991326 71.9768
14.74238471217934 72.8869
14.764869730765593 76.0614
14.787372860692983 80.0503
14.809876564079925 84.4817
14.83236330125751 90.3364
14.854868153850365 98.8007
14.877356041159485 111.73
14.899862046604186 129.094
14.922351087688757 151.893
14.944858249632887 177.68200000000002
14.967365991421232 199.86700000000002
14.989856770231246 217.136
15.012365673994204 216.226
15.03485761569738 192.389
15.05736768508665 154.659
15.07987833888692 120.346
15.102372032001655 94.8011
15.124883856909658 79.2957
15.14737872204565 73.6374
15.169891721717274 71.7906
15.192405310371893 72.0487
15.214901940621196 72.1391
15.237416709527137 72.2959
15.259914520936249 72.5425
15.282430473753607 71.4962
15.304947020131227 70.1684
15.327446610371178 69.0363
15.349964346154254 68.3769
15.372465126703139 67.8654
15.394984055556009 67.3803
15.417486030076159 67.2923
15.44000615566487 66.9502
15.462526881230803 67.0876
15.485030653812652 67.4506
15.507552581617434 67.2933
15.530057557334603 67.4252
15.55258069104857 67.2521
15.575104429329837 67.0925
15.597611216864632 66.5801
15.620136166564563 66.7715
15.6426441664095 67.6607
15.665170331202765 70.1924
15.687697105158826 73.3906
15.710206930593545 76.88600000000001
15.732734925158933 81.1899
15.755245972089478 87.301
15.77777519094324 95.9883
15.800287463046663 108.08200000000001
15.822817909869592 125.413
15.84534897229804 143.89700000000002
15.867863089299354 166.222
15.890395385222186 181.421
15.912910736597423 191.36
15.935444269699861 182.27599999999998
15.957978423016485 159.49
15.980495633101265 129.8
16.003031029129367 102.352
16.02554948280019 80.6071
16.048086125229432 70.3861
16.070623392487107 67.0059
16.09314371869582 66.0332
16.11568223789321 65.079
16.13820381691126 63.965
16.160743591742527 62.5735
16.183283996022084 61.6194
16.205807461423195 60.3273
16.228349126881973 59.7725
16.25087385432698 59.9317
16.27341678466365 59.2637
16.29594277784926 59.2018
16.31848697676433 59.5347
16.341031811604868 59.9386
16.36355971058487 60.336999999999996
16.3861058195587 60.0929
16.40863499352978 58.8591
16.431182380342005 57.7278
16.453730407713202 57.2981
16.476261501364792 56.6191
16.498810812136167 56.298
16.52134319004079 56.5868
16.54389378792203 56.5847
16.566445031001553 56.2463
16.588979342490088 56.0056
16.61153187824822 55.8279
16.634067483263312 55.6034
16.656621315414416 55.681999999999995
16.679175797408888 55.3662
16.701713349928728 55.3958
16.72426913389191 55.5774
16.74680798922351 55.6366
16.76936507887444 55.8475
16.791905240734874 55.9627
16.814463639794468 55.7601
16.837022695210294 55.6424
16.859564824093756 56.1017
16.882125194503903 56.8969
16.904668639217885 57.5544
16.927230328348003 57.7968
16.949792678493612 57.8821
16.972338104193863 57.1079
16.994901778652235 56.4816
17.017448529496576 56.3221
17.040013531998152 56.6389
17.06257920018044 57.1517
17.0851279459922 57.8118
17.107694947817667 58.6669
17.130245028099072 59.4294
17.15281336730298 60.912
17.17536478578733 62.3527
17.19793446610687 64.4226
17.220504818648422 67.3713
17.243058251703697 70.172
17.265629950971032 74.3501
17.288184731571736 78.4841
17.310757781306908 81.8645
17.33333150794385 83.6441
17.355888317140174 82.4157
17.37846339986244 78.6032
17.401021565958885 72.6433
17.42359800851343 67.6258
17.44617513265564 63.3452
17.468735341390783 61.0822
17.491261035594565 59.9424
17.51396340099364 59.7592
17.536490463869136 60.0549
17.559018209820174 59.9173
17.58154663977963 60.0405
17.604251766089718 60.2579
17.626781572227713 60.3637
17.64931206518155 60.6304
17.671843245885103 61.352
17.69455114821572 61.5768
17.717083712612634 61.86
17.739616967569667 61.858000000000004
17.762150914021706 61.8477
17.78486160749854 62.0426
17.807396945166804 62.7193
17.829932977143503 63.4527
17.85246970436452 65.1049
17.875183204129467 67.2194
17.897721330097664 69.3255
17.920260154126645 71.4749
17.942799677153296 75.021
17.9655159983646 78.3966
17.988056927677544 83.1234
18.010598558807683 90.478
18.033140892692916 99.5441
18.05586005052525 108.931
18.07840379824407 119.505
18.10094825154059 130.19
18.12366954819864 137.602
18.146215420998306 138.726
18.16876200220057 133.465
18.191309292745153 121.166
18.214033452627167 107.339
18.236582170236648 94.7363
18.259131600016456 88.8524
18.281681742907335 87.4414
18.304408781233683 90.904
18.32696035875955 95.3697
18.349512652227624 99.79299999999999
18.372065662579683 104.146
18.394795594587553 106.061
18.41735004715306 104.73299999999999
18.43990521943684 99.4526
18.46246111238171 90.2243
18.485193953325208 80.4764
18.507751296070428 72.5308
18.530309362314178 67.6496
18.552868153000343 64.8606
18.57560391815056 63.1145
18.59816416623245 62.6462
18.620725141597372 62.1182
18.643286845190268 61.7052
18.666025549835414 61.328
18.688588718427933 60.677
18.711152618092243 60.6573
18.73389353884365 60.4312
18.75645890921984 59.8974
18.77902501351406 59.4879
18.801591852673102 59.544
18.824335739722738 58.93
18.846904057212626 59.0122
18.8694731124168 58.5953
18.89204290628315 58.431999999999995
18.914789774966803 58.2964
18.937361054791623 58.0501
18.959933076131318 57.8965
18.982505839934877 57.8462
19.00525570560582 57.974
19.027829963004184 57.6726
19.05040496572238 57.7348
19.072980714710468 57.8323
19.095733592739563 57.9519
19.11831084296757 58.1171
19.140888842324735 58.7108
19.16346759176222 59.1692
19.18622349753803 59.6761
19.208803755869358 60.3951
19.231384767143577 61.3816
19.253966532312948 63.0439
19.276725481241822 64.7962
19.29930876296784 66.993
19.3218928014549 69.9628
19.34465404436217 72.8173
19.36723960516257 75.35600000000001
19.389825925592426 76.7461
19.412413006605938 76.2068
19.43517731967805 73.4208
19.457765930683355 69.431
19.48035530514408 65.043
19.50294544401556 60.9211
19.525712842708348 57.9399
19.54830451925909 56.575
19.570896963095727 55.1119
19.593490175174704 54.6779
19.616260674962184 54.5882
19.638855432416964 54.1423
19.661450960992624 54.4657
19.68404726164677 54.2279
19.706820878021247 53.9584
19.729418731756834 54.3793
19.752017360452857 53.9886
19.77461676506804 54.0699
19.797393513540218 54.5755
19.819994478951667 54.8053
19.84259622316767 55.2108
19.8651987471481 55.6976
19.887978643247177 56.0217
19.91058273574792 56.3452
19.933187610901943 57.188
19.955969879466828 58.0498
19.97857632894404 59.1919
20.00118356396599 60.9086
20.023791585494575 62.7668
20.046577028914875 65.0843
20.069186632506966 67.2114
20.091797025500632 69.0754
20.114408208858933 70.289
20.137196842715273 70.3657
20.159809615886765 69.1415
20.18242318232135 66.7881
20.20503754298326 64.7235
20.227829382875154 63.6003
20.250445341109344 62.8854
20.27306209647285 63.2523
20.29567964993108 64.1749
20.31847471147704 65.3468
20.34109387027612 65.8905
20.363713830075454 65.9141
20.386334591841646 65.0014
20.409132890679302 62.9021
20.431755265564437 59.5977
20.454378445325528 56.8527
20.477002430930366 54.7575
20.499803982716553 53.4593
20.522429589228004 52.5852
20.54505600449589 52.0084
20.567683229489194 51.7214
20.590488049900088 51.3955
20.61311690359731 51.1408
20.63574656993626 50.7702
20.658553853717297 50.3267
20.681185154618298 50.4603
20.703817271080066 50.2437
20.72645020407368 50.0202
20.749260783967177 49.8701
20.771895359337133 49.7635
20.794530754161617 49.6048
20.817166969412938 49.4291
20.83998086114876 49.4604
20.86261872660049 49.3314
20.885257415405402 49.2824
20.90789692853701 49.325
20.930714147864748 49.2395
20.953355319030678 49.457
20.97599731745334 49.4873
20.99864014410749 49.1588
21.021460706796564 49.2713
21.044105199328826 49.4923
21.06675052302631 49.6857
21.089396678865015 49.8228
21.112220600704806 50.233999999999995
21.134868430275347 50.6078
21.15751709492456 50.8646
21.180166595629693 50.9967
21.202993892429635 51.3432
21.22564507473034 51.7596
21.24829709602816 51.9359
21.27112693608965 51.9859
21.293780644891275 52.1087
21.316435195634053 51.5758
21.339090589297417 50.975
21.361923832041875 50.4671
21.384580921090404 49.533
21.407238856007325 49.1477
21.429897637773326 49.1726
21.45273429906592 49.1694
21.475394784108598 48.9777
21.498056118951983 49.0353
21.520718304578022 49.1233
21.543558400304388 49.2478
21.566222297108816 49.3709
21.58888704765135 49.5829
21.61155265291521 49.8849
21.63439619898156 50.4056
21.657063523335786 50.6245
21.67973170537063 51.1174
21.7024007460706 51.6158
21.72524775840385 52.4146
21.747918526116475 53.2729
21.770590155457388 54.395
21.79326264741238 55.9442
21.816113141960237 57.4906
21.838787368860547 59.3107
21.861462461341976 60.9835
21.884315579735777 62.5612
21.90699241312273 63.8523
21.92967011506078 64.8139
21.95234868653799 64.9541
21.9752053151131 64.3947
21.997885635446785 62.9148
22.020566828293532 61.0732
22.04324889464272 59.1148
22.066109049404666 57.5401
22.088792872571794 56.8417
22.111477572219204 56.6001
22.1341631493376 56.6487
22.157026846313123 56.4056
22.179714188221507 56.0401
22.202402410582668 55.2057
22.22509151438863 53.85
22.24795876962584 52.4344
22.270649646204486 51.46
22.293341407213727 50.6771
22.316034053646906 50.0679
22.338904883215342 49.8311
22.36159931041458 49.5834
22.38429462602756 49.754
22.40699083104897 49.6424
22.429865251039757 49.5227
22.452563244831367 49.7707
22.47526213102522 49.5679
22.49813925616515 49.3821
22.520839937143307 49.1925
22.543541513520587 49.248000000000005
22.56624398629403 49.1734
22.589124730075895 49.0896
22.611829005656723 49.4496
22.63453418063466 49.2518
22.657240256008077 49.6344
22.680124634582935 49.6
22.70283252079775 49.7801
22.725541310413075 50.0115
22.74825100442868 50.2733
22.771139033969575 50.903999999999996
22.79385054687155 51.1083
22.81656296718292 51.7001
22.83927629590484 52.6193
22.862167992606945 53.4049
22.88488314827121 54.3641
22.907599215359284 55.434
22.93031619487366 56.4111
22.953211574954405 57.2825
22.975930389478226 58.1194
22.998650119445763 58.531000000000006
23.02137076586092 58.1817
23.044269845560063 57.1676
23.06699233506288 55.5577
23.089715744034912 53.7867
23.112617610931565 52.0921
23.135342869061212 50.8813
23.158069049684816 49.9685
23.1807961538087 49.5778
23.20370174880544 49.50899999999999
23.226430710184808 49.493
23.249160598093425 49.5467
23.271891413539002 49.4352
23.294800752937697 49.4695
23.31753343374794 49.7817
23.340267045128353 49.8483
23.36300158808808 50.2335
23.38591468821339 50.4001
23.408651104658304 50.7596
23.431388455719986 51.4787
23.454126742409 52.1637
23.4770436196085 52.976000000000006
23.499783787914662 54.1169
23.522524894889884 55.0673
23.54526694154616 56.0146
23.56818761219047 57.1156
23.59093154860734 57.515
23.613676427751283 57.9527
23.636422250635754 57.7595
23.659346731118656 56.5146
23.68209445191868 54.841
23.704843119509587 52.7568
23.72759273490623 50.7936
23.750521041644767 49.1931
23.77327256312355 48.2131
23.796025035462787 47.4216
23.818956224555475 46.9036
23.841710609113413 46.7596
23.86446594758979 46.4993
23.887222241002014 46.2775
23.910157285144578 45.8051
23.932915498962537 45.9287
23.955674670778713 45.6184
23.978434801611975 45.556000000000004
24.001373717286125 45.3605
24.024135776723917 45.2214
24.046898798245582 45.1901
24.06966278287146 44.9665
24.092605586582614 44.8881
24.115371508023642 44.7946
24.1381383956401 44.6818
24.16090625045381 44.5767
24.183852958731244 44.6866
24.206622758582608 44.3555
24.229393528706886 44.156000000000006
24.252165270127392 44.3064
24.27511589952438 44.2881
24.297889594216997 44.0644
24.32066426328598 43.9086
24.34343990775613 43.9119
24.36639447485003 43.8436
24.38917208083877 43.77
24.41195066531332 43.7486
24.43490819850244 43.7783
24.457688750692377 43.486999999999995
24.48047028445616 43.3536
24.503252800821233 43.5964
24.526214300784112 43.6005
24.548998793132213 43.7129
24.57178427117417 43.3864
24.59457073593893 43.5804
24.617536219319863 43.4588
24.64032466834748 43.446999999999996
24.663114107195035 43.4628
24.685904536893013 43.1609
24.708874020360852 43.1245
24.731666442613744 42.9914
24.754459858818787 42.8251
24.777254270007962 42.8266
24.80022777025625 42.8472
24.82302418230472 42.8005
24.845821592443674 42.7568
24.86862000170663 42.7313
24.891597535453727 42.51
24.914397953892728 42.8535
24.93719937456671 42.6831
24.96000179851076 42.8455
24.98298338249997 43.1592
25.00578782394922 43.3372
25.028593271784167 43.2878
25.05157790644186 43.6635
25.07438537804115 43.861999999999995
25.097193859145293 44.0012
25.120003350792075 44.2105
25.142992065061257 44.5313
25.165803588823465 44.7753
25.18861612625217 45.0795
25.211429678386736 45.2435
25.234422489079968 45.3071
25.257238081693636 45.3389
25.280054692141732 45.263999999999996
25.3028723214652 45.4302
25.325869245420463 45.4712
25.348688923599397 45.4809
25.371509623787006 45.4155
25.394331347025812 45.0296
25.41733240110666 44.7562
25.440156181590016 44.2697
25.46298098826268 43.8017
25.48580682216873 43.3151
25.50881202326435 42.6692
25.53163992281684 42.0603
25.55446885274561 41.7892
25.577298814096377 41.4604
25.600308179121807 41.4025
25.623140214533745 41.3631
25.64597328451537 41.3412
25.66898578564376 41.0076
25.691820936010206 41.0513
25.714657124097695 41.1222
25.737494350954734 41.1009
25.760511045684957 40.9669
25.783350361364224 41.0414
25.806190718969255 41.0567
25.82903211955018 41.2029
25.852053024868923 41.2381
25.874896522722523 41.2566
25.897741066713106 41.2222
25.920586657892454 41.3262
25.943611790812668 41.3277
25.966459487728237 41.4275
25.989308234998564 41.3631
26.01215803367705 41.8532
26.03518741123814 41.8788
26.05803932412957 42.0627
26.080892291600094 41.916000000000004
26.10374631470478 42.1164
26.12677995397268 42.343
26.14963609978026 42.1804
26.172493304397875 41.9209
26.19535156888223 41.836000000000006
26.218389486949604 41.3951
26.241249882640123 41.0694
26.26411134137826 40.8609
26.28715248187403 40.9029
26.31001607820869 40.6883
26.3328807407756 40.5311
26.35574647063438 40.7154
26.37879191991473 40.8831
26.401659795896734 40.8305
26.424528742360263 40.7225
26.447398760366614 40.9958
26.470448535598294 41.0535
26.49332070826805 41.2932
26.516193955675355 41.6457
26.53906827888316 41.7185
26.562122397260108 41.8519
26.584998883685063 42.258
26.607876449110325 42.3549
26.63075509460056 42.544
26.65381357334404 42.6949
26.67669439061878 42.7389
26.699576291163382 42.6561
26.722459276044212 42.6402
26.745522132402975 42.3604
26.768407297649354 42.1044
26.791293550442003 41.7053
26.814180891848974 41.3284
26.837248143099337 41.1187
26.860137673466657 41.1034
26.88302829566349 40.7611
26.90592001075963 40.5682
26.92899167420566 40.4693
26.951885586870763 40.0657
26.974780595655517 39.8097
26.99785558178161 39.9239
27.020752794605112 39.567
27.043651106772522 39.3588
27.06655051935668 39.4633
27.089629948036183 39.2711
27.112531573292053 39.1787
27.135434302194138 39.289
27.158338135817015 39.1197
27.181422024430987 39.1362
27.204328079372566 39.0644
27.22723524226965 39.0913
27.250143514198573 39.0911
27.273231880156334 39.0452
27.296142382065014 38.9115
27.319053996245536 38.8321
27.341966723775965 38.9507
27.365059584515222 38.979
27.38797455070062 39.0949
27.410890633481237 38.8908
27.433807833936918 38.9064
27.456905206923906 38.9284
27.47982465472398 38.9333
27.502745223449743 39.0686
27.525666914182825 39.1973
27.548768816912457 39.0474
27.571692763693633 38.885999999999996
27.59461783573812 38.8449
27.617723149491244 38.7746
27.640650484125285 38.5944
27.66357894728264 38.6818
27.686508540048052 38.5954
27.709618414237887 38.3346
27.732550278321757 38.2685
27.755483275279115 38.3411
27.778417406196485 38.325
27.801531858397514 38.3887
27.824468269376716 38.26
27.847405817586786 38.2856
27.870344504116094 38.5316
27.893463551932008 38.616
27.916404527281053 38.7155
27.93934664422563 38.936
27.962289903855886 38.8791
27.98541356491974 38.9461
28.00835912214229 39.1407
28.03130582533231 39.4096
28.054253675581805 39.5705
28.077381967556104 39.3973
28.100332124185126 39.4002
28.123283431160893 39.4003
28.146235889577238 39.3865
28.169368830154156 39.1233
28.192323603752033 38.9367
28.215279532083304 38.6265
28.238415973016764 38.4399
28.261374223145094 38.342
28.284333631303806 38.2032
28.307294198589954 38.0346
28.330435319167677 37.6979
28.353398217078915 37.4898
28.376362277420153 37.1889
28.39932750129032 37.102
28.422473319286713 37.0271
28.44544088262495 36.8867
28.468409612800283 36.7111
28.491379510913497 36.5716
28.51453004413313 36.388000000000005
28.53750229057244 36.3532
28.56047570826344 36.329
28.583450298308804 36.31
28.606605564586562 36.1871
28.629582511831156 36.2558
28.65256063474956 36.1586
28.675539934446338 36.1374
28.698699951647605 36.1144
28.72168161743193 36.027
28.74466446331978 35.9377
28.767648490417624 35.9368
28.790813276438353 35.9394
28.813799678527303 35.8914
28.836787265157085 35.8883
28.859955641890075 36.0075
28.882945610203045 35.9837
28.905936766392035 35.7463
28.928929111566863 35.8568
28.952102288520145 35.7101
28.975097024308607 35.6531
28.998092952423807 35.5081
29.021090073977508 35.4858
29.04426806913204 35.2393
29.067267590245258 35.2336
29.090268308143695 35.1706
29.11327022394099 35.1956
29.13645305530891 34.8757
29.159457379627167 34.8608
29.18246290519685 34.8013
29.20546963313352 34.8192
29.22865731875826 34.8289
29.25166646419296 34.8139
29.27467681535305 34.6413
29.29768837335608 34.6847
29.320880931312562 34.6866
29.34389491580634 34.6866
29.366910110507334 34.7726
29.38992651653503 34.6556
29.41312396492981 34.7226
29.436142806456754 34.6153
29.45916286268059 34.5201
29.48236399319994 34.4095
29.50538649169417 34.2842
29.528410208259935 34.2123
29.55143514402014 33.9175
29.574641196749695 33.8399
29.597668583816574 33.8043
29.6206971934585 33.580999999999996
29.64372702680042 33.6333
29.666938019934474 33.4607
29.689970313635285 33.5051
29.713003834422636 33.4569
29.73603858342347 33.3749
29.759254535188578 33.2695
29.78229175361658 33.2527
29.80533020365064 33.3219
29.82836988641968 33.3408
29.85159081507472 33.2445
29.874632976355343 33.1777
29.89767637376955 33.2323
29.920721008448314 33.0634
29.9439469322847 33.0735
29.96699405457564 32.9957
29.9900424175358 32.9391
30.013092022298157 32.9033
30.03632295963995 32.9106
30.059375061131373 32.9472
30.08242840783577 33.0176
30.105483000888153 33.0024
30.128718970092244 32.8745
30.151776069006917 32.8757
30.17483441768648 32.8665
30.198074175317235 32.8863
30.221135036724256 32.8697
30.24419715131772 32.7322
30.267260520236203 32.6661
30.290505341942243 32.7111
30.313571232750228 32.7431
30.336638381310948 32.8186
30.35970678876503 32.6664
30.38295669299435 32.6873
30.40602763151657 32.7312
30.429099832366074 32.6425
30.452173296685572 32.5195
30.47542830191959 32.5548
30.498504306502497 32.562
30.521581577995562 32.6373
30.544660117543582 32.5712
30.56792024229725 32.6527
30.59100133132069 32.5419
30.614083691845494 32.6071
30.637167325018545 32.6773
30.660432587840603 32.6849
30.683518779717886 32.5632
30.70660624769615 32.6273
30.729694992924372 32.5765
30.75296541239743 32.6096
30.77605672557558 32.5308
30.799149319462742 32.5532
30.8224236211637 32.4488
30.845518789950724 32.3302
30.868615242910597 32.3245
30.891712981195973 32.0645
30.91499247215866 32.0615
30.938092794619365 32.0436
30.96119440587579 31.9734
30.984297307082752 31.8403
31.00758200598383 31.8017
31.030687500658694 31.6826
31.053794288760695 31.6099
31.076902371446767 31.496
31.100192296997445 31.5288
31.12330298246119 31.4488
31.14641496599209 31.4058
31.169528248749216 31.3772
31.19282341969534 31.3971
31.215939314557186 31.3605
31.239056512134788 31.39
31.262175013589378 31.3484
31.28547544871168 31.2525
31.30859657161541 31.1925
31.331719001892175 31.2464
31.35484274070538 31.3187
31.378148458819545 31.3239
31.401274828443725 31.2483
31.424402510106933 31.2294
31.447712205419993 31.2807
31.470842524931633 31.168000000000003
31.493974159989783 31.2058
31.51710711176168 31.2526
31.54042212308802 31.2531
31.563557722100917 31.1575
31.586694641341655 31.1286
31.609832881979628 30.9024
31.63315322823208 30.881
31.656294125521327 30.708000000000002
31.679436347728515 30.6602
31.70257989602529 30.6777
31.725905596152327 30.5912
31.74905181052835 30.4758
31.772199354521323 30.5867
31.79534822930507 30.5435
31.818679302290967 30.5755
31.84183085259981 30.5307
31.864983737233473 30.5108
31.88813795736804 30.4734
31.911474422233013 30.3603
31.934631327356435 30.5123
31.9577895715215 30.3213
31.980949155906522 30.4272
32.004291031706956 30.3216
32.027453310562606 30.3183
32.05061693318573 30.1893
32.07396288236386 30.1777
32.09712920658542 30.1458
32.12029687812702 29.9876
32.14346589817093 29.9056
32.166817291729984 29.935
32.18998902288583 29.8607
32.21316210610336 29.7325
32.23633654256711 29.6005
32.259693399663725 29.5782
32.282870556771144 29.5467
32.30604907069099 29.6042
32.329228942610065 29.4381
32.35259128243769 29.3497
32.375773884550505 29.3517
32.398957848235646 29.3747
32.422143174682176 29.2683
32.445511016471215 29.1566
32.468699082679954 29.0797
32.49188851523011 29.1308
32.51507931531304 29.0491
32.538452678331 28.991999999999997
32.56164622776311 28.8616
32.58484114831493 28.8201
32.60803744118015 28.9042
32.631416344731896 28.941999999999997
32.654615396551876 28.8351
32.67781582427913 28.7835
32.701198898634416 28.6457
32.72440209253756 28.5731
32.747606665947124 28.6553
32.77081262006088 28.5592
32.79420126883317 28.5473
32.81740999876112 28.6145
32.840620112999424 28.4228
32.86383161274818 28.4445
32.88722585534586 28.4283
32.91044014056596 28.4912
32.933655814909734 28.334
32.95687287957963 28.4419
32.98027273544904 28.316
33.00349259526636 28.3
33.026713849030116 28.2707
33.04993649794511 28.1971
33.073341986570746 28.2335
33.09656744032826 28.2311
33.11979429286444 28.1638
33.14302254538647 28.2207
33.166433686291185 28.1511
33.18966475336992 28.1123
33.212897224069096 27.9499
33.23613109959831 27.9691
33.259547912343415 27.8427
33.2827846121627 27.8886
33.306022720453775 27.8114
33.32926223842861 27.8266
33.352684742614166 27.8347
33.37592709463173 27.7901
33.399170859982064 27.6722
33.422597648419426 27.5331
33.44584425514446 27.4885
33.46909227885668 27.4975
33.4923417207723 27.3083
33.51577423505344 27.4072
33.539026528130385 27.2735
33.56228024307245 27.2692
33.585535381098246 27.1208
33.60897364093058 27.1531
33.63223163992385 27.1583
33.6554910656699 27.0175
33.678751919389796 27.0601
33.702195944520106 26.9918
33.72545966903325 26.8429
33.74872482519663 26.7584
33.771991414233746 26.8822
33.79544122444841 26.7768
33.81871069412428 26.7214
33.84198160035767 26.7054
33.86525394437455 26.7038
33.88870955949969 26.6945
33.911984794020626 26.6588
33.93526147001624 26.6264
33.958539588715006 26.6018
33.98200102861669 26.5531
34.0052820477047 26.4305
34.02856451319451 26.4653
34.05203033759056 26.3172
34.07531571090147 26.3814
34.09860253431845 26.364
34.121890809074316 26.3003
34.145362493118924 26.223000000000003
34.16865368561615 26.1568
34.191946333164054 26.0521
34.21524043699793 26.0796
34.23871800066799 26.0605
34.26201503218366 25.9838
34.28531352370466 25.9925
34.30861347646881 25.8712
34.33209693978188 25.8972
34.3553998301885 25.8565
34.378704185565205 25.781
34.402010007152356 25.7297
34.42549939016683 25.7209
34.44880815937748 25.583000000000002
34.472118398533134 25.5871
34.49543010887669 25.5925
34.51892543169198 25.4964
34.54224009966052 25.4939
34.56555624255917 25.4896
34.58887386163339 25.3958
34.61237514439016 25.3279
34.6356957311114 25.2809
34.65901779775809 25.3488
34.68252356662995 25.2921
34.705848608458616 25.2371
34.72917513396849 25.1102
34.75250314440949 25.134
34.77601490857862 25.1041
34.799345904259795 24.9793
34.82267838863559 25.0294
34.846012362958525 25.0111
34.869530142679984 24.9702
34.89286711232212 24.949
34.91620557568269 24.9113
34.93954553401677 24.8436
34.9630693495876 24.8147
34.986412313340814 24.7876
35.00975677584668 24.8198
35.033102738362956 24.7165
35.05663261012228 24.6049
35.0799815881786 24.7116
35.10333207003229 24.5956
35.12668405694369 24.6052
35.150220005273056 24.6786
35.17357501786656 24.6424
35.19693153931268 24.506
35.220289570874385 24.5229
35.24383161619786 24.4929
35.267192683604904 24.4784
35.290555264930376 24.368000000000002
35.314101899412165 24.3564
35.33746752422433 24.3295
35.36083466676374 24.3473
35.38420332829803 24.3091
35.407756095629054 24.3795
35.43112781085063 24.2536
35.45450104888391 24.3039
35.477875810999194 24.2202
35.50143473172161 24.206
35.52481255774625 24.2398
35.54819191167777 24.0879
35.57157279478914 24.0932
35.595137889488406 24.1199
35.61852184675279 24.0097
35.641907337029984 23.9844
35.665294361595684 23.9275
35.68886565090076 23.8958
35.7122557598848 23.7876
35.73564740699838 23.843000000000004
35.759040593519934 23.7662
35.78261809810353 23.7514
35.80601437933051 23.6251
35.829412203814705 23.6161
35.85281157283719 23.6058
35.876395313415884 23.6269
35.8997977874528 23.5079
35.92320180988546 23.5043
35.946790244133936 23.4382
35.97019737933222 23.4035
35.993606066789866 23.3808
36.01701630779276 23.2833
36.04061101440684 23.2898
36.06402437852291 23.2354
36.08743930005611 23.2782
36.1108557802951 23.2783
36.13445678011326 23.2225
36.15787639383515 23.1167
36.18129757014299 23.0783
36.20472031032821 23.1217
36.22832762423364 22.9969
36.25175350829375 23.0012
36.275180960119776 22.9071
36.298609981005924 23.011
36.32222362992669 22.9311
36.34565580510207 22.9289
36.36908955323448 22.9117
36.39252487562093 22.7946
36.416144880530226 22.8075
36.43958336764275 22.7153
36.463023432914625 22.6892
36.486465077645676 22.5926
36.51009145956204 22.7211
36.53353627947859 22.7384
36.55698268276811 22.6432
36.58043067073321 22.5729
36.60406345072071 22.4867
36.62751462435344 22.444000000000003
36.65096738658405 22.4279
36.67460498210655 22.4609
36.69806093788647 22.4194
36.72151848619297 22.3605
36.744977628333636 22.394000000000002
36.76862165890998 22.2556
36.79208400512205 22.2227
36.81554794910557 22.1856
36.83901349217101 22.124000000000002
36.862663978991606 22.1541
36.88613273667352 22.1128
36.90960309738324 22.078000000000003
36.933075062434064 22.0085
36.95673202673572 21.9797
36.98020721697122 21.9789
37.003684015502365 21.9023
37.027162423645365 21.8785
37.050825886711465 21.8251
37.07430753063053 21.7952
37.09779078812467 21.7893
37.121275660513014 21.7636
37.144945643673694 21.7226
37.16843376245278 21.6738
37.19192350009803 21.6812
37.215414857931435 21.6347
37.239091382563885 21.5965
37.262585997426164 21.5776
37.28608223645736 21.5547
37.309763684451696 21.4549
37.33326318851098 21.3501
37.356764320726555 21.5036
37.380267082425526 21.4728
37.40395510942588 21.3396
37.42746114683234 21.3152
37.45096881771841 21.2541
37.474478123414166 21.201999999999998
37.49817275092816 21.2562
37.52168534303452 21.2302
37.54519957395567 21.0138
37.568715445024665 21.1221
37.592416694607714 21.0571
37.61593586281424 21.1252
37.63945667518264 21.1139
37.66297913304891 21.0319
37.68668702630454 21.1067
37.710212792059274 20.9947
37.733740207334854 20.9661
37.757269273470364 20.8555
37.780983832050374 20.8397
37.80451621684926 20.8356
37.82805025654007 20.7951
37.851585952464795 20.67
37.8753071980695 20.7016
37.89884622345676 20.6579
37.92238690911902 20.566
37.94611318753442 20.5444
37.969657210779765 20.5989
37.99320289834801 20.4962
38.016750251586465 20.5061
38.04048325513017 20.4456
38.06403395679343 20.4595
38.087586328183946 20.4447
38.11114037065203 20.3994
38.13488012115898 20.3865
38.1584375229181 20.2768
38.181996599821 20.2206
38.205557353221124 20.2432
38.229303872575656 20.1635
38.2528679961576 20.1425
38.27643380031219 20.1521
38.30000128639589 20.0566
38.32375459653193 20.1181
38.34732546371299 20.1144
38.37089801690786 19.9761
38.39447225747609 19.9329
38.418232380377425 19.9596
38.441810012983396 19.9451
38.46538933705673 19.9277
38.488970353960084 19.9019
38.51273731166058 19.8352
38.536321731567014 19.8043
38.55990784840681 19.8106
38.58367995004091 19.691
38.60726947812959 19.6947
38.63086070726198 19.6823
38.654453638806274 19.6567
38.678232613930824 19.5924
38.70182896773327 19.5229
38.72542702806741 19.4972
38.7490267963045 19.4508
38.77281266709232 19.4665
38.79641586862214 19.4593
38.8200207821842 19.3984
38.843627409152944 19.3756
38.86742019782782 19.3015
38.891030269149255 19.3082
38.914642058016156 19.3557
38.938255565806124 19.3099
38.96205529464307 19.2092
38.98567225787121 19.2002
39.00929094417078 19.1515
39.03291135492255 19.1286
39.05671804624804 19.1018
39.080341923549106 19.0507
39.103967529460334 19.1194
39.127594865365744 18.9816
39.15140854155791 18.9337
39.17503935514948 18.96
39.19867190290282 18.9818
39.22249083587951 18.9123
39.24612686969409 18.8648
39.269764641845306 18.8219
39.293404153722804 18.8286
39.317230110864074 18.7782
39.34087311998506 18.6956
39.36451787301696 18.6419
39.388164371352595 18.7064
39.41199737518003 18.6638
39.43564738196752 18.6129
39.45929913825317 18.6037
39.48295264543308 18.5898
39.506792718520884 18.5157
39.530449745387216 18.497
39.55410852735203 18.4696
39.57776906581474 18.4572
39.60161623079 18.4329
39.625280300200025 18.4149
39.64894613032202 18.3529
39.67261372255866 18.3675
39.6964680021016 18.3227
39.72013913657293 18.3233
39.74381203738292 18.2398
39.76748670593756 18.2519
39.79134812278169 18.2605
39.81502634488497 18.2245
39.83870633896685 18.1153
39.862388106436654 18.0869
39.88625668336918 18.1118
39.90994201572829 18.136
39.933629125719285 18.0249
39.957503091207826 17.9383
39.9811937746168 18.0264
40.00488623990914 17.9242
40.02858048850006 17.8489
40.05246165409549 17.8724
40.076159487492085 17.8819
40.099859108448875 17.8915
40.123560518384345 17.8012
40.1474489070226 17.7041
40.171153913178564 17.7025
40.194860712584955 17.6886
40.2185693066637 17.6782
40.242464941335314 17.6384
40.26617714307655 17.5984
40.289891143772046 17.5714
40.3136069448471 17.6181
40.33750984859743 17.5335
40.3612292688043 17.477999999999998
40.3849504936829 17.4795
40.40867352466194 17.5066
40.43258372059144 17.4657
40.45631038219906 17.4892
40.48003885420956 17.4239
40.503769138055105 17.401
40.52768664931955 17.3189
40.55142057531802 17.293
40.57515631746428 17.2797
40.599079334038514 17.2944
40.62281872700477 17.2104
40.64655994043941 17.1396
40.67030297578061 17.1361
40.69423334835778 17.0914
40.71798004609188 17.0755
40.74172857006355 17.0441
40.76547892171441 17.0438
40.7894166736039 17.0782
40.813170699248566 17.0018
40.83692655691388 16.9913
40.86068424804498 16.9932
40.884629402612525 16.9627
40.908390779366385 16.905
40.932153993938 16.882
40.95591904777605 16.9126
40.979871628443995 16.8004
41.003640379561936 16.7755
41.02741097430883 16.727999999999998
41.05118341413683 16.7435
41.075143444384416 16.6627
41.098919593177826 16.6362
41.1226975914255 16.6174
41.14647744058318 16.6925
41.170444943946755 16.5983
41.19422851378379 16.5869
41.218013938914645 16.5234
41.24198706625173 16.4855
41.26577622087193 16.4726
41.289567235177785 16.4483
41.31336011063129 16.4528
41.337340752422875 16.374000000000002
41.361137369129835 16.4026
41.38493585138705 16.3641
41.40873620066004 16.2985
41.43272438060107 16.3531
41.45652848292052 16.2421
41.48033445666918 16.1906
41.50414230331616 16.1512
41.528138045159764 16.2152
41.551949656675205 16.0796
41.575763145513235 16.1255
41.59957851314666 16.1326
41.62358184070442 16.0583
41.64740098505737 16.0263
41.6712220126409 15.9578
41.69504492493139 15.9677
41.71905586207357 15.9767
41.74288256296395 15.9023
41.766711153007456 15.8758
41.79054163368412 15.8141
41.814560204340054 15.8445
41.838394485526365 15.8003
41.86223066180303 15.7822
41.88625497706819 15.7668
41.910094962812 15.7473
41.93393684811168 15.7536
41.95778063445365 15.6542
41.981812625263366 15.6564
42.00566023303407 15.6397
42.029509746323676 15.5922
42.05336116662236 15.6085
42.077400857069705 15.6175
42.10125611078846 15.5584
42.12511327600405 15.5033
42.14897235421036 15.4893
42.173019768448455 15.508
42.19688269209613 15.3985
42.22074753323349 15.3941
42.24461429335818 15.3849
42.268669455600495 15.3213
42.292540073217886 15.2784
42.31641261433284 15.2957
42.34028708044675 15.3015
42.36435001496739 15.2521
42.38822835065557 15.2699
42.41210861586426 15.2249
42.4359908120986 15.209000000000001
42.46006154323262 15.1574
42.48394762115317 15.1189
42.507835634632315 15.159
42.531912233047436 15.1091
42.55580413732265 15.0552
42.579697981698 15.0417
42.60359376768525 14.9893
42.62767820545945 14.9332
42.65157789440821 14.9292
42.67547952952185 14.8584
42.699383112316 14.8637
42.72347541395347 14.8604
42.74738291190531 14.8217
42.771292362102166 14.8304
42.795203766063516 14.7807
42.819303956130405 14.7936
42.843219287476536 14.7512
42.86713657716324 14.6466
42.89105582671383 14.7195
42.91516392983864 14.6664
42.939087119032166 14.6684
42.963012272677304 14.6184
42.98693939230129 14.6162
43.01105543317513 14.5791
43.034986504731386 14.5214
43.05891954686589 14.542
43.08285456110972 14.5172
43.10697856448665 14.4202
43.130917542983475 14.4031
43.15485849820081 14.4315
43.17880143167367 14.3424
43.20293342237094 14.3312
43.226880332449 14.3332
43.25082922540554 14.3563
43.27496722682525 14.3432
43.29892010567796 14.225999999999999
43.32287497204102 14.2471
43.34683182745632 14.2431
43.370977859791836 14.2121
43.39493871351105 14.1609
43.41890156092628 14.1617
43.44286640358341 14.1495
43.46702049182749 14.1243
43.49098934522816 14.0527
43.51496019852649 14.009
43.5389330532723 14.025
43.56309522248204 13.9721
43.58707210044314 13.9806
43.61105098451946 13.8834
43.63503187626491 13.9316
43.659202151562134 13.8855
43.68318707902681 13.9139
43.70717401884041 13.8958
43.731162972560874 13.821
43.75534137913236 13.7973
43.779334381108384 13.7608
43.803329401683186 13.7489
43.82732644241872 13.7428
43.8515130055166 13.7094
43.87551410707659 13.7032
43.89951723350145 13.6663
43.923709934595614 13.6475
43.94771713129917 13.5663
43.97172635758096 13.5721
43.99573761501002 13.614
44.0199385169922 13.5452
44.04395385732619 13.4876
44.067971233533086 13.5372
44.09199064718605 13.4757
44.11619977548961 13.460999999999999
44.14022328470671 13.4007
44.16424883610785 13.4445
44.18827643127035 13.3818
44.21249381139513 13.3809
44.236525514814076 13.34
44.26055926674478 13.3138
44.28459506876863 13.3174
44.3088207262813 13.2716
44.33286064928722 13.2494
44.35690262714919 13.1983
44.38094666145278 13.1505
44.4051806219871 13.1591
44.42922879003185 13.1275
44.45327901929361 13.0976
44.477331311362136 13.0762
44.501573600619416 13.0695
44.525630039221795 13.0265
44.54968854541895 13.0491
44.573937102200176 13.0441
44.5979997645541 12.9788
44.622064499300315 12.9721
44.64613130803592 12.952
44.67038823869318 12.949000000000002
44.69445921643748 12.9158
44.718532272981385 12.8265
44.742607409926194 12.8625
44.76687274034801 12.8816
44.79095205918753 12.7918
44.81503346325094 12.8365
44.839116954143876 12.8118
44.86339071028742 12.7624
44.88747839599524 12.759
44.91156817336837 12.696
44.93566004401666 12.6848
44.959942251908146 12.6466
44.984038330325966 12.6277
45.00813650686762 12.5628
45.03223678314731 12.5695
45.05652746888232 12.5228
45.08063196592069 12.501
45.104738567558705 12.5084
45.128847275414856 12.4869
45.15314646515866 12.4456
45.17725940679741 12.4645
45.20137445952892 12.4239
45.22568004865265 12.3776
45.24979934496396 12.3731
45.27392075725247 12.3714
45.29804428714431 12.3469
45.322358426247604 12.3187
45.346486212804315 12.279000000000002
45.370616121861914 12.2737
45.39474815505086 12.2459
45.41907087049246 12.2313
45.4432071734666 12.2456
45.46734560548283 12.184000000000001
45.49148616817604 12.2116
45.51581748638564 12.1465
45.5399623320197 12.1563
45.56410931325473 12.1169
45.58825843173002 12.1374
45.61259837920865 12.0863
45.636751793816 12.0933
45.66090735060093 12.0144
45.68506505120716 11.9623
45.7094136545275 11.9353
45.73357566449271 11.9165
45.75773982322992 11.939
45.78190613238733 11.899000000000001
45.806263418194064 11.8399
45.83043404997326 11.8651
45.85460683713677 11.829
45.87897065658495 11.7969
45.90314777634752 11.7896
45.92732705646868 11.7998
45.9515084986045 11.7659
45.97588104735473 11.7531
46.00006683541565 11.7189
46.02425479047904 11.6854
46.04844491420549 11.66
46.0728262191024 11.6781
46.09702070211635 11.6619
46.12121735879483 11.6383
46.14541619080294 11.5581
46.169806278764455 11.5774
46.194009483459034 11.5762
46.21821486849841 11.5378
46.24242243555223 11.4824
46.266821333570014 11.4837
46.29103328674601 11.4701
46.31524742696538 11.4662
46.33946375590237 11.4228
46.36387149104216 11.3936
46.38809221957392 11.3428
46.41231514186606 11.3586
46.436540259597464 11.356
46.460956858999374 11.3525
46.48518638983522 11.2922
46.509418121166966 11.2861
46.533652054678114 11.273
46.55807754555709 11.2512
46.58231590571962 11.2291
46.60655647313217 11.2388
46.630988654873654 11.1934
46.655233659129024 11.145999999999999
46.67948087571551 11.1389
46.70373030632484 11.1492
46.72817142736393 11.1035
46.752425308428684 11.0887
46.77668140861147 11.061
46.80093972960865 11.0218
46.82538981736788 11.015
46.849652602470904 10.9826
46.87391761349769 10.97
46.8981848521493 10.9769
46.9226439341274 10.9087
46.946915650573224 10.8821
46.97118959976749 10.9087
46.99546578341598 10.870999999999999
47.019933887188216 10.8743
47.04421456235744 10.8578
47.06849747711879 10.8251
47.09278263318286 10.7601
47.11725978640143 10.7484
47.14154944775105 10.7597
47.165841355555656 10.7377
47.1901355115306 10.7075
47.214621741924994 10.6867
47.23892041698887 10.6808
47.26322134538975 10.6279
47.28771440635075 10.6498
47.31201986422527 10.6181
47.33632758061436 10.5964
47.360637557241866 10.6225
47.38513974410611 10.5857
47.40945426407847 10.5337
47.43377104948137 10.49
47.45809010204344 10.4896
47.48260144275502 10.4376
47.506925052572285 10.4751
47.53125093475548 10.4425
47.55557909103813 10.4431
47.58009961361992 10.4166
47.60443234110732 10.3989
47.62876734791564 10.3641
47.65310463578333 10.3559
47.6776343683373 10.3469
47.7019762413987 10.3061
47.72632040075572 10.2417
47.75066684815169 10.2743
47.77520581885936 10.2527
47.799556865477655 10.2294
47.823910205386 10.2217
47.84826584033272 10.1945
47.87281407745551 10.1458
47.89717432569297 10.1352
47.92153687423484 10.0889
47.94609208429692 10.1078
47.97045925671401 10.1081
47.99482873471275 10.0315
48.01920052005013 10.0374
48.04376504619224 10.0467
48.068141469543484 10.0398
48.09252020552573 10.0009
48.11690125590099 9.988380000000001
48.1414751266064 10.0077
48.16586082917454 9.97564
48.19024885144316 9.9448
48.2146391951793 9.907760000000001
48.239222439012764 9.89207
48.26361744916137 9.88313
48.28801478610016 9.87456
48.31241445160131 9.86121
48.337007097209366 9.864889999999999
48.36141144338331 9.84493
48.38581812345755 9.7747
48.41022713920929 9.78448
48.434829215320704 9.76446
48.45924292604658 9.733939999999999
48.48365897780325 9.736260000000001
48.50807737237308 9.713339999999999
48.532688907799276 9.70283
48.55711201168574 9.69795
48.581537463754074 9.6771
48.60615611725119 9.66511
48.63058628942721 9.668
48.65501881516546 9.620239999999999
48.6794536962573 9.60215
48.70408185970339 9.54803
48.72852147531801 9.52931
48.75296345168211 9.51533
48.77740779059232 9.5279
48.80204549302823 9.53921
48.82649458091802 9.49436
48.85094603676547 9.453339999999999
48.87539986237231 9.439969999999999
48.90004713292306 9.40292
48.92450572200832 9.41589
48.94896668628025 9.38525
48.97343002754588 9.37798
48.99808689542115 9.385489999999999
49.02255501470614 9.38453
49.04702551642794 9.34573
49.0714984023988 9.32858
49.096164896893235 9.30607
49.120642575466796 9.29068
49.145122643748394 9.26106
49.16960510355558 9.25977
49.19428125404938 9.194980000000001
49.2187685210852 9.2083
49.243258185121555 9.20282
49.26794160167084 9.156260000000001
49.2924360839405 9.16228
49.31693296869764 9.12343
49.34143225776915 9.08474
49.36612538195438 9.124039999999999
49.39062950396021 9.10183
49.41513603578346 9.07349
49.4396449792564 9.0531
49.46434784069503 9.06607
49.488861631846454 8.9987
49.513377840166804 9.00715
49.537896467493745 8.965119999999999
49.56260909589029 8.948830000000001
49.587132585683285 8.93398
49.611658500018365 8.93127
49.636186840738596 8.87418
49.66090926588511 8.92191
49.685442483902584 8.89258
49.70997813385706 8.820210000000001
49.734516217597076 8.81911
49.75924846937352 8.82648
49.7837914452858 8.846219999999999
49.80833686055187 8.7759
49.83288471702571 8.75265
49.85762682540054 8.75301
49.882179588965734 8.74899
49.9067347993235 8.73535
49.93129245833333 8.719289999999999
49.95604445336378 8.71016
49.98060703442832 8.69261
50.005172069746266 8.65817
50.02993150438364 8.631310000000001
50.05450147301533 8.65789
50.07907390151433 8.60566
50.10364879174981 8.58675
50.12841816587289 8.5716
50.1529980044635 8.54686
50.17758031042124 8.54727
50.20216508562089 8.52745
50.22694442953363 8.48908
50.25153416817468 8.474680000000001
50.27612638170508 8.4762
50.300721072005196 8.44425
50.325510416102105 8.43998
50.350110084975064 8.41912
50.37471223628208 8.44007
50.39931687190919 8.43261
50.424116246675766 8.37894
50.44872587605249 8.34806
50.47333799543065 8.33693
50.49795260670191 8.305530000000001
50.52276204271512 8.30128
50.54738166295838 8.28834
50.57200378079314 8.27737
50.596628398116835 8.24953
50.62144792604559 8.23665
50.646077567609396 8.23236
50.670709714377715 8.22308
50.69553683636198 8.22101
50.72017401885922 8.164069999999999
50.7448137122895 8.18638
50.76945591856022 8.16253
50.79429318636823 8.160689999999999
50.818940443716784 8.10414
50.84359021965163 8.085139999999999
50.868242516085964 8.09305
50.893089960641895 8.06847
50.917747323549435 8.068389999999999
50.94240721271973 8.04016
50.96706963007175 8.02881
50.99192728239342 8.00906
51.01659478166073 8.02773
51.04126481489051 7.9931600000000005
51.06593738400761 7.9730300000000005
51.090805275207074 7.953189999999999
51.11548294172845 7.914619999999999
51.14016314993547 7.89232
51.164845901758845 7.91913
51.18972406304274 7.88402
51.21441192780656 7.84802
51.23910234200271 7.84668
51.2637953075678 7.826910000000001
51.288683770237945 7.800860000000001
51.31338186432707 7.808860000000001
51.33808251561888 7.775980000000001
51.362978729967345 7.77341
51.387684521509755 7.75092
51.41239287610203 7.726780000000001
51.437103795691165 7.726789999999999
51.46201036644977 7.71259
51.486726441956634 7.6830300000000005
51.51144508832545 7.680680000000001
51.536166307509156 7.67365
51.56108326624387 7.629
51.58580965706056 7.60341
51.61053862657523 7.58573
51.635270176746864 7.540719999999999
51.66019755512065 7.582889999999999
51.68493429268881 7.581589999999999
51.70967361681515 7.56775
51.73441552946465 7.549860000000001
51.759353359237934 7.54092
51.7841004750961 7.5012300000000005
51.80885018539685 7.49503
51.833602492111254 7.46375
51.8585508051424 7.4592600000000004
51.883308330926425 7.4657
51.90806845906181 7.4253800000000005
51.932831191525715 7.4032
51.95779001977161 7.39163
51.98255798721516 7.36181
52.00732856494335 7.3731
52.03229530577543 7.36073
52.057071130455945 7.32321
52.081849571391054 7.34139
52.106630630568695 7.315939999999999
52.13160794279417 7.26715
52.15639426492067 7.26083
52.18118321127822 7.23862
52.205974783860896 7.2260100000000005
52.23096269971011 7.21714
52.255759551287994 7.2348300000000005
52.280559035098186 7.20887
52.30536115314103 7.16507
52.33035970494467 7.19773
52.35516711807904 7.165
52.37997717147198 7.126539999999999
52.40478986713005 7.149769999999999
52.42979908731974 7.077089999999999
52.454617094216 7.05209
52.47943774942214 7.08315
52.50426105495102 7.075139999999999
52.529280976059844 7.07493
52.554109609024096 7.05916
52.57894089837482 7.043019999999999
52.60377484613117 7.001989999999999
52.62880550079408 6.9736199999999995
52.65364479223379 6.96945
52.67848674816189 6.95378
52.70352547971946 6.910830000000001
52.72837279155837 6.91862
52.753222773982785 6.9089
52.778075429022984 6.92695
52.80312495150885 6.953589999999999
52.827982978797436 6.891789999999999
52.85284368481815 6.839760000000001
52.87770707160767 6.82193
52.90276741793998 6.866410000000001
52.92763619336701 6.79263
52.952507655698504 6.75928
52.977381806977576 6.802160000000001
53.00245301017842 6.766539999999999
53.02733256653592 6.7678899999999995
53.052214817996074 6.7573
53.077099766608484 6.73983
53.102181859804446 6.7103399999999995
53.127072229988265 6.727860000000001
53.15196530349892 6.718889999999999
53.17686108239249 6.687880000000001
53.20195409881522 6.656510000000001
53.22685531582556 6.64543
53.25175924441303 6.606960000000001
53.27666588664027 6.60215
53.30176985962693 6.602580000000001
53.3266819565689 6.5716
53.35159677336455 6.56026
53.376514312083096 6.52969
53.40162927507703 6.53796
53.42655228516116 6.5826199999999995
53.45147802340193 6.545719999999999
53.47660125628886 6.49613
53.50153247842639 6.51551
53.52646643496923 6.46483
53.55140312799818 6.43971
53.576537409691696 6.437119999999999
53.60147960336152 6.4297
53.626424539786164 6.43204
53.65137222105307 6.40238
53.67651758529126 6.4349099999999995
53.70147078399681 6.39266
53.72642673383343 6.371230000000001
53.75138543689533 6.37941
53.776541917524526 6.3459
53.801506154876755 6.33796
53.826473151763246 6.32378
53.851442910284916 6.26785
53.87661054126026 6.2686
53.9015858509782 6.24907
53.92656392866066 6.2374
53.95154477641532 6.2419
53.976723591801296 6.23631
54.00171000771266 6.193919999999999
54.02669920004598 6.23148
54.051691170915745 6.180630000000001
54.076881204886796 6.14837
54.101878760928514 6.19959
54.12687910187696 6.16478
54.152077577768296 6.16073
54.1770835166946 6.14504
54.20209224691339 6.12442
54.22710377055121 6.100280000000001
54.25231352511594 6.07215
54.27733066384342 6.0324599999999995
54.30235060239643 6.02767
54.32737334290836 6.03486
54.35259441062629 5.9747
54.377622783395324 5.96719
54.40265396455061 5.984430000000001
54.42768795623251 5.94766
54.45292037169559 5.92606
54.477960012857906 5.92557
54.50300247099511 5.868930000000001
54.52804774825457 5.872719999999999
54.55329154616743 5.87424
54.57834249018678 5.89628
54.6033962597977 5.799169999999999
54.6284528571545 5.760619999999999
54.653708072335164 5.74501
54.67877035378786 5.77223
54.70383546947698 5.720940000000001
54.72890342156389 5.71172
54.7541700889442 5.70395
54.77924374251975 5.64275
54.8043202390049 5.6409
54.82959552413022 5.6041
54.8546777351945 5.609780000000001
54.87976279569621 5.5775
54.90485070780914 5.6163099999999995
54.930137506558005 5.57841
54.95523115074295 5.60229
54.98032765308844 5.56377
55.005427015775496 5.47789
55.03072536339621 5.50804
55.05583047570572 5.459169999999999
55.080938454927676 5.4846
55.10604930325027 5.46359
55.131359235107396 5.42875
55.15647585066083 5.3647800000000005
55.181595341907496 5.31243
55.20671771104285 5.35294
55.232039262617704 5.260190000000001
55.25716741665048 5.27579
55.28229845518636 5.24655
55.30743238042802 5.22668
55.33276558731939 5.22763
55.357905315183636 5.2516099999999994
55.383047936390035 5.18536
55.40819345314859 5.1759699999999995
55.433538351073295 5.15466
55.458689688238415 5.1491
55.483843927614096 5.11718
55.509197623043605 5.05069
55.53435769621134 5.01238
55.55952067826466 4.98434
55.5846865714265 5.02205
55.61005202069737 4.961869999999999
55.63522376553902 4.95118
55.66039842818645 4.94263
55.68557601087004 4.931019999999999
55.7109532500271 4.8754800000000005
55.73613670233794 4.94498
