TT I
1.2716486653135266 7.05276
1.2939594142134223 7.09112
1.3162702121660406 6.74332
1.3385810600174564 6.38708
1.3608919586137629 6.4681
1.383202908801069 6.2232400000000005
1.405513911425503 5.61576
1.4278249673332093 6.59248
1.4501343378461518 6.42818
1.4724455028545926 5.64202
1.4947567236847858 6.65505
1.517068001182951 6.04563
1.5393793361953272 6.33859
1.5616907295681737 5.1464
1.5840021821477681 5.4198
1.60631369478041 5.16708
1.6286252683124185 5.55446
1.6509369035901333 5.6012699999999995
1.6732468618895553 5.51556
1.695558623192809 5.059069999999999
1.7178704487808514 5.055
1.7401823395001077 4.5643199999999995
1.7625012545597203 4.4244900000000005
1.7848028405262486 4.14226
1.8071218901122095 4.44623
1.8294236121921872 4.22346
1.8517427996910911 4.84262
1.8740620574440425 4.91826
1.8963639900671978 5.0112
1.9186833908139995 4.695530000000001
1.9409854680117449 4.65212
1.9633050151394713 4.51628
1.9856246367570705 4.869269999999999
2.0079269371922672 4.69859
2.03024671027244 4.48447
2.0525491637446027 4.08616
2.074869091674931 4.60032
2.097171701569106 4.69297
2.1194917877373847 4.69393
2.141811954326636 4.90679
2.164114805233074 4.99862
2.186435135143035 5.09451
2.208738150935709 8.2135
2.231058647554722 14.7535
2.2533792288321184 11.7889
2.275682498336085 7.020589999999999
2.298003251406138 5.65229
2.3203066942619714 5.2385
2.3426276225136022 6.25932
2.3649486396617507 6.00521
2.387252348930071 6.03225
2.4095735463442893 6.58242
2.4318774374315884 6.65252
2.4541988185014043 6.53193
2.476502894794693 6.59028
2.498824462909887 6.85911
2.521146125856138 6.719469999999999
2.5434504863470337 7.477069999999999
2.5657723414244717 8.1681
2.588076895590662 8.20307
2.610398946189713 8.41334
2.6327210958598384 8.72251
2.6550259469304716 7.953139999999999
2.6773482972090137 8.391210000000001
2.6996533504259 8.312389999999999
2.7219759047039602 8.53814
2.744298562293959 8.65664
2.7666039251246595 7.95348
2.7889267918020164 8.90729
2.8112323652516555 7.97865
2.833555444408179 8.66189
2.8558786311183852 8.59148
2.8781845268938557 9.32465
2.9005079311721484 9.2797
2.9228140460410397 8.93678
2.9451376712799635 9.18169
2.967444008632326 8.81639
2.9897678582247247 9.55345
3.0120918213106695 10.4215
3.0343984987899373 11.0509
3.0567226913198637 10.991
3.079029599759726 11.769
3.101354025127254 11.7743
3.123678568232338 12.7619
3.145985829517914 12.9541
3.16831061055229 13.1706
3.1906181112775593 14.627
3.212943133635653 15.2595
3.2352682779763207 15.1284
3.2575761442691227 15.4045
3.2799015350264273 15.8734
3.302209649240067 16.5753
3.3245352898092655 16.6303
3.3468436553365257 17.4089
3.369169549113219 17.7598
3.3914955708171384 18.5546
3.413804319727358 18.949
3.4361305997334863 18.7466
3.4584396084414553 19.209
3.4807661501462652 20.1438
3.503092824025881 20.1019
3.5254022288463154 20.6371
3.5477291695206588 21.5426
3.5700388426251948 22.1869
3.5923660534916446 23.2605
3.6146934007816114 29.8461
3.637003482731501 49.2601
3.6593311053109985 52.3079
3.681641464033634 36.2265
3.7039693653009733 26.3806
3.726297407241705 25.0865
3.7486081875460804 25.1305
3.7709365132734978 25.7329
3.793247578841633 26.0848
3.8155761917550093 26.5728
3.8378875459837216 26.8843
3.8602164494827234 27.2112
3.882545499606844 27.7328
3.9048572932539183 28.7565
3.9271866390645718 28.6871
3.9494987298666713 29.6677
3.971828374764527 30.2061
3.9941581705403255 30.2897
4.016470713506008 30.8101
4.038800813471445 31.6116
4.061113662089144 32.0818
4.0834440696459176 33.0145
4.105774632334751 33.3335
4.128087945865126 33.9101
4.150418821249301 34.9644
4.172732448931298 35.6965
4.195063640413578 37.0456
4.2173775856475215 38.8986
4.239709096631102 53.872
4.262040768704612 119.45100000000001
4.284355196706267 149.92
4.306687193387355 105.86
4.329001947444346 57.0027
4.35133427213731 44.0444
4.373666762177566 43.3483
4.395982011761091 43.3865
4.418314834921175 44.5807
4.44063041906622 48.2424
4.4629635787515625 52.8478
4.4852969080429785 53.7866
4.5076130004776225 52.7436
4.529946671403969 56.9176
4.552263106909177 60.422
4.574597122877047 57.5154
4.596931312711224 54.3407
4.619248269273446 53.3409
4.6415828092605835 54.0974
4.663900117405352 55.4267
4.686235010953232 56.7531
4.708552674085913 58.1992
4.730887924602802 59.7454
4.753223354952695 61.2728
4.775541557023902 64.9026
4.797877349456786 68.6835
4.820195915032126 69.2855
4.842532072957498 68.1415
4.864868414979744 70.9582
4.88718753227192 75.2737
4.909524244902505 76.3793
4.931843734218147 76.3304
4.954180820867835 77.7798
4.976518095879839 80.7899
4.998838149695359 82.89299999999999
5.021175803844231 86.8286
5.043496238205739 90.571
5.065834274903528 95.0527
5.088172504230693 99.5779
5.1104935158799565 106.272
5.132832132875765 125.369
5.155153533596801 156.546
5.1774925416746225 196.882
5.199814334878411 400.31
5.2221537374521505 1024.0
5.244493338631803 2869.74
5.266815727034316 7996.61
5.289155727832427 12391.0
5.311478517248165 8122.97
5.333818921080011 2466.16
5.356159527788849 479.259
5.3784829252032536 191.408
5.400823940070432 152.582
5.423147747031976 129.489
5.445489173474152 118.87200000000001
5.467830807066149 118.786
5.490155234831516 118.885
5.512497285125229 112.72
5.534822130975162 105.897
5.557164601388673 101.855
5.579489868738879 98.8548
5.601832762690846 97.7009
5.6241758697774475 96.1086
5.646501775867269 95.39
5.668845311622074 94.7075
5.691171647754637 93.7757
5.713515615597765 92.7866
5.735859800852677 92.9665
5.758186788542988 93.9916
5.780531411018185 98.17299999999999
5.802858837297399 98.3619
5.825203900414495 98.3957
5.8475491852224 101.302
5.869877275883075 100.734
5.892223006467101 96.7941
5.914551544266608 94.8684
5.936897724049891 97.0839
5.959244129804903 103.616
5.981573344815301 131.922
6.0039202049061 240.554
6.026249875609095 475.347
6.04859719346037 969.242
6.070927323278297 2309.21
6.093275102315365 4586.61
6.115623113320588 5213.69
6.137953938319995 3021.61
6.160302415650845 865.243
6.182633708324452 204.878
6.2049826554078376 106.634
6.227331838745022 89.0358
6.249663839443684 82.7283
6.27201349767565 79.7819
6.294345974611799 81.05
6.316696111167083 83.9619
6.339046488263839 80.764
6.361379686074702 73.8427
6.383730546639482 70.6414
6.406064229255215 69.5918
6.428415576718203 70.5312
6.450749747566656 69.4856
6.47310158535871 66.6314
6.495453669698332 64.8005
6.517788579421056 64.2957
6.540141159237969 63.1069
6.562476565766648 62.3967
6.5848296444934045 62.5827
6.607182974060425 62.5233
6.6295191323281015 62.7063
6.651872965955752 63.26
6.6742096296068985 72.9632
6.6965639707294615 90.1872
6.71891856698715 88.7764
6.741255995248479 71.7345
6.763611104154477 61.3028
6.785949046381137 58.5881
6.808304671371482 59.2326
6.8306605557940046 60.5453
6.852999275508618 59.6635
6.875355681171544 57.7132
6.897694923437771 56.7409
6.92005185377892 56.0411
6.9423916220322655 55.8954
6.964749080490181 55.0773
6.987106804399774 54.8399
7.009447368180821 55.2858
7.031805625367033 55.4938
7.054146723727803 54.9413
7.076505517631004 54.68
7.098864581288365 54.7132
7.121206488070854 54.4843
7.143566093607822 54.7472
7.165908543567245 55.7257
7.188268694426048 56.2492
7.2106291193438095 55.29
7.232972390625943 55.0646
7.255333366030969 60.3022
7.277677189091925 81.1295
7.300038718428332 98.7853
7.322400526130865 88.8357
7.344745183422596 66.9016
7.367107550224791 56.5538
7.389452767901992 54.5617
7.411815697249891 53.998999999999995
7.434161478756298 53.2536
7.456524974096713 53.3819
7.478888753837185 53.0113
7.501235387657368 53.763999999999996
7.523599738562711 53.7919
7.545946944825532 54.1272
7.568311870344528 54.5368
7.5906770845765665 54.6671
7.613025156078678 54.854
7.635390950099687 56.0889
7.657739602662809 55.773
7.680105979923558 55.5684
7.702472650212829 56.4562
7.724822180948224 56.4151
7.747189439655568 56.181000000000004
7.769539560075357 55.4554
7.791907410653562 55.9292
7.81425812420825 56.2418
7.836626570110925 56.2784
7.858995315087906 57.0207
7.881346924933401 57.2533
7.903716270417482 57.8413
7.926068482028405 57.8815
7.948438431475253 58.7122
7.9708086843180235 58.8185
7.993161805171116 59.8635
8.015532667162402 60.4361
8.037886398416653 61.4543
8.060257873014221 62.3069
8.082629655331942 62.8078
8.104984308787587 63.9809
8.127356708900503 66.2212
8.149711981398308 70.4577
8.172085002766314 72.6418
8.194458336181368 70.3198
8.216814543847752 68.9895
8.23918850371002 68.9336
8.26154533906492 69.5116
8.283919928836452 71.6082
8.306277395339652 72.5879
8.328652618483376 73.6475
8.351028159736202 75.9777
8.373386579575245 77.9407
8.395762759396959 79.5763
8.418121819038275 83.4455
8.440498640894003 91.2644
8.462875785192262 102.714
8.485235811156207 127.152
8.507613602688501 177.87900000000002
8.529974277114228 258.805
8.552352719347912 384.981
8.574731488360351 664.8330000000001
8.59709314210385 1229.21
8.619472567021075 1954.43
8.64183487789147 2196.4
8.664214962183097 1721.04
8.686577933647762 824.505
8.708958680784317 307.945
8.731339760774953 145.957
8.753703729764451 106.42
8.77608547780821 97.1319
8.798450116065078 93.7157
8.820832535634787 92.0173
8.843215292401656 92.6068
8.865580941199045 92.3771
8.887964374703538 91.5687
8.910330701447199 91.5499
8.932714815164482 91.4861
8.955099270424924 88.8992
8.977466620733543 86.5716
8.999851761421976 84.7901
9.022219798361645 83.7286
9.04460562795561 83.4426
9.066991803441677 83.7544
9.089360876979615 83.9499
9.111747746589993 83.6935
9.13411751544971 82.6746
9.156505082664324 82.1332
9.178875550323522 81.7242
9.20126381862328 81.664
9.223652438908596 81.7447
9.246023961427412 82.0099
9.26841328802173 81.7659
9.290785518039224 82.3331
9.313175554425882 84.5187
9.335565947154315 86.0743
9.357939245086508 86.5926
9.380330352834827 85.9351
9.40270436697103 85.7484
9.425096193225055 85.257
9.447488380180165 84.9408
9.469863475295412 84.345
9.492256385987508 84.3094
9.514632206018318 84.4716
9.537025843935714 85.2345
9.559402392368193 86.7238
9.581796761000229 88.8858
9.604191496441521 90.9131
9.626569144158516 93.7135
9.648964615551032 95.7146
9.671343000390081 95.2083
9.693739211225699 92.9848
9.716135793237463 92.2332
9.738515290448102 92.8124
9.760912617143402 94.8708
9.783292860202891 96.7477
9.805690935076182 98.7557
9.828089385495742 99.7341
9.850470754023561 101.059
9.872869957865444 104.664
9.89525208097539 111.57600000000001
9.917652041736662 118.537
9.940052382417589 126.723
9.962435644102392 151.332
9.984836746950979 190.545
10.007220771957746 246.57
10.029622640473708 345.413
10.052007432299963 524.7
10.074410069984072 843.117
10.096813093716005 1320.98
10.119199042482517 1824.46
10.141602840636468 1974.94
10.163989564971628 1497.01
10.186394141051062 810.5239999999999
10.208799107559706 346.68
10.231187001965623 168.416
10.253592751657669 120.271
10.275981430388155 110.227
10.298387966769793 108.38
10.320794897965431 108.904
10.343184759907361 107.491
10.36559248305461 105.083
10.387983138083852 104.831
10.410391656691655 111.37700000000001
10.432800574501677 121.833
10.455192425893369 136.929
10.47760214443012 162.825
10.499994797678786 210.19299999999998
10.522405320453982 296.29
10.54479877906917 428.61199999999997
10.567210109595656 542.054
10.5896218454736 580.784
10.612016518879773 486.205
10.634429067781074 319.209
10.656824555333241 182.899
10.679237920773568 115.553
10.701651695961992 93.7521
10.724048411481384 88.0384
10.746463008485165 85.4608
10.768860546937125 84.1117
10.791275969274796 82.6298
10.81369180576079 81.6381
10.836090585366925 80.1911
10.858507252467449 79.1167
10.88090686379991 78.1391
10.903324365036394 77.7514
10.925724811614439 77.4706
10.948143150509463 78.235
10.970561909719066 77.5419
10.992963615930844 76.4405
11.015383218085756 74.7675
11.037785768347074 73.3169
11.06020621697282 72.4788
11.082627090322113 71.5689
11.105030913430326 71.0761
11.12745263854165 71.0196
11.149857314510728 71.9446
11.172279894912576 74.014
11.194702904450653 73.7127
11.217108866490921 71.6542
11.239532736615194 69.6135
11.26193956033512 69.0122
11.284364294577085 67.8963
11.306789462371718 66.8475
11.329197585398376 66.3294
11.351623622610898 66.3545
11.37403261614354 65.479
11.396459526308487 65.3505
11.418869393879497 64.8561
11.441297180532617 64.4691
11.463725406927658 64.3201
11.486136592353875 64.117
11.508565700543707 64.0772
11.530977768845315 64.6172
11.553407762368774 64.7387
11.575838200059769 64.7964
11.598251599479612 63.6075
11.620682927815501 63.0717
11.64309721895548 62.9326
11.665529441478206 62.4517
11.687962112597958 62.3029
11.710377748130886 62.4808
11.732811318753434 62.268
11.755227854859067 62.3322
11.777662328529495 62.1279
11.800079768750786 62.1387
11.822515149015453 62.2447
11.844950984084935 62.4217
11.867369787303163 62.1477
11.889806534289491 62.2062
11.912226250487029 62.3985
11.934663912939751 62.3168
11.9571020346363 62.7083
11.979523127133968 62.8594
12.001962169624331 63.8383
12.024384183972964 65.5239
12.046824150809913 68.391
12.069264581333726 72.4437
12.091687985297767 78.229
12.11412934550045 87.34
12.136553680195208 103.51700000000001
12.158995973632788 129.162
12.181438735204349 162.007
12.20386447284199 194.67
12.226308172985636 219.567
12.24873485024193 204.206
12.271179492516982 164.554
12.293607112949127 117.633
12.316052700916226 86.6902
12.338498763250042 71.4747
12.360927805303868 66.1262
12.383374818673879 64.4661
12.405804812803074 63.4655
12.428252780773262 63.4541
12.45070122756722 63.7192
12.473132656675375 63.6972
12.49558206341869 64.2109
12.518014453510101 64.5933
12.540464823770117 64.2767
12.562915677315177 64.1727
12.58534951575545 64.9459
12.607801338171472 65.5231
12.630236146511358 67.60600000000001
12.652688941369085 69.9149
12.675124723177234 70.1314
12.697578494048786 69.0374
12.720032754458185 67.5321
12.742470003354093 66.9512
12.764925245138771 67.2269
12.787363476431278 67.4196
12.809819703166806 67.8862
12.83227642391173 68.8605
12.854716135692716 69.5273
12.877173846755147 70.733
12.899614549869717 70.8888
12.9220732548287 71.9796
12.94453245827299 72.4867
12.966974655289818 73.5468
12.989434858002571 74.2313
13.011878055298721 74.8371
13.034339260862497 75.6261
13.056800969391883 77.0815
13.079245674017244 79.8043
13.101708390774869 84.2594
13.12415410463411 92.1177
13.146617833206086 101.59700000000001
13.169064559883248 111.221
13.191529303857127 125.99799999999999
13.213994557076367 149.72799999999998
13.236442809902437 189.97799999999998
13.258909083908291 249.951
13.28135835851934 316.442
13.30382565690295 392.725
13.326293469022952 427.51599999999996
13.348744283242008 411.111
13.371213125129904 330.81699999999995
13.39366497011003 232.892
13.416134845360597 155.752
13.438605238843131 117.055
13.46105863690397 105.324
13.483530069144786 106.11200000000001
13.505984506951902 110.38799999999999
13.528456981549432 120.40799999999999
13.550929978879088 135.346
13.573385983253365 161.47299999999998
13.595860028340867 202.726
13.618317081455832 259.89
13.64079217790333 318.375
13.663250283359057 366.045
13.685726434770173 376.015
13.708203115221277 327.81800000000004
13.730662806148091 244.168
13.75314054697177 168.166
13.775601299246777 117.92
13.798080104050406 93.1209
13.820559442405358 83.7509
13.843021793671388 80.9254
13.865502201420897 79.4047
13.887965623051947 78.9726
13.910447103807167 77.9601
13.932929122629764 76.6548
13.955394156785959 76.122
13.977877254034569 75.3648
14.000343367582113 74.251
14.022827546871707 73.7749
14.045294743423524 72.9899
14.06778000837062 72.4193
14.090265817715476 72.3933
14.112734645763819 71.7137
14.13522154619454 71.5324
14.157691466286913 71.3781
14.180179461423874 71.0759
14.202668005486178 70.5693
14.22513957064374 70.1399
14.247629214846473 69.7241
14.270101881097517 69.3178
14.29259262906496 69.2873
14.315083930490205 69.6796
14.337558255389705 69.76100000000001
14.360050666019726 69.7019
14.382526101071944 69.3001
14.405019624534942 68.6674
14.427513705993134 68.2608
14.449990813291825 68.4363
14.47248601302899 68.2285
14.49496423954951 68.2415
14.517460561197822 68.683
14.539939910570322 68.2382
14.562437357763558 68.2638
14.58493536931253 68.8837
14.607416409993311 69.354
14.62991555254159 69.7665
14.652397725157423 69.898
14.674898002342799 69.9096
14.697398848433282 70.2508
14.719882725991326 71.7521
14.74238471217934 73.3545
14.764869730765593 76.8257
14.787372860692983 79.2163
14.809876564079925 83.1171
14.83236330125751 88.8518
14.854868153850365 97.3891
14.877356041159485 111.941
14.899862046604186 132.503
14.922351087688757 160.316
14.944858249632887 190.668
14.967365991421232 219.18900000000002
14.989856770231246 229.1
15.012365673994204 219.028
15.03485761569738 186.71099999999998
15.05736768508665 139.22299999999998
15.07987833888692 106.595
15.102372032001655 85.4412
15.124883856909658 74.5127
15.14737872204565 71.3806
15.169891721717274 69.7556
15.192405310371893 69.6736
15.214901940621196 69.3574
15.237416709527137 69.021
15.259914520936249 69.2114
15.282430473753607 67.935
15.304947020131227 67.225
15.327446610371178 66.7422
15.349964346154254 66.1824
15.372465126703139 65.9356
15.394984055556009 65.8842
15.417486030076159 65.6545
15.44000615566487 65.142
15.462526881230803 65.1492
15.485030653812652 65.4695
15.507552581617434 65.3236
15.530057557334603 65.2144
15.55258069104857 65.2658
15.575104429329837 65.62
15.597611216864632 65.4644
15.620136166564563 66.1824
15.6426441664095 67.7689
15.665170331202765 70.1251
15.687697105158826 72.6959
15.710206930593545 75.4558
15.732734925158933 79.5985
15.755245972089478 85.9035
15.77777519094324 95.773
15.800287463046663 110.022
15.822817909869592 130.428
15.84534897229804 153.465
15.867863089299354 179.165
15.890395385222186 196.312
15.912910736597423 197.627
15.935444269699861 179.628
15.957978423016485 145.738
15.980495633101265 112.38799999999999
16.003031029129367 87.9492
16.02554948280019 72.1762
16.048086125229432 65.3412
16.070623392487107 63.1793
16.09314371869582 62.4479
16.11568223789321 61.4812
16.13820381691126 60.7869
16.160743591742527 60.4474
16.183283996022084 59.5671
16.205807461423195 58.7569
16.228349126881973 58.236999999999995
16.25087385432698 58.0985
16.27341678466365 57.6531
16.29594277784926 57.4296
16.31848697676433 57.3767
16.341031811604868 57.2635
16.36355971058487 57.3008
16.3861058195587 56.92100000000001
16.40863499352978 56.085
16.431182380342005 55.5775
16.453730407713202 55.4009
16.476261501364792 55.1475
16.498810812136167 54.9527
16.52134319004079 55.0949
16.54389378792203 54.8543
16.566445031001553 54.6851
16.588979342490088 54.6707
16.61153187824822 54.5824
16.634067483263312 54.3506
16.656621315414416 54.0809
16.679175797408888 53.8712
16.701713349928728 54.1876
16.72426913389191 54.19
16.74680798922351 54.2125
16.76936507887444 54.2888
16.791905240734874 54.2076
16.814463639794468 54.1862
16.837022695210294 54.0343
16.859564824093756 54.1589
16.882125194503903 54.4686
16.904668639217885 54.801
16.927230328348003 54.9512
16.949792678493612 55.2095
16.972338104193863 55.099
16.994901778652235 54.8777
17.017448529496576 55.0746
17.040013531998152 55.6245
17.06257920018044 56.1197
17.0851279459922 56.7803
17.107694947817667 57.4167
17.130245028099072 58.2141
17.15281336730298 59.4187
17.17536478578733 61.2093
17.19793446610687 63.6952
17.220504818648422 66.9169
17.243058251703697 70.4983
17.265629950971032 75.564
17.288184731571736 80.4136
17.310757781306908 83.7191
17.33333150794385 83.6122
17.355888317140174 80.6185
17.37846339986244 74.9507
17.401021565958885 68.3092
17.42359800851343 63.4898
17.44617513265564 60.6525
17.468735341390783 59.4862
17.491261035594565 58.6325
17.51396340099364 58.4388
17.536490463869136 58.6689
17.559018209820174 58.4878
17.58154663977963 58.5492
17.604251766089718 58.7256
17.626781572227713 58.9814
17.64931206518155 59.2919
17.671843245885103 59.8931
17.69455114821572 59.9464
17.717083712612634 60.1512
17.739616967569667 60.4572
17.762150914021706 60.9631
17.78486160749854 61.0357
17.807396945166804 62.0381
17.829932977143503 63.1158
17.85246970436452 64.6243
17.875183204129467 66.2236
17.897721330097664 67.9569
17.920260154126645 70.0801
17.942799677153296 73.4547
17.9655159983646 77.1964
17.988056927677544 83.0317
18.010598558807683 91.3464
18.033140892692916 101.955
18.05586005052525 113.759
18.07840379824407 125.87
18.10094825154059 136.332
18.12366954819864 141.615
18.146215420998306 137.86
18.16876200220057 126.36
18.191309292745153 111.189
18.214033452627167 98.3702
18.236582170236648 88.5504
18.259131600016456 84.8341
18.281681742907335 86.074
18.304408781233683 91.1345
18.32696035875955 96.8422
18.349512652227624 102.17299999999999
18.372065662579683 105.304
18.394795594587553 105.274
18.41735004715306 100.057
18.43990521943684 91.5761
18.46246111238171 82.3394
18.485193953325208 74.0079
18.507751296070428 67.4518
18.530309362314178 64.0289
18.552868153000343 62.6055
18.57560391815056 61.4016
18.59816416623245 60.9114
18.620725141597372 60.5676
18.643286845190268 60.0173
18.666025549835414 59.6609
18.688588718427933 59.1787
18.711152618092243 59.0792
18.73389353884365 58.8049
18.75645890921984 58.246
18.77902501351406 58.0185
18.801591852673102 58.1951
18.824335739722738 57.4765
18.846904057212626 57.5798
18.8694731124168 57.2289
18.89204290628315 57.1489
18.914789774966803 56.9779
18.937361054791623 56.773
18.959933076131318 56.4519
18.982505839934877 56.4967
19.00525570560582 56.39
19.027829963004184 56.1869
19.05040496572238 56.2943
19.072980714710468 56.5198
19.095733592739563 56.6384
19.11831084296757 56.7176
19.140888842324735 57.0542
19.16346759176222 57.3744
19.18622349753803 57.8324
19.208803755869358 58.8672
19.231384767143577 60.0719
19.253966532312948 61.7058
19.276725481241822 64.0395
19.29930876296784 66.5204
19.3218928014549 69.6181
19.34465404436217 72.5927
19.36723960516257 75.3026
19.389825925592426 75.4805
19.412413006605938 73.8342
19.43517731967805 69.6948
19.457765930683355 65.28699999999999
19.48035530514408 60.8608
19.50294544401556 57.6322
19.525712842708348 55.4613
19.54830451925909 54.5202
19.570896963095727 53.4782
19.593490175174704 53.2502
19.616260674962184 53.2886
19.638855432416964 53.1078
19.661450960992624 53.284
19.68404726164677 52.9768
19.706820878021247 52.8322
19.729418731756834 52.9952
19.752017360452857 52.7928
19.77461676506804 53.2803
19.797393513540218 53.2972
19.819994478951667 53.4986
19.84259622316767 53.8472
19.8651987471481 54.235
19.887978643247177 54.4697
19.91058273574792 54.9797
19.933187610901943 55.611000000000004
19.955969879466828 57.0573
19.97857632894404 58.7254
20.00118356396599 60.6305
20.023791585494575 62.9804
20.046577028914875 65.5259
20.069186632506966 67.8492
20.091797025500632 69.6781
20.114408208858933 69.6924
20.137196842715273 68.9048
20.159809615886765 66.7868
20.18242318232135 63.9956
20.20503754298326 62.1281
20.227829382875154 61.5015
20.250445341109344 61.5962
20.27306209647285 62.6549
20.29567964993108 64.0415
20.31847471147704 64.9258
20.34109387027612 65.1891
20.363713830075454 64.2983
20.386334591841646 62.497
20.409132890679302 59.7748
20.431755265564437 56.6711
20.454378445325528 54.1258
20.477002430930366 52.4072
20.499803982716553 51.4072
20.522429589228004 50.6871
20.54505600449589 50.1986
20.567683229489194 49.8565
20.590488049900088 49.8334
20.61311690359731 49.6483
20.63574656993626 49.6196
20.658553853717297 49.18
20.681185154618298 49.0698
20.703817271080066 48.9468
20.72645020407368 48.4754
20.749260783967177 48.6636
20.771895359337133 48.4858
20.794530754161617 48.3037
20.817166969412938 48.2304
20.83998086114876 48.2896
20.86261872660049 48.2497
20.885257415405402 48.1876
20.90789692853701 48.2048
20.930714147864748 48.1566
20.953355319030678 48.1544
20.97599731745334 48.2901
20.99864014410749 48.2179
21.021460706796564 48.1088
21.044105199328826 48.2771
21.06675052302631 48.5311
21.089396678865015 48.8092
21.112220600704806 48.974
21.134868430275347 49.3566
21.15751709492456 49.5467
21.180166595629693 50.025
21.202993892429635 50.5443
21.22564507473034 50.8997
21.24829709602816 51.0883
21.27112693608965 50.8637
21.293780644891275 50.9119
21.316435195634053 50.0793
21.339090589297417 49.2356
21.361923832041875 48.8746
21.384580921090404 48.3262
21.407238856007325 47.9242
21.429897637773326 47.9858
21.45273429906592 47.7899
21.475394784108598 47.9298
21.498056118951983 47.8799
21.520718304578022 48.0384
21.543558400304388 48.1941
21.566222297108816 48.673
21.58888704765135 48.6479
21.61155265291521 48.9282
21.63439619898156 49.3668
21.657063523335786 49.4197
21.67973170537063 49.8837
21.7024007460706 50.5038
21.72524775840385 51.3557
21.747918526116475 52.4464
21.770590155457388 53.6442
21.79326264741238 55.3934
21.816113141960237 57.3657
21.838787368860547 59.083
21.861462461341976 60.9215
21.884315579735777 62.9131
21.90699241312273 63.8076
21.92967011506078 64.0974
21.95234868653799 63.2115
21.9752053151131 61.6693
21.997885635446785 59.6404
22.020566828293532 57.825
22.04324889464272 56.4658
22.066109049404666 55.8118
22.088792872571794 55.5036
22.111477572219204 55.6045
22.1341631493376 55.6919
22.157026846313123 55.1554
22.179714188221507 54.4471
22.202402410582668 53.1143
22.22509151438863 51.7539
22.24795876962584 50.4744
22.270649646204486 49.6855
22.293341407213727 49.0664
22.316034053646906 48.6871
22.338904883215342 48.4757
22.36159931041458 48.288999999999994
22.38429462602756 48.3275
22.40699083104897 48.0209
22.429865251039757 48.0123
22.452563244831367 48.1866
22.47526213102522 48.1569
22.49813925616515 48.2306
22.520839937143307 48.1635
22.543541513520587 48.2288
22.56624398629403 48.0487
22.589124730075895 47.9447
22.611829005656723 48.3052
22.63453418063466 48.3122
22.657240256008077 48.4432
22.680124634582935 48.7125
22.70283252079775 48.9356
22.725541310413075 49.1453
22.74825100442868 49.333
22.771139033969575 49.7686
22.79385054687155 50.0369
22.81656296718292 50.7048
22.83927629590484 51.6661
22.862167992606945 52.8151
22.88488314827121 53.9561
22.907599215359284 55.1031
22.93031619487366 56.1528
22.953211574954405 57.0321
22.975930389478226 57.483000000000004
22.998650119445763 57.4352
23.02137076586092 56.5939
23.044269845560063 55.0197
23.06699233506288 53.336000000000006
23.089715744034912 51.474
23.112617610931565 50.1349
23.135342869061212 49.0526
23.158069049684816 48.5429
23.1807961538087 48.2435
23.20370174880544 48.3801
23.226430710184808 48.3875
23.249160598093425 48.4466
23.271891413539002 48.4448
23.294800752937697 48.4746
23.31753343374794 48.57899999999999
23.340267045128353 48.5604
23.36300158808808 48.948
23.38591468821339 49.2275
23.408651104658304 49.8527
23.431388455719986 50.3643
23.454126742409 51.3596
23.4770436196085 52.5616
23.499783787914662 53.9887
23.522524894889884 54.8884
23.54526694154616 56.0774
23.56818761219047 57.1382
23.59093154860734 57.5522
23.613676427751283 57.4906
23.636422250635754 56.2515
23.659346731118656 54.3039
23.68209445191868 52.3447
23.704843119509587 50.2686
23.72759273490623 48.5638
23.750521041644767 47.4044
23.77327256312355 46.4842
23.796025035462787 45.9793
23.818956224555475 45.5341
23.841710609113413 45.4005
23.86446594758979 45.2541
23.887222241002014 44.9597
23.910157285144578 44.7102
23.932915498962537 44.8082
23.955674670778713 44.4115
23.978434801611975 44.3727
24.001373717286125 44.2398
24.024135776723917 44.0704
24.046898798245582 44.0935
24.06966278287146 43.8359
24.092605586582614 43.7805
24.115371508023642 43.6675
24.1381383956401 43.4962
24.16090625045381 43.5126
24.183852958731244 43.4688
24.206622758582608 43.3036
24.229393528706886 43.1715
24.252165270127392 43.1225
24.27511589952438 43.3012
24.297889594216997 43.0062
24.32066426328598 42.7459
24.34343990775613 42.6991
24.36639447485003 42.8081
24.38917208083877 42.6034
24.41195066531332 42.5491
24.43490819850244 42.6693
24.457688750692377 42.5771
24.48047028445616 42.4926
24.503252800821233 42.5779
24.526214300784112 42.6907
24.548998793132213 42.6453
24.57178427117417 42.5966
24.59457073593893 42.6217
24.617536219319863 42.4978
24.64032466834748 42.3068
24.663114107195035 42.4272
24.685904536893013 42.0799
24.708874020360852 42.00899999999999
24.731666442613744 41.8629
24.754459858818787 41.8141
24.777254270007962 41.9026
24.80022777025625 41.6684
24.82302418230472 41.6634
24.845821592443674 41.8559
24.86862000170663 41.7436
24.891597535453727 41.6185
24.914397953892728 41.8646
24.93719937456671 41.9061
24.96000179851076 41.9854
24.98298338249997 42.0441
25.00578782394922 42.2617
25.028593271784167 42.5947
25.05157790644186 42.8842
25.07438537804115 42.9415
25.097193859145293 43.2205
25.120003350792075 43.3472
25.142992065061257 43.7668
25.165803588823465 44.1456
25.18861612625217 44.1038
25.211429678386736 44.2572
25.234422489079968 44.3192
25.257238081693636 44.2815
25.280054692141732 44.4735
25.3028723214652 44.4239
25.325869245420463 44.5622
25.348688923599397 44.5721
25.371509623787006 44.4368
25.394331347025812 44.1488
25.41733240110666 43.481
25.440156181590016 42.7666
25.46298098826268 42.2599
25.48580682216873 41.8583
25.50881202326435 41.3776
25.53163992281684 40.896
25.55446885274561 40.6882
25.577298814096377 40.54
25.600308179121807 40.3894
25.623140214533745 40.4991
25.64597328451537 40.5158
25.66898578564376 40.2873
25.691820936010206 40.1274
25.714657124097695 40.092
25.737494350954734 40.148
25.760511045684957 40.0106
25.783350361364224 40.0354
25.806190718969255 40.0274
25.82903211955018 40.1524
25.852053024868923 40.2405
25.874896522722523 40.2191
25.897741066713106 40.1888
25.920586657892454 40.3749
25.943611790812668 40.4555
25.966459487728237 40.6482
25.989308234998564 40.608000000000004
26.01215803367705 40.9619
26.03518741123814 41.1233
26.05803932412957 41.2806
26.080892291600094 41.221000000000004
26.10374631470478 41.2709
26.12677995397268 41.3696
26.14963609978026 41.2327
26.172493304397875 40.7445
26.19535156888223 40.5678
26.218389486949604 40.2973
26.241249882640123 40.032
26.26411134137826 39.8137
26.28715248187403 39.8301
26.31001607820869 39.6698
26.3328807407756 39.5004
26.35574647063438 39.7167
26.37879191991473 39.7349
26.401659795896734 39.7128
26.424528742360263 39.9967
26.447398760366614 40.0826
26.470448535598294 40.2159
26.49332070826805 40.400999999999996
26.516193955675355 40.6421
26.53906827888316 40.9607
26.562122397260108 41.0275
26.584998883685063 41.4775
26.607876449110325 41.575
26.63075509460056 41.6803
26.65381357334404 41.868
26.67669439061878 41.7343
26.699576291163382 41.5457
26.722459276044212 41.3868
26.745522132402975 41.0171
26.768407297649354 40.8726
26.791293550442003 40.4088
26.814180891848974 40.2451
26.837248143099337 40.1616
26.860137673466657 40.0036
26.88302829566349 39.7257
26.90592001075963 39.6185
26.92899167420566 39.4506
26.951885586870763 39.128
26.974780595655517 38.9357
26.99785558178161 38.766999999999996
27.020752794605112 38.676
27.043651106772522 38.5011
27.06655051935668 38.4688
27.089629948036183 38.3275
27.112531573292053 38.2541
27.135434302194138 38.4098
27.158338135817015 38.1724
27.181422024430987 38.2287
27.204328079372566 38.1871
27.22723524226965 38.14
27.250143514198573 38.1584
27.273231880156334 38.132
27.296142382065014 38.0413
27.319053996245536 38.0316
27.341966723775965 38.0431
27.365059584515222 37.9791
27.38797455070062 38.0648
27.410890633481237 37.9958
27.433807833936918 38.0205
27.456905206923906 38.1223
27.47982465472398 38.2405
27.502745223449743 38.324
27.525666914182825 38.3393
27.548768816912457 38.1137
27.571692763693633 38.1356
27.59461783573812 38.0345
27.617723149491244 37.8578
27.640650484125285 37.6746
27.66357894728264 37.7048
27.686508540048052 37.6702
27.709618414237887 37.6375
27.732550278321757 37.3919
27.755483275279115 37.4531
27.778417406196485 37.4994
27.801531858397514 37.5583
27.824468269376716 37.4679
27.847405817586786 37.4806
27.870344504116094 37.6462
27.893463551932008 37.7396
27.916404527281053 37.9985
27.93934664422563 38.1163
27.962289903855886 38.0888
27.98541356491974 38.3746
28.00835912214229 38.5061
28.03130582533231 38.5456
28.054253675581805 38.721
28.077381967556104 38.6985
28.100332124185126 38.6583
28.123283431160893 38.4825
28.146235889577238 38.3458
28.169368830154156 38.1416
28.192323603752033 38.0311
28.215279532083304 37.7775
28.238415973016764 37.4447
28.261374223145094 37.324
28.284333631303806 37.1705
28.307294198589954 36.8819
28.330435319167677 36.7104
28.353398217078915 36.5633
28.376362277420153 36.2797
28.39932750129032 36.1443
28.422473319286713 35.9652
28.44544088262495 35.9425
28.468409612800283 35.8073
28.491379510913497 35.5965
28.51453004413313 35.5735
28.53750229057244 35.561
28.56047570826344 35.4915
28.583450298308804 35.5581
28.606605564586562 35.3514
28.629582511831156 35.3951
28.65256063474956 35.2839
28.675539934446338 35.3325
28.698699951647605 35.343
28.72168161743193 35.1457
28.74466446331978 35.1701
28.767648490417624 35.1117
28.790813276438353 35.1199
28.813799678527303 35.1228
28.836787265157085 35.1977
28.859955641890075 35.0954
28.882945610203045 35.0515
28.905936766392035 34.8437
28.928929111566863 35.012
28.952102288520145 34.9385
28.975097024308607 34.84
28.998092952423807 34.6292
29.021090073977508 34.6006
29.04426806913204 34.5086
29.067267590245258 34.2541
29.090268308143695 34.2207
29.11327022394099 34.2433
29.13645305530891 34.0269
29.159457379627167 34.0072
29.18246290519685 33.9069
29.20546963313352 33.9567
29.22865731875826 33.9295
29.25166646419296 34.0394
29.27467681535305 33.9155
29.29768837335608 33.9425
29.320880931312562 34.0359
29.34389491580634 33.9746
29.366910110507334 33.896
29.38992651653503 34.0404
29.41312396492981 33.8867
29.436142806456754 33.6962
29.45916286268059 33.6375
29.48236399319994 33.5847
29.50538649169417 33.3932
29.528410208259935 33.3359
29.55143514402014 33.0975
29.574641196749695 33.0016
29.597668583816574 32.8587
29.6206971934585 32.7832
29.64372702680042 32.788000000000004
29.666938019934474 32.7128
29.689970313635285 32.694
29.713003834422636 32.6738
29.73603858342347 32.6091
29.759254535188578 32.4577
29.78229175361658 32.4406
29.80533020365064 32.6426
29.82836988641968 32.6293
29.85159081507472 32.4925
29.874632976355343 32.4217
29.89767637376955 32.5118
29.920721008448314 32.3011
29.9439469322847 32.301
29.96699405457564 32.2196
29.9900424175358 32.2154
30.013092022298157 32.2137
30.03632295963995 32.1056
30.059375061131373 32.1915
30.08242840783577 32.179
30.105483000888153 32.2212
30.128718970092244 32.0937
30.151776069006917 32.0463
30.17483441768648 32.117
30.198074175317235 32.0204
30.221135036724256 32.0117
30.24419715131772 32.0461
30.267260520236203 31.9662
30.290505341942243 31.996
30.313571232750228 31.9143
30.336638381310948 31.8681
30.35970678876503 31.8919
30.38295669299435 31.8162
30.40602763151657 31.8962
30.429099832366074 31.8323
30.452173296685572 31.7879
30.47542830191959 31.8217
30.498504306502497 31.7795
30.521581577995562 31.8922
30.544660117543582 31.9309
30.56792024229725 31.874000000000002
30.59100133132069 31.8629
30.614083691845494 31.885
30.637167325018545 31.9804
30.660432587840603 31.9136
30.683518779717886 31.9204
30.70660624769615 31.9793
30.729694992924372 31.908
30.75296541239743 31.9101
30.77605672557558 31.7746
30.799149319462742 31.7372
30.8224236211637 31.6793
30.845518789950724 31.4742
30.868615242910597 31.4731
30.891712981195973 31.2604
30.91499247215866 31.1882
30.938092794619365 31.2692
30.96119440587579 31.2222
30.984297307082752 31.0099
31.00758200598383 30.9147
31.030687500658694 30.8949
31.053794288760695 30.8911
31.076902371446767 30.746
31.100192296997445 30.767
31.12330298246119 30.7664
31.14641496599209 30.6404
31.169528248749216 30.6982
31.19282341969534 30.5977
31.215939314557186 30.6101
31.239056512134788 30.6793
31.262175013589378 30.6672
31.28547544871168 30.5656
31.30859657161541 30.4896
31.331719001892175 30.6091
31.35484274070538 30.6993
31.378148458819545 30.611
31.401274828443725 30.5399
31.424402510106933 30.587
31.447712205419993 30.6387
31.470842524931633 30.6118
31.493974159989783 30.5493
31.51710711176168 30.557
31.54042212308802 30.4974
31.563557722100917 30.4963
31.586694641341655 30.3113
31.609832881979628 30.1769
31.63315322823208 30.1254
31.656294125521327 29.987
31.679436347728515 30.0219
31.70257989602529 30.0512
31.725905596152327 29.811
31.74905181052835 29.8003
31.772199354521323 29.8408
31.79534822930507 29.8945
31.818679302290967 29.8807
31.84183085259981 29.9033
31.864983737233473 29.8809
31.88813795736804 29.916
31.911474422233013 29.7397
31.934631327356435 29.745
31.9577895715215 29.734
31.980949155906522 29.7422
32.004291031706956 29.6781
32.027453310562606 29.5853
32.05061693318573 29.4611
32.07396288236386 29.4659
32.09712920658542 29.3463
32.12029687812702 29.2132
32.14346589817093 29.1908
32.166817291729984 29.2224
32.18998902288583 29.053
32.21316210610336 29.0182
32.23633654256711 28.8692
32.259693399663725 28.9827
32.282870556771144 28.8234
32.30604907069099 28.844
32.329228942610065 28.7621
32.35259128243769 28.678
32.375773884550505 28.6636
32.398957848235646 28.6621
32.422143174682176 28.6132
32.445511016471215 28.5207
32.468699082679954 28.4844
32.49188851523011 28.4534
32.51507931531304 28.3762
32.538452678331 28.3598
32.56164622776311 28.2496
32.58484114831493 28.0649
32.60803744118015 28.1039
32.631416344731896 28.2215
32.654615396551876 28.1393
32.67781582427913 28.1382
32.701198898634416 28.0466
32.72440209253756 27.9687
32.747606665947124 28.0091
32.77081262006088 27.9057
32.79420126883317 27.9245
32.81740999876112 27.8828
32.840620112999424 27.7806
32.86383161274818 27.805999999999997
32.88722585534586 27.721999999999998
32.91044014056596 27.7468
32.933655814909734 27.7561
32.95687287957963 27.7662
32.98027273544904 27.6601
33.00349259526636 27.5934
33.026713849030116 27.6064
33.04993649794511 27.558000000000003
33.073341986570746 27.5299
33.09656744032826 27.4601
33.11979429286444 27.493000000000002
33.14302254538647 27.4861
33.166433686291185 27.4569
33.18966475336992 27.263
33.212897224069096 27.3559
33.23613109959831 27.3334
33.259547912343415 27.3596
33.2827846121627 27.3397
33.306022720453775 27.1891
33.32926223842861 27.0691
33.352684742614166 27.1559
33.37592709463173 27.1212
33.399170859982064 27.0789
33.422597648419426 26.9193
33.44584425514446 26.8828
33.46909227885668 26.8642
33.4923417207723 26.654
33.51577423505344 26.7065
33.539026528130385 26.5979
33.56228024307245 26.5881
33.585535381098246 26.4643
33.60897364093058 26.5204
33.63223163992385 26.5095
33.6554910656699 26.3843
33.678751919389796 26.3717
33.702195944520106 26.2859
33.72545966903325 26.3376
33.74872482519663 26.2102
33.771991414233746 26.1965
33.79544122444841 26.2054
33.81871069412428 26.1418
33.84198160035767 26.0197
33.86525394437455 26.0887
33.88870955949969 26.0339
33.911984794020626 26.0272
33.93526147001624 25.9763
33.958539588715006 25.9218
33.98200102861669 25.8401
34.0052820477047 25.7454
34.02856451319451 25.7757
34.05203033759056 25.7125
34.07531571090147 25.7497
34.09860253431845 25.6854
34.121890809074316 25.6392
34.145362493118924 25.6615
34.16865368561615 25.6101
34.191946333164054 25.4775
34.21524043699793 25.5125
34.23871800066799 25.4374
34.26201503218366 25.3228
34.28531352370466 25.3917
34.30861347646881 25.3259
34.33209693978188 25.3013
34.3553998301885 25.272
34.378704185565205 25.147
34.402010007152356 25.2069
34.42549939016683 25.1139
34.44880815937748 25.0152
34.472118398533134 24.9008
34.49543010887669 24.9267
34.51892543169198 24.8772
34.54224009966052 24.837
34.56555624255917 24.8913
34.58887386163339 24.7871
34.61237514439016 24.764
34.6356957311114 24.7776
34.65901779775809 24.764
34.68252356662995 24.6582
34.705848608458616 24.6741
34.72917513396849 24.6131
34.75250314440949 24.558000000000003
34.77601490857862 24.4496
34.799345904259795 24.4006
34.82267838863559 24.3771
34.846012362958525 24.4674
34.869530142679984 24.3925
34.89286711232212 24.3135
34.91620557568269 24.248
34.93954553401677 24.3828
34.9630693495876 24.2323
34.986412313340814 24.1749
35.00975677584668 24.160999999999998
35.033102738362956 24.1371
35.05663261012228 24.162
35.0799815881786 24.1522
35.10333207003229 24.0621
35.12668405694369 24.0651
35.150220005273056 24.1052
35.17357501786656 24.0259
35.19693153931268 24.0182
35.220289570874385 23.9161
35.24383161619786 23.8782
35.267192683604904 23.927
35.290555264930376 23.7972
35.314101899412165 23.8228
35.33746752422433 23.7911
35.36083466676374 23.8194
35.38420332829803 23.7614
35.407756095629054 23.7168
35.43112781085063 23.7081
35.45450104888391 23.7291
35.477875810999194 23.7404
35.50143473172161 23.6952
35.52481255774625 23.7231
35.54819191167777 23.6373
35.57157279478914 23.541
35.595137889488406 23.4985
35.61852184675279 23.4732
35.641907337029984 23.4073
35.665294361595684 23.3458
35.68886565090076 23.2563
35.7122557598848 23.2879
35.73564740699838 23.2709
35.759040593519934 23.2524
35.78261809810353 23.2547
35.80601437933051 23.1788
35.829412203814705 23.0315
35.85281157283719 22.9689
35.876395313415884 23.1428
35.8997977874528 22.9639
35.92320180988546 22.9034
35.946790244133936 22.8616
35.97019737933222 22.8803
35.993606066789866 22.8624
36.01701630779276 22.8556
36.04061101440684 22.7927
36.06402437852291 22.7818
36.08743930005611 22.8311
36.1108557802951 22.6691
36.13445678011326 22.6503
36.15787639383515 22.5371
36.18129757014299 22.5532
36.20472031032821 22.548000000000002
36.22832762423364 22.4653
36.25175350829375 22.4584
36.275180960119776 22.3974
36.298609981005924 22.4799
36.32222362992669 22.4107
36.34565580510207 22.3724
36.36908955323448 22.2899
36.39252487562093 22.2104
36.416144880530226 22.1946
36.43958336764275 22.2328
36.463023432914625 22.2266
36.486465077645676 22.1269
36.51009145956204 22.1937
36.53353627947859 22.1486
36.55698268276811 22.0926
36.58043067073321 22.0069
36.60406345072071 21.8818
36.62751462435344 22.0155
36.65096738658405 21.9532
36.67460498210655 21.9314
36.69806093788647 21.8801
36.72151848619297 21.746
36.744977628333636 21.8605
36.76862165890998 21.706999999999997
36.79208400512205 21.7287
36.81554794910557 21.7137
36.83901349217101 21.6331
36.862663978991606 21.6263
36.88613273667352 21.5271
36.90960309738324 21.4901
36.933075062434064 21.4665
36.95673202673572 21.4987
36.98020721697122 21.4214
37.003684015502365 21.4112
37.027162423645365 21.3952
37.050825886711465 21.3547
37.07430753063053 21.2232
37.09779078812467 21.2651
37.121275660513014 21.2873
37.144945643673694 21.2137
37.16843376245278 21.2044
37.19192350009803 21.1065
37.215414857931435 21.1309
37.239091382563885 21.090999999999998
37.262585997426164 21.0361
37.28608223645736 21.1116
37.309763684451696 20.9835
37.33326318851098 20.9338
37.356764320726555 20.8986
37.380267082425526 20.9801
37.40395510942588 20.859
37.42746114683234 20.863000000000003
37.45096881771841 20.7571
37.474478123414166 20.7924
37.49817275092816 20.7242
37.52168534303452 20.6598
37.54519957395567 20.66
37.568715445024665 20.6486
37.592416694607714 20.5735
37.61593586281424 20.6126
37.63945667518264 20.5895
37.66297913304891 20.5305
37.68668702630454 20.5196
37.710212792059274 20.3923
37.733740207334854 20.4421
37.757269273470364 20.3559
37.780983832050374 20.2788
37.80451621684926 20.2713
37.82805025654007 20.2194
37.851585952464795 20.1985
37.8753071980695 20.1658
37.89884622345676 20.1049
37.92238690911902 20.0944
37.94611318753442 20.0459
37.969657210779765 20.0606
37.99320289834801 20.038
38.016750251586465 19.9513
38.04048325513017 19.9515
38.06403395679343 19.9499
38.087586328183946 19.8463
38.11114037065203 19.9283
38.13488012115898 19.8986
38.1584375229181 19.8443
38.181996599821 19.7804
38.205557353221124 19.7252
38.229303872575656 19.6662
38.2528679961576 19.6701
38.27643380031219 19.6151
38.30000128639589 19.6655
38.32375459653193 19.6255
38.34732546371299 19.5774
38.37089801690786 19.5174
38.39447225747609 19.4482
38.418232380377425 19.4803
38.441810012983396 19.4654
38.46538933705673 19.3744
38.488970353960084 19.3414
38.51273731166058 19.327
38.536321731567014 19.323
38.55990784840681 19.3202
38.58367995004091 19.2233
38.60726947812959 19.1581
38.63086070726198 19.2012
38.654453638806274 19.2006
38.678232613930824 19.0634
38.70182896773327 19.0347
38.72542702806741 19.0392
38.7490267963045 19.0161
38.77281266709232 18.9599
38.79641586862214 18.9269
38.8200207821842 18.9482
38.843627409152944 18.9639
38.86742019782782 18.9022
38.891030269149255 18.8384
38.914642058016156 18.8914
38.938255565806124 18.7908
38.96205529464307 18.7115
38.98567225787121 18.6821
39.00929094417078 18.7254
39.03291135492255 18.7047
39.05671804624804 18.6294
39.080341923549106 18.5965
39.103967529460334 18.629
39.127594865365744 18.5043
39.15140854155791 18.4546
39.17503935514948 18.4919
39.19867190290282 18.4322
39.22249083587951 18.4484
39.24612686969409 18.3936
39.269764641845306 18.414
39.293404153722804 18.3952
39.317230110864074 18.3056
39.34087311998506 18.288
39.36451787301696 18.2649
39.388164371352595 18.1973
39.41199737518003 18.1888
39.43564738196752 18.1967
39.45929913825317 18.1097
39.48295264543308 18.093
39.506792718520884 18.0481
39.530449745387216 18.0584
39.55410852735203 18.0342
39.57776906581474 17.9975
39.60161623079 18.0055
39.625280300200025 17.9761
39.64894613032202 17.8974
39.67261372255866 17.8997
39.6964680021016 17.8874
39.72013913657293 17.8531
39.74381203738292 17.8495
39.76748670593756 17.8169
39.79134812278169 17.7963
39.81502634488497 17.7747
39.83870633896685 17.7012
39.862388106436654 17.6567
39.88625668336918 17.618
39.90994201572829 17.6319
39.933629125719285 17.545
39.957503091207826 17.5436
39.9811937746168 17.555999999999997
40.00488623990914 17.4796
40.02858048850006 17.4364
40.05246165409549 17.4185
40.076159487492085 17.4061
40.099859108448875 17.4482
40.123560518384345 17.3467
40.1474489070226 17.3873
40.171153913178564 17.277
40.194860712584955 17.3222
40.2185693066637 17.2951
40.242464941335314 17.2466
40.26617714307655 17.1838
40.289891143772046 17.2155
40.3136069448471 17.1428
40.33750984859743 17.1013
40.3612292688043 17.0979
40.3849504936829 17.0384
40.40867352466194 17.0506
40.43258372059144 17.0144
40.45631038219906 16.9944
40.48003885420956 16.9267
40.503769138055105 16.9809
40.52768664931955 16.9223
40.55142057531802 16.9401
40.57515631746428 16.8501
40.599079334038514 16.7917
40.62281872700477 16.748
40.64655994043941 16.7279
40.67030297578061 16.7292
40.69423334835778 16.7687
40.71798004609188 16.7108
40.74172857006355 16.6646
40.76547892171441 16.6524
40.7894166736039 16.6263
40.813170699248566 16.5938
40.83692655691388 16.4858
40.86068424804498 16.4799
40.884629402612525 16.4811
40.908390779366385 16.4884
40.932153993938 16.4455
40.95591904777605 16.434
40.979871628443995 16.3977
41.003640379561936 16.3514
41.02741097430883 16.3299
41.05118341413683 16.3365
41.075143444384416 16.2851
41.098919593177826 16.3052
41.1226975914255 16.2602
41.14647744058318 16.1557
41.170444943946755 16.1834
41.19422851378379 16.1599
41.218013938914645 16.1179
41.24198706625173 16.1117
41.26577622087193 16.0661
41.289567235177785 16.0476
41.31336011063129 16.0412
41.337340752422875 15.9608
41.361137369129835 16.0091
41.38493585138705 15.9306
41.40873620066004 15.8885
41.43272438060107 15.8785
41.45652848292052 15.8432
41.48033445666918 15.829
41.50414230331616 15.8119
41.528138045159764 15.7958
41.551949656675205 15.7369
41.575763145513235 15.7736
41.59957851314666 15.717
41.62358184070442 15.6265
41.64740098505737 15.6325
41.6712220126409 15.6233
41.69504492493139 15.6182
41.71905586207357 15.5697
41.74288256296395 15.5791
41.766711153007456 15.5305
41.79054163368412 15.5001
41.814560204340054 15.5263
41.838394485526365 15.4674
41.86223066180303 15.4624
41.88625497706819 15.4089
41.910094962812 15.372
41.93393684811168 15.3236
41.95778063445365 15.2172
41.981812625263366 15.2536
42.00566023303407 15.2462
42.029509746323676 15.219000000000001
42.05336116662236 15.1842
42.077400857069705 15.1966
42.10125611078846 15.2107
42.12511327600405 15.1283
42.14897235421036 15.1328
42.173019768448455 15.1138
42.19688269209613 15.0267
42.22074753323349 15.0091
42.24461429335818 15.022
42.268669455600495 14.9865
42.292540073217886 14.9722
42.31641261433284 14.947000000000001
42.34028708044675 14.8898
42.36435001496739 14.854000000000001
42.38822835065557 14.8942
42.41210861586426 14.8357
42.4359908120986 14.8461
42.46006154323262 14.7838
42.48394762115317 14.7447
42.507835634632315 14.7304
42.531912233047436 14.6889
42.55580413732265 14.6561
42.579697981698 14.6655
42.60359376768525 14.5963
42.62767820545945 14.5946
42.65157789440821 14.6358
42.67547952952185 14.5946
42.699383112316 14.5612
42.72347541395347 14.4761
42.74738291190531 14.4925
42.771292362102166 14.4853
42.795203766063516 14.4333
42.819303956130405 14.4187
42.843219287476536 14.3634
42.86713657716324 14.3939
42.89105582671383 14.3755
42.91516392983864 14.2876
42.939087119032166 14.3096
42.963012272677304 14.2564
42.98693939230129 14.213
43.01105543317513 14.2432
43.034986504731386 14.2118
43.05891954686589 14.1466
43.08285456110972 14.1279
43.10697856448665 14.0939
43.130917542983475 14.0607
43.15485849820081 14.0986
43.17880143167367 14.052999999999999
43.20293342237094 14.0192
43.226880332449 13.9973
43.25082922540554 13.9843
43.27496722682525 13.9367
43.29892010567796 13.9385
43.32287497204102 13.8968
43.34683182745632 13.8442
43.370977859791836 13.8658
43.39493871351105 13.8167
43.41890156092628 13.8484
43.44286640358341 13.7578
43.46702049182749 13.7881
43.49098934522816 13.7125
43.51496019852649 13.6949
43.5389330532723 13.6819
43.56309522248204 13.6667
43.58707210044314 13.6481
43.61105098451946 13.6107
43.63503187626491 13.5784
43.659202151562134 13.5789
43.68318707902681 13.5604
43.70717401884041 13.5338
43.731162972560874 13.4781
43.75534137913236 13.4728
43.779334381108384 13.4124
43.803329401683186 13.4259
43.82732644241872 13.3795
43.8515130055166 13.3844
43.87551410707659 13.3443
43.89951723350145 13.3449
43.923709934595614 13.2976
43.94771713129917 13.3594
43.97172635758096 13.3247
43.99573761501002 13.255
44.0199385169922 13.2268
44.04395385732619 13.2173
44.067971233533086 13.2191
44.09199064718605 13.1683
44.11619977548961 13.105
44.14022328470671 13.0721
44.16424883610785 13.1198
44.18827643127035 13.1044
44.21249381139513 13.036
44.236525514814076 13.0181
44.26055926674478 13.0062
44.28459506876863 13.0118
44.3088207262813 12.88
44.33286064928722 12.8821
44.35690262714919 12.9338
44.38094666145278 12.8777
44.4051806219871 12.892000000000001
44.42922879003185 12.8416
44.45327901929361 12.7966
44.477331311362136 12.8026
44.501573600619416 12.7267
44.525630039221795 12.7364
44.54968854541895 12.74
44.573937102200176 12.725
44.5979997645541 12.673
44.622064499300315 12.6594
44.64613130803592 12.6245
44.67038823869318 12.6285
44.69445921643748 12.5726
44.718532272981385 12.6242
44.742607409926194 12.54
44.76687274034801 12.5159
44.79095205918753 12.4584
44.81503346325094 12.4791
44.839116954143876 12.4368
44.86339071028742 12.4542
44.88747839599524 12.4403
44.91156817336837 12.3893
44.93566004401666 12.3904
44.959942251908146 12.3918
44.984038330325966 12.3579
45.00813650686762 12.2828
45.03223678314731 12.3084
45.05652746888232 12.2972
45.08063196592069 12.2263
45.104738567558705 12.2308
45.128847275414856 12.1924
45.15314646515866 12.1895
45.17725940679741 12.1714
45.20137445952892 12.1128
45.22568004865265 12.13
45.24979934496396 12.0886
45.27392075725247 12.0554
45.29804428714431 12.0461
45.322358426247604 12.02
45.346486212804315 12.0011
45.370616121861914 11.9617
45.39474815505086 11.9543
45.41907087049246 11.9615
45.4432071734666 11.9329
45.46734560548283 11.9465
45.49148616817604 11.9242
45.51581748638564 11.8705
45.5399623320197 11.8793
45.56410931325473 11.8186
45.58825843173002 11.8282
45.61259837920865 11.7731
45.636751793816 11.7795
45.66090735060093 11.7042
45.68506505120716 11.6431
45.7094136545275 11.705
45.73357566449271 11.6714
45.75773982322992 11.6331
45.78190613238733 11.6218
45.806263418194064 11.5862
45.83043404997326 11.5619
45.85460683713677 11.5852
45.87897065658495 11.5554
45.90314777634752 11.5215
45.92732705646868 11.5125
45.9515084986045 11.4729
45.97588104735473 11.4758
46.00006683541565 11.4308
46.02425479047904 11.413
46.04844491420549 11.3934
46.0728262191024 11.4034
46.09702070211635 11.3484
46.12121735879483 11.3518
46.14541619080294 11.3316
46.169806278764455 11.3245
46.194009483459034 11.2956
46.21821486849841 11.2471
46.24242243555223 11.2469
46.266821333570014 11.2388
46.29103328674601 11.1753
46.31524742696538 11.1876
46.33946375590237 11.1513
46.36387149104216 11.1391
46.38809221957392 11.1033
46.41231514186606 11.1088
46.436540259597464 11.0797
46.460956858999374 11.039000000000001
46.48518638983522 11.0267
46.509418121166966 11.0011
46.533652054678114 10.9929
46.55807754555709 10.9784
46.58231590571962 10.9641
46.60655647313217 10.9541
46.630988654873654 10.9113
46.655233659129024 10.8685
46.67948087571551 10.8926
46.70373030632484 10.8832
46.72817142736393 10.8482
46.752425308428684 10.8236
46.77668140861147 10.8208
46.80093972960865 10.7462
46.82538981736788 10.73
46.849652602470904 10.6879
46.87391761349769 10.7141
46.8981848521493 10.6635
46.9226439341274 10.6629
46.946915650573224 10.6612
46.97118959976749 10.6421
46.99546578341598 10.5972
47.019933887188216 10.5901
47.04421456235744 10.5543
47.06849747711879 10.5844
47.09278263318286 10.5145
47.11725978640143 10.5569
47.14154944775105 10.5166
47.165841355555656 10.4817
47.1901355115306 10.4841
47.214621741924994 10.4299
47.23892041698887 10.4224
47.26322134538975 10.39
47.28771440635075 10.3853
47.31201986422527 10.37
47.33632758061436 10.3509
47.360637557241866 10.3731
47.38513974410611 10.3344
47.40945426407847 10.2899
47.43377104948137 10.2718
47.45809010204344 10.2561
47.48260144275502 10.2275
47.506925052572285 10.2013
47.53125093475548 10.1885
47.55557909103813 10.1671
47.58009961361992 10.1359
47.60443234110732 10.1149
47.62876734791564 10.1024
47.65310463578333 10.1143
47.6776343683373 10.0464
47.7019762413987 10.026
47.72632040075572 10.0327
47.75066684815169 10.0394
47.77520581885936 10.0024
47.799556865477655 9.97065
47.823910205386 9.974210000000001
47.84826584033272 9.95089
47.87281407745551 9.91418
47.89717432569297 9.92414
47.92153687423484 9.88769
47.94609208429692 9.89391
47.97045925671401 9.891680000000001
47.99482873471275 9.83124
48.01920052005013 9.8384
48.04376504619224 9.792689999999999
48.068141469543484 9.84465
48.09252020552573 9.77717
48.11690125590099 9.76228
48.1414751266064 9.73069
48.16586082917454 9.69801
48.19024885144316 9.69667
48.2146391951793 9.6764
48.239222439012764 9.67687
48.26361744916137 9.6306
48.28801478610016 9.637260000000001
48.31241445160131 9.6033
48.337007097209366 9.59854
48.36141144338331 9.59246
48.38581812345755 9.55613
48.41022713920929 9.5325
48.434829215320704 9.515419999999999
48.45924292604658 9.51815
48.48365897780325 9.5118
48.50807737237308 9.49752
48.532688907799276 9.49814
48.55711201168574 9.464269999999999
48.581537463754074 9.440430000000001
48.60615611725119 9.43722
48.63058628942721 9.38877
48.65501881516546 9.39748
48.6794536962573 9.33912
48.70408185970339 9.32964
48.72852147531801 9.32467
48.75296345168211 9.30231
48.77740779059232 9.27173
48.80204549302823 9.25112
48.82649458091802 9.27073
48.85094603676547 9.22771
48.87539986237231 9.15167
48.90004713292306 9.1621
48.92450572200832 9.195789999999999
48.94896668628025 9.21032
48.97343002754588 9.14075
48.99808689542115 9.13298
49.02255501470614 9.1613
49.04702551642794 9.08826
49.0714984023988 9.06362
49.096164896893235 9.06712
49.120642575466796 9.04721
49.145122643748394 9.04622
49.16960510355558 8.9836
49.19428125404938 8.98634
49.2187685210852 8.967360000000001
49.243258185121555 8.97533
49.26794160167084 8.952919999999999
49.2924360839405 8.92554
49.31693296869764 8.92305
49.34143225776915 8.88448
49.36612538195438 8.848510000000001
49.39062950396021 8.834480000000001
49.41513603578346 8.87288
49.4396449792564 8.84235
49.46434784069503 8.8484
49.488861631846454 8.8161
49.513377840166804 8.78565
49.537896467493745 8.78289
49.56260909589029 8.72968
49.587132585683285 8.722439999999999
49.611658500018365 8.6947
49.636186840738596 8.6618
49.66090926588511 8.659460000000001
49.685442483902584 8.62462
49.70997813385706 8.60263
49.734516217597076 8.55499
49.75924846937352 8.61125
49.7837914452858 8.566360000000001
49.80833686055187 8.57167
49.83288471702571 8.5559
49.85762682540054 8.56006
49.882179588965734 8.50155
49.9067347993235 8.49346
49.93129245833333 8.47565
49.95604445336378 8.46187
49.98060703442832 8.44853
50.005172069746266 8.43585
50.02993150438364 8.42355
50.05450147301533 8.41206
50.07907390151433 8.37438
50.10364879174981 8.36783
50.12841816587289 8.32082
50.1529980044635 8.323039999999999
50.17758031042124 8.31615
50.20216508562089 8.30827
50.22694442953363 8.26067
50.25153416817468 8.26927
50.27612638170508 8.28772
50.300721072005196 8.217789999999999
50.325510416102105 8.23475
50.350110084975064 8.21303
50.37471223628208 8.1951
50.39931687190919 8.18087
50.424116246675766 8.17864
50.44872587605249 8.158619999999999
50.47333799543065 8.1181
50.49795260670191 8.11795
50.52276204271512 8.10966
50.54738166295838 8.096810000000001
50.57200378079314 8.06526
50.596628398116835 8.0268
50.62144792604559 8.052
50.646077567609396 8.032910000000001
50.670709714377715 8.02927
50.69553683636198 7.980689999999999
50.72017401885922 7.958289999999999
50.7448137122895 7.956
50.76945591856022 7.94182
50.79429318636823 7.9506
50.818940443716784 7.93088
50.84359021965163 7.901
50.868242516085964 7.866339999999999
50.893089960641895 7.86828
50.917747323549435 7.84515
50.94240721271973 7.88403
50.96706963007175 7.81672
50.99192728239342 7.78757
51.01659478166073 7.80048
51.04126481489051 7.812689999999999
51.06593738400761 7.800619999999999
51.090805275207074 7.725280000000001
51.11548294172845 7.752160000000001
51.14016314993547 7.70803
51.164845901758845 7.708939999999999
51.18972406304274 7.69015
51.21441192780656 7.6586
51.23910234200271 7.646160000000001
51.2637953075678 7.63415
51.288683770237945 7.59178
51.31338186432707 7.605460000000001
51.33808251561888 7.6132100000000005
51.362978729967345 7.55893
51.387684521509755 7.57477
51.41239287610203 7.55633
51.437103795691165 7.51805
51.46201036644977 7.493460000000001
51.486726441956634 7.50855
51.51144508832545 7.504169999999999
51.536166307509156 7.48446
51.56108326624387 7.4341
51.58580965706056 7.46393
51.61053862657523 7.43173
51.635270176746864 7.4014
51.66019755512065 7.41333
51.68493429268881 7.3856
51.70967361681515 7.4052
51.73441552946465 7.40384
51.759353359237934 7.34585
51.7841004750961 7.329860000000001
51.80885018539685 7.344760000000001
51.833602492111254 7.314430000000001
51.8585508051424 7.250210000000001
51.883308330926425 7.255560000000001
51.90806845906181 7.2507
51.932831191525715 7.21275
51.95779001977161 7.22663
51.98255798721516 7.19707
52.00732856494335 7.177689999999999
52.03229530577543 7.15753
52.057071130455945 7.152769999999999
52.081849571391054 7.12684
52.106630630568695 7.1205300000000005
52.13160794279417 7.111210000000001
52.15639426492067 7.09962
52.18118321127822 7.0711
52.205974783860896 7.0481
52.23096269971011 7.05892
52.255759551287994 7.0344
52.280559035098186 7.021889999999999
52.30536115314103 6.99947
52.33035970494467 6.99828
52.35516711807904 6.985939999999999
52.37997717147198 6.936030000000001
52.40478986713005 6.94959
52.42979908731974 6.935110000000001
52.454617094216 6.91858
52.47943774942214 6.89894
52.50426105495102 6.88848
52.529280976059844 6.870189999999999
52.554109609024096 6.848339999999999
52.57894089837482 6.8722
52.60377484613117 6.830830000000001
52.62880550079408 6.84858
52.65364479223379 6.83955
52.67848674816189 6.80828
52.70352547971946 6.77845
52.72837279155837 6.768739999999999
52.753222773982785 6.73778
52.778075429022984 6.78123
52.80312495150885 6.7516
52.827982978797436 6.695310000000001
52.85284368481815 6.696860000000001
52.87770707160767 6.68133
52.90276741793998 6.67048
52.92763619336701 6.650589999999999
52.952507655698504 6.65682
52.977381806977576 6.658710000000001
53.00245301017842 6.62047
53.02733256653592 6.63386
53.052214817996074 6.5769
53.077099766608484 6.55687
53.102181859804446 6.54849
53.127072229988265 6.55508
53.15196530349892 6.54849
53.17686108239249 6.48855
53.20195409881522 6.50249
53.22685531582556 6.4857
53.25175924441303 6.44888
53.27666588664027 6.43534
53.30176985962693 6.45155
53.3266819565689 6.451219999999999
53.35159677336455 6.4636
53.376514312083096 6.42101
53.40162927507703 6.37804
53.42655228516116 6.40166
53.45147802340193 6.371569999999999
53.47660125628886 6.37137
53.50153247842639 6.32709
53.52646643496923 6.32428
53.55140312799818 6.33175
53.576537409691696 6.2817
53.60147960336152 6.256869999999999
53.626424539786164 6.27374
53.65137222105307 6.25061
53.67651758529126 6.21741
53.70147078399681 6.17833
53.72642673383343 6.21593
53.75138543689533 6.22521
53.776541917524526 6.23169
53.801506154876755 6.17316
53.826473151763246 6.17342
53.851442910284916 6.14774
53.87661054126026 6.1233
53.9015858509782 6.10996
53.92656392866066 6.13053
53.95154477641532 6.08249
53.976723591801296 6.0581
54.00171000771266 6.08306
54.02669920004598 6.05614
54.051691170915745 6.06265
54.076881204886796 5.98954
54.101878760928514 6.01302
54.12687910187696 5.99737
54.152077577768296 5.95913
54.1770835166946 5.93741
54.20209224691339 5.95631
54.22710377055121 5.9356599999999995
54.25231352511594 5.87896
54.27733066384342 5.87148
54.30235060239643 5.921209999999999
54.32737334290836 5.8998
54.35259441062629 5.86943
54.377622783395324 5.85034
54.40265396455061 5.84995
54.42768795623251 5.79654
54.45292037169559 5.76014
54.477960012857906 5.73011
54.50300247099511 5.76909
54.52804774825457 5.76711
54.55329154616743 5.71598
54.57834249018678 5.68524
54.6033962597977 5.68009
54.6284528571545 5.6841800000000005
54.653708072335164 5.6382900000000005
54.67877035378786 5.64392
54.70383546947698 5.64331
54.72890342156389 5.5968800000000005
54.7541700889442 5.531619999999999
54.77924374251975 5.60318
54.8043202390049 5.5406
54.82959552413022 5.5258400000000005
54.8546777351945 5.51107
54.87976279569621 5.42316
54.90485070780914 5.44678
54.930137506558005 5.4296
54.95523115074295 5.4281
54.98032765308844 5.35579
55.005427015775496 5.39815
55.03072536339621 5.36508
55.05583047570572 5.31248
55.080938454927676 5.32795
55.10604930325027 5.32967
55.131359235107396 5.312530000000001
55.15647585066083 5.30336
55.181595341907496 5.22604
55.20671771104285 5.21126
55.232039262617704 5.1791
55.25716741665048 5.17455
55.28229845518636 5.13961
55.30743238042802 5.11725
55.33276558731939 5.10312
55.357905315183636 5.09047
55.383047936390035 5.0586400000000005
55.40819345314859 5.00502
55.433538351073295 4.98954
55.458689688238415 4.9943800000000005
55.483843927614096 4.965319999999999
55.509197623043605 4.95397
55.53435769621134 4.8554900000000005
55.55952067826466 4.901680000000001
55.5846865714265 4.920780000000001
55.61005202069737 4.90069
55.63522376553902 4.85478
55.66039842818645 4.80486
55.68557601087004 4.77919
55.7109532500271 4.73409
55.73613670233794 4.78377
