TT I
1.2716486653135266 8.13476
1.2939594142134223 7.05538
1.3162702121660406 7.04407
1.3385810600174564 6.780889999999999
1.3608919586137629 6.64164
1.383202908801069 6.53745
1.405513911425503 5.81445
1.4278249673332093 6.78315
1.4501343378461518 6.29395
1.4724455028545926 5.90835
1.4947567236847858 5.84912
1.517068001182951 6.241140000000001
1.5393793361953272 6.07226
1.5616907295681737 6.39685
1.5840021821477681 5.39461
1.60631369478041 5.26807
1.6286252683124185 5.22722
1.6509369035901333 5.12105
1.6732468618895553 5.89687
1.695558623192809 5.17874
1.7178704487808514 5.17574
1.7401823395001077 4.8981
1.7625012545597203 5.16025
1.7848028405262486 5.43122
1.8071218901122095 4.79743
1.8294236121921872 4.7111
1.8517427996910911 4.9447
1.8740620574440425 4.6965
1.8963639900671978 4.86886
1.9186833908139995 5.02474
1.9409854680117449 5.05841
1.9633050151394713 5.232069999999999
1.9856246367570705 4.462680000000001
2.0079269371922672 4.66171
2.03024671027244 5.03245
2.0525491637446027 4.90705
2.074869091674931 4.81756
2.097171701569106 4.773569999999999
2.1194917877373847 5.06271
2.141811954326636 5.17028
2.164114805233074 5.21375
2.186435135143035 6.11596
2.208738150935709 15.3169
2.231058647554722 32.4387
2.2533792288321184 24.6242
2.275682498336085 11.2081
2.298003251406138 6.16064
2.3203066942619714 5.115419999999999
2.3426276225136022 5.53445
2.3649486396617507 5.41253
2.387252348930071 6.28095
2.4095735463442893 5.73891
2.4318774374315884 6.01179
2.4541988185014043 6.07554
2.476502894794693 7.0063699999999995
2.498824462909887 6.23739
2.521146125856138 6.7087699999999995
2.5434504863470337 6.929939999999999
2.5657723414244717 6.694560000000001
2.588076895590662 7.737410000000001
2.610398946189713 7.67265
2.6327210958598384 7.68748
2.6550259469304716 7.41069
2.6773482972090137 7.74494
2.6996533504259 7.23119
2.7219759047039602 8.14155
2.744298562293959 8.43626
2.7666039251246595 8.09045
2.7889267918020164 8.05037
2.8112323652516555 7.86278
2.833555444408179 8.29149
2.8558786311183852 8.144689999999999
2.8781845268938557 8.92652
2.9005079311721484 8.85161
2.9228140460410397 8.67897
2.9451376712799635 9.07708
2.967444008632326 9.51549
2.9897678582247247 10.1106
3.0120918213106695 10.1071
3.0343984987899373 10.4766
3.0567226913198637 11.353
3.079029599759726 11.8284
3.101354025127254 12.4431
3.123678568232338 12.9118
3.145985829517914 12.9159
3.16831061055229 13.5993
3.1906181112775593 14.1618
3.212943133635653 14.974
3.2352682779763207 15.133
3.2575761442691227 15.7608
3.2799015350264273 15.8222
3.302209649240067 16.1911
3.3245352898092655 16.9174
3.3468436553365257 17.6472
3.369169549113219 17.9324
3.3914955708171384 19.1614
3.413804319727358 18.8463
3.4361305997334863 19.2723
3.4584396084414553 20.0203
3.4807661501462652 20.442
3.503092824025881 21.2064
3.5254022288463154 21.5316
3.5477291695206588 22.1587
3.5700388426251948 22.7771
3.5923660534916446 24.0995
3.6146934007816114 41.5438
3.637003482731501 100.691
3.6593311053109985 112.069
3.681641464033634 63.1194
3.7039693653009733 32.0364
3.726297407241705 26.8012
3.7486081875460804 26.1575
3.7709365132734978 26.3363
3.793247578841633 27.2217
3.8155761917550093 27.2574
3.8378875459837216 27.784000000000002
3.8602164494827234 27.8383
3.882545499606844 28.9008
3.9048572932539183 29.469
3.9271866390645718 29.689
3.9494987298666713 30.2496
3.971828374764527 30.7623
3.9941581705403255 30.9546
4.016470713506008 31.6349
4.038800813471445 32.6034
4.061113662089144 33.0721
4.0834440696459176 33.8216
4.105774632334751 34.6438
4.128087945865126 35.5004
4.150418821249301 36.4707
4.172732448931298 37.9425
4.195063640413578 39.8835
4.2173775856475215 44.0933
4.239709096631102 80.78399999999999
4.262040768704612 269.178
4.284355196706267 367.096
4.306687193387355 232.795
4.329001947444346 88.0041
4.35133427213731 49.771
4.373666762177566 45.651
4.395982011761091 44.9444
4.418314834921175 46.2002
4.44063041906622 55.3733
4.4629635787515625 68.1242
4.4852969080429785 67.9804
4.5076130004776225 55.7434
4.529946671403969 51.5575
4.552263106909177 50.9986
4.574597122877047 51.6556
4.596931312711224 52.8513
4.619248269273446 53.601000000000006
4.6415828092605835 54.8223
4.663900117405352 56.4352
4.686235010953232 57.6368
4.708552674085913 58.8405
4.730887924602802 60.3078
4.753223354952695 61.3703
4.775541557023902 63.1371
4.797877349456786 64.1136
4.820195915032126 66.4325
4.842532072957498 68.2533
4.864868414979744 69.9138
4.88718753227192 72.0249
4.909524244902505 73.8796
4.931843734218147 75.5349
4.954180820867835 78.6379
4.976518095879839 81.8206
4.998838149695359 84.8122
5.021175803844231 88.3688
5.043496238205739 91.2944
5.065834274903528 95.9456
5.088172504230693 101.398
5.1104935158799565 108.536
5.132832132875765 132.843
5.155153533596801 183.143
5.1774925416746225 222.15599999999998
5.199814334878411 389.50300000000004
5.2221537374521505 1087.75
5.244493338631803 2943.17
5.266815727034316 7297.75
5.289155727832427 11906.0
5.311478517248165 9079.83
5.333818921080011 3232.87
5.356159527788849 660.5369999999999
5.3784829252032536 204.86
5.400823940070432 152.746
5.423147747031976 134.224
5.445489173474152 122.7
5.467830807066149 116.69
5.490155234831516 112.14399999999999
5.512497285125229 107.756
5.534822130975162 105.61200000000001
5.557164601388673 103.81299999999999
5.579489868738879 100.92
5.601832762690846 100.54799999999999
5.6241758697774475 99.5058
5.646501775867269 98.3019
5.668845311622074 96.3683
5.691171647754637 95.3918
5.713515615597765 94.5058
5.735859800852677 93.8071
5.758186788542988 93.2604
5.780531411018185 92.8598
5.802858837297399 92.3582
5.825203900414495 92.5268
5.8475491852224 93.0899
5.869877275883075 93.2634
5.892223006467101 94.5434
5.914551544266608 96.1821
5.936897724049891 98.3055
5.959244129804903 104.512
5.981573344815301 123.613
6.0039202049061 216.447
6.026249875609095 480.60900000000004
6.04859719346037 1011.99
6.070927323278297 2189.88
6.093275102315365 4083.63
6.115623113320588 5196.15
6.137953938319995 3439.62
6.160302415650845 1210.16
6.182633708324452 294.43
6.2049826554078376 124.165
6.227331838745022 97.1661
6.249663839443684 88.1451
6.27201349767565 84.5727
6.294345974611799 92.0999
6.316696111167083 105.99
6.339046488263839 99.4212
6.361379686074702 82.3742
6.383730546639482 73.7078
6.406064229255215 70.0369
6.428415576718203 69.4017
6.450749747566656 68.5304
6.47310158535871 67.529
6.495453669698332 66.4604
6.517788579421056 66.0602
6.540141159237969 64.4882
6.562476565766648 64.3505
6.5848296444934045 63.7674
6.607182974060425 63.2498
6.6295191323281015 63.9945
6.651872965955752 67.5745
6.6742096296068985 98.2861
6.6965639707294615 153.086
6.71891856698715 152.924
6.741255995248479 100.861
6.763611104154477 70.2991
6.785949046381137 61.3818
6.808304671371482 59.5941
6.8306605557940046 59.0838
6.852999275508618 57.9598
6.875355681171544 58.0135
6.897694923437771 57.7364
6.92005185377892 57.6325
6.9423916220322655 57.6164
6.964749080490181 56.6092
6.987106804399774 56.4923
7.009447368180821 56.7598
7.031805625367033 55.9597
7.054146723727803 56.1792
7.076505517631004 55.7005
7.098864581288365 55.8186
7.121206488070854 55.8518
7.143566093607822 55.8745
7.165908543567245 56.5121
7.188268694426048 56.2733
7.2106291193438095 56.4263
7.232972390625943 58.4542
7.255333366030969 72.6759
7.277677189091925 136.20600000000002
7.300038718428332 191.528
7.322400526130865 160.878
7.344745183422596 95.9233
7.367107550224791 63.9518
7.389452767901992 57.6284
7.411815697249891 56.2308
7.434161478756298 55.2522
7.456524974096713 55.2575
7.478888753837185 55.1039
7.501235387657368 55.6207
7.523599738562711 55.5509
7.545946944825532 55.8468
7.568311870344528 56.1181
7.5906770845765665 56.4194
7.613025156078678 57.9922
7.635390950099687 59.1146
7.657739602662809 58.2891
7.680105979923558 56.9042
7.702472650212829 56.8429
7.724822180948224 56.5152
7.747189439655568 56.8262
7.769539560075357 57.1493
7.791907410653562 57.3568
7.81425812420825 57.2595
7.836626570110925 57.6902
7.858995315087906 58.3598
7.881346924933401 58.6442
7.903716270417482 59.1698
7.926068482028405 59.4502
7.948438431475253 59.9828
7.9708086843180235 60.6516
7.993161805171116 61.4141
8.015532667162402 61.6355
8.037886398416653 62.5864
8.060257873014221 62.7559
8.082629655331942 63.7149
8.104984308787587 64.8559
8.127356708900503 68.4608
8.149711981398308 75.3313
8.172085002766314 77.6947
8.194458336181368 73.855
8.216814543847752 70.9788
8.23918850371002 70.5841
8.26154533906492 71.1237
8.283919928836452 72.4058
8.306277395339652 73.3385
8.328652618483376 74.9665
8.351028159736202 76.984
8.373386579575245 79.2375
8.395762759396959 81.1344
8.418121819038275 86.2852
8.440498640894003 101.59899999999999
8.462875785192262 117.94
8.485235811156207 128.929
8.507613602688501 168.167
8.529974277114228 258.83799999999997
8.552352719347912 396.397
8.574731488360351 656.809
8.59709314210385 1140.82
8.619472567021075 1780.93
8.64183487789147 2155.81
8.664214962183097 1908.58
8.686577933647762 1076.23
8.708958680784317 417.594
8.731339760774953 183.498
8.753703729764451 117.84899999999999
8.77608547780821 102.023
8.798450116065078 97.6977
8.820832535634787 93.8998
8.843215292401656 92.6149
8.865580941199045 91.1826
8.887964374703538 90.03399999999999
8.910330701447199 91.3268
8.932714815164482 94.2843
8.955099270424924 93.0578
8.977466620733543 89.5031
8.999851761421976 86.4525
9.022219798361645 84.9326
9.04460562795561 84.2363
9.066991803441677 84.2804
9.089360876979615 83.8992
9.111747746589993 83.4352
9.13411751544971 82.6054
9.156505082664324 82.7793
9.178875550323522 83.1562
9.20126381862328 83.309
9.223652438908596 83.7733
9.246023961427412 83.8468
9.26841328802173 83.0403
9.290785518039224 82.90899999999999
9.313175554425882 83.4776
9.335565947154315 83.1086
9.357939245086508 83.84100000000001
9.380330352834827 83.5589
9.40270436697103 84.1769
9.425096193225055 84.15700000000001
9.447488380180165 85.0699
9.469863475295412 85.1444
9.492256385987508 85.2613
9.514632206018318 86.0204
9.537025843935714 86.2079
9.559402392368193 87.3504
9.581796761000229 88.0565
9.604191496441521 89.2115
9.626569144158516 93.0187
9.648964615551032 98.52
9.671343000390081 100.365
9.693739211225699 97.8596
9.716135793237463 94.9901
9.738515290448102 94.0681
9.760912617143402 95.1096
9.783292860202891 96.4753
9.805690935076182 97.9385
9.828089385495742 98.4366
9.850470754023561 100.946
9.872869957865444 109.89299999999999
9.89525208097539 127.272
9.917652041736662 141.766
9.940052382417589 140.642
9.962435644102392 144.5
9.984836746950979 180.16099999999997
10.007220771957746 246.607
10.029622640473708 351.14
10.052007432299963 522.528
10.074410069984072 792.7189999999999
10.096813093716005 1203.37
10.119199042482517 1645.75
10.141602840636468 1894.88
10.163989564971628 1647.61
10.186394141051062 989.924
10.208799107559706 449.17800000000005
10.231187001965623 213.878
10.253592751657669 135.21200000000002
10.275981430388155 116.926
10.298387966769793 116.23200000000001
10.320794897965431 118.994
10.343184759907361 117.59100000000001
10.36559248305461 111.06700000000001
10.387983138083852 106.189
10.410391656691655 108.28
10.432800574501677 119.765
10.455192425893369 136.859
10.47760214443012 161.585
10.499994797678786 204.354
10.522405320453982 279.606
10.54479877906917 388.902
10.567210109595656 494.026
10.5896218454736 555.651
10.612016518879773 515.21
10.634429067781074 378.608
10.656824555333241 227.28400000000002
10.679237920773568 136.519
10.701651695961992 100.772
10.724048411481384 91.2414
10.746463008485165 88.0487
10.768860546937125 86.5383
10.791275969274796 84.4633
10.81369180576079 83.4233
10.836090585366925 82.5787
10.858507252467449 81.1826
10.88090686379991 79.9433
10.903324365036394 79.7461
10.925724811614439 79.6428
10.948143150509463 81.0069
10.970561909719066 80.3782
10.992963615930844 78.0948
11.015383218085756 75.8559
11.037785768347074 74.4774
11.06020621697282 73.3872
11.082627090322113 73.2858
11.105030913430326 72.5934
11.12745263854165 73.2871
11.149857314510728 77.78399999999999
11.172279894912576 84.8499
11.194702904450653 85.4961
11.217108866490921 81.0255
11.239532736615194 75.9492
11.26193956033512 73.6849
11.284364294577085 71.5368
11.306789462371718 69.194
11.329197585398376 67.9663
11.351623622610898 67.9264
11.37403261614354 66.8397
11.396459526308487 66.9068
11.418869393879497 66.3982
11.441297180532617 66.1567
11.463725406927658 65.6461
11.486136592353875 65.9282
11.508565700543707 66.3902
11.530977768845315 68.6093
11.553407762368774 69.5492
11.575838200059769 68.9
11.598251599479612 66.7259
11.620682927815501 65.0331
11.64309721895548 64.4356
11.665529441478206 64.1345
11.687962112597958 63.6286
11.710377748130886 63.8376
11.732811318753434 63.6478
11.755227854859067 63.7704
11.777662328529495 63.603
11.800079768750786 63.4518
11.822515149015453 63.5991
11.844950984084935 63.4044
11.867369787303163 63.0636
11.889806534289491 62.7254
11.912226250487029 63.6909
11.934663912939751 63.652
11.9571020346363 63.8726
11.979523127133968 63.6981
12.001962169624331 64.3642
12.024384183972964 65.4273
12.046824150809913 68.5138
12.069264581333726 74.0986
12.091687985297767 80.5642
12.11412934550045 89.7216
12.136553680195208 104.34700000000001
12.158995973632788 125.40100000000001
12.181438735204349 153.767
12.20386447284199 180.136
12.226308172985636 204.94799999999998
12.24873485024193 206.41099999999997
12.271179492516982 174.97
12.293607112949127 138.319
12.316052700916226 102.78399999999999
12.338498763250042 83.2738
12.360927805303868 72.3964
12.383374818673879 67.7652
12.405804812803074 65.7567
12.428252780773262 65.3813
12.45070122756722 65.2985
12.473132656675375 64.9836
12.49558206341869 65.2628
12.518014453510101 65.1906
12.540464823770117 65.5758
12.562915677315177 65.4983
12.58534951575545 66.4862
12.607801338171472 68.6342
12.630236146511358 74.6674
12.652688941369085 80.6558
12.675124723177234 81.1112
12.697578494048786 76.5109
12.720032754458185 71.3234
12.742470003354093 69.2833
12.764925245138771 68.475
12.787363476431278 69.0921
12.809819703166806 69.37
12.83227642391173 69.7983
12.854716135692716 70.468
12.877173846755147 71.3735
12.899614549869717 71.8477
12.9220732548287 72.8308
12.94453245827299 73.2007
12.966974655289818 73.9357
12.989434858002571 74.9455
13.011878055298721 75.6593
13.034339260862497 76.5282
13.056800969391883 77.7471
13.079245674017244 79.7979
13.101708390774869 81.9494
13.12415410463411 89.071
13.146617833206086 101.335
13.169064559883248 113.958
13.191529303857127 128.622
13.213994557076367 150.89700000000002
13.236442809902437 184.764
13.258909083908291 234.42700000000002
13.28135835851934 295.057
13.30382565690295 356.608
13.326293469022952 413.06199999999995
13.348744283242008 429.413
13.371213125129904 376.194
13.39366497011003 283.347
13.416134845360597 191.005
13.438605238843131 131.77
13.46105863690397 109.68799999999999
13.483530069144786 107.538
13.505984506951902 112.758
13.528456981549432 122.541
13.550929978879088 137.704
13.573385983253365 159.775
13.595860028340867 194.649
13.618317081455832 241.074
13.64079217790333 289.722
13.663250283359057 332.89099999999996
13.685726434770173 362.105
13.708203115221277 339.536
13.730662806148091 274.518
13.75314054697177 201.292
13.775601299246777 139.67
13.798080104050406 103.32600000000001
13.820559442405358 88.0602
13.843021793671388 83.2273
13.865502201420897 81.4222
13.887965623051947 80.6776
13.910447103807167 79.6786
13.932929122629764 78.0229
13.955394156785959 77.77600000000001
13.977877254034569 76.8985
14.000343367582113 75.8747
14.022827546871707 75.3816
14.045294743423524 74.5885
14.06778000837062 73.8925
14.090265817715476 73.9925
14.112734645763819 73.4453
14.13522154619454 73.4629
14.157691466286913 73.279
14.180179461423874 73.0133
14.202668005486178 72.4796
14.22513957064374 71.6655
14.247629214846473 71.3218
14.270101881097517 71.0468
14.29259262906496 71.5126
14.315083930490205 72.2994
14.337558255389705 72.6467
14.360050666019726 72.4712
14.382526101071944 71.2354
14.405019624534942 70.3262
14.427513705993134 69.7587
14.449990813291825 69.6792
14.47248601302899 69.376
14.49496423954951 69.5789
14.517460561197822 69.7266
14.539939910570322 69.3043
14.562437357763558 69.9284
14.58493536931253 71.2317
14.607416409993311 72.3354
14.62991555254159 72.9214
14.652397725157423 72.8526
14.674898002342799 71.9572
14.697398848433282 71.3853
14.719882725991326 71.9239
14.74238471217934 72.6294
14.764869730765593 76.1166
14.787372860692983 79.6428
14.809876564079925 84.1958
14.83236330125751 90.1929
14.854868153850365 98.5227
14.877356041159485 110.90100000000001
14.899862046604186 128.607
14.922351087688757 151.154
14.944858249632887 177.635
14.967365991421232 200.115
14.989856770231246 218.899
15.012365673994204 216.459
15.03485761569738 192.667
15.05736768508665 155.439
15.07987833888692 120.74799999999999
15.102372032001655 95.0988
15.124883856909658 79.4481
15.14737872204565 73.7179
15.169891721717274 71.5258
15.192405310371893 71.6054
15.214901940621196 72.2057
15.237416709527137 72.2618
15.259914520936249 72.6998
15.282430473753607 71.5833
15.304947020131227 70.3445
15.327446610371178 69.3281
15.349964346154254 68.3935
15.372465126703139 67.8207
15.394984055556009 67.3602
15.417486030076159 67.3834
15.44000615566487 66.7433
15.462526881230803 67.0042
15.485030653812652 66.8828
15.507552581617434 67.2329
15.530057557334603 67.1645
15.55258069104857 66.9148
15.575104429329837 66.8724
15.597611216864632 66.5493
15.620136166564563 66.7661
15.6426441664095 67.4516
15.665170331202765 69.6697
15.687697105158826 72.8339
15.710206930593545 76.6866
15.732734925158933 80.8874
15.755245972089478 86.898
15.77777519094324 95.6417
15.800287463046663 107.906
15.822817909869592 124.959
15.84534897229804 143.785
15.867863089299354 166.149
15.890395385222186 182.02
15.912910736597423 192.105
15.935444269699861 184.482
15.957978423016485 161.315
15.980495633101265 130.77
16.003031029129367 103.412
16.02554948280019 80.8269
16.048086125229432 70.2527
16.070623392487107 66.9778
16.09314371869582 65.8844
16.11568223789321 65.0499
16.13820381691126 63.8025
16.160743591742527 62.7544
16.183283996022084 61.5536
16.205807461423195 60.4321
16.228349126881973 59.8826
16.25087385432698 59.8844
16.27341678466365 59.1798
16.29594277784926 59.0933
16.31848697676433 59.6778
16.341031811604868 60.1132
16.36355971058487 60.5474
16.3861058195587 60.0488
16.40863499352978 58.6149
16.431182380342005 57.8851
16.453730407713202 57.1517
16.476261501364792 56.6844
16.498810812136167 56.4216
16.52134319004079 56.3138
16.54389378792203 56.341
16.566445031001553 56.1157
16.588979342490088 55.9332
16.61153187824822 55.8556
16.634067483263312 55.6231
16.656621315414416 55.6478
16.679175797408888 55.2503
16.701713349928728 55.3261
16.72426913389191 55.766999999999996
16.74680798922351 55.721000000000004
16.76936507887444 55.6495
16.791905240734874 55.6971
16.814463639794468 55.5676
16.837022695210294 55.5648
16.859564824093756 56.0225
16.882125194503903 56.8879
16.904668639217885 57.5493
16.927230328348003 57.7664
16.949792678493612 57.9255
16.972338104193863 57.163000000000004
16.994901778652235 56.4447
17.017448529496576 56.2952
17.040013531998152 56.6768
17.06257920018044 57.115
17.0851279459922 57.9836
17.107694947817667 58.8257
17.130245028099072 59.4893
17.15281336730298 60.7846
17.17536478578733 62.3843
17.19793446610687 64.4525
17.220504818648422 67.1479
17.243058251703697 70.0087
17.265629950971032 74.1386
17.288184731571736 78.2909
17.310757781306908 81.4048
17.33333150794385 83.3185
17.355888317140174 82.2568
17.37846339986244 78.5312
17.401021565958885 72.5072
17.42359800851343 67.5614
17.44617513265564 63.4323
17.468735341390783 61.0632
17.491261035594565 60.0834
17.51396340099364 59.6669
17.536490463869136 59.9413
17.559018209820174 59.7936
17.58154663977963 60.1153
17.604251766089718 60.1753
17.626781572227713 60.2265
17.64931206518155 60.4975
17.671843245885103 61.0306
17.69455114821572 61.4016
17.717083712612634 61.68
17.739616967569667 61.7504
17.762150914021706 62.1846
17.78486160749854 62.0455
17.807396945166804 62.4515
17.829932977143503 63.3382
17.85246970436452 65.0092
17.875183204129467 66.8033
17.897721330097664 68.99
17.920260154126645 71.3814
17.942799677153296 74.7836
17.9655159983646 78.2297
17.988056927677544 83.1393
18.010598558807683 90.1585
18.033140892692916 98.7844
18.05586005052525 108.586
18.07840379824407 119.285
18.10094825154059 129.998
18.12366954819864 137.417
18.146215420998306 138.99
18.16876200220057 133.963
18.191309292745153 121.96799999999999
18.214033452627167 107.82
18.236582170236648 95.2473
18.259131600016456 88.7815
18.281681742907335 87.3535
18.304408781233683 90.7208
18.32696035875955 94.9677
18.349512652227624 99.445
18.372065662579683 104.095
18.394795594587553 105.92299999999999
18.41735004715306 105.213
18.43990521943684 99.2728
18.46246111238171 90.244
18.485193953325208 80.7931
18.507751296070428 72.9744
18.530309362314178 67.7187
18.552868153000343 64.7672
18.57560391815056 63.2234
18.59816416623245 62.6041
18.620725141597372 62.1628
18.643286845190268 61.7953
18.666025549835414 61.3656
18.688588718427933 60.6923
18.711152618092243 60.4618
18.73389353884365 60.1589
18.75645890921984 59.8115
18.77902501351406 59.2487
18.801591852673102 59.398999999999994
18.824335739722738 58.9099
18.846904057212626 58.7759
18.8694731124168 58.4236
18.89204290628315 58.5346
18.914789774966803 58.5496
18.937361054791623 57.9283
18.959933076131318 57.6486
18.982505839934877 57.8186
19.00525570560582 57.8693
19.027829963004184 57.8153
19.05040496572238 57.8521
19.072980714710468 57.6373
19.095733592739563 57.8052
19.11831084296757 58.3818
19.140888842324735 58.6352
19.16346759176222 59.1139
19.18622349753803 59.5255
19.208803755869358 60.4043
19.231384767143577 61.3269
19.253966532312948 62.9212
19.276725481241822 64.6777
19.29930876296784 67.0828
19.3218928014549 69.7316
19.34465404436217 72.7461
19.36723960516257 75.6751
19.389825925592426 76.8632
19.412413006605938 76.4062
19.43517731967805 73.5697
19.457765930683355 69.5279
19.48035530514408 64.9923
19.50294544401556 60.9863
19.525712842708348 58.0801
19.54830451925909 56.4161
19.570896963095727 55.0167
19.593490175174704 54.6209
19.616260674962184 54.6789
19.638855432416964 54.3199
19.661450960992624 54.4087
19.68404726164677 54.2293
19.706820878021247 54.0537
19.729418731756834 54.317
19.752017360452857 53.9408
19.77461676506804 54.0721
19.797393513540218 54.3374
19.819994478951667 54.57
19.84259622316767 55.216
19.8651987471481 55.4613
19.887978643247177 55.8416
19.91058273574792 56.2353
19.933187610901943 56.8308
19.955969879466828 57.9627
19.97857632894404 59.3349
20.00118356396599 60.6558
20.023791585494575 62.5671
20.046577028914875 65.2739
20.069186632506966 67.29
20.091797025500632 69.1229
20.114408208858933 70.3694
20.137196842715273 70.5131
20.159809615886765 69.4971
20.18242318232135 66.9236
20.20503754298326 64.8144
20.227829382875154 63.441
20.250445341109344 62.8868
20.27306209647285 63.195
20.29567964993108 64.0063
20.31847471147704 65.1091
20.34109387027612 66.0355
20.363713830075454 66.0303
20.386334591841646 64.9216
20.409132890679302 62.91
20.431755265564437 59.724
20.454378445325528 56.8635
20.477002430930366 54.8209
20.499803982716553 53.5849
20.522429589228004 52.5816
20.54505600449589 52.1091
20.567683229489194 51.7341
20.590488049900088 51.3681
20.61311690359731 51.1177
20.63574656993626 50.8553
20.658553853717297 50.3007
20.681185154618298 50.1381
20.703817271080066 50.2014
20.72645020407368 49.968
20.749260783967177 49.8819
20.771895359337133 49.7752
20.794530754161617 49.7042
20.817166969412938 49.4378
20.83998086114876 49.4944
20.86261872660049 49.5798
20.885257415405402 49.4142
20.90789692853701 49.2469
20.930714147864748 49.0814
20.953355319030678 49.2828
20.97599731745334 49.5619
20.99864014410749 49.11600000000001
21.021460706796564 49.2009
21.044105199328826 49.3358
21.06675052302631 49.6642
21.089396678865015 49.9819
21.112220600704806 50.1482
21.134868430275347 50.6018
21.15751709492456 50.8176
21.180166595629693 50.913000000000004
21.202993892429635 51.5108
21.22564507473034 51.5983
21.24829709602816 51.9132
21.27112693608965 52.1576
21.293780644891275 52.0769
21.316435195634053 51.4862
21.339090589297417 50.9489
21.361923832041875 50.4908
21.384580921090404 49.6333
21.407238856007325 49.2076
21.429897637773326 48.9532
21.45273429906592 49.0442
21.475394784108598 49.0789
21.498056118951983 48.9362
21.520718304578022 49.1489
21.543558400304388 49.17
21.566222297108816 49.3743
21.58888704765135 49.5755
21.61155265291521 49.843
21.63439619898156 50.3233
21.657063523335786 50.5945
21.67973170537063 50.9063
21.7024007460706 51.5424
21.72524775840385 52.028999999999996
21.747918526116475 53.2124
21.770590155457388 54.5163
21.79326264741238 55.9039
21.816113141960237 57.4624
21.838787368860547 59.1793
21.861462461341976 60.79
21.884315579735777 62.7848
21.90699241312273 64.1628
21.92967011506078 64.967
21.95234868653799 65.1642
21.9752053151131 64.4886
21.997885635446785 62.8687
22.020566828293532 61.0093
22.04324889464272 58.9274
22.066109049404666 57.4657
22.088792872571794 56.5834
22.111477572219204 56.3786
22.1341631493376 56.7035
22.157026846313123 56.7667
22.179714188221507 56.2017
22.202402410582668 55.3977
22.22509151438863 53.8827
22.24795876962584 52.4341
22.270649646204486 51.4804
22.293341407213727 50.6234
22.316034053646906 50.1533
22.338904883215342 49.7699
22.36159931041458 49.7995
22.38429462602756 49.7057
22.40699083104897 49.6623
22.429865251039757 49.7288
22.452563244831367 49.8243
22.47526213102522 49.5701
22.49813925616515 49.4311
22.520839937143307 49.2857
22.543541513520587 49.3758
22.56624398629403 49.0931
22.589124730075895 49.3494
22.611829005656723 49.4531
22.63453418063466 49.2643
22.657240256008077 49.5891
22.680124634582935 49.5858
22.70283252079775 49.8909
22.725541310413075 50.2696
22.74825100442868 50.4386
22.771139033969575 51.0108
22.79385054687155 51.1522
22.81656296718292 51.6737
22.83927629590484 52.3758
22.862167992606945 53.4546
22.88488314827121 54.4282
22.907599215359284 55.2376
22.93031619487366 56.2097
22.953211574954405 57.1189
22.975930389478226 58.0678
22.998650119445763 58.4886
23.02137076586092 58.316
23.044269845560063 57.1982
23.06699233506288 55.6761
23.089715744034912 53.88399999999999
23.112617610931565 52.0952
23.135342869061212 50.8288
23.158069049684816 49.9505
23.1807961538087 49.5201
23.20370174880544 49.458
23.226430710184808 49.3542
23.249160598093425 49.4852
23.271891413539002 49.544
23.294800752937697 49.5466
23.31753343374794 49.6215
23.340267045128353 49.6912
23.36300158808808 50.1749
23.38591468821339 50.4283
23.408651104658304 50.7678
23.431388455719986 51.3905
23.454126742409 52.0801
23.4770436196085 53.0489
23.499783787914662 54.1452
23.522524894889884 55.0135
23.54526694154616 55.8601
23.56818761219047 57.0108
23.59093154860734 57.595
23.613676427751283 58.1481
23.636422250635754 57.9215
23.659346731118656 56.5153
23.68209445191868 54.931999999999995
23.704843119509587 52.8422
23.72759273490623 50.8608
23.750521041644767 49.4327
23.77327256312355 48.1346
23.796025035462787 47.3905
23.818956224555475 46.8376
23.841710609113413 46.6445
23.86446594758979 46.4282
23.887222241002014 46.1607
23.910157285144578 45.7745
23.932915498962537 45.8366
23.955674670778713 45.6223
23.978434801611975 45.3616
24.001373717286125 45.4813
24.024135776723917 45.2213
24.046898798245582 45.1595
24.06966278287146 45.1537
24.092605586582614 44.8961
24.115371508023642 44.6838
24.1381383956401 44.581
24.16090625045381 44.5775
24.183852958731244 44.5056
24.206622758582608 44.4598
24.229393528706886 44.2277
24.252165270127392 44.2212
24.27511589952438 44.2182
24.297889594216997 44.0828
24.32066426328598 43.8128
24.34343990775613 43.935
24.36639447485003 43.8069
24.38917208083877 43.6665
24.41195066531332 43.7398
24.43490819850244 43.7111
24.457688750692377 43.57
24.48047028445616 43.5624
24.503252800821233 43.6044
24.526214300784112 43.6968
24.548998793132213 43.6919
24.57178427117417 43.5796
24.59457073593893 43.5678
24.617536219319863 43.5905
24.64032466834748 43.633
24.663114107195035 43.58
24.685904536893013 43.222
24.708874020360852 43.0536
24.731666442613744 42.9496
24.754459858818787 42.8528
24.777254270007962 43.0423
24.80022777025625 42.8232
24.82302418230472 42.8272
24.845821592443674 42.7794
24.86862000170663 42.753
24.891597535453727 42.5896
24.914397953892728 42.8638
24.93719937456671 42.8027
24.96000179851076 42.8518
24.98298338249997 43.0804
25.00578782394922 43.2578
25.028593271784167 43.4166
25.05157790644186 43.7321
25.07438537804115 43.8313
25.097193859145293 44.0365
25.120003350792075 44.2283
25.142992065061257 44.4959
25.165803588823465 44.8914
25.18861612625217 44.9508
25.211429678386736 45.2319
25.234422489079968 45.2478
25.257238081693636 45.1568
25.280054692141732 45.4522
25.3028723214652 45.3357
25.325869245420463 45.4379
25.348688923599397 45.461999999999996
25.371509623787006 45.336999999999996
25.394331347025812 45.2015
25.41733240110666 44.8676
25.440156181590016 44.173
25.46298098826268 43.8463
25.48580682216873 43.2188
25.50881202326435 42.6496
25.53163992281684 42.198
25.55446885274561 41.8668
25.577298814096377 41.4643
25.600308179121807 41.3799
25.623140214533745 41.5315
25.64597328451537 41.3616
25.66898578564376 41.1292
25.691820936010206 41.1344
25.714657124097695 41.0158
25.737494350954734 41.0784
25.760511045684957 41.0301
25.783350361364224 41.0511
25.806190718969255 40.9545
25.82903211955018 41.1917
25.852053024868923 41.1733
25.874896522722523 41.1692
25.897741066713106 41.2187
25.920586657892454 41.3665
25.943611790812668 41.345
25.966459487728237 41.4505
25.989308234998564 41.4251
26.01215803367705 41.755
26.03518741123814 41.8758
26.05803932412957 42.1057
26.080892291600094 41.9817
26.10374631470478 42.0036
26.12677995397268 42.1179
26.14963609978026 42.2004
26.172493304397875 41.9728
26.19535156888223 41.763999999999996
26.218389486949604 41.3862
26.241249882640123 41.0319
26.26411134137826 40.83
26.28715248187403 40.753
26.31001607820869 40.718
26.3328807407756 40.5446
26.35574647063438 40.6613
26.37879191991473 40.5396
26.401659795896734 40.7167
26.424528742360263 40.7813
26.447398760366614 40.9635
26.470448535598294 40.9773
26.49332070826805 41.3133
26.516193955675355 41.6395
26.53906827888316 41.7317
26.562122397260108 41.8475
26.584998883685063 42.2148
26.607876449110325 42.4176
26.63075509460056 42.4895
26.65381357334404 42.6617
26.67669439061878 42.6638
26.699576291163382 42.6937
26.722459276044212 42.4821
26.745522132402975 42.294
26.768407297649354 42.0785
26.791293550442003 41.7256
26.814180891848974 41.4216
26.837248143099337 41.0435
26.860137673466657 40.9505
26.88302829566349 40.7704
26.90592001075963 40.5614
26.92899167420566 40.4532
26.951885586870763 40.0932
26.974780595655517 39.9348
26.99785558178161 39.786
27.020752794605112 39.5843
27.043651106772522 39.4418
27.06655051935668 39.4666
27.089629948036183 39.2663
27.112531573292053 39.2181
27.135434302194138 39.1441
27.158338135817015 39.0414
27.181422024430987 39.2202
27.204328079372566 39.0631
27.22723524226965 39.0739
27.250143514198573 39.1194
27.273231880156334 38.9526
27.296142382065014 38.9498
27.319053996245536 38.9445
27.341966723775965 38.9122
27.365059584515222 38.9887
27.38797455070062 39.0729
27.410890633481237 39.0051
27.433807833936918 38.9491
27.456905206923906 39.0504
27.47982465472398 38.8469
27.502745223449743 38.8951
27.525666914182825 39.0687
27.548768816912457 39.1031
27.571692763693633 38.9824
27.59461783573812 38.83
27.617723149491244 38.649
27.640650484125285 38.7764
27.66357894728264 38.5715
27.686508540048052 38.5665
27.709618414237887 38.4927
27.732550278321757 38.3795
27.755483275279115 38.4543
27.778417406196485 38.3298
27.801531858397514 38.3975
27.824468269376716 38.2061
27.847405817586786 38.2963
27.870344504116094 38.5265
27.893463551932008 38.5589
27.916404527281053 38.8173
27.93934664422563 38.7841
27.962289903855886 38.9373
27.98541356491974 39.0242
28.00835912214229 39.1753
28.03130582533231 39.3666
28.054253675581805 39.5293
28.077381967556104 39.4163
28.100332124185126 39.403
28.123283431160893 39.4526
28.146235889577238 39.3053
28.169368830154156 39.12
28.192323603752033 39.0138
28.215279532083304 38.7679
28.238415973016764 38.4671
28.261374223145094 38.3871
28.284333631303806 38.0782
28.307294198589954 38.0427
28.330435319167677 37.6158
28.353398217078915 37.4165
28.376362277420153 37.3301
28.39932750129032 37.1298
28.422473319286713 36.8988
28.44544088262495 36.9113
28.468409612800283 36.7402
28.491379510913497 36.5456
28.51453004413313 36.4147
28.53750229057244 36.4398
28.56047570826344 36.3255
28.583450298308804 36.351
28.606605564586562 36.1325
28.629582511831156 36.2701
28.65256063474956 36.1908
28.675539934446338 36.1465
28.698699951647605 36.1848
28.72168161743193 36.0172
28.74466446331978 35.9293
28.767648490417624 35.8911
28.790813276438353 35.9488
28.813799678527303 35.8869
28.836787265157085 35.9295
28.859955641890075 35.978
28.882945610203045 35.9116
28.905936766392035 35.6442
28.928929111566863 35.8804
28.952102288520145 35.8092
28.975097024308607 35.7276
28.998092952423807 35.6384
29.021090073977508 35.5886
29.04426806913204 35.3399
29.067267590245258 35.0981
29.090268308143695 35.1664
29.11327022394099 35.1459
29.13645305530891 34.8841
29.159457379627167 34.9272
29.18246290519685 34.8306
29.20546963313352 34.7596
29.22865731875826 34.6754
29.25166646419296 34.7865
29.27467681535305 34.5876
29.29768837335608 34.7618
29.320880931312562 34.7632
29.34389491580634 34.6655
29.366910110507334 34.7031
29.38992651653503 34.7574
29.41312396492981 34.661
29.436142806456754 34.6837
29.45916286268059 34.6248
29.48236399319994 34.3864
29.50538649169417 34.1543
29.528410208259935 34.1955
29.55143514402014 34.0167
29.574641196749695 33.9695
29.597668583816574 33.7271
29.6206971934585 33.6688
29.64372702680042 33.6868
29.666938019934474 33.5882
29.689970313635285 33.4379
29.713003834422636 33.5144
29.73603858342347 33.35
29.759254535188578 33.2889
29.78229175361658 33.2541
29.80533020365064 33.3095
29.82836988641968 33.3286
29.85159081507472 33.2344
29.874632976355343 33.2281
29.89767637376955 33.2701
29.920721008448314 33.0721
29.9439469322847 33.0752
29.96699405457564 33.014
29.9900424175358 32.9672
30.013092022298157 32.9455
30.03632295963995 32.8766
30.059375061131373 32.9593
30.08242840783577 32.9149
30.105483000888153 32.9417
30.128718970092244 32.8403
30.151776069006917 32.8378
30.17483441768648 32.8492
30.198074175317235 32.8982
30.221135036724256 32.7415
30.24419715131772 32.7057
30.267260520236203 32.6338
30.290505341942243 32.7768
30.313571232750228 32.7667
30.336638381310948 32.694
30.35970678876503 32.6634
30.38295669299435 32.6148
30.40602763151657 32.5155
30.429099832366074 32.5246
30.452173296685572 32.435
30.47542830191959 32.4817
30.498504306502497 32.4037
30.521581577995562 32.4322
30.544660117543582 32.5949
30.56792024229725 32.4688
30.59100133132069 32.5568
30.614083691845494 32.546
30.637167325018545 32.5361
30.660432587840603 32.6561
30.683518779717886 32.5979
30.70660624769615 32.6698
30.729694992924372 32.6725
30.75296541239743 32.7707
30.77605672557558 32.5976
30.799149319462742 32.5923
30.8224236211637 32.4805
30.845518789950724 32.3585
30.868615242910597 32.2975
30.891712981195973 31.9927
30.91499247215866 32.0195
30.938092794619365 31.9465
30.96119440587579 31.991999999999997
30.984297307082752 31.8264
31.00758200598383 31.7618
31.030687500658694 31.7144
31.053794288760695 31.6303
31.076902371446767 31.531
31.100192296997445 31.5251
31.12330298246119 31.5273
31.14641496599209 31.3337
31.169528248749216 31.3961
31.19282341969534 31.3375
31.215939314557186 31.3472
31.239056512134788 31.4255
31.262175013589378 31.3523
31.28547544871168 31.1507
31.30859657161541 31.0877
31.331719001892175 31.1731
31.35484274070538 31.3517
31.378148458819545 31.3557
31.401274828443725 31.1349
31.424402510106933 31.1859
31.447712205419993 31.3625
31.470842524931633 31.1948
31.493974159989783 31.2063
31.51710711176168 31.2094
31.54042212308802 31.1699
31.563557722100917 31.2547
31.586694641341655 31.0083
31.609832881979628 30.9389
31.63315322823208 30.8979
31.656294125521327 30.8036
31.679436347728515 30.7015
31.70257989602529 30.5341
31.725905596152327 30.6291
31.74905181052835 30.5373
31.772199354521323 30.5562
31.79534822930507 30.6012
31.818679302290967 30.504
31.84183085259981 30.5809
31.864983737233473 30.6474
31.88813795736804 30.5654
31.911474422233013 30.4133
31.934631327356435 30.4711
31.9577895715215 30.4133
31.980949155906522 30.4198
32.004291031706956 30.4529
32.027453310562606 30.3156
32.05061693318573 30.2947
32.07396288236386 30.2105
32.09712920658542 30.0205
32.12029687812702 30.0242
32.14346589817093 29.9991
32.166817291729984 29.9775
32.18998902288583 29.8423
32.21316210610336 29.7719
32.23633654256711 29.6941
32.259693399663725 29.7012
32.282870556771144 29.549
32.30604907069099 29.5442
32.329228942610065 29.4732
32.35259128243769 29.3107
32.375773884550505 29.1981
32.398957848235646 29.2954
32.422143174682176 29.188000000000002
32.445511016471215 29.1907
32.468699082679954 29.2202
32.49188851523011 29.1653
32.51507931531304 29.0424
32.538452678331 29.0463
32.56164622776311 28.9441
32.58484114831493 28.875999999999998
32.60803744118015 28.9295
32.631416344731896 28.9351
32.654615396551876 28.866999999999997
32.67781582427913 28.8315
32.701198898634416 28.7639
32.72440209253756 28.7185
32.747606665947124 28.6193
32.77081262006088 28.449
32.79420126883317 28.4902
32.81740999876112 28.5086
32.840620112999424 28.4709
32.86383161274818 28.3719
32.88722585534586 28.4218
32.91044014056596 28.4599
32.933655814909734 28.3107
32.95687287957963 28.3457
32.98027273544904 28.2807
33.00349259526636 28.2068
33.026713849030116 28.2281
33.04993649794511 28.1066
33.073341986570746 28.2324
33.09656744032826 28.1642
33.11979429286444 28.245
33.14302254538647 28.1386
33.166433686291185 28.129
33.18966475336992 27.9485
33.212897224069096 27.9254
33.23613109959831 28.0509
33.259547912343415 27.8904
33.2827846121627 27.8608
33.306022720453775 27.7736
33.32926223842861 27.8275
33.352684742614166 27.7856
33.37592709463173 27.7435
33.399170859982064 27.6082
33.422597648419426 27.6308
33.44584425514446 27.509
33.46909227885668 27.4861
33.4923417207723 27.3646
33.51577423505344 27.3127
33.539026528130385 27.2532
33.56228024307245 27.2678
33.585535381098246 27.1041
33.60897364093058 27.1693
33.63223163992385 27.0594
33.6554910656699 26.9859
33.678751919389796 27.0842
33.702195944520106 26.9875
33.72545966903325 26.9294
33.74872482519663 26.7948
33.771991414233746 26.9186
33.79544122444841 26.7621
33.81871069412428 26.6964
33.84198160035767 26.7655
33.86525394437455 26.6371
33.88870955949969 26.6065
33.911984794020626 26.6371
33.93526147001624 26.6299
33.958539588715006 26.589000000000002
33.98200102861669 26.5039
34.0052820477047 26.3687
34.02856451319451 26.4193
34.05203033759056 26.288
34.07531571090147 26.3539
34.09860253431845 26.3683
34.121890809074316 26.2242
34.145362493118924 26.1845
34.16865368561615 26.1145
34.191946333164054 26.0689
34.21524043699793 26.1551
34.23871800066799 26.0615
34.26201503218366 25.9445
34.28531352370466 26.0313
34.30861347646881 25.9019
34.33209693978188 25.9143
34.3553998301885 25.8335
34.378704185565205 25.759
34.402010007152356 25.66
34.42549939016683 25.6672
34.44880815937748 25.6011
34.472118398533134 25.5518
34.49543010887669 25.5955
34.51892543169198 25.4559
34.54224009966052 25.5157
34.56555624255917 25.487
34.58887386163339 25.3466
34.61237514439016 25.3881
34.6356957311114 25.2495
34.65901779775809 25.2629
34.68252356662995 25.2441
34.705848608458616 25.1277
34.72917513396849 25.2388
34.75250314440949 25.1501
34.77601490857862 25.03
34.799345904259795 25.0213
34.82267838863559 25.0655
34.846012362958525 25.046999999999997
34.869530142679984 25.0418
34.89286711232212 24.9792
34.91620557568269 24.976
34.93954553401677 24.8552
34.9630693495876 24.7222
34.986412313340814 24.8385
35.00975677584668 24.8558
35.033102738362956 24.7868
35.05663261012228 24.6693
35.0799815881786 24.6921
35.10333207003229 24.6245
35.12668405694369 24.6235
35.150220005273056 24.5465
35.17357501786656 24.496
35.19693153931268 24.491999999999997
35.220289570874385 24.4117
35.24383161619786 24.5201
35.267192683604904 24.4924
35.290555264930376 24.4211
35.314101899412165 24.4444
35.33746752422433 24.3619
35.36083466676374 24.2769
35.38420332829803 24.2853
35.407756095629054 24.3148
35.43112781085063 24.3059
35.45450104888391 24.32
35.477875810999194 24.2522
35.50143473172161 24.1867
35.52481255774625 24.2048
35.54819191167777 24.1663
35.57157279478914 24.1099
35.595137889488406 24.0698
35.61852184675279 23.9921
35.641907337029984 24.011999999999997
35.665294361595684 24.0
35.68886565090076 23.8507
35.7122557598848 23.8298
35.73564740699838 23.8017
35.759040593519934 23.7801
35.78261809810353 23.7094
35.80601437933051 23.6512
35.829412203814705 23.6833
35.85281157283719 23.5673
35.876395313415884 23.5813
35.8997977874528 23.4476
35.92320180988546 23.4827
35.946790244133936 23.4745
35.97019737933222 23.4881
35.993606066789866 23.4197
36.01701630779276 23.3411
36.04061101440684 23.3387
36.06402437852291 23.3141
36.08743930005611 23.3341
36.1108557802951 23.1792
36.13445678011326 23.1433
36.15787639383515 23.1036
36.18129757014299 23.1096
36.20472031032821 23.0962
36.22832762423364 23.0219
36.25175350829375 22.9683
36.275180960119776 22.9438
36.298609981005924 22.97
36.32222362992669 23.0052
36.34565580510207 22.861
36.36908955323448 22.8328
36.39252487562093 22.7221
36.416144880530226 22.7045
36.43958336764275 22.6869
36.463023432914625 22.7353
36.486465077645676 22.6674
36.51009145956204 22.7825
36.53353627947859 22.6835
36.55698268276811 22.627
36.58043067073321 22.6438
36.60406345072071 22.4725
36.62751462435344 22.4647
36.65096738658405 22.5025
36.67460498210655 22.46
36.69806093788647 22.4161
36.72151848619297 22.3309
36.744977628333636 22.3171
36.76862165890998 22.2242
36.79208400512205 22.2259
36.81554794910557 22.2157
36.83901349217101 22.1911
36.862663978991606 22.1276
36.88613273667352 22.0556
36.90960309738324 22.037
36.933075062434064 22.0509
36.95673202673572 22.026
36.98020721697122 21.9226
37.003684015502365 21.9228
37.027162423645365 21.8775
37.050825886711465 21.9025
37.07430753063053 21.8617
37.09779078812467 21.746
37.121275660513014 21.7477
37.144945643673694 21.7258
37.16843376245278 21.7226
37.19192350009803 21.704
37.215414857931435 21.6794
37.239091382563885 21.5733
37.262585997426164 21.5291
37.28608223645736 21.5382
37.309763684451696 21.4851
37.33326318851098 21.4368
37.356764320726555 21.3639
37.380267082425526 21.4693
37.40395510942588 21.3577
37.42746114683234 21.3398
37.45096881771841 21.2971
37.474478123414166 21.2342
37.49817275092816 21.1705
37.52168534303452 21.2076
37.54519957395567 21.0989
37.568715445024665 21.159000000000002
37.592416694607714 21.0607
37.61593586281424 21.1077
37.63945667518264 21.0852
37.66297913304891 20.9753
37.68668702630454 20.9677
37.710212792059274 20.8622
37.733740207334854 20.928
37.757269273470364 20.8118
37.780983832050374 20.7212
37.80451621684926 20.7534
37.82805025654007 20.7761
37.851585952464795 20.7343
37.8753071980695 20.7573
37.89884622345676 20.6642
37.92238690911902 20.6839
37.94611318753442 20.5177
37.969657210779765 20.5427
37.99320289834801 20.5312
38.016750251586465 20.4362
38.04048325513017 20.4538
38.06403395679343 20.3881
38.087586328183946 20.343
38.11114037065203 20.4697
38.13488012115898 20.3966
38.1584375229181 20.233
38.181996599821 20.2319
38.205557353221124 20.2131
38.229303872575656 20.1639
38.2528679961576 20.1803
38.27643380031219 20.1534
38.30000128639589 20.0625
38.32375459653193 20.0483
38.34732546371299 20.0469
38.37089801690786 19.9625
38.39447225747609 19.9027
38.418232380377425 19.8564
38.441810012983396 19.8581
38.46538933705673 19.8697
38.488970353960084 19.8504
38.51273731166058 19.7973
38.536321731567014 19.7808
38.55990784840681 19.7991
38.58367995004091 19.738
38.60726947812959 19.6849
38.63086070726198 19.6703
38.654453638806274 19.6655
38.678232613930824 19.524
38.70182896773327 19.5129
38.72542702806741 19.5746
38.7490267963045 19.514
38.77281266709232 19.4653
38.79641586862214 19.4881
38.8200207821842 19.395
38.843627409152944 19.4629
38.86742019782782 19.3595
38.891030269149255 19.3065
38.914642058016156 19.2473
38.938255565806124 19.2032
38.96205529464307 19.2538
38.98567225787121 19.1855
39.00929094417078 19.2094
39.03291135492255 19.1467
39.05671804624804 19.1349
39.080341923549106 19.0845
39.103967529460334 19.0166
39.127594865365744 18.9797
39.15140854155791 19.0239
39.17503935514948 18.9906
39.19867190290282 18.9522
39.22249083587951 18.9117
39.24612686969409 18.9194
39.269764641845306 18.8202
39.293404153722804 18.7966
39.317230110864074 18.7649
39.34087311998506 18.732
39.36451787301696 18.6895
39.388164371352595 18.7004
39.41199737518003 18.622
39.43564738196752 18.6434
39.45929913825317 18.6544
39.48295264543308 18.5711
39.506792718520884 18.5114
39.530449745387216 18.5468
39.55410852735203 18.4762
39.57776906581474 18.4663
39.60161623079 18.4589
39.625280300200025 18.4273
39.64894613032202 18.3742
39.67261372255866 18.3646
39.6964680021016 18.3598
39.72013913657293 18.3126
39.74381203738292 18.2176
39.76748670593756 18.2212
39.79134812278169 18.2065
39.81502634488497 18.2294
39.83870633896685 18.164
39.862388106436654 18.0726
39.88625668336918 18.0857
39.90994201572829 18.0319
39.933629125719285 17.9736
39.957503091207826 17.9315
39.9811937746168 17.9774
40.00488623990914 17.9507
40.02858048850006 17.8532
40.05246165409549 17.8508
40.076159487492085 17.8421
40.099859108448875 17.8512
40.123560518384345 17.8266
40.1474489070226 17.7608
40.171153913178564 17.7071
40.194860712584955 17.706
40.2185693066637 17.7267
40.242464941335314 17.6351
40.26617714307655 17.613
40.289891143772046 17.5802
40.3136069448471 17.5457
40.33750984859743 17.5582
40.3612292688043 17.5327
40.3849504936829 17.4979
40.40867352466194 17.4828
40.43258372059144 17.3977
40.45631038219906 17.4132
40.48003885420956 17.3603
40.503769138055105 17.3252
40.52768664931955 17.2774
40.55142057531802 17.3088
40.57515631746428 17.2326
40.599079334038514 17.1896
40.62281872700477 17.1724
40.64655994043941 17.1609
40.67030297578061 17.1163
40.69423334835778 17.0865
40.71798004609188 17.1023
40.74172857006355 17.0506
40.76547892171441 17.0574
40.7894166736039 16.982
40.813170699248566 17.0098
40.83692655691388 16.9754
40.86068424804498 16.9438
40.884629402612525 16.9079
40.908390779366385 16.9434
40.932153993938 16.8622
40.95591904777605 16.8272
40.979871628443995 16.8063
41.003640379561936 16.7809
41.02741097430883 16.7882
41.05118341413683 16.765
41.075143444384416 16.7383
41.098919593177826 16.6775
41.1226975914255 16.6792
41.14647744058318 16.5782
41.170444943946755 16.6059
41.19422851378379 16.5536
41.218013938914645 16.5195
41.24198706625173 16.4641
41.26577622087193 16.5126
41.289567235177785 16.4569
41.31336011063129 16.4473
41.337340752422875 16.4077
41.361137369129835 16.3676
41.38493585138705 16.3507
41.40873620066004 16.2756
41.43272438060107 16.2596
41.45652848292052 16.2827
41.48033445666918 16.2214
41.50414230331616 16.2369
41.528138045159764 16.2136
41.551949656675205 16.1537
41.575763145513235 16.0971
41.59957851314666 16.0306
41.62358184070442 16.0758
41.64740098505737 15.9793
41.6712220126409 16.012999999999998
41.69504492493139 15.9923
41.71905586207357 15.9321
41.74288256296395 15.9743
41.766711153007456 15.9227
41.79054163368412 15.888
41.814560204340054 15.8503
41.838394485526365 15.8249
41.86223066180303 15.7717
41.88625497706819 15.8015
41.910094962812 15.8162
41.93393684811168 15.7262
41.95778063445365 15.6193
41.981812625263366 15.6373
42.00566023303407 15.6666
42.029509746323676 15.574000000000002
42.05336116662236 15.572000000000001
42.077400857069705 15.5155
42.10125611078846 15.4945
42.12511327600405 15.4964
42.14897235421036 15.5123
42.173019768448455 15.4686
42.19688269209613 15.4024
42.22074753323349 15.4087
42.24461429335818 15.3892
42.268669455600495 15.4139
42.292540073217886 15.3463
42.31641261433284 15.3435
42.34028708044675 15.2834
42.36435001496739 15.2743
42.38822835065557 15.1984
42.41210861586426 15.1803
42.4359908120986 15.251
42.46006154323262 15.1189
42.48394762115317 15.1405
42.507835634632315 15.1276
42.531912233047436 15.0646
42.55580413732265 15.0314
42.579697981698 15.0644
42.60359376768525 15.0233
42.62767820545945 14.9891
42.65157789440821 14.9246
42.67547952952185 14.9377
42.699383112316 14.9158
42.72347541395347 14.8639
42.74738291190531 14.8315
42.771292362102166 14.7918
42.795203766063516 14.8129
42.819303956130405 14.7672
42.843219287476536 14.745999999999999
42.86713657716324 14.7048
42.89105582671383 14.6786
42.91516392983864 14.6679
42.939087119032166 14.6068
42.963012272677304 14.5801
42.98693939230129 14.588
43.01105543317513 14.5568
43.034986504731386 14.5818
43.05891954686589 14.4823
43.08285456110972 14.5248
43.10697856448665 14.5041
43.130917542983475 14.4548
43.15485849820081 14.4205
43.17880143167367 14.4136
43.20293342237094 14.3767
43.226880332449 14.3409
43.25082922540554 14.3002
43.27496722682525 14.3186
43.29892010567796 14.2827
43.32287497204102 14.2961
43.34683182745632 14.184000000000001
43.370977859791836 14.2092
43.39493871351105 14.1584
43.41890156092628 14.1518
43.44286640358341 14.1184
43.46702049182749 14.0879
43.49098934522816 14.0485
43.51496019852649 14.0505
43.5389330532723 14.0208
43.56309522248204 13.9808
43.58707210044314 13.9958
43.61105098451946 13.9273
43.63503187626491 13.9523
43.659202151562134 13.9154
43.68318707902681 13.9151
43.70717401884041 13.8795
43.731162972560874 13.833
43.75534137913236 13.7809
43.779334381108384 13.7278
43.803329401683186 13.7897
43.82732644241872 13.7516
43.8515130055166 13.7811
43.87551410707659 13.7072
43.89951723350145 13.695
43.923709934595614 13.5952
43.94771713129917 13.6012
43.97172635758096 13.6121
43.99573761501002 13.5832
44.0199385169922 13.5254
44.04395385732619 13.5259
44.067971233533086 13.5323
44.09199064718605 13.4911
44.11619977548961 13.4185
44.14022328470671 13.3927
44.16424883610785 13.445
44.18827643127035 13.4229
44.21249381139513 13.4093
44.236525514814076 13.3362
44.26055926674478 13.3212
44.28459506876863 13.3319
44.3088207262813 13.2644
44.33286064928722 13.2547
44.35690262714919 13.2189
44.38094666145278 13.1844
44.4051806219871 13.1724
44.42922879003185 13.1204
44.45327901929361 13.0872
44.477331311362136 13.0952
44.501573600619416 13.0789
44.525630039221795 13.0438
44.54968854541895 13.0624
44.573937102200176 13.0021
44.5979997645541 12.9682
44.622064499300315 12.9518
44.64613130803592 12.9926
44.67038823869318 12.9816
44.69445921643748 12.8859
44.718532272981385 12.8268
44.742607409926194 12.8752
44.76687274034801 12.7971
44.79095205918753 12.7931
44.81503346325094 12.7898
44.839116954143876 12.782
44.86339071028742 12.752
44.88747839599524 12.7103
44.91156817336837 12.6788
44.93566004401666 12.6837
44.959942251908146 12.6488
44.984038330325966 12.6278
45.00813650686762 12.6193
45.03223678314731 12.5922
45.05652746888232 12.5631
45.08063196592069 12.5422
45.104738567558705 12.4808
45.128847275414856 12.4864
45.15314646515866 12.4234
45.17725940679741 12.4627
45.20137445952892 12.383
45.22568004865265 12.3885
45.24979934496396 12.3485
45.27392075725247 12.3733
45.29804428714431 12.3562
45.322358426247604 12.311
45.346486212804315 12.2676
45.370616121861914 12.3032
45.39474815505086 12.2807
45.41907087049246 12.2341
45.4432071734666 12.2029
45.46734560548283 12.1913
45.49148616817604 12.222999999999999
45.51581748638564 12.1598
45.5399623320197 12.1355
45.56410931325473 12.1032
45.58825843173002 12.1032
45.61259837920865 12.0707
45.636751793816 12.0577
45.66090735060093 12.0101
45.68506505120716 11.9742
45.7094136545275 11.9516
45.73357566449271 11.9188
45.75773982322992 11.9467
45.78190613238733 11.9239
45.806263418194064 11.8969
45.83043404997326 11.8752
45.85460683713677 11.8586
45.87897065658495 11.7988
45.90314777634752 11.7941
45.92732705646868 11.8028
45.9515084986045 11.7744
45.97588104735473 11.7484
46.00006683541565 11.7027
46.02425479047904 11.6961
46.04844491420549 11.6654
46.0728262191024 11.6835
46.09702070211635 11.6782
46.12121735879483 11.6365
46.14541619080294 11.5815
46.169806278764455 11.6193
46.194009483459034 11.5993
46.21821486849841 11.5358
46.24242243555223 11.5084
46.266821333570014 11.4947
46.29103328674601 11.4787
46.31524742696538 11.4632
46.33946375590237 11.4321
46.36387149104216 11.3977
46.38809221957392 11.3658
46.41231514186606 11.3382
46.436540259597464 11.3198
46.460956858999374 11.2876
46.48518638983522 11.2812
46.509418121166966 11.2746
46.533652054678114 11.2879
46.55807754555709 11.2711
46.58231590571962 11.2563
46.60655647313217 11.1949
46.630988654873654 11.1852
46.655233659129024 11.1498
46.67948087571551 11.1641
46.70373030632484 11.1343
46.72817142736393 11.0815
46.752425308428684 11.0685
46.77668140861147 11.0508
46.80093972960865 11.0352
46.82538981736788 11.0327
46.849652602470904 10.977
46.87391761349769 10.977
46.8981848521493 10.9406
46.9226439341274 10.8892
46.946915650573224 10.9334
46.97118959976749 10.8808
46.99546578341598 10.864
47.019933887188216 10.8409
47.04421456235744 10.849
47.06849747711879 10.7907
47.09278263318286 10.7711
47.11725978640143 10.752
47.14154944775105 10.7795
47.165841355555656 10.7256
47.1901355115306 10.6941
47.214621741924994 10.7023
47.23892041698887 10.6736
47.26322134538975 10.6456
47.28771440635075 10.6141
47.31201986422527 10.6332
47.33632758061436 10.5677
47.360637557241866 10.5554
47.38513974410611 10.5414
47.40945426407847 10.4929
47.43377104948137 10.5501
47.45809010204344 10.5148
47.48260144275502 10.4557
47.506925052572285 10.4306
47.53125093475548 10.3954
47.55557909103813 10.3994
47.58009961361992 10.3943
47.60443234110732 10.4043
47.62876734791564 10.3991
47.65310463578333 10.3878
47.6776343683373 10.332
47.7019762413987 10.2981
47.72632040075572 10.2788
47.75066684815169 10.2697
47.77520581885936 10.2504
47.799556865477655 10.2407
47.823910205386 10.2313
47.84826584033272 10.1569
47.87281407745551 10.1728
47.89717432569297 10.175
47.92153687423484 10.1682
47.94609208429692 10.1205
47.97045925671401 10.0858
47.99482873471275 10.0644
48.01920052005013 10.0557
48.04376504619224 10.0243
48.068141469543484 10.0479
48.09252020552573 9.97666
48.11690125590099 10.0181
48.1414751266064 9.97541
48.16586082917454 9.97218
48.19024885144316 9.941
48.2146391951793 9.96465
48.239222439012764 9.909239999999999
48.26361744916137 9.853069999999999
48.28801478610016 9.89134
48.31241445160131 9.88288
48.337007097209366 9.86713
48.36141144338331 9.842989999999999
48.38581812345755 9.79912
48.41022713920929 9.79322
48.434829215320704 9.77122
48.45924292604658 9.74718
48.48365897780325 9.7554
48.50807737237308 9.69445
48.532688907799276 9.661610000000001
48.55711201168574 9.67426
48.581537463754074 9.66584
48.60615611725119 9.65928
48.63058628942721 9.61744
48.65501881516546 9.58605
48.6794536962573 9.6037
48.70408185970339 9.589160000000001
48.72852147531801 9.52662
48.75296345168211 9.51233
48.77740779059232 9.535960000000001
48.80204549302823 9.53232
48.82649458091802 9.52165
48.85094603676547 9.46499
48.87539986237231 9.48705
48.90004713292306 9.42554
48.92450572200832 9.458
48.94896668628025 9.427589999999999
48.97343002754588 9.3401
48.99808689542115 9.352780000000001
49.02255501470614 9.361239999999999
49.04702551642794 9.345369999999999
49.0714984023988 9.29047
49.096164896893235 9.32662
49.120642575466796 9.26832
49.145122643748394 9.2439
49.16960510355558 9.23374
49.19428125404938 9.231119999999999
49.2187685210852 9.21239
49.243258185121555 9.21543
49.26794160167084 9.211260000000001
49.2924360839405 9.148430000000001
49.31693296869764 9.10122
49.34143225776915 9.03634
49.36612538195438 9.06911
49.39062950396021 9.0969
49.41513603578346 9.076210000000001
49.4396449792564 9.06063
49.46434784069503 9.02477
49.488861631846454 8.995
49.513377840166804 8.98829
49.537896467493745 8.9538
49.56260909589029 8.95085
49.587132585683285 8.95677
49.611658500018365 8.92855
49.636186840738596 8.92035
49.66090926588511 8.93593
49.685442483902584 8.85778
49.70997813385706 8.83469
49.734516217597076 8.82855
49.75924846937352 8.79047
49.7837914452858 8.80673
49.80833686055187 8.80539
49.83288471702571 8.76645
49.85762682540054 8.794369999999999
49.882179588965734 8.7478
49.9067347993235 8.70988
49.93129245833333 8.72055
49.95604445336378 8.68332
49.98060703442832 8.669139999999999
50.005172069746266 8.68218
50.02993150438364 8.64981
50.05450147301533 8.66735
50.07907390151433 8.62134
50.10364879174981 8.56034
50.12841816587289 8.54641
50.1529980044635 8.55588
50.17758031042124 8.51895
50.20216508562089 8.54814
50.22694442953363 8.481
50.25153416817468 8.489889999999999
50.27612638170508 8.47514
50.300721072005196 8.43949
50.325510416102105 8.42499
50.350110084975064 8.413089999999999
50.37471223628208 8.425139999999999
50.39931687190919 8.39829
50.424116246675766 8.37613
50.44872587605249 8.38658
50.47333799543065 8.37607
50.49795260670191 8.34393
50.52276204271512 8.32733
50.54738166295838 8.2948
50.57200378079314 8.29901
50.596628398116835 8.22107
50.62144792604559 8.24222
50.646077567609396 8.251439999999999
50.670709714377715 8.23397
50.69553683636198 8.20805
50.72017401885922 8.186910000000001
50.7448137122895 8.201369999999999
50.76945591856022 8.158339999999999
50.79429318636823 8.132480000000001
50.818940443716784 8.126669999999999
50.84359021965163 8.10543
50.868242516085964 8.08136
50.893089960641895 8.06602
50.917747323549435 8.028080000000001
50.94240721271973 8.04696
50.96706963007175 8.03166
50.99192728239342 8.012260000000001
51.01659478166073 8.03378
51.04126481489051 7.99035
51.06593738400761 7.99096
51.090805275207074 7.9626
51.11548294172845 7.93611
51.14016314993547 7.896380000000001
51.164845901758845 7.89566
51.18972406304274 7.8621300000000005
51.21441192780656 7.83157
51.23910234200271 7.849
51.2637953075678 7.840560000000001
51.288683770237945 7.82625
51.31338186432707 7.81338
51.33808251561888 7.77826
51.362978729967345 7.7506699999999995
51.387684521509755 7.74873
51.41239287610203 7.70568
51.437103795691165 7.72651
51.46201036644977 7.72128
51.486726441956634 7.68602
51.51144508832545 7.7057199999999995
51.536166307509156 7.657019999999999
51.56108326624387 7.64693
51.58580965706056 7.66818
51.61053862657523 7.5975
51.635270176746864 7.61295
51.66019755512065 7.5834399999999995
51.68493429268881 7.56389
51.70967361681515 7.57275
51.73441552946465 7.5495
51.759353359237934 7.533119999999999
51.7841004750961 7.462969999999999
51.80885018539685 7.481510000000001
51.833602492111254 7.5068399999999995
51.8585508051424 7.4809399999999995
51.883308330926425 7.439030000000001
51.90806845906181 7.41213
51.932831191525715 7.41622
51.95779001977161 7.3718
51.98255798721516 7.35054
52.00732856494335 7.33045
52.03229530577543 7.3618
52.057071130455945 7.33707
52.081849571391054 7.308210000000001
52.106630630568695 7.305160000000001
52.13160794279417 7.279139999999999
52.15639426492067 7.309130000000001
52.18118321127822 7.28608
52.205974783860896 7.23145
52.23096269971011 7.24091
52.255759551287994 7.2293899999999995
52.280559035098186 7.18544
52.30536115314103 7.172689999999999
52.33035970494467 7.1824699999999995
52.35516711807904 7.1487
52.37997717147198 7.161060000000001
52.40478986713005 7.109560000000001
52.42979908731974 7.09697
52.454617094216 7.0912
52.47943774942214 7.08829
52.50426105495102 7.07653
52.529280976059844 7.0688
52.554109609024096 7.01385
52.57894089837482 7.0357
52.60377484613117 7.02918
52.62880550079408 6.99118
52.65364479223379 6.963310000000001
52.67848674816189 6.929639999999999
52.70352547971946 6.933210000000001
52.72837279155837 6.94712
52.753222773982785 6.92997
52.778075429022984 6.91748
52.80312495150885 6.91228
52.827982978797436 6.89642
52.85284368481815 6.851319999999999
52.87770707160767 6.829510000000001
52.90276741793998 6.838489999999999
52.92763619336701 6.8492
52.952507655698504 6.818569999999999
52.977381806977576 6.7986
53.00245301017842 6.810569999999999
53.02733256653592 6.783689999999999
53.052214817996074 6.754410000000001
53.077099766608484 6.72105
53.102181859804446 6.694439999999999
53.127072229988265 6.70953
53.15196530349892 6.68032
53.17686108239249 6.64823
53.20195409881522 6.686210000000001
53.22685531582556 6.688219999999999
53.25175924441303 6.615880000000001
53.27666588664027 6.584169999999999
53.30176985962693 6.58657
53.3266819565689 6.61764
53.35159677336455 6.5735600000000005
53.376514312083096 6.54779
53.40162927507703 6.5563199999999995
53.42655228516116 6.54954
53.45147802340193 6.51963
53.47660125628886 6.50079
53.50153247842639 6.48524
53.52646643496923 6.485130000000001
53.55140312799818 6.44324
53.576537409691696 6.46876
53.60147960336152 6.43763
53.626424539786164 6.402769999999999
53.65137222105307 6.40189
53.67651758529126 6.40522
53.70147078399681 6.3627400000000005
53.72642673383343 6.34678
53.75138543689533 6.38205
53.776541917524526 6.3228800000000005
53.801506154876755 6.32466
53.826473151763246 6.31724
53.851442910284916 6.26728
53.87661054126026 6.30895
53.9015858509782 6.28207
53.92656392866066 6.25849
53.95154477641532 6.24033
53.976723591801296 6.204680000000001
54.00171000771266 6.20124
54.02669920004598 6.19128
54.051691170915745 6.17649
54.076881204886796 6.15572
54.101878760928514 6.13548
54.12687910187696 6.1353599999999995
54.152077577768296 6.13025
54.1770835166946 6.13556
54.20209224691339 6.11178
54.22710377055121 6.08429
54.25231352511594 6.04554
54.27733066384342 5.995430000000001
54.30235060239643 6.0606599999999995
54.32737334290836 6.01368
54.35259441062629 5.9529
54.377622783395324 5.94206
54.40265396455061 5.99219
54.42768795623251 5.9568
54.45292037169559 5.94117
54.477960012857906 5.95761
54.50300247099511 5.93122
54.52804774825457 5.88469
54.55329154616743 5.8192699999999995
54.57834249018678 5.80849
54.6033962597977 5.82354
54.6284528571545 5.80199
54.653708072335164 5.73114
54.67877035378786 5.76281
54.70383546947698 5.754519999999999
54.72890342156389 5.72631
54.7541700889442 5.66988
54.77924374251975 5.70884
54.8043202390049 5.66136
54.82959552413022 5.66599
54.8546777351945 5.61613
54.87976279569621 5.58518
54.90485070780914 5.60813
54.930137506558005 5.57642
54.95523115074295 5.55762
54.98032765308844 5.520490000000001
55.005427015775496 5.52963
55.03072536339621 5.483569999999999
55.05583047570572 5.455430000000001
55.080938454927676 5.412999999999999
55.10604930325027 5.46304
55.131359235107396 5.46744
55.15647585066083 5.39013
55.181595341907496 5.35998
55.20671771104285 5.35347
55.232039262617704 5.32391
55.25716741665048 5.26382
55.28229845518636 5.28108
55.30743238042802 5.28073
55.33276558731939 5.25667
55.357905315183636 5.24326
55.383047936390035 5.162059999999999
55.40819345314859 5.1588
55.433538351073295 5.15037
55.458689688238415 5.1193800000000005
55.483843927614096 5.09391
55.509197623043605 5.0561300000000005
55.53435769621134 5.01216
55.55952067826466 5.08486
55.5846865714265 5.02269
55.61005202069737 4.98072
55.63522376553902 4.963830000000001
55.66039842818645 4.90989
55.68557601087004 4.90759
55.7109532500271 4.8498
55.73613670233794 4.85257
