TT I
1.2716486653135266 34.4482
1.2939594142134223 35.9208
1.3162702121660406 34.8582
1.3385810600174564 34.1039
1.3608919586137629 33.7419
1.383202908801069 32.6619
1.405513911425503 30.3089
1.4278249673332093 30.8151
1.4501343378461518 30.4721
1.4724455028545926 29.7397
1.4947567236847858 29.0316
1.517068001182951 29.000999999999998
1.5393793361953272 28.5579
1.5616907295681737 27.754
1.5840021821477681 27.0006
1.60631369478041 26.5521
1.6286252683124185 26.651999999999997
1.6509369035901333 27.4976
1.6732468618895553 25.9515
1.695558623192809 25.1335
1.7178704487808514 26.1263
1.7401823395001077 25.6475
1.7625012545597203 24.8993
1.7848028405262486 24.9616
1.8071218901122095 25.054000000000002
1.8294236121921872 24.4143
1.8517427996910911 24.1201
1.8740620574440425 24.7402
1.8963639900671978 24.5379
1.9186833908139995 23.679000000000002
1.9409854680117449 24.1078
1.9633050151394713 23.8891
1.9856246367570705 24.3992
2.0079269371922672 24.5441
2.03024671027244 23.9321
2.0525491637446027 24.0525
2.074869091674931 24.4105
2.097171701569106 25.1444
2.1194917877373847 24.9162
2.141811954326636 25.142
2.164114805233074 25.6827
2.186435135143035 25.9412
2.208738150935709 26.0051
2.231058647554722 25.5415
2.2533792288321184 26.2064
2.275682498336085 26.3969
2.298003251406138 26.5655
2.3203066942619714 25.9873
2.3426276225136022 25.4573
2.3649486396617507 25.3888
2.387252348930071 25.2096
2.4095735463442893 24.866999999999997
2.4318774374315884 25.11
2.4541988185014043 25.6723
2.476502894794693 25.8487
2.498824462909887 25.0973
2.521146125856138 25.0593
2.5434504863470337 26.051
2.5657723414244717 25.891
2.588076895590662 26.6015
2.610398946189713 26.5368
2.6327210958598384 26.9296
2.6550259469304716 27.1624
2.6773482972090137 27.7781
2.6996533504259 29.2945
2.7219759047039602 29.5355
2.744298562293959 30.1484
2.7666039251246595 31.6572
2.7889267918020164 32.9886
2.8112323652516555 34.1781
2.833555444408179 35.8598
2.8558786311183852 37.036
2.8781845268938557 38.6026
2.9005079311721484 41.277
2.9228140460410397 43.5949
2.9451376712799635 46.373000000000005
2.967444008632326 48.5393
2.9897678582247247 52.9236
3.0120918213106695 57.0951
3.0343984987899373 60.872
3.0567226913198637 65.6049
3.079029599759726 70.2535
3.101354025127254 75.6953
3.123678568232338 79.3937
3.145985829517914 82.7384
3.16831061055229 84.2767
3.1906181112775593 83.249
3.212943133635653 81.7824
3.2352682779763207 77.5557
3.2575761442691227 72.6166
3.2799015350264273 66.9289
3.302209649240067 61.5431
3.3245352898092655 55.8055
3.3468436553365257 52.2379
3.369169549113219 47.7365
3.3914955708171384 45.2216
3.413804319727358 42.4031
3.4361305997334863 40.4912
3.4584396084414553 39.4557
3.4807661501462652 38.8687
3.503092824025881 37.8773
3.5254022288463154 37.4391
3.5477291695206588 37.3197
3.5700388426251948 37.8003
3.5923660534916446 38.4024
3.6146934007816114 39.5764
3.637003482731501 39.9252
3.6593311053109985 40.6968
3.681641464033634 40.6487
3.7039693653009733 40.6319
3.726297407241705 40.5824
3.7486081875460804 40.3264
3.7709365132734978 39.8257
3.793247578841633 39.8213
3.8155761917550093 38.9232
3.8378875459837216 38.7268
3.8602164494827234 38.5954
3.882545499606844 38.7742
3.9048572932539183 38.9473
3.9271866390645718 39.6225
3.9494987298666713 40.5394
3.971828374764527 41.1222
3.9941581705403255 41.1178
4.016470713506008 42.4742
4.038800813471445 44.3664
4.061113662089144 45.3492
4.0834440696459176 47.5041
4.105774632334751 49.4532
4.128087945865126 52.0613
4.150418821249301 54.6838
4.172732448931298 58.3826
4.195063640413578 62.7225
4.2173775856475215 67.3484
4.239709096631102 72.0332
4.262040768704612 76.8608
4.284355196706267 80.7144
4.306687193387355 81.9221
4.329001947444346 83.6538
4.35133427213731 82.094
4.373666762177566 78.4349
4.395982011761091 74.0878
4.418314834921175 69.9046
4.44063041906622 67.072
4.4629635787515625 64.7274
4.4852969080429785 62.2443
4.5076130004776225 59.1692
4.529946671403969 57.1344
4.552263106909177 54.4292
4.574597122877047 52.9834
4.596931312711224 51.325
4.619248269273446 50.0828
4.6415828092605835 48.5034
4.663900117405352 48.2977
4.686235010953232 47.8202
4.708552674085913 48.1226
4.730887924602802 48.6987
4.753223354952695 49.4792
4.775541557023902 50.2857
4.797877349456786 51.1818
4.820195915032126 52.6434
4.842532072957498 54.0516
4.864868414979744 56.1253
4.88718753227192 58.0725
4.909524244902505 60.4596
4.931843734218147 63.9971
4.954180820867835 67.6217
4.976518095879839 72.8023
4.998838149695359 78.1671
5.021175803844231 87.2593
5.043496238205739 98.0863
5.065834274903528 109.927
5.088172504230693 121.412
5.1104935158799565 133.085
5.132832132875765 150.84
5.155153533596801 174.045
5.1774925416746225 207.81799999999998
5.199814334878411 264.524
5.2221537374521505 368.38699999999994
5.244493338631803 532.529
5.266815727034316 762.0889999999999
5.289155727832427 1114.07
5.311478517248165 1852.72
5.333818921080011 3027.97
5.356159527788849 4217.33
5.3784829252032536 3883.34
5.400823940070432 2529.23
5.423147747031976 1256.01
5.445489173474152 626.3580000000001
5.467830807066149 384.034
5.490155234831516 278.41
5.512497285125229 217.635
5.534822130975162 182.179
5.557164601388673 158.013
5.579489868738879 138.77100000000002
5.601832762690846 126.25
5.6241758697774475 118.325
5.646501775867269 112.49799999999999
5.668845311622074 108.62899999999999
5.691171647754637 106.25
5.713515615597765 103.10700000000001
5.735859800852677 100.214
5.758186788542988 96.9975
5.780531411018185 96.1982
5.802858837297399 95.2218
5.825203900414495 96.2922
5.8475491852224 97.6238
5.869877275883075 100.51799999999999
5.892223006467101 104.948
5.914551544266608 109.945
5.936897724049891 117.52
5.959244129804903 127.95299999999999
5.981573344815301 143.839
6.0039202049061 167.612
6.026249875609095 206.101
6.04859719346037 261.14599999999996
6.070927323278297 336.10699999999997
6.093275102315365 442.465
6.115623113320588 567.688
6.137953938319995 781.493
6.160302415650845 1111.97
6.182633708324452 1302.97
6.2049826554078376 1175.71
6.227331838745022 806.8439999999999
6.249663839443684 499.58
6.27201349767565 326.71
6.294345974611799 232.535
6.316696111167083 171.067
6.339046488263839 134.041
6.361379686074702 111.137
6.383730546639482 96.3798
6.406064229255215 85.0424
6.428415576718203 78.1135
6.450749747566656 72.6863
6.47310158535871 68.0236
6.495453669698332 64.6949
6.517788579421056 61.8088
6.540141159237969 59.5417
6.562476565766648 57.5111
6.5848296444934045 56.7815
6.607182974060425 55.6207
6.6295191323281015 55.1401
6.651872965955752 54.7571
6.6742096296068985 54.8662
6.6965639707294615 54.8967
6.71891856698715 55.2904
6.741255995248479 55.3748
6.763611104154477 54.8013
6.785949046381137 54.1992
6.808304671371482 53.0652
6.8306605557940046 52.518
6.852999275508618 51.2304
6.875355681171544 50.0508
6.897694923437771 49.1098
6.92005185377892 48.3167
6.9423916220322655 47.1516
6.964749080490181 46.0964
6.987106804399774 45.9762
7.009447368180821 45.9505
7.031805625367033 45.4697
7.054146723727803 45.7069
7.076505517631004 45.5809
7.098864581288365 45.9047
7.121206488070854 46.6018
7.143566093607822 47.2829
7.165908543567245 48.5601
7.188268694426048 50.052
7.2106291193438095 50.9502
7.232972390625943 52.8599
7.255333366030969 55.3337
7.277677189091925 58.2376
7.300038718428332 63.0525
7.322400526130865 66.2918
7.344745183422596 69.5955
7.367107550224791 70.4567
7.389452767901992 69.5571
7.411815697249891 66.3254
7.434161478756298 63.0317
7.456524974096713 59.946000000000005
7.478888753837185 58.0901
7.501235387657368 57.4667
7.523599738562711 59.2813
7.545946944825532 69.2005
7.568311870344528 95.3833
7.5906770845765665 138.125
7.613025156078678 157.843
7.635390950099687 126.148
7.657739602662809 82.9172
7.680105979923558 57.2629
7.702472650212829 47.3758
7.724822180948224 43.1704
7.747189439655568 41.7194
7.769539560075357 40.2475
7.791907410653562 39.68
7.81425812420825 38.6784
7.836626570110925 38.5094
7.858995315087906 38.6057
7.881346924933401 38.2478
7.903716270417482 38.158
7.926068482028405 37.8516
7.948438431475253 38.2308
7.9708086843180235 38.3773
7.993161805171116 38.4292
8.015532667162402 38.5291
8.037886398416653 39.019
8.060257873014221 39.2189
8.082629655331942 39.6363
8.104984308787587 40.014
8.127356708900503 40.4639
8.149711981398308 41.1881
8.172085002766314 41.8895
8.194458336181368 42.5006
8.216814543847752 43.5185
8.23918850371002 44.4558
8.26154533906492 45.1301
8.283919928836452 45.8633
8.306277395339652 46.6442
8.328652618483376 47.7139
8.351028159736202 49.4653
8.373386579575245 51.4525
8.395762759396959 53.294
8.418121819038275 55.8484
8.440498640894003 59.0167
8.462875785192262 63.1152
8.485235811156207 68.2411
8.507613602688501 75.1219
8.529974277114228 85.9584
8.552352719347912 100.12700000000001
8.574731488360351 122.045
8.59709314210385 152.983
8.619472567021075 182.78799999999998
8.64183487789147 209.78099999999998
8.664214962183097 259.579
8.686577933647762 360.655
8.708958680784317 531.896
8.731339760774953 722.677
8.753703729764451 817.319
8.77608547780821 689.0189999999999
8.798450116065078 475.727
8.820832535634787 301.642
8.843215292401656 197.00599999999997
8.865580941199045 142.5
8.887964374703538 113.613
8.910330701447199 96.7792
8.932714815164482 85.2897
8.955099270424924 78.1329
8.977466620733543 73.0561
8.999851761421976 69.3962
9.022219798361645 66.1224
9.04460562795561 64.0728
9.066991803441677 61.9091
9.089360876979615 60.6077
9.111747746589993 59.7078
9.13411751544971 58.7702
9.156505082664324 58.5714
9.178875550323522 59.6559
9.20126381862328 61.8144
9.223652438908596 66.6536
9.246023961427412 80.0943
9.26841328802173 118.1
9.290785518039224 186.158
9.313175554425882 249.83
9.335565947154315 238.21900000000002
9.357939245086508 165.519
9.380330352834827 102.62
9.40270436697103 71.9276
9.425096193225055 60.6527
9.447488380180165 56.4973
9.469863475295412 53.9676
9.492256385987508 52.7756
9.514632206018318 51.8059
9.537025843935714 51.3473
9.559402392368193 51.0005
9.581796761000229 50.9341
9.604191496441521 50.8207
9.626569144158516 51.1104
9.648964615551032 51.6302
9.671343000390081 51.9289
9.693739211225699 52.7242
9.716135793237463 53.5388
9.738515290448102 53.8252
9.760912617143402 54.6424
9.783292860202891 55.3734
9.805690935076182 56.3585
9.828089385495742 57.338
9.850470754023561 58.928000000000004
9.872869957865444 60.6978
9.89525208097539 62.7563
9.917652041736662 65.1121
9.940052382417589 68.1659
9.962435644102392 72.2048
9.984836746950979 77.0071
10.007220771957746 84.4213
10.029622640473708 95.7181
10.052007432299963 113.242
10.074410069984072 133.907
10.096813093716005 158.412
10.119199042482517 177.833
10.141602840636468 198.06799999999998
10.163989564971628 234.324
10.186394141051062 315.931
10.208799107559706 459.276
10.231187001965623 648.33
10.253592751657669 811.456
10.275981430388155 795.625
10.298387966769793 612.524
10.320794897965431 417.29699999999997
10.343184759907361 269.488
10.36559248305461 181.99900000000002
10.387983138083852 136.22
10.410391656691655 111.885
10.432800574501677 96.8201
10.455192425893369 87.3254
10.47760214443012 83.1418
10.499994797678786 82.5389
10.522405320453982 84.2912
10.54479877906917 88.2125
10.567210109595656 90.4992
10.5896218454736 91.9877
10.612016518879773 98.3071
10.634429067781074 113.823
10.656824555333241 145.204
10.679237920773568 198.977
10.701651695961992 263.524
10.724048411481384 299.21
10.746463008485165 279.385
10.768860546937125 224.38299999999998
10.791275969274796 157.468
10.81369180576079 107.10799999999999
10.836090585366925 77.6959
10.858507252467449 62.7584
10.88090686379991 55.8135
10.903324365036394 51.9825
10.925724811614439 49.0995
10.948143150509463 47.5322
10.970561909719066 45.9329
10.992963615930844 44.9877
11.015383218085756 44.0573
11.037785768347074 43.5305
11.06020621697282 42.9787
11.082627090322113 42.5936
11.105030913430326 42.131
11.12745263854165 41.9196
11.149857314510728 41.4695
11.172279894912576 41.8227
11.194702904450653 41.3199
11.217108866490921 41.0455
11.239532736615194 41.02
11.26193956033512 41.0122
11.284364294577085 40.8714
11.306789462371718 40.467
11.329197585398376 40.2407
11.351623622610898 40.1927
11.37403261614354 39.3912
11.396459526308487 39.2321
11.418869393879497 38.9551
11.441297180532617 38.7464
11.463725406927658 38.2283
11.486136592353875 37.8739
11.508565700543707 37.6871
11.530977768845315 37.6271
11.553407762368774 37.4258
11.575838200059769 37.4075
11.598251599479612 37.3238
11.620682927815501 37.0546
11.64309721895548 37.3105
11.665529441478206 37.1578
11.687962112597958 36.9704
11.710377748130886 37.0835
11.732811318753434 36.9255
11.755227854859067 36.7533
11.777662328529495 36.7664
11.800079768750786 36.5809
11.822515149015453 36.7194
11.844950984084935 37.1621
11.867369787303163 37.3215
11.889806534289491 37.8265
11.912226250487029 39.2031
11.934663912939751 41.1008
11.9571020346363 45.1446
11.979523127133968 54.515
12.001962169624331 70.7973
12.024384183972964 86.4527
12.046824150809913 92.6354
12.069264581333726 82.3128
12.091687985297767 65.0925
12.11412934550045 52.8392
12.136553680195208 47.2981
12.158995973632788 46.4026
12.181438735204349 46.4219
12.20386447284199 47.3304
12.226308172985636 48.5352
12.24873485024193 50.6568
12.271179492516982 53.9068
12.293607112949127 60.0371
12.316052700916226 68.7097
12.338498763250042 81.5328
12.360927805303868 93.2118
12.383374818673879 98.7113
12.405804812803074 94.0076
12.428252780773262 81.4111
12.45070122756722 67.9536
12.473132656675375 58.2239
12.49558206341869 51.8913
12.518014453510101 47.7261
12.540464823770117 45.1647
12.562915677315177 43.3988
12.58534951575545 41.9201
12.607801338171472 40.8626
12.630236146511358 40.4438
12.652688941369085 40.1175
12.675124723177234 40.1306
12.697578494048786 40.1965
12.720032754458185 40.2292
12.742470003354093 40.4845
12.764925245138771 40.5208
12.787363476431278 40.368
12.809819703166806 40.1119
12.83227642391173 40.0245
12.854716135692716 39.8397
12.877173846755147 39.887
12.899614549869717 39.5221
12.9220732548287 39.6298
12.94453245827299 39.669000000000004
12.966974655289818 39.8579
12.989434858002571 39.8985
13.011878055298721 40.0352
13.034339260862497 40.6585
13.056800969391883 41.0793
13.079245674017244 42.1086
13.101708390774869 43.0636
13.12415410463411 45.706
13.146617833206086 50.5344
13.169064559883248 55.8325
13.191529303857127 60.2158
13.213994557076367 61.9307
13.236442809902437 61.4773
13.258909083908291 62.9138
13.28135835851934 65.0118
13.30382565690295 67.4664
13.326293469022952 69.8972
13.348744283242008 73.1476
13.371213125129904 79.9153
13.39366497011003 91.1522
13.416134845360597 110.178
13.438605238843131 140.638
13.46105863690397 180.947
13.483530069144786 217.847
13.505984506951902 229.438
13.528456981549432 208.233
13.550929978879088 168.625
13.573385983253365 133.782
13.595860028340867 108.546
13.618317081455832 94.2708
13.64079217790333 86.6042
13.663250283359057 81.9522
13.685726434770173 79.5381
13.708203115221277 80.515
13.730662806148091 85.9579
13.75314054697177 96.5448
13.775601299246777 117.27
13.798080104050406 150.757
13.820559442405358 190.99599999999998
13.843021793671388 215.15
13.865502201420897 208.209
13.887965623051947 173.502
13.910447103807167 130.227
13.932929122629764 96.7944
13.955394156785959 76.4814
13.977877254034569 63.7218
14.000343367582113 56.1203
14.022827546871707 51.6404
14.045294743423524 48.6343
14.06778000837062 46.4178
14.090265817715476 45.3389
14.112734645763819 44.9255
14.13522154619454 45.1095
14.157691466286913 47.0918
14.180179461423874 52.4876
14.202668005486178 63.5408
14.22513957064374 76.6558
14.247629214846473 86.5666
14.270101881097517 85.7157
14.29259262906496 72.5872
14.315083930490205 58.3464
14.337558255389705 48.4976
14.360050666019726 43.2093
14.382526101071944 40.5987
14.405019624534942 39.6923
14.427513705993134 38.7998
14.449990813291825 38.5223
14.47248601302899 38.1366
14.49496423954951 37.7961
14.517460561197822 37.5759
14.539939910570322 37.225
14.562437357763558 37.1271
14.58493536931253 37.1795
14.607416409993311 37.1331
14.62991555254159 37.3177
14.652397725157423 37.2863
14.674898002342799 37.3055
14.697398848433282 37.6095
14.719882725991326 37.9355
14.74238471217934 37.935
14.764869730765593 38.3508
14.787372860692983 38.7048
14.809876564079925 39.1207
14.83236330125751 40.0192
14.854868153850365 40.8479
14.877356041159485 42.2877
14.899862046604186 44.0264
14.922351087688757 46.4035
14.944858249632887 47.8067
14.967365991421232 48.8334
14.989856770231246 49.4116
15.012365673994204 51.1035
15.03485761569738 53.8983
15.05736768508665 58.5225
15.07987833888692 65.8963
15.102372032001655 78.0887
15.124883856909658 94.6375
15.14737872204565 115.476
15.169891721717274 129.314
15.192405310371893 130.467
15.214901940621196 117.69200000000001
15.237416709527137 97.2508
15.259914520936249 78.7771
15.282430473753607 65.2217
15.304947020131227 56.1553
15.327446610371178 49.7477
15.349964346154254 46.1101
15.372465126703139 43.8453
15.394984055556009 42.132
15.417486030076159 41.1156
15.44000615566487 40.3167
15.462526881230803 39.5969
15.485030653812652 39.1054
15.507552581617434 38.7301
15.530057557334603 38.5596
15.55258069104857 38.221
15.575104429329837 38.1641
15.597611216864632 37.9284
15.620136166564563 37.8852
15.6426441664095 37.8335
15.665170331202765 37.9978
15.687697105158826 38.1418
15.710206930593545 38.5582
15.732734925158933 38.9639
15.755245972089478 39.4102
15.77777519094324 40.4874
15.800287463046663 42.0814
15.822817909869592 43.8973
15.84534897229804 45.049
15.867863089299354 46.6189
15.890395385222186 47.3987
15.912910736597423 47.9958
15.935444269699861 49.6294
15.957978423016485 52.7487
15.980495633101265 57.3613
16.003031029129367 64.8128
16.02554948280019 76.8585
16.048086125229432 93.3722
16.070623392487107 111.542
16.09314371869582 126.405
16.11568223789321 130.472
16.13820381691126 122.757
16.160743591742527 107.375
16.183283996022084 90.3404
16.205807461423195 74.4276
16.228349126881973 61.0637
16.25087385432698 51.8752
16.27341678466365 45.9624
16.29594277784926 42.178000000000004
16.31848697676433 39.7754
16.341031811604868 37.8883
16.36355971058487 36.9423
16.3861058195587 36.0966
16.40863499352978 35.1724
16.431182380342005 34.6586
16.453730407713202 34.1665
16.476261501364792 33.9535
16.498810812136167 33.544000000000004
16.52134319004079 33.3694
16.54389378792203 33.0726
16.566445031001553 32.7529
16.588979342490088 32.4958
16.61153187824822 32.2663
16.634067483263312 32.0143
16.656621315414416 31.8092
16.679175797408888 31.7139
16.701713349928728 31.6173
16.72426913389191 31.5467
16.74680798922351 31.4134
16.76936507887444 31.5041
16.791905240734874 31.4465
16.814463639794468 31.2149
16.837022695210294 31.4193
16.859564824093756 31.4645
16.882125194503903 31.6992
16.904668639217885 31.9343
16.927230328348003 32.0609
16.949792678493612 32.7481
16.972338104193863 33.6205
16.994901778652235 35.3631
17.017448529496576 37.4453
17.040013531998152 39.3056
17.06257920018044 39.8245
17.0851279459922 38.5556
17.107694947817667 36.5327
17.130245028099072 34.5396
17.15281336730298 33.5646
17.17536478578733 33.1265
17.19793446610687 32.9774
17.220504818648422 33.2366
17.243058251703697 33.2535
17.265629950971032 33.7256
17.288184731571736 33.9636
17.310757781306908 34.2487
17.33333150794385 34.068000000000005
17.355888317140174 34.2609
17.37846339986244 34.9632
17.401021565958885 35.8336
17.42359800851343 37.2456
17.44617513265564 39.1595
17.468735341390783 42.3633
17.491261035594565 46.038999999999994
17.51396340099364 49.8074
17.536490463869136 52.1838
17.559018209820174 51.7251
17.58154663977963 48.8943
17.604251766089718 44.9338
17.626781572227713 41.1434
17.64931206518155 38.4168
17.671843245885103 36.7854
17.69455114821572 35.5144
17.717083712612634 35.1421
17.739616967569667 34.835
17.762150914021706 34.9955
17.78486160749854 35.0734
17.807396945166804 36.038000000000004
17.829932977143503 37.522
17.85246970436452 39.4512
17.875183204129467 40.9965
17.897721330097664 42.083
17.920260154126645 41.8103
17.942799677153296 40.272
17.9655159983646 38.9166
17.988056927677544 38.7126
18.010598558807683 39.3149
18.033140892692916 40.4752
18.05586005052525 41.2207
18.07840379824407 41.7771
18.10094825154059 42.3577
18.12366954819864 42.8181
18.146215420998306 43.2617
18.16876200220057 44.4874
18.191309292745153 46.6402
18.214033452627167 50.1703
18.236582170236648 54.8748
18.259131600016456 62.7716
18.281681742907335 73.4456
18.304408781233683 87.3839
18.32696035875955 98.9714
18.349512652227624 104.805
18.372065662579683 102.412
18.394795594587553 91.7801
18.41735004715306 78.3141
18.43990521943684 67.4569
18.46246111238171 60.6198
18.485193953325208 56.8049
18.507751296070428 56.3026
18.530309362314178 58.8823
18.552868153000343 63.578
18.57560391815056 69.3718
18.59816416623245 74.8494
18.620725141597372 76.5883
18.643286845190268 73.74
18.666025549835414 67.2828
18.688588718427933 59.7154
18.711152618092243 53.2667
18.73389353884365 47.839
18.75645890921984 43.2654
18.77902501351406 40.1196
18.801591852673102 38.4472
18.824335739722738 36.8637
18.846904057212626 36.0338
18.8694731124168 35.3652
18.89204290628315 34.961
18.914789774966803 34.4609
18.937361054791623 34.1496
18.959933076131318 33.8681
18.982505839934877 33.662
19.00525570560582 33.4316
19.027829963004184 33.236999999999995
19.05040496572238 33.3336
19.072980714710468 33.0802
19.095733592739563 32.7891
19.11831084296757 32.9184
19.140888842324735 33.0102
19.16346759176222 32.9221
19.18622349753803 32.92
19.208803755869358 33.2491
19.231384767143577 33.3956
19.253966532312948 33.6707
19.276725481241822 34.2246
19.29930876296784 34.5736
19.3218928014549 35.1199
19.34465404436217 35.705999999999996
19.36723960516257 37.0456
19.389825925592426 39.0673
19.412413006605938 41.9453
19.43517731967805 45.0491
19.457765930683355 47.4286
19.48035530514408 47.9534
19.50294544401556 46.9667
19.525712842708348 45.7853
19.54830451925909 45.427
19.570896963095727 46.2967
19.593490175174704 48.2593
19.616260674962184 49.7496
19.638855432416964 49.428000000000004
19.661450960992624 47.9025
19.68404726164677 44.5221
19.706820878021247 41.0859
19.729418731756834 38.3902
19.752017360452857 36.1269
19.77461676506804 34.9437
19.797393513540218 33.8119
19.819994478951667 32.9554
19.84259622316767 32.5198
19.8651987471481 32.1473
19.887978643247177 31.9254
19.91058273574792 31.7223
19.933187610901943 31.52
19.955969879466828 31.6316
19.97857632894404 31.8438
20.00118356396599 31.8867
20.023791585494575 31.9421
20.046577028914875 32.3798
20.069186632506966 32.2472
20.091797025500632 32.2163
20.114408208858933 32.249
20.137196842715273 32.5587
20.159809615886765 32.8706
20.18242318232135 33.2589
20.20503754298326 34.1024
20.227829382875154 35.3415
20.250445341109344 36.931
20.27306209647285 39.0892
20.29567964993108 41.8283
20.31847471147704 44.5066
20.34109387027612 46.9095
20.363713830075454 47.8049
20.386334591841646 46.9151
20.409132890679302 44.8422
20.431755265564437 42.1111
20.454378445325528 40.1272
20.477002430930366 39.1281
20.499803982716553 39.3159
20.522429589228004 40.3068
20.54505600449589 42.2737
20.567683229489194 44.4257
20.590488049900088 45.4264
20.61311690359731 44.7868
20.63574656993626 43.0486
20.658553853717297 39.9199
20.681185154618298 36.9759
20.703817271080066 34.7241
20.72645020407368 33.0135
20.749260783967177 31.9555
20.771895359337133 31.5349
20.794530754161617 31.1
20.817166969412938 31.0922
20.83998086114876 31.5991
20.86261872660049 32.4495
20.885257415405402 33.1973
20.90789692853701 33.6464
20.930714147864748 33.5682
20.953355319030678 33.0444
20.97599731745334 31.9865
20.99864014410749 30.7234
21.021460706796564 29.6395
21.044105199328826 29.0662
21.06675052302631 28.8576
21.089396678865015 28.6382
21.112220600704806 28.4173
21.134868430275347 28.5893
21.15751709492456 28.4755
21.180166595629693 28.311999999999998
21.202993892429635 28.4543
21.22564507473034 28.4354
21.24829709602816 28.2622
21.27112693608965 28.1838
21.293780644891275 28.3491
21.316435195634053 28.3892
21.339090589297417 28.5976
21.361923832041875 28.7252
21.384580921090404 28.7367
21.407238856007325 28.9995
21.429897637773326 29.6487
21.45273429906592 30.2731
21.475394784108598 31.0808
21.498056118951983 31.8365
21.520718304578022 32.4415
21.543558400304388 32.4989
21.566222297108816 32.3131
21.58888704765135 31.6653
21.61155265291521 31.0838
21.63439619898156 30.5079
21.657063523335786 29.9829
21.67973170537063 29.69
21.7024007460706 29.3878
21.72524775840385 29.1805
21.747918526116475 29.2528
21.770590155457388 29.4554
21.79326264741238 29.7329
21.816113141960237 29.9315
21.838787368860547 30.3649
21.861462461341976 30.3972
21.884315579735777 30.5617
21.90699241312273 30.5745
21.92967011506078 30.8324
21.95234868653799 31.0796
21.9752053151131 31.6242
21.997885635446785 32.3844
22.020566828293532 33.3756
22.04324889464272 34.4482
22.066109049404666 35.7762
22.088792872571794 37.4171
22.111477572219204 39.9478
22.1341631493376 43.0039
22.157026846313123 46.2673
22.179714188221507 48.6733
22.202402410582668 49.7195
22.22509151438863 48.9513
22.24795876962584 47.3569
22.270649646204486 45.2926
22.293341407213727 43.3596
22.316034053646906 41.8454
22.338904883215342 40.7901
22.36159931041458 40.2648
22.38429462602756 40.0776
22.40699083104897 39.5717
22.429865251039757 38.7959
22.452563244831367 37.7624
22.47526213102522 36.1847
22.49813925616515 34.4709
22.520839937143307 33.0326
22.543541513520587 32.0553
22.56624398629403 31.2434
22.589124730075895 30.7379
22.611829005656723 30.4914
22.63453418063466 30.0058
22.657240256008077 29.7502
22.680124634582935 29.6891
22.70283252079775 29.7766
22.725541310413075 29.7337
22.74825100442868 29.5153
22.771139033969575 29.5301
22.79385054687155 29.4721
22.81656296718292 29.6855
22.83927629590484 30.2668
22.862167992606945 30.5491
22.88488314827121 31.1942
22.907599215359284 31.5694
22.93031619487366 31.8075
22.953211574954405 31.9557
22.975930389478226 31.8185
22.998650119445763 31.4901
23.02137076586092 30.9617
23.044269845560063 31.1057
23.06699233506288 31.249000000000002
23.089715744034912 31.6654
23.112617610931565 32.1378
23.135342869061212 32.8798
23.158069049684816 34.2717
23.1807961538087 35.9426
23.20370174880544 38.2488
23.226430710184808 40.8093
23.249160598093425 42.4465
23.271891413539002 43.1806
23.294800752937697 42.4847
23.31753343374794 40.656
23.340267045128353 38.2309
23.36300158808808 36.0113
23.38591468821339 34.3008
23.408651104658304 33.22
23.431388455719986 32.4957
23.454126742409 32.1879
23.4770436196085 32.3739
23.499783787914662 32.9796
23.522524894889884 33.3956
23.54526694154616 33.8405
23.56818761219047 34.2811
23.59093154860734 34.3265
23.613676427751283 34.0993
23.636422250635754 33.3566
23.659346731118656 32.7853
23.68209445191868 32.5306
23.704843119509587 32.5477
23.72759273490623 32.9181
23.750521041644767 33.8061
23.77327256312355 34.8839
23.796025035462787 36.6171
23.818956224555475 38.9242
23.841710609113413 41.4388
23.86446594758979 43.7172
23.887222241002014 44.9275
23.910157285144578 44.4374
23.932915498962537 42.9325
23.955674670778713 40.024
23.978434801611975 37.0689
24.001373717286125 34.449
24.024135776723917 32.5922
24.046898798245582 31.392
24.06966278287146 30.6154
24.092605586582614 29.8337
24.115371508023642 29.3035
24.1381383956401 29.0627
24.16090625045381 28.9214
24.183852958731244 28.7665
24.206622758582608 28.5356
24.229393528706886 28.2732
24.252165270127392 27.9973
24.27511589952438 27.64
24.297889594216997 27.2821
24.32066426328598 26.9783
24.34343990775613 26.8288
24.36639447485003 26.6579
24.38917208083877 26.5819
24.41195066531332 26.4475
24.43490819850244 26.4384
24.457688750692377 26.3706
24.48047028445616 26.304000000000002
24.503252800821233 26.2747
24.526214300784112 26.3271
24.548998793132213 26.2157
24.57178427117417 26.0329
24.59457073593893 26.1176
24.617536219319863 26.1534
24.64032466834748 26.1803
24.663114107195035 26.156
24.685904536893013 26.0824
24.708874020360852 26.4156
24.731666442613744 26.9735
24.754459858818787 27.2237
24.777254270007962 27.5164
24.80022777025625 27.7387
24.82302418230472 27.8722
24.845821592443674 27.756
24.86862000170663 27.4312
24.891597535453727 27.1032
24.914397953892728 26.8818
24.93719937456671 26.5016
24.96000179851076 26.2196
24.98298338249997 26.2135
25.00578782394922 26.1257
25.028593271784167 26.0498
25.05157790644186 25.9865
25.07438537804115 25.974
25.097193859145293 25.9691
25.120003350792075 25.8638
25.142992065061257 25.9435
25.165803588823465 26.0216
25.18861612625217 26.081
25.211429678386736 26.2113
25.234422489079968 26.3152
25.257238081693636 26.4109
25.280054692141732 26.6055
25.3028723214652 26.7865
25.325869245420463 27.1953
25.348688923599397 27.6328
25.371509623787006 28.0341
25.394331347025812 28.4268
25.41733240110666 29.0101
25.440156181590016 29.4576
25.46298098826268 30.006
25.48580682216873 30.2759
25.50881202326435 30.3805
25.53163992281684 30.2614
25.55446885274561 30.1495
25.577298814096377 30.362
25.600308179121807 30.7477
25.623140214533745 31.4926
25.64597328451537 32.0367
25.66898578564376 32.3671
25.691820936010206 32.2174
25.714657124097695 31.6179
25.737494350954734 30.444000000000003
25.760511045684957 29.171
25.783350361364224 28.1862
25.806190718969255 27.4645
25.82903211955018 27.0996
25.852053024868923 26.6182
25.874896522722523 26.5348
25.897741066713106 26.433000000000003
25.920586657892454 26.5657
25.943611790812668 26.6603
25.966459487728237 26.6935
25.989308234998564 26.6016
26.01215803367705 26.595
26.03518741123814 26.2819
26.05803932412957 25.9878
26.080892291600094 25.6854
26.10374631470478 25.4398
26.12677995397268 25.4501
26.14963609978026 25.3121
26.172493304397875 25.4621
26.19535156888223 25.5849
26.218389486949604 25.5624
26.241249882640123 25.6653
26.26411134137826 25.9217
26.28715248187403 26.0644
26.31001607820869 26.3128
26.3328807407756 26.6455
26.35574647063438 27.3343
26.37879191991473 28.000999999999998
26.401659795896734 28.4441
26.424528742360263 28.741999999999997
26.447398760366614 28.7737
26.470448535598294 28.5304
26.49332070826805 28.006999999999998
26.516193955675355 27.6454
26.53906827888316 27.14
26.562122397260108 26.6164
26.584998883685063 26.3153
26.607876449110325 26.1664
26.63075509460056 25.8668
26.65381357334404 25.7409
26.67669439061878 25.6932
26.699576291163382 25.7231
26.722459276044212 25.7668
26.745522132402975 25.9222
26.768407297649354 26.0771
26.791293550442003 26.17
26.814180891848974 26.4512
26.837248143099337 26.7544
26.860137673466657 27.11
26.88302829566349 27.6628
26.90592001075963 28.4249
26.92899167420566 29.3016
26.951885586870763 30.0235
26.974780595655517 30.7435
26.99785558178161 31.0778
27.020752794605112 31.1886
27.043651106772522 30.8851
27.06655051935668 30.3211
27.089629948036183 30.0352
27.112531573292053 29.789
27.135434302194138 29.3629
27.158338135817015 28.8221
27.181422024430987 28.3469
27.204328079372566 27.6192
27.22723524226965 27.1756
27.250143514198573 26.5369
27.273231880156334 26.1275
27.296142382065014 25.5584
27.319053996245536 25.3134
27.341966723775965 25.1044
27.365059584515222 24.9103
27.38797455070062 24.8267
27.410890633481237 24.5839
27.433807833936918 24.5848
27.456905206923906 24.5006
27.47982465472398 24.374000000000002
27.502745223449743 24.4229
27.525666914182825 24.4698
27.548768816912457 24.4126
27.571692763693633 24.4524
27.59461783573812 24.5128
27.617723149491244 24.5015
27.640650484125285 24.5397
27.66357894728264 24.6745
27.686508540048052 24.7054
27.709618414237887 24.7084
27.732550278321757 24.5055
27.755483275279115 24.6224
27.778417406196485 24.7885
27.801531858397514 25.0524
27.824468269376716 25.2357
27.847405817586786 25.3569
27.870344504116094 25.6157
27.893463551932008 25.7252
27.916404527281053 25.6645
27.93934664422563 25.5582
27.962289903855886 25.1832
27.98541356491974 25.1899
28.00835912214229 24.936999999999998
28.03130582533231 24.8569
28.054253675581805 24.8764
28.077381967556104 24.8409
28.100332124185126 24.9672
28.123283431160893 25.2101
28.146235889577238 25.5115
28.169368830154156 25.7469
28.192323603752033 25.9462
28.215279532083304 25.91
28.238415973016764 25.8969
28.261374223145094 25.9087
28.284333631303806 26.0947
28.307294198589954 26.3653
28.330435319167677 26.8298
28.353398217078915 27.4349
28.376362277420153 28.1165
28.39932750129032 28.5856
28.422473319286713 28.8375
28.44544088262495 28.8398
28.468409612800283 28.4352
28.491379510913497 27.8383
28.51453004413313 27.4542
28.53750229057244 27.2599
28.56047570826344 27.1169
28.583450298308804 26.9461
28.606605564586562 26.641
28.629582511831156 26.3778
28.65256063474956 25.9866
28.675539934446338 25.5982
28.698699951647605 25.1461
28.72168161743193 24.7016
28.74466446331978 24.2907
28.767648490417624 23.9937
28.790813276438353 23.6393
28.813799678527303 23.526
28.836787265157085 23.2547
28.859955641890075 23.1109
28.882945610203045 23.0451
28.905936766392035 22.9332
28.928929111566863 22.7873
28.952102288520145 22.6912
28.975097024308607 22.6149
28.998092952423807 22.6364
29.021090073977508 22.6573
29.04426806913204 22.5524
29.067267590245258 22.3791
29.090268308143695 22.5883
29.11327022394099 22.6203
29.13645305530891 22.6562
29.159457379627167 22.7592
29.18246290519685 22.8031
29.20546963313352 22.9803
29.22865731875826 23.1928
29.25166646419296 23.2998
29.27467681535305 23.3657
29.29768837335608 23.2299
29.320880931312562 23.0181
29.34389491580634 22.8349
29.366910110507334 22.6066
29.38992651653503 22.4446
29.41312396492981 22.2063
29.436142806456754 21.9779
29.45916286268059 21.8748
29.48236399319994 21.8814
29.50538649169417 21.8871
29.528410208259935 21.864
29.55143514402014 21.8335
29.574641196749695 21.9058
29.597668583816574 21.9693
29.6206971934585 21.859
29.64372702680042 22.069000000000003
29.666938019934474 22.2743
29.689970313635285 22.3347
29.713003834422636 22.5953
29.73603858342347 22.714000000000002
29.759254535188578 22.7785
29.78229175361658 22.7373
29.80533020365064 22.7868
29.82836988641968 22.6492
29.85159081507472 22.339000000000002
29.874632976355343 21.945
29.89767637376955 21.7848
29.920721008448314 21.5533
29.9439469322847 21.4538
29.96699405457564 21.3277
29.9900424175358 21.2091
30.013092022298157 21.0764
30.03632295963995 21.1003
30.059375061131373 21.0733
30.08242840783577 21.0738
30.105483000888153 21.0928
30.128718970092244 21.1061
30.151776069006917 21.1552
30.17483441768648 21.3039
30.198074175317235 21.2963
30.221135036724256 21.3624
30.24419715131772 21.3735
30.267260520236203 21.299
30.290505341942243 21.3176
30.313571232750228 21.1809
30.336638381310948 21.0854
30.35970678876503 20.9828
30.38295669299435 20.896
30.40602763151657 20.9716
30.429099832366074 20.9085
30.452173296685572 20.9405
30.47542830191959 20.9822
30.498504306502497 21.0956
30.521581577995562 21.215999999999998
30.544660117543582 21.3251
30.56792024229725 21.395
30.59100133132069 21.4304
30.614083691845494 21.5711
30.637167325018545 21.5819
30.660432587840603 21.4615
30.683518779717886 21.2505
30.70660624769615 21.1575
30.729694992924372 21.1266
30.75296541239743 20.9801
30.77605672557558 20.9254
30.799149319462742 21.0035
30.8224236211637 20.9752
30.845518789950724 21.0048
30.868615242910597 20.9906
30.891712981195973 21.0468
30.91499247215866 21.0763
30.938092794619365 21.3009
30.96119440587579 21.5303
30.984297307082752 21.6992
31.00758200598383 21.9567
31.030687500658694 22.2754
31.053794288760695 22.6028
31.076902371446767 22.7448
31.100192296997445 22.94
31.12330298246119 22.9346
31.14641496599209 22.8683
31.169528248749216 22.7785
31.19282341969534 22.666999999999998
31.215939314557186 22.4864
31.239056512134788 22.3782
31.262175013589378 22.0411
31.28547544871168 21.8656
31.30859657161541 21.6517
31.331719001892175 21.4181
31.35484274070538 21.2652
31.378148458819545 21.0436
31.401274828443725 20.8864
31.424402510106933 20.8196
31.447712205419993 20.6555
31.470842524931633 20.5443
31.493974159989783 20.4982
31.51710711176168 20.4656
31.54042212308802 20.423
31.563557722100917 20.4827
31.586694641341655 20.4336
31.609832881979628 20.4187
31.63315322823208 20.4361
31.656294125521327 20.5496
31.679436347728515 20.5678
31.70257989602529 20.5861
31.725905596152327 20.6315
31.74905181052835 20.7525
31.772199354521323 20.9235
31.79534822930507 21.0515
31.818679302290967 21.1647
31.84183085259981 21.3872
31.864983737233473 21.5276
31.88813795736804 21.6286
31.911474422233013 21.3915
31.934631327356435 21.3034
31.9577895715215 21.1208
31.980949155906522 20.9574
32.004291031706956 20.7101
32.027453310562606 20.5368
32.05061693318573 20.3503
32.07396288236386 20.3675
32.09712920658542 20.3657
32.12029687812702 20.3557
32.14346589817093 20.2629
32.166817291729984 20.3647
32.18998902288583 20.3983
32.21316210610336 20.4093
32.23633654256711 20.4504
32.259693399663725 20.5705
32.282870556771144 20.7141
32.30604907069099 20.8733
32.329228942610065 20.9487
32.35259128243769 20.9261
32.375773884550505 21.0013
32.398957848235646 20.9206
32.422143174682176 20.8495
32.445511016471215 20.6586
32.468699082679954 20.3977
32.49188851523011 20.2929
32.51507931531304 20.1923
32.538452678331 20.042
32.56164622776311 19.9014
32.58484114831493 19.7489
32.60803744118015 19.6527
32.631416344731896 19.5871
32.654615396551876 19.4206
32.67781582427913 19.3148
32.701198898634416 19.2063
32.72440209253756 19.0432
32.747606665947124 19.0212
32.77081262006088 18.8947
32.79420126883317 18.8783
32.81740999876112 18.8159
32.840620112999424 18.8727
32.86383161274818 18.7867
32.88722585534586 18.7765
32.91044014056596 18.7423
32.933655814909734 18.7366
32.95687287957963 18.7825
32.98027273544904 18.7304
33.00349259526636 18.6883
33.026713849030116 18.7583
33.04993649794511 18.7919
33.073341986570746 18.8473
33.09656744032826 18.833
33.11979429286444 18.8892
33.14302254538647 18.885
33.166433686291185 18.7063
33.18966475336992 18.6705
33.212897224069096 18.5346
33.23613109959831 18.4696
33.259547912343415 18.4973
33.2827846121627 18.4503
33.306022720453775 18.3867
33.32926223842861 18.3713
33.352684742614166 18.4195
33.37592709463173 18.387999999999998
33.399170859982064 18.406
33.422597648419426 18.4634
33.44584425514446 18.4413
33.46909227885668 18.5819
33.4923417207723 18.6086
33.51577423505344 18.7717
33.539026528130385 18.8844
33.56228024307245 18.9952
33.585535381098246 19.0049
33.60897364093058 18.9919
33.63223163992385 19.0828
33.6554910656699 19.0653
33.678751919389796 19.0447
33.702195944520106 19.0379
33.72545966903325 19.0319
33.74872482519663 18.9412
33.771991414233746 18.8377
33.79544122444841 18.6549
33.81871069412428 18.4443
33.84198160035767 18.3374
33.86525394437455 18.1197
33.88870955949969 18.0186
33.911984794020626 17.9438
33.93526147001624 17.9419
33.958539588715006 17.8549
33.98200102861669 17.7544
34.0052820477047 17.7047
34.02856451319451 17.7423
34.05203033759056 17.6867
34.07531571090147 17.7115
34.09860253431845 17.683
34.121890809074316 17.6529
34.145362493118924 17.6196
34.16865368561615 17.567999999999998
34.191946333164054 17.5872
34.21524043699793 17.6161
34.23871800066799 17.6349
34.26201503218366 17.6084
34.28531352370466 17.702
34.30861347646881 17.6027
34.33209693978188 17.5854
34.3553998301885 17.548
34.378704185565205 17.4441
34.402010007152356 17.402
34.42549939016683 17.3529
34.44880815937748 17.2394
34.472118398533134 17.1878
34.49543010887669 17.1071
34.51892543169198 17.0293
34.54224009966052 17.1066
34.56555624255917 17.0796
34.58887386163339 16.9948
34.61237514439016 16.9645
34.6356957311114 16.9278
34.65901779775809 16.9964
34.68252356662995 17.0279
34.705848608458616 17.1135
34.72917513396849 17.0641
34.75250314440949 17.0302
34.77601490857862 17.0129
34.799345904259795 17.0672
34.82267838863559 16.9743
34.846012362958525 16.9558
34.869530142679984 16.8437
34.89286711232212 16.7707
34.91620557568269 16.7212
34.93954553401677 16.6491
34.9630693495876 16.5769
34.986412313340814 16.5505
35.00975677584668 16.5461
35.033102738362956 16.4349
35.05663261012228 16.3197
35.0799815881786 16.4551
35.10333207003229 16.4197
35.12668405694369 16.4101
35.150220005273056 16.3783
35.17357501786656 16.3326
35.19693153931268 16.3662
35.220289570874385 16.2826
35.24383161619786 16.2876
35.267192683604904 16.3024
35.290555264930376 16.3738
35.314101899412165 16.339000000000002
35.33746752422433 16.2693
35.36083466676374 16.3768
35.38420332829803 16.3339
35.407756095629054 16.3697
35.43112781085063 16.2845
35.45450104888391 16.2364
35.477875810999194 16.2505
35.50143473172161 16.2391
35.52481255774625 16.2802
35.54819191167777 16.1973
35.57157279478914 16.197
35.595137889488406 16.1982
35.61852184675279 16.2397
35.641907337029984 16.2739
35.665294361595684 16.2503
35.68886565090076 16.2248
35.7122557598848 16.3921
35.73564740699838 16.4326
35.759040593519934 16.4545
35.78261809810353 16.477999999999998
35.80601437933051 16.553
35.829412203814705 16.6444
35.85281157283719 16.6356
35.876395313415884 16.6848
35.8997977874528 16.8109
35.92320180988546 16.8477
35.946790244133936 16.7239
35.97019737933222 16.7347
35.993606066789866 16.5677
36.01701630779276 16.4905
36.04061101440684 16.3821
36.06402437852291 16.3097
36.08743930005611 16.2619
36.1108557802951 16.1638
36.13445678011326 16.1471
36.15787639383515 16.0103
36.18129757014299 15.8729
36.20472031032821 15.8401
36.22832762423364 15.8183
36.25175350829375 15.7804
36.275180960119776 15.6254
36.298609981005924 15.6634
36.32222362992669 15.6577
36.34565580510207 15.6278
36.36908955323448 15.5831
36.39252487562093 15.487
36.416144880530226 15.5121
36.43958336764275 15.5144
36.463023432914625 15.5221
36.486465077645676 15.4658
36.51009145956204 15.5855
36.53353627947859 15.6887
36.55698268276811 15.6115
36.58043067073321 15.5933
36.60406345072071 15.5803
36.62751462435344 15.6326
36.65096738658405 15.6164
36.67460498210655 15.5265
36.69806093788647 15.5222
36.72151848619297 15.4274
36.744977628333636 15.4032
36.76862165890998 15.2983
36.79208400512205 15.3081
36.81554794910557 15.2515
36.83901349217101 15.2076
36.862663978991606 15.187999999999999
36.88613273667352 15.1401
36.90960309738324 15.2214
36.933075062434064 15.2274
36.95673202673572 15.2185
36.98020721697122 15.2718
37.003684015502365 15.2677
37.027162423645365 15.2694
37.050825886711465 15.2942
37.07430753063053 15.2687
37.09779078812467 15.2321
37.121275660513014 15.1726
37.144945643673694 15.144
37.16843376245278 15.1018
37.19192350009803 15.0715
37.215414857931435 14.9535
37.239091382563885 14.8981
37.262585997426164 14.8596
37.28608223645736 14.8509
37.309763684451696 14.7655
37.33326318851098 14.7021
37.356764320726555 14.6917
37.380267082425526 14.6507
37.40395510942588 14.6067
37.42746114683234 14.6004
37.45096881771841 14.5273
37.474478123414166 14.5393
37.49817275092816 14.5027
37.52168534303452 14.5308
37.54519957395567 14.4497
37.568715445024665 14.4864
37.592416694607714 14.3376
37.61593586281424 14.4277
37.63945667518264 14.4349
37.66297913304891 14.3484
37.68668702630454 14.3338
37.710212792059274 14.3094
37.733740207334854 14.2805
37.757269273470364 14.2823
37.780983832050374 14.2288
37.80451621684926 14.2174
37.82805025654007 14.1932
37.851585952464795 14.1887
37.8753071980695 14.1447
37.89884622345676 14.1252
37.92238690911902 14.0795
37.94611318753442 14.0332
37.969657210779765 14.0284
37.99320289834801 14.0735
38.016750251586465 14.0838
38.04048325513017 14.0449
38.06403395679343 14.0453
38.087586328183946 13.9829
38.11114037065203 13.9816
38.13488012115898 14.0088
38.1584375229181 13.9565
38.181996599821 13.9523
38.205557353221124 13.9273
38.229303872575656 13.8844
38.2528679961576 13.8663
38.27643380031219 13.8339
38.30000128639589 13.8193
38.32375459653193 13.8366
38.34732546371299 13.7931
38.37089801690786 13.6955
38.39447225747609 13.6589
38.418232380377425 13.6295
38.441810012983396 13.6285
38.46538933705673 13.5957
38.488970353960084 13.5359
38.51273731166058 13.5117
38.536321731567014 13.5016
38.55990784840681 13.4755
38.58367995004091 13.49
38.60726947812959 13.4543
38.63086070726198 13.4897
38.654453638806274 13.4406
38.678232613930824 13.4791
38.70182896773327 13.5212
38.72542702806741 13.493
38.7490267963045 13.4574
38.77281266709232 13.4748
38.79641586862214 13.4544
38.8200207821842 13.4315
38.843627409152944 13.3789
38.86742019782782 13.3472
38.891030269149255 13.2585
38.914642058016156 13.2772
38.938255565806124 13.2986
38.96205529464307 13.2189
38.98567225787121 13.2247
39.00929094417078 13.2684
39.03291135492255 13.2442
39.05671804624804 13.1738
39.080341923549106 13.1731
39.103967529460334 13.2246
39.127594865365744 13.1283
39.15140854155791 13.2149
39.17503935514948 13.1819
39.19867190290282 13.1268
39.22249083587951 13.1255
39.24612686969409 13.1019
39.269764641845306 13.0684
39.293404153722804 12.9871
39.317230110864074 12.821
39.34087311998506 12.8802
39.36451787301696 12.8823
39.388164371352595 12.8195
39.41199737518003 12.8094
39.43564738196752 12.7948
39.45929913825317 12.7716
39.48295264543308 12.7575
39.506792718520884 12.6885
39.530449745387216 12.6428
39.55410852735203 12.6523
39.57776906581474 12.6078
39.60161623079 12.6045
39.625280300200025 12.6507
39.64894613032202 12.5768
39.67261372255866 12.5597
39.6964680021016 12.5225
39.72013913657293 12.5449
39.74381203738292 12.582
39.76748670593756 12.5912
39.79134812278169 12.5534
39.81502634488497 12.5148
39.83870633896685 12.4475
39.862388106436654 12.4685
39.88625668336918 12.4541
39.90994201572829 12.4495
39.933629125719285 12.4052
39.957503091207826 12.3802
39.9811937746168 12.4322
40.00488623990914 12.3391
40.02858048850006 12.3497
40.05246165409549 12.317
40.076159487492085 12.2724
40.099859108448875 12.2939
40.123560518384345 12.2988
40.1474489070226 12.3201
40.171153913178564 12.2527
40.194860712584955 12.3186
40.2185693066637 12.2788
40.242464941335314 12.2403
40.26617714307655 12.2897
40.289891143772046 12.2798
40.3136069448471 12.2519
40.33750984859743 12.2122
40.3612292688043 12.2537
40.3849504936829 12.1785
40.40867352466194 12.2021
40.43258372059144 12.1361
40.45631038219906 12.1214
40.48003885420956 12.0041
40.503769138055105 12.057
40.52768664931955 12.1065
40.55142057531802 12.0347
40.57515631746428 12.003
40.599079334038514 11.9947
40.62281872700477 11.9273
40.64655994043941 11.9601
40.67030297578061 11.9301
40.69423334835778 11.8845
40.71798004609188 11.8716
40.74172857006355 11.8543
40.76547892171441 11.8244
40.7894166736039 11.8488
40.813170699248566 11.8461
40.83692655691388 11.8207
40.86068424804498 11.7753
40.884629402612525 11.7801
40.908390779366385 11.7509
40.932153993938 11.7534
40.95591904777605 11.7785
40.979871628443995 11.7252
41.003640379561936 11.7714
41.02741097430883 11.6389
41.05118341413683 11.6256
41.075143444384416 11.7023
41.098919593177826 11.6716
41.1226975914255 11.6894
41.14647744058318 11.6008
41.170444943946755 11.6059
41.19422851378379 11.6376
41.218013938914645 11.6611
41.24198706625173 11.6226
41.26577622087193 11.5519
41.289567235177785 11.6563
41.31336011063129 11.5581
41.337340752422875 11.5384
41.361137369129835 11.4633
41.38493585138705 11.4833
41.40873620066004 11.4419
41.43272438060107 11.4005
41.45652848292052 11.4002
41.48033445666918 11.3483
41.50414230331616 11.2776
41.528138045159764 11.2663
41.551949656675205 11.2678
41.575763145513235 11.2775
41.59957851314666 11.2348
41.62358184070442 11.2006
41.64740098505737 11.2001
41.6712220126409 11.1658
41.69504492493139 11.1397
41.71905586207357 11.1516
41.74288256296395 11.114
41.766711153007456 11.0345
41.79054163368412 11.0819
41.814560204340054 11.0819
41.838394485526365 11.0537
41.86223066180303 10.9954
41.88625497706819 11.0067
41.910094962812 10.9727
41.93393684811168 10.9352
41.95778063445365 10.9271
41.981812625263366 10.9098
42.00566023303407 10.9241
42.029509746323676 10.9087
42.05336116662236 10.9057
42.077400857069705 10.9194
42.10125611078846 10.9297
42.12511327600405 10.8998
42.14897235421036 10.9275
42.173019768448455 10.9324
42.19688269209613 10.9165
42.22074753323349 10.8782
42.24461429335818 10.8729
42.268669455600495 10.8535
42.292540073217886 10.8251
42.31641261433284 10.7877
42.34028708044675 10.7693
42.36435001496739 10.7289
42.38822835065557 10.6951
42.41210861586426 10.6585
42.4359908120986 10.6661
42.46006154323262 10.6012
42.48394762115317 10.5247
42.507835634632315 10.5549
42.531912233047436 10.5321
42.55580413732265 10.4491
42.579697981698 10.5169
42.60359376768525 10.465
42.62767820545945 10.4894
42.65157789440821 10.4676
42.67547952952185 10.4388
42.699383112316 10.4123
42.72347541395347 10.405999999999999
42.74738291190531 10.4058
42.771292362102166 10.3715
42.795203766063516 10.3467
42.819303956130405 10.3248
42.843219287476536 10.2944
42.86713657716324 10.3153
42.89105582671383 10.300999999999998
42.91516392983864 10.3009
42.939087119032166 10.2838
42.963012272677304 10.2498
42.98693939230129 10.1616
43.01105543317513 10.174
43.034986504731386 10.174
43.05891954686589 10.1637
43.08285456110972 10.1456
43.10697856448665 10.1132
43.130917542983475 10.0861
43.15485849820081 10.0958
43.17880143167367 10.0977
43.20293342237094 10.0376
43.226880332449 10.0361
43.25082922540554 10.0023
43.27496722682525 9.95529
43.29892010567796 9.955789999999999
43.32287497204102 9.94068
43.34683182745632 9.93435
43.370977859791836 9.898710000000001
43.39493871351105 9.85759
43.41890156092628 9.85324
43.44286640358341 9.82682
43.46702049182749 9.84247
43.49098934522816 9.79302
43.51496019852649 9.78398
43.5389330532723 9.75528
43.56309522248204 9.78317
43.58707210044314 9.80301
43.61105098451946 9.748660000000001
43.63503187626491 9.74812
43.659202151562134 9.70854
43.68318707902681 9.74702
43.70717401884041 9.74809
43.731162972560874 9.664589999999999
43.75534137913236 9.614180000000001
43.779334381108384 9.60217
43.803329401683186 9.63599
43.82732644241872 9.62347
43.8515130055166 9.599639999999999
43.87551410707659 9.55348
43.89951723350145 9.557730000000001
43.923709934595614 9.563139999999999
43.94771713129917 9.514660000000001
43.97172635758096 9.513
43.99573761501002 9.513819999999999
44.0199385169922 9.479239999999999
44.04395385732619 9.45445
44.067971233533086 9.46615
44.09199064718605 9.44357
44.11619977548961 9.4726
44.14022328470671 9.45027
44.16424883610785 9.45403
44.18827643127035 9.43605
44.21249381139513 9.432889999999999
44.236525514814076 9.37221
44.26055926674478 9.41175
44.28459506876863 9.42051
44.3088207262813 9.32434
44.33286064928722 9.31001
44.35690262714919 9.32934
44.38094666145278 9.25832
44.4051806219871 9.283619999999999
44.42922879003185 9.26119
44.45327901929361 9.22189
44.477331311362136 9.20991
44.501573600619416 9.18485
44.525630039221795 9.14748
44.54968854541895 9.18675
44.573937102200176 9.14931
44.5979997645541 9.1636
44.622064499300315 9.104289999999999
44.64613130803592 9.10427
44.67038823869318 9.11191
44.69445921643748 9.090760000000001
44.718532272981385 9.05159
44.742607409926194 9.05455
44.76687274034801 9.05483
44.79095205918753 9.00192
44.81503346325094 9.03764
44.839116954143876 9.04834
44.86339071028742 9.020380000000001
44.88747839599524 8.973510000000001
44.91156817336837 8.965160000000001
44.93566004401666 8.96718
44.959942251908146 8.93958
44.984038330325966 8.92258
45.00813650686762 8.86972
45.03223678314731 8.91285
45.05652746888232 8.86883
45.08063196592069 8.86717
45.104738567558705 8.86461
45.128847275414856 8.82274
45.15314646515866 8.80176
45.17725940679741 8.8158
45.20137445952892 8.79459
45.22568004865265 8.77159
45.24979934496396 8.7822
45.27392075725247 8.748
45.29804428714431 8.72418
45.322358426247604 8.71878
45.346486212804315 8.65928
45.370616121861914 8.68834
45.39474815505086 8.67558
45.41907087049246 8.62909
45.4432071734666 8.60188
45.46734560548283 8.60861
45.49148616817604 8.56942
45.51581748638564 8.59205
45.5399623320197 8.58002
45.56410931325473 8.569410000000001
45.58825843173002 8.52144
45.61259837920865 8.54083
45.636751793816 8.54246
45.66090735060093 8.46751
45.68506505120716 8.47611
45.7094136545275 8.4739
45.73357566449271 8.42555
45.75773982322992 8.443719999999999
45.78190613238733 8.44795
45.806263418194064 8.41007
45.83043404997326 8.408610000000001
45.85460683713677 8.39391
45.87897065658495 8.377139999999999
45.90314777634752 8.33992
45.92732705646868 8.332089999999999
45.9515084986045 8.34309
45.97588104735473 8.3516
46.00006683541565 8.326410000000001
46.02425479047904 8.28192
46.04844491420549 8.29991
46.0728262191024 8.2608
46.09702070211635 8.25385
46.12121735879483 8.2576
46.14541619080294 8.24625
46.169806278764455 8.21616
46.194009483459034 8.22419
46.21821486849841 8.21119
46.24242243555223 8.14829
46.266821333570014 8.16499
46.29103328674601 8.14063
46.31524742696538 8.115219999999999
46.33946375590237 8.11311
46.36387149104216 8.11276
46.38809221957392 8.08787
46.41231514186606 8.04013
46.436540259597464 8.06065
46.460956858999374 8.06395
46.48518638983522 8.04604
46.509418121166966 7.999739999999999
46.533652054678114 7.98025
46.55807754555709 7.99661
46.58231590571962 8.014619999999999
46.60655647313217 7.9879
46.630988654873654 7.90676
46.655233659129024 7.902430000000001
46.67948087571551 7.9235
46.70373030632484 7.913310000000001
46.72817142736393 7.9169
46.752425308428684 7.864730000000001
46.77668140861147 7.86495
46.80093972960865 7.82481
46.82538981736788 7.810860000000001
46.849652602470904 7.775760000000001
46.87391761349769 7.80024
46.8981848521493 7.79252
46.9226439341274 7.77473
46.946915650573224 7.795660000000001
46.97118959976749 7.777539999999999
46.99546578341598 7.70235
47.019933887188216 7.771789999999999
47.04421456235744 7.749410000000001
47.06849747711879 7.68967
47.09278263318286 7.6818
47.11725978640143 7.660810000000001
47.14154944775105 7.6811
47.165841355555656 7.6322
47.1901355115306 7.649489999999999
47.214621741924994 7.593839999999999
47.23892041698887 7.61072
47.26322134538975 7.56778
47.28771440635075 7.55525
47.31201986422527 7.550560000000001
47.33632758061436 7.54587
47.360637557241866 7.5533600000000005
47.38513974410611 7.5117199999999995
47.40945426407847 7.46984
47.43377104948137 7.470330000000001
47.45809010204344 7.48619
47.48260144275502 7.45595
47.506925052572285 7.41954
47.53125093475548 7.43825
47.55557909103813 7.42305
47.58009961361992 7.3983300000000005
47.60443234110732 7.4048
47.62876734791564 7.38283
47.65310463578333 7.36148
47.6776343683373 7.350160000000001
47.7019762413987 7.3467199999999995
47.72632040075572 7.33477
47.75066684815169 7.283930000000001
47.77520581885936 7.26381
47.799556865477655 7.2973
47.823910205386 7.307460000000001
47.84826584033272 7.2811699999999995
47.87281407745551 7.24092
47.89717432569297 7.229019999999999
47.92153687423484 7.21673
47.94609208429692 7.239380000000001
47.97045925671401 7.159660000000001
47.99482873471275 7.16712
48.01920052005013 7.171119999999999
48.04376504619224 7.13927
48.068141469543484 7.155880000000001
48.09252020552573 7.142289999999999
48.11690125590099 7.12783
48.1414751266064 7.10128
48.16586082917454 7.10071
48.19024885144316 7.064010000000001
48.2146391951793 7.06345
48.239222439012764 7.05852
48.26361744916137 7.083080000000001
48.28801478610016 7.0641300000000005
48.31241445160131 7.00525
48.337007097209366 7.00909
48.36141144338331 6.9989300000000005
48.38581812345755 6.992389999999999
48.41022713920929 7.01439
48.434829215320704 6.95478
48.45924292604658 6.936260000000001
48.48365897780325 6.93345
48.50807737237308 6.939369999999999
48.532688907799276 6.925789999999999
48.55711201168574 6.899660000000001
48.581537463754074 6.89102
48.60615611725119 6.90298
48.63058628942721 6.84727
48.65501881516546 6.820460000000001
48.6794536962573 6.821000000000001
48.70408185970339 6.842969999999999
48.72852147531801 6.81895
48.75296345168211 6.7816600000000005
48.77740779059232 6.7927100000000005
48.80204549302823 6.7904800000000005
48.82649458091802 6.7694600000000005
48.85094603676547 6.73915
48.87539986237231 6.720289999999999
48.90004713292306 6.7144699999999995
48.92450572200832 6.72465
48.94896668628025 6.74717
48.97343002754588 6.69402
48.99808689542115 6.667619999999999
49.02255501470614 6.64014
49.04702551642794 6.649380000000001
49.0714984023988 6.622839999999999
49.096164896893235 6.6467600000000004
49.120642575466796 6.65044
49.145122643748394 6.627560000000001
49.16960510355558 6.61218
49.19428125404938 6.60389
49.2187685210852 6.5964
49.243258185121555 6.5638
49.26794160167084 6.5578
49.2924360839405 6.54101
49.31693296869764 6.50284
49.34143225776915 6.51724
49.36612538195438 6.50967
49.39062950396021 6.54195
49.41513603578346 6.48387
49.4396449792564 6.44538
49.46434784069503 6.4538400000000005
49.488861631846454 6.41971
49.513377840166804 6.42961
49.537896467493745 6.41575
49.56260909589029 6.40775
49.587132585683285 6.41531
49.611658500018365 6.38071
49.636186840738596 6.35073
49.66090926588511 6.34114
49.685442483902584 6.35669
49.70997813385706 6.3205800000000005
49.734516217597076 6.3239
49.75924846937352 6.321330000000001
49.7837914452858 6.31425
49.80833686055187 6.31009
49.83288471702571 6.27219
49.85762682540054 6.30128
49.882179588965734 6.27194
49.9067347993235 6.2954099999999995
49.93129245833333 6.2572
49.95604445336378 6.24999
49.98060703442832 6.21481
50.005172069746266 6.22474
50.02993150438364 6.20769
50.05450147301533 6.21646
50.07907390151433 6.1917800000000005
50.10364879174981 6.19637
50.12841816587289 6.16564
50.1529980044635 6.13725
50.17758031042124 6.11624
50.20216508562089 6.13572
50.22694442953363 6.13821
50.25153416817468 6.11415
50.27612638170508 6.09213
50.300721072005196 6.08137
50.325510416102105 6.05658
50.350110084975064 6.0666400000000005
50.37471223628208 6.0827
50.39931687190919 6.04073
50.424116246675766 6.04553
50.44872587605249 6.039619999999999
50.47333799543065 6.00464
50.49795260670191 5.99976
50.52276204271512 5.97816
50.54738166295838 5.97732
50.57200378079314 5.98093
50.596628398116835 5.96274
50.62144792604559 5.95578
50.646077567609396 5.92185
50.670709714377715 5.91337
50.69553683636198 5.91783
50.72017401885922 5.91565
50.7448137122895 5.87972
50.76945591856022 5.86359
50.79429318636823 5.84588
50.818940443716784 5.90303
50.84359021965163 5.8068
50.868242516085964 5.82707
50.893089960641895 5.8323
50.917747323549435 5.798109999999999
50.94240721271973 5.77682
50.96706963007175 5.79188
50.99192728239342 5.78547
51.01659478166073 5.79089
51.04126481489051 5.7646
51.06593738400761 5.75659
51.090805275207074 5.71485
51.11548294172845 5.69614
51.14016314993547 5.71394
51.164845901758845 5.6778699999999995
51.18972406304274 5.67809
51.21441192780656 5.64085
51.23910234200271 5.66014
51.2637953075678 5.637519999999999
51.288683770237945 5.64128
51.31338186432707 5.64792
51.33808251561888 5.60649
51.362978729967345 5.61331
51.387684521509755 5.61682
51.41239287610203 5.61207
51.437103795691165 5.56741
51.46201036644977 5.62716
51.486726441956634 5.5386
51.51144508832545 5.54369
51.536166307509156 5.56305
51.56108326624387 5.53022
51.58580965706056 5.51839
51.61053862657523 5.4945
51.635270176746864 5.50248
51.66019755512065 5.48344
51.68493429268881 5.45619
51.70967361681515 5.47885
51.73441552946465 5.46204
51.759353359237934 5.41554
51.7841004750961 5.41774
51.80885018539685 5.430219999999999
51.833602492111254 5.39126
51.8585508051424 5.37932
51.883308330926425 5.3928
51.90806845906181 5.4013599999999995
51.932831191525715 5.38925
51.95779001977161 5.359319999999999
51.98255798721516 5.35164
52.00732856494335 5.33406
52.03229530577543 5.32353
52.057071130455945 5.32381
52.081849571391054 5.2949
52.106630630568695 5.28905
52.13160794279417 5.26098
52.15639426492067 5.2636400000000005
52.18118321127822 5.2788
52.205974783860896 5.26436
52.23096269971011 5.24147
52.255759551287994 5.22962
52.280559035098186 5.20635
52.30536115314103 5.1978599999999995
52.33035970494467 5.1765099999999995
52.35516711807904 5.1792
52.37997717147198 5.185309999999999
52.40478986713005 5.20624
52.42979908731974 5.149380000000001
52.454617094216 5.15404
52.47943774942214 5.158519999999999
52.50426105495102 5.157430000000001
52.529280976059844 5.12616
52.554109609024096 5.1205300000000005
52.57894089837482 5.09713
52.60377484613117 5.0676
52.62880550079408 5.07528
52.65364479223379 5.10096
52.67848674816189 5.0637
52.70352547971946 5.02121
52.72837279155837 5.04371
52.753222773982785 4.98821
52.778075429022984 5.00062
52.80312495150885 5.0183800000000005
52.827982978797436 5.00207
52.85284368481815 4.98646
52.87770707160767 4.98717
52.90276741793998 4.96376
52.92763619336701 4.95213
52.952507655698504 4.94658
52.977381806977576 4.97593
53.00245301017842 4.94693
53.02733256653592 4.93296
53.052214817996074 4.9373
53.077099766608484 4.902819999999999
53.102181859804446 4.883859999999999
53.127072229988265 4.90514
53.15196530349892 4.84579
53.17686108239249 4.86
53.20195409881522 4.82969
53.22685531582556 4.84244
53.25175924441303 4.82367
53.27666588664027 4.81492
53.30176985962693 4.81732
53.3266819565689 4.79482
53.35159677336455 4.78993
53.376514312083096 4.77095
53.40162927507703 4.76085
53.42655228516116 4.75851
53.45147802340193 4.76087
53.47660125628886 4.72286
53.50153247842639 4.72225
53.52646643496923 4.68727
53.55140312799818 4.70781
53.576537409691696 4.70252
53.60147960336152 4.71242
53.626424539786164 4.70222
53.65137222105307 4.663819999999999
53.67651758529126 4.6419999999999995
53.70147078399681 4.63253
53.72642673383343 4.62031
53.75138543689533 4.588830000000001
53.776541917524526 4.62542
53.801506154876755 4.6144099999999995
53.826473151763246 4.5632
53.851442910284916 4.58603
53.87661054126026 4.55202
53.9015858509782 4.51978
53.92656392866066 4.52574
53.95154477641532 4.52835
53.976723591801296 4.50204
54.00171000771266 4.51107
54.02669920004598 4.49567
54.051691170915745 4.474819999999999
54.076881204886796 4.47924
54.101878760928514 4.49205
54.12687910187696 4.45936
54.152077577768296 4.44879
54.1770835166946 4.46054
54.20209224691339 4.47009
54.22710377055121 4.4303
54.25231352511594 4.36992
54.27733066384342 4.35388
54.30235060239643 4.39326
54.32737334290836 4.31415
54.35259441062629 4.30258
54.377622783395324 4.32109
54.40265396455061 4.32453
54.42768795623251 4.334
54.45292037169559 4.27554
54.477960012857906 4.25252
54.50300247099511 4.21696
54.52804774825457 4.21007
54.55329154616743 4.23904
54.57834249018678 4.173
54.6033962597977 4.1554400000000005
54.6284528571545 4.16729
54.653708072335164 4.14059
54.67877035378786 4.11868
54.70383546947698 4.10772
54.72890342156389 4.1037
54.7541700889442 4.08216
54.77924374251975 4.08068
54.8043202390049 4.05996
54.82959552413022 4.05564
54.8546777351945 4.0382
54.87976279569621 3.9842699999999995
54.90485070780914 4.02718
54.930137506558005 4.00599
54.95523115074295 3.9774599999999998
54.98032765308844 3.9893099999999997
55.005427015775496 3.98529
55.03072536339621 3.9772300000000005
55.05583047570572 3.9137
55.080938454927676 3.89422
55.10604930325027 3.87908
55.131359235107396 3.90164
55.15647585066083 3.8543800000000004
55.181595341907496 3.8580699999999997
55.20671771104285 3.7745
55.232039262617704 3.7922300000000004
55.25716741665048 3.74312
55.28229845518636 3.7652
55.30743238042802 3.7547699999999997
55.33276558731939 3.7025099999999997
55.357905315183636 3.7033
55.383047936390035 3.68707
55.40819345314859 3.66793
55.433538351073295 3.6442099999999997
55.458689688238415 3.65709
55.483843927614096 3.6420199999999996
55.509197623043605 3.5914900000000003
55.53435769621134 3.5761
55.55952067826466 3.55274
55.5846865714265 3.55235
55.61005202069737 3.5718900000000002
55.63522376553902 3.55225
55.66039842818645 3.4578300000000004
55.68557601087004 3.48599
55.7109532500271 3.4564800000000004
55.73613670233794 3.5076699999999996
