TT I
1.2716486653135266 32.5537
1.2939594142134223 33.1061
1.3162702121660406 31.596999999999998
1.3385810600174564 30.9739
1.3608919586137629 29.9349
1.383202908801069 28.7818
1.405513911425503 28.7229
1.4278249673332093 28.353
1.4501343378461518 27.6938
1.4724455028545926 27.3092
1.4947567236847858 27.6356
1.517068001182951 26.4739
1.5393793361953272 25.3361
1.5616907295681737 25.4186
1.5840021821477681 24.878
1.60631369478041 24.3284
1.6286252683124185 23.8279
1.6509369035901333 24.0394
1.6732468618895553 23.8715
1.695558623192809 22.6861
1.7178704487808514 22.9892
1.7401823395001077 22.046999999999997
1.7625012545597203 22.101999999999997
1.7848028405262486 22.0707
1.8071218901122095 22.3453
1.8294236121921872 21.9803
1.8517427996910911 22.2831
1.8740620574440425 21.4371
1.8963639900671978 21.1511
1.9186833908139995 21.2124
1.9409854680117449 21.6368
1.9633050151394713 21.6226
1.9856246367570705 21.2933
2.0079269371922672 21.2675
2.03024671027244 21.7472
2.0525491637446027 21.2237
2.074869091674931 21.5248
2.097171701569106 21.4077
2.1194917877373847 21.7373
2.141811954326636 21.934
2.164114805233074 21.3266
2.186435135143035 22.3575
2.208738150935709 22.5635
2.231058647554722 22.6309
2.2533792288321184 22.4994
2.275682498336085 22.3048
2.298003251406138 23.0199
2.3203066942619714 22.4459
2.3426276225136022 21.6134
2.3649486396617507 22.1935
2.387252348930071 22.5309
2.4095735463442893 21.8944
2.4318774374315884 21.9016
2.4541988185014043 22.4115
2.476502894794693 23.0846
2.498824462909887 23.0236
2.521146125856138 23.0428
2.5434504863470337 23.0691
2.5657723414244717 23.2125
2.588076895590662 23.8727
2.610398946189713 24.4677
2.6327210958598384 25.2253
2.6550259469304716 25.0284
2.6773482972090137 26.053
2.6996533504259 27.2522
2.7219759047039602 27.9296
2.744298562293959 27.7943
2.7666039251246595 28.999000000000002
2.7889267918020164 30.2475
2.8112323652516555 31.2482
2.833555444408179 33.1399
2.8558786311183852 34.7514
2.8781845268938557 36.9195
2.9005079311721484 39.0201
2.9228140460410397 41.4748
2.9451376712799635 43.7988
2.967444008632326 46.9749
2.9897678582247247 51.1402
3.0120918213106695 55.353
3.0343984987899373 59.12
3.0567226913198637 63.9559
3.079029599759726 69.3114
3.101354025127254 73.6956
3.123678568232338 76.768
3.145985829517914 79.2039
3.16831061055229 79.4309
3.1906181112775593 77.6292
3.212943133635653 75.5854
3.2352682779763207 70.4656
3.2575761442691227 65.1424
3.2799015350264273 59.7343
3.302209649240067 54.0572
3.3245352898092655 49.0325
3.3468436553365257 45.349
3.369169549113219 41.7784
3.3914955708171384 39.0743
3.413804319727358 36.7137
3.4361305997334863 34.8163
3.4584396084414553 33.2415
3.4807661501462652 32.3206
3.503092824025881 31.3985
3.5254022288463154 30.570999999999998
3.5477291695206588 30.2017
3.5700388426251948 30.1394
3.5923660534916446 30.5362
3.6146934007816114 31.2503
3.637003482731501 31.8283
3.6593311053109985 32.086
3.681641464033634 31.4334
3.7039693653009733 31.4535
3.726297407241705 30.5137
3.7486081875460804 29.445
3.7709365132734978 28.7293
3.793247578841633 28.1825
3.8155761917550093 27.6687
3.8378875459837216 27.5865
3.8602164494827234 27.3617
3.882545499606844 27.9545
3.9048572932539183 28.5961
3.9271866390645718 28.2385
3.9494987298666713 28.0742
3.971828374764527 28.2302
3.9941581705403255 28.495
4.016470713506008 29.0304
4.038800813471445 29.9112
4.061113662089144 30.3
4.0834440696459176 31.4727
4.105774632334751 31.8518
4.128087945865126 33.008
4.150418821249301 34.3935
4.172732448931298 36.5121
4.195063640413578 38.6078
4.2173775856475215 42.6013
4.239709096631102 46.0544
4.262040768704612 50.5449
4.284355196706267 53.0566
4.306687193387355 54.3801
4.329001947444346 53.2484
4.35133427213731 50.338
4.373666762177566 47.1482
4.395982011761091 44.2067
4.418314834921175 42.5849
4.44063041906622 42.1012
4.4629635787515625 41.6463
4.4852969080429785 41.5261
4.5076130004776225 41.6642
4.529946671403969 40.582
4.552263106909177 40.3408
4.574597122877047 40.3013
4.596931312711224 40.7002
4.619248269273446 40.9494
4.6415828092605835 41.1344
4.663900117405352 41.4481
4.686235010953232 42.1268
4.708552674085913 42.8082
4.730887924602802 44.2852
4.753223354952695 45.2681
4.775541557023902 47.0597
4.797877349456786 48.4422
4.820195915032126 50.4053
4.842532072957498 51.9025
4.864868414979744 53.6267
4.88718753227192 56.3781
4.909524244902505 59.3878
4.931843734218147 62.6276
4.954180820867835 66.633
4.976518095879839 72.2781
4.998838149695359 78.5342
5.021175803844231 88.5696
5.043496238205739 99.7286
5.065834274903528 110.76
5.088172504230693 121.949
5.1104935158799565 135.775
5.132832132875765 155.898
5.155153533596801 183.481
5.1774925416746225 223.894
5.199814334878411 295.296
5.2221537374521505 436.282
5.244493338631803 655.216
5.266815727034316 938.985
5.289155727832427 1410.79
5.311478517248165 2420.27
5.333818921080011 3722.33
5.356159527788849 4472.41
5.3784829252032536 3536.88
5.400823940070432 2051.21
5.423147747031976 976.25
5.445489173474152 510.035
5.467830807066149 334.825
5.490155234831516 253.38
5.512497285125229 204.53599999999997
5.534822130975162 174.706
5.557164601388673 153.685
5.579489868738879 137.032
5.601832762690846 126.031
5.6241758697774475 118.023
5.646501775867269 113.07700000000001
5.668845311622074 109.678
5.691171647754637 107.219
5.713515615597765 104.454
5.735859800852677 101.27600000000001
5.758186788542988 98.7877
5.780531411018185 98.4668
5.802858837297399 98.0916
5.825203900414495 98.734
5.8475491852224 101.00200000000001
5.869877275883075 103.85799999999999
5.892223006467101 109.59899999999999
5.914551544266608 115.235
5.936897724049891 123.884
5.959244129804903 136.577
5.981573344815301 155.911
6.0039202049061 186.118
6.026249875609095 236.641
6.04859719346037 307.307
6.070927323278297 397.43199999999996
6.093275102315365 521.5409999999999
6.115623113320588 681.303
6.137953938319995 944.0930000000001
6.160302415650845 1237.42
6.182633708324452 1241.56
6.2049826554078376 968.779
6.227331838745022 613.564
6.249663839443684 381.287
6.27201349767565 257.968
6.294345974611799 190.748
6.316696111167083 145.437
6.339046488263839 117.016
6.361379686074702 99.046
6.383730546639482 86.8082
6.406064229255215 77.2815
6.428415576718203 70.9955
6.450749747566656 66.0038
6.47310158535871 62.2583
6.495453669698332 58.8573
6.517788579421056 55.7545
6.540141159237969 53.0894
6.562476565766648 51.7283
6.5848296444934045 50.1837
6.607182974060425 49.516999999999996
6.6295191323281015 48.9112
6.651872965955752 48.7627
6.6742096296068985 48.2194
6.6965639707294615 48.744
6.71891856698715 48.7697
6.741255995248479 48.6082
6.763611104154477 47.9047
6.785949046381137 46.6053
6.808304671371482 44.8462
6.8306605557940046 43.6725
6.852999275508618 42.4448
6.875355681171544 41.7648
6.897694923437771 41.1912
6.92005185377892 40.899
6.9423916220322655 40.3858
6.964749080490181 39.3607
6.987106804399774 39.364000000000004
7.009447368180821 39.5701
7.031805625367033 39.6682
7.054146723727803 39.5859
7.076505517631004 39.3144
7.098864581288365 39.5422
7.121206488070854 39.8514
7.143566093607822 39.6801
7.165908543567245 40.2322
7.188268694426048 40.6368
7.2106291193438095 41.1843
7.232972390625943 42.7225
7.255333366030969 44.4213
7.277677189091925 47.0342
7.300038718428332 50.5753
7.322400526130865 52.5161
7.344745183422596 52.2194
7.367107550224791 49.3327
7.389452767901992 46.232
7.411815697249891 43.5771
7.434161478756298 42.1842
7.456524974096713 41.7931
7.478888753837185 42.441
7.501235387657368 44.8071
7.523599738562711 52.1375
7.545946944825532 77.0075
7.568311870344528 130.863
7.5906770845765665 187.578
7.613025156078678 176.368
7.635390950099687 114.954
7.657739602662809 69.1041
7.680105979923558 49.7186
7.702472650212829 43.3223
7.724822180948224 40.2977
7.747189439655568 39.0942
7.769539560075357 38.1274
7.791907410653562 37.8781
7.81425812420825 37.3484
7.836626570110925 36.9377
7.858995315087906 37.1181
7.881346924933401 37.2902
7.903716270417482 37.1349
7.926068482028405 37.3646
7.948438431475253 37.4644
7.9708086843180235 37.8159
7.993161805171116 38.1426
8.015532667162402 38.1324
8.037886398416653 38.46
8.060257873014221 39.104
8.082629655331942 39.3776
8.104984308787587 39.7885
8.127356708900503 40.3046
8.149711981398308 41.201
8.172085002766314 41.8614
8.194458336181368 42.4485
8.216814543847752 43.2028
8.23918850371002 44.2981
8.26154533906492 45.0834
8.283919928836452 46.203
8.306277395339652 46.4891
8.328652618483376 47.425
8.351028159736202 49.4562
8.373386579575245 51.8866
8.395762759396959 53.6181
8.418121819038275 56.308
8.440498640894003 60.0319
8.462875785192262 64.9965
8.485235811156207 71.2041
8.507613602688501 79.6071
8.529974277114228 94.1836
8.552352719347912 114.56200000000001
8.574731488360351 144.505
8.59709314210385 177.59400000000002
8.619472567021075 206.24900000000002
8.64183487789147 244.27900000000002
8.664214962183097 327.844
8.686577933647762 482.226
8.708958680784317 675.043
8.731339760774953 789.84
8.753703729764451 710.1569999999999
8.77608547780821 495.19300000000004
8.798450116065078 317.415
8.820832535634787 208.0
8.843215292401656 148.153
8.865580941199045 116.596
8.887964374703538 99.0658
8.910330701447199 88.3346
8.932714815164482 80.6451
8.955099270424924 75.7227
8.977466620733543 72.2792
8.999851761421976 69.3956
9.022219798361645 66.7822
9.04460562795561 64.7692
9.066991803441677 63.5078
9.089360876979615 62.5285
9.111747746589993 62.0309
9.13411751544971 61.8597
9.156505082664324 62.1699
9.178875550323522 63.7752
9.20126381862328 67.4079
9.223652438908596 76.1837
9.246023961427412 106.271
9.26841328802173 185.66
9.290785518039224 286.631
9.313175554425882 322.394
9.335565947154315 241.074
9.357939245086508 142.207
9.380330352834827 90.4045
9.40270436697103 70.3509
9.425096193225055 62.6687
9.447488380180165 59.438
9.469863475295412 57.4578
9.492256385987508 55.8378
9.514632206018318 54.957
9.537025843935714 54.4282
9.559402392368193 54.3262
9.581796761000229 53.7758
9.604191496441521 53.8803
9.626569144158516 54.0991
9.648964615551032 54.3783
9.671343000390081 55.0087
9.693739211225699 55.3254
9.716135793237463 56.0887
9.738515290448102 56.5282
9.760912617143402 57.0923
9.783292860202891 57.5861
9.805690935076182 58.3186
9.828089385495742 59.19
9.850470754023561 61.1126
9.872869957865444 63.2404
9.89525208097539 65.2672
9.917652041736662 68.2156
9.940052382417589 71.7201
9.962435644102392 76.3881
9.984836746950979 82.5488
10.007220771957746 92.8133
10.029622640473708 109.56200000000001
10.052007432299963 133.756
10.074410069984072 157.384
10.096813093716005 179.937
10.119199042482517 199.081
10.141602840636468 230.93599999999998
10.163989564971628 295.81
10.186394141051062 429.043
10.208799107559706 612.92
10.231187001965623 760.466
10.253592751657669 762.319
10.275981430388155 592.021
10.298387966769793 393.23199999999997
10.320794897965431 262.257
10.343184759907361 182.987
10.36559248305461 136.918
10.387983138083852 111.3
10.410391656691655 96.8209
10.432800574501677 88.0642
10.455192425893369 83.2484
10.47760214443012 83.1342
10.499994797678786 85.822
10.522405320453982 89.8712
10.54479877906917 93.5785
10.567210109595656 95.2522
10.5896218454736 99.8361
10.612016518879773 113.585
10.634429067781074 142.575
10.656824555333241 190.96599999999998
10.679237920773568 249.293
10.701651695961992 284.507
10.724048411481384 275.237
10.746463008485165 233.949
10.768860546937125 177.329
10.791275969274796 119.891
10.81369180576079 84.583
10.836090585366925 67.3119
10.858507252467449 58.9114
10.88090686379991 54.5208
10.903324365036394 51.6808
10.925724811614439 49.6008
10.948143150509463 48.5062
10.970561909719066 46.9496
10.992963615930844 46.0468
11.015383218085756 45.3986
11.037785768347074 44.4993
11.06020621697282 44.1204
11.082627090322113 43.801
11.105030913430326 42.8761
11.12745263854165 42.626999999999995
11.149857314510728 42.21
11.172279894912576 42.2918
11.194702904450653 41.9127
11.217108866490921 41.5537
11.239532736615194 41.2633
11.26193956033512 41.2656
11.284364294577085 40.8596
11.306789462371718 40.3189
11.329197585398376 40.1021
11.351623622610898 39.6871
11.37403261614354 39.1388
11.396459526308487 39.0683
11.418869393879497 38.6078
11.441297180532617 38.4345
11.463725406927658 38.0969
11.486136592353875 37.9331
11.508565700543707 37.8757
11.530977768845315 37.8637
11.553407762368774 37.7127
11.575838200059769 37.8657
11.598251599479612 37.9237
11.620682927815501 37.8965
11.64309721895548 37.6803
11.665529441478206 37.4044
11.687962112597958 37.2232
11.710377748130886 37.1379
11.732811318753434 37.1796
11.755227854859067 37.2064
11.777662328529495 37.3614
11.800079768750786 37.5433
11.822515149015453 37.7029
11.844950984084935 38.3462
11.867369787303163 38.3573
11.889806534289491 39.0157
11.912226250487029 40.9499
11.934663912939751 44.1418
11.9571020346363 53.1928
11.979523127133968 73.5934
12.001962169624331 99.2018
12.024384183972964 111.921
12.046824150809913 101.15899999999999
12.069264581333726 75.8509
12.091687985297767 57.5043
12.11412934550045 49.5465
12.136553680195208 47.3828
12.158995973632788 47.99100000000001
12.181438735204349 48.6447
12.20386447284199 49.5458
12.226308172985636 51.2581
12.24873485024193 54.4654
12.271179492516982 59.9625
12.293607112949127 67.7958
12.316052700916226 78.6699
12.338498763250042 89.7061
12.360927805303868 92.8318
12.383374818673879 87.6412
12.405804812803074 76.1024
12.428252780773262 64.0614
12.45070122756722 55.3015
12.473132656675375 50.0614
12.49558206341869 46.7173
12.518014453510101 44.2184
12.540464823770117 42.3966
12.562915677315177 41.1313
12.58534951575545 40.5867
12.607801338171472 40.076
12.630236146511358 39.7518
12.652688941369085 39.9872
12.675124723177234 40.0816
12.697578494048786 40.1436
12.720032754458185 40.024
12.742470003354093 39.8242
12.764925245138771 39.7267
12.787363476431278 39.4819
12.809819703166806 39.2132
12.83227642391173 39.3019
12.854716135692716 39.3959
12.877173846755147 39.8109
12.899614549869717 39.9893
12.9220732548287 40.1291
12.94453245827299 40.1307
12.966974655289818 40.5182
12.989434858002571 40.8284
13.011878055298721 41.3009
13.034339260862497 42.2184
13.056800969391883 42.9836
13.079245674017244 44.34
13.101708390774869 46.4068
13.12415410463411 51.2735
13.146617833206086 58.5841
13.169064559883248 64.6364
13.191529303857127 66.3157
13.213994557076367 65.9876
13.236442809902437 65.7598
13.258909083908291 67.6007
13.28135835851934 69.529
13.30382565690295 71.8065
13.326293469022952 75.01100000000001
13.348744283242008 80.9881
13.371213125129904 92.76
13.39366497011003 111.415
13.416134845360597 140.389
13.438605238843131 176.96400000000003
13.46105863690397 205.0
13.483530069144786 208.74599999999998
13.505984506951902 184.217
13.528456981549432 148.085
13.550929978879088 118.564
13.573385983253365 100.90799999999999
13.595860028340867 90.8313
13.618317081455832 85.5747
13.64079217790333 81.673
13.663250283359057 79.5745
13.685726434770173 80.7143
13.708203115221277 86.917
13.730662806148091 98.8536
13.75314054697177 118.20100000000001
13.775601299246777 149.299
13.798080104050406 182.79
13.820559442405358 197.921
13.843021793671388 184.46599999999998
13.865502201420897 150.17600000000002
13.887965623051947 113.318
13.910447103807167 87.152
13.932929122629764 71.2647
13.955394156785959 62.6751
13.977877254034569 56.7273
14.000343367582113 52.836000000000006
14.022827546871707 50.2624
14.045294743423524 48.58
14.06778000837062 47.4874
14.090265817715476 47.1524
14.112734645763819 47.2533
14.13522154619454 48.6246
14.157691466286913 53.8911
14.180179461423874 67.86
14.202668005486178 86.6668
14.22513957064374 100.353
14.247629214846473 100.854
14.270101881097517 84.1018
14.29259262906496 64.2309
14.315083930490205 52.3031
14.337558255389705 46.5406
14.360050666019726 44.0474
14.382526101071944 42.4695
14.405019624534942 41.4912
14.427513705993134 40.9823
14.449990813291825 40.6006
14.47248601302899 40.1552
14.49496423954951 40.0089
14.517460561197822 39.8576
14.539939910570322 39.3371
14.562437357763558 39.3069
14.58493536931253 39.3996
14.607416409993311 39.4702
14.62991555254159 39.5535
14.652397725157423 39.6977
14.674898002342799 39.8521
14.697398848433282 39.812
14.719882725991326 40.0372
14.74238471217934 40.0044
14.764869730765593 40.4319
14.787372860692983 40.7398
14.809876564079925 41.5503
14.83236330125751 42.6724
14.854868153850365 44.2797
14.877356041159485 46.1174
14.899862046604186 48.1279
14.922351087688757 50.0313
14.944858249632887 50.6632
14.967365991421232 51.3169
14.989856770231246 52.6337
15.012365673994204 55.3555
15.03485761569738 60.1914
15.05736768508665 68.1573
15.07987833888692 79.1987
15.102372032001655 95.5524
15.124883856909658 111.525
15.14737872204565 119.569
15.169891721717274 115.416
15.192405310371893 102.494
15.214901940621196 86.0922
15.237416709527137 71.3435
15.259914520936249 61.0596
15.282430473753607 53.5388
15.304947020131227 48.8185
15.327446610371178 45.9614
15.349964346154254 44.0327
15.372465126703139 42.7249
15.394984055556009 41.9456
15.417486030076159 41.1684
15.44000615566487 40.4065
15.462526881230803 40.2451
15.485030653812652 40.0544
15.507552581617434 39.7347
15.530057557334603 39.6016
15.55258069104857 39.4471
15.575104429329837 39.4365
15.597611216864632 39.3579
15.620136166564563 39.3238
15.6426441664095 39.2892
15.665170331202765 39.3818
15.687697105158826 39.8939
15.710206930593545 40.3258
15.732734925158933 40.9493
15.755245972089478 41.9865
15.77777519094324 43.6718
15.800287463046663 45.4999
15.822817909869592 47.0023
15.84534897229804 47.7293
15.867863089299354 48.5567
15.890395385222186 49.4138
15.912910736597423 50.7288
15.935444269699861 53.8499
15.957978423016485 58.8405
15.980495633101265 65.9729
16.003031029129367 77.1101
16.02554948280019 92.1762
16.048086125229432 107.181
16.070623392487107 115.186
16.09314371869582 114.76700000000001
16.11568223789321 106.912
16.13820381691126 95.3296
16.160743591742527 83.26
16.183283996022084 70.56
16.205807461423195 58.4148
16.228349126881973 49.7308
16.25087385432698 44.8265
16.27341678466365 41.6359
16.29594277784926 39.8816
16.31848697676433 38.5246
16.341031811604868 37.4297
16.36355971058487 36.7808
16.3861058195587 36.2265
16.40863499352978 35.4893
16.431182380342005 35.3037
16.453730407713202 34.8349
16.476261501364792 34.3675
16.498810812136167 34.0563
16.52134319004079 33.853
16.54389378792203 33.5975
16.566445031001553 33.3474
16.588979342490088 33.1563
16.61153187824822 33.1343
16.634067483263312 33.128
16.656621315414416 32.8331
16.679175797408888 32.5713
16.701713349928728 32.6665
16.72426913389191 32.7575
16.74680798922351 32.6595
16.76936507887444 32.5604
16.791905240734874 32.5253
16.814463639794468 32.4772
16.837022695210294 32.579
16.859564824093756 32.5947
16.882125194503903 32.6733
16.904668639217885 32.9484
16.927230328348003 33.369
16.949792678493612 34.7845
16.972338104193863 37.311
16.994901778652235 40.1967
17.017448529496576 42.1955
17.040013531998152 42.698
17.06257920018044 40.8653
17.0851279459922 38.0405
17.107694947817667 35.8018
17.130245028099072 34.6669
17.15281336730298 34.2473
17.17536478578733 34.3412
17.19793446610687 34.5302
17.220504818648422 34.7045
17.243058251703697 34.5259
17.265629950971032 34.9528
17.288184731571736 35.0987
17.310757781306908 35.5853
17.33333150794385 35.69
17.355888317140174 36.1569
17.37846339986244 37.0964
17.401021565958885 38.5741
17.42359800851343 40.7629
17.44617513265564 43.3931
17.468735341390783 46.6104
17.491261035594565 49.2034
17.51396340099364 49.7756
17.536490463869136 48.3819
17.559018209820174 45.2645
17.58154663977963 42.1161
17.604251766089718 39.608000000000004
17.626781572227713 37.949
17.64931206518155 36.8447
17.671843245885103 36.3984
17.69455114821572 36.0215
17.717083712612634 35.8978
17.739616967569667 35.9611
17.762150914021706 36.3546
17.78486160749854 37.3287
17.807396945166804 39.3733
17.829932977143503 41.6531
17.85246970436452 43.5965
17.875183204129467 44.4341
17.897721330097664 43.446000000000005
17.920260154126645 41.8793
17.942799677153296 40.5655
17.9655159983646 40.1714
17.988056927677544 40.7965
18.010598558807683 41.8226
18.033140892692916 42.6316
18.05586005052525 42.8461
18.07840379824407 43.2905
18.10094825154059 43.7683
18.12366954819864 44.583999999999996
18.146215420998306 45.7236
18.16876200220057 47.9332
18.191309292745153 51.2242
18.214033452627167 56.7307
18.236582170236648 64.1443
18.259131600016456 74.3143
18.281681742907335 84.8709
18.304408781233683 91.7314
18.32696035875955 91.7294
18.349512652227624 85.0204
18.372065662579683 75.0426
18.394795594587553 64.8916
18.41735004715306 58.336999999999996
18.43990521943684 54.8377
18.46246111238171 53.8258
18.485193953325208 54.8239
18.507751296070428 57.9419
18.530309362314178 62.9156
18.552868153000343 66.891
18.57560391815056 68.7598
18.59816416623245 68.331
18.620725141597372 64.4535
18.643286845190268 59.3648
18.666025549835414 54.513999999999996
18.688588718427933 49.8288
18.711152618092243 45.9095
18.73389353884365 42.4729
18.75645890921984 39.9934
18.77902501351406 38.556
18.801591852673102 37.6377
18.824335739722738 36.8533
18.846904057212626 36.5226
18.8694731124168 36.0113
18.89204290628315 35.7885
18.914789774966803 35.5548
18.937361054791623 35.1596
18.959933076131318 34.9108
18.982505839934877 34.8565
19.00525570560582 34.7008
19.027829963004184 34.6556
19.05040496572238 34.653
19.072980714710468 34.5199
19.095733592739563 34.3835
19.11831084296757 34.3355
19.140888842324735 34.3023
19.16346759176222 34.1293
19.18622349753803 34.4415
19.208803755869358 34.7983
19.231384767143577 35.0998
19.253966532312948 35.439
19.276725481241822 35.8819
19.29930876296784 36.1909
19.3218928014549 36.6693
19.34465404436217 38.1301
19.36723960516257 40.5942
19.389825925592426 44.1792
19.412413006605938 47.8411
19.43517731967805 49.9081
19.457765930683355 49.8495
19.48035530514408 47.7321
19.50294544401556 45.8509
19.525712842708348 45.1606
19.54830451925909 45.7941
19.570896963095727 46.3367
19.593490175174704 46.4113
19.616260674962184 45.2909
19.638855432416964 42.8385
19.661450960992624 40.4238
19.68404726164677 37.997
19.706820878021247 36.2287
19.729418731756834 35.3731
19.752017360452857 34.2999
19.77461676506804 33.857
19.797393513540218 33.3676
19.819994478951667 32.9813
19.84259622316767 32.9587
19.8651987471481 32.7437
19.887978643247177 32.5402
19.91058273574792 32.6372
19.933187610901943 32.6581
19.955969879466828 32.8081
19.97857632894404 33.0262
20.00118356396599 32.965
20.023791585494575 33.0698
20.046577028914875 33.3201
20.069186632506966 33.0396
20.091797025500632 33.3321
20.114408208858933 33.4352
20.137196842715273 33.7606
20.159809615886765 34.4906
20.18242318232135 35.255
20.20503754298326 36.3333
20.227829382875154 37.9168
20.250445341109344 39.9513
20.27306209647285 42.2407
20.29567964993108 43.9567
20.31847471147704 44.6853
20.34109387027612 44.1666
20.363713830075454 42.552
20.386334591841646 40.7362
20.409132890679302 39.0937
20.431755265564437 38.1504
20.454378445325528 38.102
20.477002430930366 38.8578
20.499803982716553 40.0855
20.522429589228004 41.5635
20.54505600449589 42.2606
20.567683229489194 42.0703
20.590488049900088 40.7497
20.61311690359731 38.5056
20.63574656993626 36.5487
20.658553853717297 34.5192
20.681185154618298 33.3835
20.703817271080066 32.6051
20.72645020407368 31.8227
20.749260783967177 31.5927
20.771895359337133 31.5772
20.794530754161617 31.6259
20.817166969412938 32.5004
20.83998086114876 33.4803
20.86261872660049 34.5395
20.885257415405402 35.2023
20.90789692853701 35.01
20.930714147864748 33.9716
20.953355319030678 32.4559
20.97599731745334 31.3346
20.99864014410749 30.2758
21.021460706796564 29.829
21.044105199328826 29.771
21.06675052302631 29.662
21.089396678865015 29.7165
21.112220600704806 29.6446
21.134868430275347 29.6724
21.15751709492456 29.4737
21.180166595629693 29.4551
21.202993892429635 29.3967
21.22564507473034 29.2951
21.24829709602816 29.3304
21.27112693608965 29.4634
21.293780644891275 29.6741
21.316435195634053 29.6838
21.339090589297417 29.6377
21.361923832041875 29.9295
21.384580921090404 30.2151
21.407238856007325 30.4797
21.429897637773326 31.1849
21.45273429906592 31.976
21.475394784108598 32.2453
21.498056118951983 32.2552
21.520718304578022 32.1958
21.543558400304388 32.0014
21.566222297108816 31.7038
21.58888704765135 31.2587
21.61155265291521 30.9273
21.63439619898156 30.5736
21.657063523335786 30.1876
21.67973170537063 29.9911
21.7024007460706 29.9728
21.72524775840385 30.1189
21.747918526116475 30.4714
21.770590155457388 30.6374
21.79326264741238 30.8817
21.816113141960237 31.0149
21.838787368860547 31.1007
21.861462461341976 31.1376
21.884315579735777 31.3218
21.90699241312273 31.642
21.92967011506078 31.8107
21.95234868653799 32.3256
21.9752053151131 32.9519
21.997885635446785 33.7122
22.020566828293532 34.9182
22.04324889464272 36.2905
22.066109049404666 37.6848
22.088792872571794 39.8108
22.111477572219204 41.9198
22.1341631493376 43.3307
22.157026846313123 44.0731
22.179714188221507 43.8258
22.202402410582668 43.18899999999999
22.22509151438863 41.9725
22.24795876962584 41.0714
22.270649646204486 40.3004
22.293341407213727 39.3055
22.316034053646906 38.7885
22.338904883215342 38.2006
22.36159931041458 37.6791
22.38429462602756 37.0798
22.40699083104897 35.8822
22.429865251039757 34.7735
22.452563244831367 33.792
22.47526213102522 32.7897
22.49813925616515 32.1296
22.520839937143307 31.5628
22.543541513520587 31.1781
22.56624398629403 30.805
22.589124730075895 30.4524
22.611829005656723 30.5907
22.63453418063466 30.3558
22.657240256008077 30.246
22.680124634582935 30.2813
22.70283252079775 30.2355
22.725541310413075 30.105
22.74825100442868 30.2955
22.771139033969575 30.3383
22.79385054687155 30.4889
22.81656296718292 30.9008
22.83927629590484 31.4983
22.862167992606945 31.9759
22.88488314827121 32.4648
22.907599215359284 32.5897
22.93031619487366 32.634
22.953211574954405 32.2822
22.975930389478226 31.9009
22.998650119445763 31.6629
23.02137076586092 31.4463
23.044269845560063 31.6794
23.06699233506288 32.2052
23.089715744034912 32.741
23.112617610931565 33.6474
23.135342869061212 34.9408
23.158069049684816 36.3047
23.1807961538087 37.996
23.20370174880544 39.2041
23.226430710184808 39.5286
23.249160598093425 38.916
23.271891413539002 37.567
23.294800752937697 35.9103
23.31753343374794 34.4244
23.340267045128353 33.2275
23.36300158808808 32.6421
23.38591468821339 32.0341
23.408651104658304 31.976999999999997
23.431388455719986 32.0606
23.454126742409 32.3488
23.4770436196085 33.1466
23.499783787914662 33.9359
23.522524894889884 34.4687
23.54526694154616 34.6004
23.56818761219047 34.5221
23.59093154860734 33.8131
23.613676427751283 33.1759
23.636422250635754 32.5684
23.659346731118656 32.4519
23.68209445191868 32.7444
23.704843119509587 33.2093
23.72759273490623 33.9573
23.750521041644767 35.1625
23.77327256312355 36.5631
23.796025035462787 38.2872
23.818956224555475 39.6264
23.841710609113413 40.4074
23.86446594758979 39.8849
23.887222241002014 38.4336
23.910157285144578 36.488
23.932915498962537 34.6911
23.955674670778713 32.9138
23.978434801611975 31.8758
24.001373717286125 30.9639
24.024135776723917 30.3261
24.046898798245582 29.8244
24.06966278287146 29.728
24.092605586582614 29.4974
24.115371508023642 29.4273
24.1381383956401 29.3512
24.16090625045381 29.4277
24.183852958731244 29.0623
24.206622758582608 28.8134
24.229393528706886 28.3678
24.252165270127392 28.2412
24.27511589952438 27.9246
24.297889594216997 27.5149
24.32066426328598 27.4466
24.34343990775613 27.6071
24.36639447485003 27.4919
24.38917208083877 27.3757
24.41195066531332 27.2799
24.43490819850244 27.1126
24.457688750692377 27.0581
24.48047028445616 27.085
24.503252800821233 27.029
24.526214300784112 26.9872
24.548998793132213 26.8975
24.57178427117417 26.750999999999998
24.59457073593893 26.9074
24.617536219319863 26.8471
24.64032466834748 26.9943
24.663114107195035 27.1072
24.685904536893013 27.283
24.708874020360852 27.6385
24.731666442613744 28.0907
24.754459858818787 28.2048
24.777254270007962 28.6101
24.80022777025625 28.3642
24.82302418230472 28.049
24.845821592443674 27.6146
24.86862000170663 27.3005
24.891597535453727 26.8988
24.914397953892728 26.9221
24.93719937456671 26.7455
24.96000179851076 26.7077
24.98298338249997 26.5873
25.00578782394922 26.6939
25.028593271784167 26.4963
25.05157790644186 26.5877
25.07438537804115 26.5718
25.097193859145293 26.5148
25.120003350792075 26.4424
25.142992065061257 26.5285
25.165803588823465 26.7213
25.18861612625217 26.7611
25.211429678386736 26.7871
25.234422489079968 26.9364
25.257238081693636 27.0288
25.280054692141732 27.3076
25.3028723214652 27.5477
25.325869245420463 28.0517
25.348688923599397 28.4415
25.371509623787006 28.7895
25.394331347025812 29.0503
25.41733240110666 29.2353
25.440156181590016 29.2481
25.46298098826268 29.3003
25.48580682216873 29.2035
25.50881202326435 29.084
25.53163992281684 29.1924
25.55446885274561 29.570999999999998
25.577298814096377 29.9442
25.600308179121807 30.2622
25.623140214533745 30.3843
25.64597328451537 30.2357
25.66898578564376 29.467
25.691820936010206 28.7634
25.714657124097695 28.0224
25.737494350954734 27.444000000000003
25.760511045684957 26.9654
25.783350361364224 26.7064
25.806190718969255 26.6274
25.82903211955018 26.5711
25.852053024868923 26.5403
25.874896522722523 26.67
25.897741066713106 26.7603
25.920586657892454 26.9002
25.943611790812668 26.921999999999997
25.966459487728237 26.8518
25.989308234998564 26.5586
26.01215803367705 26.2508
26.03518741123814 26.0673
26.05803932412957 25.8572
26.080892291600094 25.7318
26.10374631470478 25.738000000000003
26.12677995397268 25.7561
26.14963609978026 25.7934
26.172493304397875 25.7015
26.19535156888223 25.9265
26.218389486949604 26.0032
26.241249882640123 26.1394
26.26411134137826 26.3492
26.28715248187403 26.6784
26.31001607820869 26.8619
26.3328807407756 27.2413
26.35574647063438 27.6051
26.37879191991473 27.6213
26.401659795896734 27.5504
26.424528742360263 27.4251
26.447398760366614 27.1893
26.470448535598294 26.8719
26.49332070826805 26.5901
26.516193955675355 26.4079
26.53906827888316 26.3171
26.562122397260108 26.0875
26.584998883685063 26.0244
26.607876449110325 25.9486
26.63075509460056 25.9505
26.65381357334404 25.8511
26.67669439061878 25.9163
26.699576291163382 25.9605
26.722459276044212 26.1047
26.745522132402975 26.1671
26.768407297649354 26.3751
26.791293550442003 26.5178
26.814180891848974 26.8177
26.837248143099337 27.1378
26.860137673466657 27.6252
26.88302829566349 28.1112
26.90592001075963 28.5923
26.92899167420566 28.8272
26.951885586870763 28.9014
26.974780595655517 28.8087
26.99785558178161 28.9264
27.020752794605112 28.7129
27.043651106772522 28.6844
27.06655051935668 28.5437
27.089629948036183 28.3553
27.112531573292053 27.9933
27.135434302194138 27.4574
27.158338135817015 26.9456
27.181422024430987 26.424
27.204328079372566 26.1263
27.22723524226965 25.8242
27.250143514198573 25.5323
27.273231880156334 25.3814
27.296142382065014 25.1727
27.319053996245536 25.1379
27.341966723775965 25.0226
27.365059584515222 24.9134
27.38797455070062 24.9802
27.410890633481237 24.7462
27.433807833936918 24.6988
27.456905206923906 24.7914
27.47982465472398 24.7176
27.502745223449743 24.6961
27.525666914182825 24.8425
27.548768816912457 24.7922
27.571692763693633 24.8766
27.59461783573812 24.9669
27.617723149491244 24.8238
27.640650484125285 24.9572
27.66357894728264 24.8603
27.686508540048052 25.0495
27.709618414237887 24.8848
27.732550278321757 24.8795
27.755483275279115 25.0601
27.778417406196485 25.0588
27.801531858397514 25.2518
27.824468269376716 25.3557
27.847405817586786 25.2686
27.870344504116094 25.1884
27.893463551932008 25.1031
27.916404527281053 25.0986
27.93934664422563 24.9256
27.962289903855886 24.7412
27.98541356491974 24.7261
28.00835912214229 24.7292
28.03130582533231 24.8249
28.054253675581805 24.9693
28.077381967556104 25.1878
28.100332124185126 25.3619
28.123283431160893 25.4664
28.146235889577238 25.7063
28.169368830154156 25.7868
28.192323603752033 25.7512
28.215279532083304 25.4871
28.238415973016764 25.5008
28.261374223145094 25.7743
28.284333631303806 25.9607
28.307294198589954 26.3953
28.330435319167677 26.6883
28.353398217078915 26.7102
28.376362277420153 26.8798
28.39932750129032 26.5797
28.422473319286713 26.2082
28.44544088262495 26.1384
28.468409612800283 25.9773
28.491379510913497 25.697
28.51453004413313 25.5507
28.53750229057244 25.5184
28.56047570826344 25.3614
28.583450298308804 25.1045
28.606605564586562 24.9353
28.629582511831156 24.7668
28.65256063474956 24.4588
28.675539934446338 24.3376
28.698699951647605 24.1502
28.72168161743193 23.9107
28.74466446331978 23.7627
28.767648490417624 23.5287
28.790813276438353 23.278000000000002
28.813799678527303 23.1891
28.836787265157085 23.1147
28.859955641890075 23.1079
28.882945610203045 23.0409
28.905936766392035 22.8307
28.928929111566863 22.8835
28.952102288520145 22.8804
28.975097024308607 22.7967
28.998092952423807 22.7448
29.021090073977508 22.7843
29.04426806913204 22.7302
29.067267590245258 22.7012
29.090268308143695 22.8123
29.11327022394099 22.9369
29.13645305530891 22.8546
29.159457379627167 22.9588
29.18246290519685 23.1053
29.20546963313352 23.0705
29.22865731875826 23.0986
29.25166646419296 22.9624
29.27467681535305 22.6567
29.29768837335608 22.6196
29.320880931312562 22.5092
29.34389491580634 22.3648
29.366910110507334 22.2514
29.38992651653503 22.2527
29.41312396492981 22.1322
29.436142806456754 22.0915
29.45916286268059 22.1005
29.48236399319994 22.0896
29.50538649169417 21.9677
29.528410208259935 22.0361
29.55143514402014 22.0743
29.574641196749695 22.1163
29.597668583816574 22.0651
29.6206971934585 22.0667
29.64372702680042 22.1802
29.666938019934474 22.2359
29.689970313635285 22.3325
29.713003834422636 22.2968
29.73603858342347 22.2706
29.759254535188578 22.1268
29.78229175361658 22.1477
29.80533020365064 21.8764
29.82836988641968 21.7561
29.85159081507472 21.6193
29.874632976355343 21.5077
29.89767637376955 21.4773
29.920721008448314 21.4332
29.9439469322847 21.4009
29.96699405457564 21.2244
29.9900424175358 21.2358
30.013092022298157 21.2275
30.03632295963995 21.1769
30.059375061131373 21.1728
30.08242840783577 21.3504
30.105483000888153 21.361
30.128718970092244 21.3562
30.151776069006917 21.4442
30.17483441768648 21.5224
30.198074175317235 21.5298
30.221135036724256 21.5695
30.24419715131772 21.3437
30.267260520236203 21.1703
30.290505341942243 21.1356
30.313571232750228 21.1157
30.336638381310948 21.1035
30.35970678876503 21.0661
30.38295669299435 21.0545
30.40602763151657 21.0517
30.429099832366074 21.0951
30.452173296685572 21.1184
30.47542830191959 21.1432
30.498504306502497 21.2021
30.521581577995562 21.3693
30.544660117543582 21.3025
30.56792024229725 21.281999999999996
30.59100133132069 21.2558
30.614083691845494 21.0851
30.637167325018545 21.1875
30.660432587840603 21.1233
30.683518779717886 20.9517
30.70660624769615 20.9733
30.729694992924372 21.0015
30.75296541239743 20.8902
30.77605672557558 20.9015
30.799149319462742 20.9455
30.8224236211637 20.9533
30.845518789950724 20.9645
30.868615242910597 21.0122
30.891712981195973 21.0966
30.91499247215866 21.2072
30.938092794619365 21.3147
30.96119440587579 21.4491
30.984297307082752 21.5861
31.00758200598383 21.7383
31.030687500658694 21.7755
31.053794288760695 21.7851
31.076902371446767 21.7009
31.100192296997445 21.8492
31.12330298246119 21.7389
31.14641496599209 21.5969
31.169528248749216 21.6217
31.19282341969534 21.4702
31.215939314557186 21.3833
31.239056512134788 21.3439
31.262175013589378 21.1184
31.28547544871168 20.8754
31.30859657161541 20.7476
31.331719001892175 20.7591
31.35484274070538 20.595
31.378148458819545 20.5548
31.401274828443725 20.5242
31.424402510106933 20.467
31.447712205419993 20.5645
31.470842524931633 20.3737
31.493974159989783 20.4007
31.51710711176168 20.3613
31.54042212308802 20.3953
31.563557722100917 20.427
31.586694641341655 20.3821
31.609832881979628 20.3883
31.63315322823208 20.4981
31.656294125521327 20.4822
31.679436347728515 20.5513
31.70257989602529 20.5949
31.725905596152327 20.5682
31.74905181052835 20.5754
31.772199354521323 20.7314
31.79534822930507 20.7592
31.818679302290967 20.7512
31.84183085259981 20.78
31.864983737233473 20.658
31.88813795736804 20.5322
31.911474422233013 20.3469
31.934631327356435 20.2707
31.9577895715215 20.2413
31.980949155906522 20.1605
32.004291031706956 20.1168
32.027453310562606 20.0424
32.05061693318573 20.0465
32.07396288236386 20.099
32.09712920658542 20.0465
32.12029687812702 20.0967
32.14346589817093 20.1563
32.166817291729984 20.1451
32.18998902288583 20.1447
32.21316210610336 20.2018
32.23633654256711 20.1636
32.259693399663725 20.2181
32.282870556771144 20.3011
32.30604907069099 20.3032
32.329228942610065 20.2611
32.35259128243769 20.1312
32.375773884550505 20.0488
32.398957848235646 19.9335
32.422143174682176 19.7998
32.445511016471215 19.808
32.468699082679954 19.644000000000002
32.49188851523011 19.5889
32.51507931531304 19.5145
32.538452678331 19.4761
32.56164622776311 19.3724
32.58484114831493 19.2656
32.60803744118015 19.3041
32.631416344731896 19.2089
32.654615396551876 19.1145
32.67781582427913 19.0412
32.701198898634416 19.0233
32.72440209253756 18.9928
32.747606665947124 18.9507
32.77081262006088 18.8584
32.79420126883317 18.8252
32.81740999876112 18.8936
32.840620112999424 18.835
32.86383161274818 18.6886
32.88722585534586 18.7104
32.91044014056596 18.7714
32.933655814909734 18.8098
32.95687287957963 18.8251
32.98027273544904 18.7341
33.00349259526636 18.7897
33.026713849030116 18.8982
33.04993649794511 18.8327
33.073341986570746 18.847
33.09656744032826 18.8304
33.11979429286444 18.7494
33.14302254538647 18.6738
33.166433686291185 18.5312
33.18966475336992 18.5038
33.212897224069096 18.4428
33.23613109959831 18.3654
33.259547912343415 18.3882
33.2827846121627 18.3695
33.306022720453775 18.3835
33.32926223842861 18.2905
33.352684742614166 18.366
33.37592709463173 18.4349
33.399170859982064 18.3658
33.422597648419426 18.5402
33.44584425514446 18.4081
33.46909227885668 18.5259
33.4923417207723 18.5225
33.51577423505344 18.593
33.539026528130385 18.5552
33.56228024307245 18.5785
33.585535381098246 18.5083
33.60897364093058 18.4548
33.63223163992385 18.4864
33.6554910656699 18.45
33.678751919389796 18.3611
33.702195944520106 18.3062
33.72545966903325 18.2174
33.74872482519663 18.0446
33.771991414233746 18.0162
33.79544122444841 17.9676
33.81871069412428 17.7965
33.84198160035767 17.7571
33.86525394437455 17.820999999999998
33.88870955949969 17.7926
33.911984794020626 17.6914
33.93526147001624 17.6945
33.958539588715006 17.7266
33.98200102861669 17.6685
34.0052820477047 17.6116
34.02856451319451 17.6207
34.05203033759056 17.4459
34.07531571090147 17.4947
34.09860253431845 17.5591
34.121890809074316 17.5269
34.145362493118924 17.5601
34.16865368561615 17.457
34.191946333164054 17.4762
34.21524043699793 17.421
34.23871800066799 17.4364
34.26201503218366 17.4024
34.28531352370466 17.4012
34.30861347646881 17.3107
34.33209693978188 17.320999999999998
34.3553998301885 17.2369
34.378704185565205 17.160999999999998
34.402010007152356 17.1488
34.42549939016683 17.1192
34.44880815937748 17.0328
34.472118398533134 17.0876
34.49543010887669 17.0713
34.51892543169198 16.9489
34.54224009966052 16.9154
34.56555624255917 17.0206
34.58887386163339 16.930999999999997
34.61237514439016 16.9132
34.6356957311114 16.88
34.65901779775809 16.8848
34.68252356662995 16.8195
34.705848608458616 16.8727
34.72917513396849 16.8147
34.75250314440949 16.8437
34.77601490857862 16.7164
34.799345904259795 16.6764
34.82267838863559 16.6688
34.846012362958525 16.6226
34.869530142679984 16.6282
34.89286711232212 16.6585
34.91620557568269 16.6097
34.93954553401677 16.5437
34.9630693495876 16.4461
34.986412313340814 16.5116
35.00975677584668 16.45
35.033102738362956 16.3724
35.05663261012228 16.3663
35.0799815881786 16.3716
35.10333207003229 16.3114
35.12668405694369 16.2966
35.150220005273056 16.3193
35.17357501786656 16.3568
35.19693153931268 16.2879
35.220289570874385 16.3244
35.24383161619786 16.315
35.267192683604904 16.2766
35.290555264930376 16.2826
35.314101899412165 16.2092
35.33746752422433 16.1316
35.36083466676374 16.2127
35.38420332829803 16.2025
35.407756095629054 16.1815
35.43112781085063 16.1151
35.45450104888391 16.0237
35.477875810999194 16.1079
35.50143473172161 16.1184
35.52481255774625 16.135
35.54819191167777 16.0592
35.57157279478914 16.0592
35.595137889488406 16.0254
35.61852184675279 16.1144
35.641907337029984 16.1307
35.665294361595684 16.102
35.68886565090076 16.0885
35.7122557598848 16.1285
35.73564740699838 16.2531
35.759040593519934 16.2178
35.78261809810353 16.1486
35.80601437933051 16.1072
35.829412203814705 16.1586
35.85281157283719 16.0918
35.876395313415884 16.0902
35.8997977874528 16.0678
35.92320180988546 16.0406
35.946790244133936 15.9338
35.97019737933222 15.966
35.993606066789866 15.9162
36.01701630779276 15.9088
36.04061101440684 15.8188
36.06402437852291 15.802
36.08743930005611 15.7416
36.1108557802951 15.6583
36.13445678011326 15.6424
36.15787639383515 15.6443
36.18129757014299 15.5783
36.20472031032821 15.5698
36.22832762423364 15.5462
36.25175350829375 15.4742
36.275180960119776 15.4462
36.298609981005924 15.4845
36.32222362992669 15.4028
36.34565580510207 15.4358
36.36908955323448 15.4022
36.39252487562093 15.3166
36.416144880530226 15.3157
36.43958336764275 15.3388
36.463023432914625 15.3249
36.486465077645676 15.2971
36.51009145956204 15.4304
36.53353627947859 15.4643
36.55698268276811 15.3653
36.58043067073321 15.2762
36.60406345072071 15.3065
36.62751462435344 15.2397
36.65096738658405 15.1312
36.67460498210655 15.1176
36.69806093788647 15.1483
36.72151848619297 15.0994
36.744977628333636 15.1207
36.76862165890998 15.0656
36.79208400512205 15.0787
36.81554794910557 15.093
36.83901349217101 14.9002
36.862663978991606 14.9593
36.88613273667352 14.9709
36.90960309738324 15.0112
36.933075062434064 14.9861
36.95673202673572 15.0042
36.98020721697122 14.9401
37.003684015502365 14.9309
37.027162423645365 14.8798
37.050825886711465 14.8706
37.07430753063053 14.8079
37.09779078812467 14.796
37.121275660513014 14.7864
37.144945643673694 14.6897
37.16843376245278 14.6898
37.19192350009803 14.7056
37.215414857931435 14.584000000000001
37.239091382563885 14.6362
37.262585997426164 14.5385
37.28608223645736 14.5305
37.309763684451696 14.5473
37.33326318851098 14.507
37.356764320726555 14.4516
37.380267082425526 14.4942
37.40395510942588 14.4266
37.42746114683234 14.4041
37.45096881771841 14.3499
37.474478123414166 14.386
37.49817275092816 14.3407
37.52168534303452 14.3462
37.54519957395567 14.2992
37.568715445024665 14.2777
37.592416694607714 14.2462
37.61593586281424 14.2727
37.63945667518264 14.243
37.66297913304891 14.1727
37.68668702630454 14.1224
37.710212792059274 14.097999999999999
37.733740207334854 14.1466
37.757269273470364 14.0939
37.780983832050374 14.0215
37.80451621684926 14.0265
37.82805025654007 14.0609
37.851585952464795 13.9944
37.8753071980695 13.9465
37.89884622345676 13.908
37.92238690911902 13.9256
37.94611318753442 13.9578
37.969657210779765 13.8567
37.99320289834801 13.9002
38.016750251586465 13.8857
38.04048325513017 13.856
38.06403395679343 13.8212
38.087586328183946 13.8309
38.11114037065203 13.8185
38.13488012115898 13.8703
38.1584375229181 13.7798
38.181996599821 13.7151
38.205557353221124 13.7471
38.229303872575656 13.662
38.2528679961576 13.6725
38.27643380031219 13.6468
38.30000128639589 13.6077
38.32375459653193 13.5383
38.34732546371299 13.555
38.37089801690786 13.5229
38.39447225747609 13.4349
38.418232380377425 13.4546
38.441810012983396 13.4846
38.46538933705673 13.4347
38.488970353960084 13.3434
38.51273731166058 13.3447
38.536321731567014 13.3464
38.55990784840681 13.3386
38.58367995004091 13.3072
38.60726947812959 13.2416
38.63086070726198 13.3341
38.654453638806274 13.3181
38.678232613930824 13.2784
38.70182896773327 13.2191
38.72542702806741 13.2366
38.7490267963045 13.2394
38.77281266709232 13.2147
38.79641586862214 13.1958
38.8200207821842 13.1512
38.843627409152944 13.1257
38.86742019782782 13.1078
38.891030269149255 13.0754
38.914642058016156 13.1168
38.938255565806124 13.0393
38.96205529464307 13.0551
38.98567225787121 13.046
39.00929094417078 13.0615
39.03291135492255 13.0715
39.05671804624804 13.0257
39.080341923549106 12.9352
39.103967529460334 12.9018
39.127594865365744 12.8967
39.15140854155791 12.944
39.17503935514948 12.8816
39.19867190290282 12.878
39.22249083587951 12.8425
39.24612686969409 12.8157
39.269764641845306 12.8013
39.293404153722804 12.7299
39.317230110864074 12.7483
39.34087311998506 12.6898
39.36451787301696 12.6676
39.388164371352595 12.6917
39.41199737518003 12.6487
39.43564738196752 12.6629
39.45929913825317 12.6272
39.48295264543308 12.6234
39.506792718520884 12.5737
39.530449745387216 12.5552
39.55410852735203 12.5298
39.57776906581474 12.5554
39.60161623079 12.4964
39.625280300200025 12.4399
39.64894613032202 12.4208
39.67261372255866 12.4621
39.6964680021016 12.4216
39.72013913657293 12.4115
39.74381203738292 12.4565
39.76748670593756 12.3844
39.79134812278169 12.3249
39.81502634488497 12.3472
39.83870633896685 12.296
39.862388106436654 12.299000000000001
39.88625668336918 12.3229
39.90994201572829 12.2919
39.933629125719285 12.2356
39.957503091207826 12.1646
39.9811937746168 12.2481
40.00488623990914 12.1421
40.02858048850006 12.1811
40.05246165409549 12.1727
40.076159487492085 12.1208
40.099859108448875 12.1029
40.123560518384345 12.1101
40.1474489070226 12.1147
40.171153913178564 12.0621
40.194860712584955 12.0852
40.2185693066637 12.0747
40.242464941335314 12.0575
40.26617714307655 12.0711
40.289891143772046 12.079
40.3136069448471 11.9745
40.33750984859743 11.9983
40.3612292688043 11.9287
40.3849504936829 11.8991
40.40867352466194 11.9608
40.43258372059144 11.8715
40.45631038219906 11.8242
40.48003885420956 11.8193
40.503769138055105 11.8306
40.52768664931955 11.8412
40.55142057531802 11.8602
40.57515631746428 11.7864
40.599079334038514 11.8087
40.62281872700477 11.7901
40.64655994043941 11.7695
40.67030297578061 11.7331
40.69423334835778 11.7141
40.71798004609188 11.6889
40.74172857006355 11.6481
40.76547892171441 11.6906
40.7894166736039 11.6465
40.813170699248566 11.6254
40.83692655691388 11.5957
40.86068424804498 11.614
40.884629402612525 11.579
40.908390779366385 11.5379
40.932153993938 11.4862
40.95591904777605 11.4898
40.979871628443995 11.5295
41.003640379561936 11.4894
41.02741097430883 11.4873
41.05118341413683 11.5061
41.075143444384416 11.4645
41.098919593177826 11.5011
41.1226975914255 11.4667
41.14647744058318 11.4195
41.170444943946755 11.3952
41.19422851378379 11.3934
41.218013938914645 11.3393
41.24198706625173 11.3293
41.26577622087193 11.3138
41.289567235177785 11.3101
41.31336011063129 11.267000000000001
41.337340752422875 11.2262
41.361137369129835 11.2752
41.38493585138705 11.2381
41.40873620066004 11.1731
41.43272438060107 11.1902
41.45652848292052 11.1255
41.48033445666918 11.129000000000001
41.50414230331616 11.1346
41.528138045159764 11.0813
41.551949656675205 11.0381
41.575763145513235 11.0494
41.59957851314666 11.0747
41.62358184070442 10.9893
41.64740098505737 10.9932
41.6712220126409 11.0183
41.69504492493139 10.9706
41.71905586207357 10.9387
41.74288256296395 10.943
41.766711153007456 10.9503
41.79054163368412 10.9096
41.814560204340054 10.9137
41.838394485526365 10.8882
41.86223066180303 10.8333
41.88625497706819 10.8192
41.910094962812 10.8419
41.93393684811168 10.83
41.95778063445365 10.8056
41.981812625263366 10.7912
42.00566023303407 10.8003
42.029509746323676 10.7153
42.05336116662236 10.7156
42.077400857069705 10.7403
42.10125611078846 10.7123
42.12511327600405 10.6756
42.14897235421036 10.6837
42.173019768448455 10.6504
42.19688269209613 10.6373
42.22074753323349 10.6346
42.24461429335818 10.5922
42.268669455600495 10.5652
42.292540073217886 10.5577
42.31641261433284 10.5289
42.34028708044675 10.5096
42.36435001496739 10.4834
42.38822835065557 10.4816
42.41210861586426 10.4665
42.4359908120986 10.4081
42.46006154323262 10.4066
42.48394762115317 10.3941
42.507835634632315 10.4001
42.531912233047436 10.385
42.55580413732265 10.3341
42.579697981698 10.286
42.60359376768525 10.3052
42.62767820545945 10.2863
42.65157789440821 10.2731
42.67547952952185 10.2485
42.699383112316 10.2575
42.72347541395347 10.2464
42.74738291190531 10.1894
42.771292362102166 10.217
42.795203766063516 10.1877
42.819303956130405 10.2019
42.843219287476536 10.1524
42.86713657716324 10.1264
42.89105582671383 10.093
42.91516392983864 10.0646
42.939087119032166 10.0408
42.963012272677304 10.0323
42.98693939230129 10.0086
43.01105543317513 10.0613
43.034986504731386 10.0267
43.05891954686589 9.96084
43.08285456110972 9.94345
43.10697856448665 9.98152
43.130917542983475 9.93726
43.15485849820081 9.91656
43.17880143167367 9.87082
43.20293342237094 9.86646
43.226880332449 9.86392
43.25082922540554 9.84624
43.27496722682525 9.84886
43.29892010567796 9.80235
43.32287497204102 9.78069
43.34683182745632 9.73709
43.370977859791836 9.72355
43.39493871351105 9.69904
43.41890156092628 9.72316
43.44286640358341 9.69116
43.46702049182749 9.70319
43.49098934522816 9.63102
43.51496019852649 9.64976
43.5389330532723 9.637839999999999
43.56309522248204 9.64054
43.58707210044314 9.65302
43.61105098451946 9.55751
43.63503187626491 9.62565
43.659202151562134 9.62493
43.68318707902681 9.56868
43.70717401884041 9.53952
43.731162972560874 9.54657
43.75534137913236 9.481860000000001
43.779334381108384 9.46691
43.803329401683186 9.48338
43.82732644241872 9.44099
43.8515130055166 9.459439999999999
43.87551410707659 9.41067
43.89951723350145 9.383469999999999
43.923709934595614 9.37694
43.94771713129917 9.37924
43.97172635758096 9.38686
43.99573761501002 9.34704
44.0199385169922 9.33653
44.04395385732619 9.315010000000001
44.067971233533086 9.323269999999999
44.09199064718605 9.29071
44.11619977548961 9.30226
44.14022328470671 9.27786
44.16424883610785 9.25528
44.18827643127035 9.268139999999999
44.21249381139513 9.23522
44.236525514814076 9.19144
44.26055926674478 9.233889999999999
44.28459506876863 9.18592
44.3088207262813 9.163160000000001
44.33286064928722 9.18431
44.35690262714919 9.14442
44.38094666145278 9.15066
44.4051806219871 9.12872
44.42922879003185 9.11726
44.45327901929361 9.076369999999999
44.477331311362136 9.05134
44.501573600619416 9.05579
44.525630039221795 9.010819999999999
44.54968854541895 9.03001
44.573937102200176 8.92946
44.5979997645541 8.95435
44.622064499300315 8.97573
44.64613130803592 8.94458
44.67038823869318 8.94486
44.69445921643748 8.93299
44.718532272981385 8.864889999999999
44.742607409926194 8.87963
44.76687274034801 8.88762
44.79095205918753 8.85295
44.81503346325094 8.87623
44.839116954143876 8.86161
44.86339071028742 8.83743
44.88747839599524 8.81077
44.91156817336837 8.77481
44.93566004401666 8.77089
44.959942251908146 8.750739999999999
44.984038330325966 8.76876
45.00813650686762 8.7181
45.03223678314731 8.708219999999999
45.05652746888232 8.69307
45.08063196592069 8.710560000000001
45.104738567558705 8.69614
45.128847275414856 8.65196
45.15314646515866 8.65531
45.17725940679741 8.62239
45.20137445952892 8.6349
45.22568004865265 8.618269999999999
45.24979934496396 8.605269999999999
45.27392075725247 8.59228
45.29804428714431 8.56737
45.322358426247604 8.51779
45.346486212804315 8.4968
45.370616121861914 8.539069999999999
45.39474815505086 8.53088
45.41907087049246 8.44838
45.4432071734666 8.47188
45.46734560548283 8.45374
45.49148616817604 8.43593
45.51581748638564 8.4556
45.5399623320197 8.41879
45.56410931325473 8.392000000000001
45.58825843173002 8.41054
45.61259837920865 8.40902
45.636751793816 8.35632
45.66090735060093 8.35215
45.68506505120716 8.33438
45.7094136545275 8.26547
45.73357566449271 8.2713
45.75773982322992 8.26094
45.78190613238733 8.27788
45.806263418194064 8.246960000000001
45.83043404997326 8.27332
45.85460683713677 8.257439999999999
45.87897065658495 8.26789
45.90314777634752 8.214780000000001
45.92732705646868 8.18268
45.9515084986045 8.1606
45.97588104735473 8.17853
46.00006683541565 8.168569999999999
46.02425479047904 8.14454
46.04844491420549 8.15399
46.0728262191024 8.141869999999999
46.09702070211635 8.15773
46.12121735879483 8.1125
46.14541619080294 8.08165
46.169806278764455 8.08206
46.194009483459034 8.03715
46.21821486849841 8.02206
46.24242243555223 8.01564
46.266821333570014 7.955210000000001
46.29103328674601 7.95626
46.31524742696538 7.97761
46.33946375590237 7.95379
46.36387149104216 7.95253
46.38809221957392 7.95155
46.41231514186606 7.929239999999999
46.436540259597464 7.906439999999999
46.460956858999374 7.92944
46.48518638983522 7.86943
46.509418121166966 7.887980000000001
46.533652054678114 7.8687
46.55807754555709 7.80899
46.58231590571962 7.85422
46.60655647313217 7.83095
46.630988654873654 7.7975
46.655233659129024 7.737430000000001
46.67948087571551 7.7839
46.70373030632484 7.751930000000001
46.72817142736393 7.71362
46.752425308428684 7.756139999999999
46.77668140861147 7.70158
46.80093972960865 7.66622
46.82538981736788 7.681019999999999
46.849652602470904 7.68645
46.87391761349769 7.627280000000001
46.8981848521493 7.627339999999999
46.9226439341274 7.6440600000000005
46.946915650573224 7.60882
46.97118959976749 7.603510000000001
46.99546578341598 7.5913
47.019933887188216 7.590560000000001
47.04421456235744 7.58983
47.06849747711879 7.56755
47.09278263318286 7.571339999999999
47.11725978640143 7.518389999999999
47.14154944775105 7.4557199999999995
47.165841355555656 7.4680100000000005
47.1901355115306 7.44491
47.214621741924994 7.46467
47.23892041698887 7.46975
47.26322134538975 7.44555
47.28771440635075 7.42063
47.31201986422527 7.41003
47.33632758061436 7.385110000000001
47.360637557241866 7.38535
47.38513974410611 7.364960000000001
47.40945426407847 7.32723
47.43377104948137 7.35623
47.45809010204344 7.320189999999999
47.48260144275502 7.31186
47.506925052572285 7.30346
47.53125093475548 7.2807
47.55557909103813 7.29356
47.58009961361992 7.26865
47.60443234110732 7.24403
47.62876734791564 7.227360000000001
47.65310463578333 7.20425
47.6776343683373 7.20955
47.7019762413987 7.19089
47.72632040075572 7.1848
47.75066684815169 7.17185
47.77520581885936 7.12207
47.799556865477655 7.140739999999999
47.823910205386 7.10895
47.84826584033272 7.11378
47.87281407745551 7.083260000000001
47.89717432569297 7.0808800000000005
47.92153687423484 7.077839999999999
47.94609208429692 7.08161
47.97045925671401 7.061889999999999
47.99482873471275 7.019139999999999
48.01920052005013 6.9957
48.04376504619224 7.01975
48.068141469543484 7.06205
48.09252020552573 7.011360000000001
48.11690125590099 6.96927
48.1414751266064 6.976430000000001
48.16586082917454 6.957730000000001
48.19024885144316 6.93685
48.2146391951793 6.928610000000001
48.239222439012764 6.963189999999999
48.26361744916137 6.91743
48.28801478610016 6.89009
48.31241445160131 6.90723
48.337007097209366 6.900639999999999
48.36141144338331 6.84567
48.38581812345755 6.831519999999999
48.41022713920929 6.8532
48.434829215320704 6.8288899999999995
48.45924292604658 6.796930000000001
48.48365897780325 6.82163
48.50807737237308 6.800039999999999
48.532688907799276 6.78033
48.55711201168574 6.754589999999999
48.581537463754074 6.766539999999999
48.60615611725119 6.78063
48.63058628942721 6.75168
48.65501881516546 6.71748
48.6794536962573 6.72792
48.70408185970339 6.69267
48.72852147531801 6.684
48.75296345168211 6.67738
48.77740779059232 6.676069999999999
48.80204549302823 6.68153
48.82649458091802 6.64497
48.85094603676547 6.62799
48.87539986237231 6.60348
48.90004713292306 6.576960000000001
48.92450572200832 6.57492
48.94896668628025 6.55272
48.97343002754588 6.553
48.99808689542115 6.55162
49.02255501470614 6.55055
49.04702551642794 6.570819999999999
49.0714984023988 6.51256
49.096164896893235 6.4938199999999995
49.120642575466796 6.49211
49.145122643748394 6.49378
49.16960510355558 6.4814300000000005
49.19428125404938 6.48257
49.2187685210852 6.44965
49.243258185121555 6.48163
49.26794160167084 6.41536
49.2924360839405 6.39377
49.31693296869764 6.44519
49.34143225776915 6.39826
49.36612538195438 6.33911
49.39062950396021 6.41638
49.41513603578346 6.37367
49.4396449792564 6.35886
49.46434784069503 6.36281
49.488861631846454 6.33513
49.513377840166804 6.29039
49.537896467493745 6.29737
49.56260909589029 6.30992
49.587132585683285 6.29725
49.611658500018365 6.26654
49.636186840738596 6.2339
49.66090926588511 6.20974
49.685442483902584 6.232880000000001
49.70997813385706 6.23475
49.734516217597076 6.1898800000000005
49.75924846937352 6.2156
49.7837914452858 6.1978800000000005
49.80833686055187 6.17115
49.83288471702571 6.149380000000001
49.85762682540054 6.1506099999999995
49.882179588965734 6.1456599999999995
49.9067347993235 6.15794
49.93129245833333 6.13075
49.95604445336378 6.09681
49.98060703442832 6.07414
50.005172069746266 6.09774
50.02993150438364 6.10539
50.05450147301533 6.1013
50.07907390151433 6.07465
50.10364879174981 6.06342
50.12841816587289 6.06529
50.1529980044635 6.05106
50.17758031042124 6.01054
50.20216508562089 6.00245
50.22694442953363 5.99768
50.25153416817468 5.98623
50.27612638170508 5.964930000000001
50.300721072005196 5.95514
50.325510416102105 5.96558
50.350110084975064 5.94632
50.37471223628208 5.93029
50.39931687190919 5.9227
50.424116246675766 5.9360599999999994
50.44872587605249 5.88797
50.47333799543065 5.8769800000000005
50.49795260670191 5.8941300000000005
50.52276204271512 5.86239
50.54738166295838 5.83972
50.57200378079314 5.85044
50.596628398116835 5.84698
50.62144792604559 5.80748
50.646077567609396 5.78823
50.670709714377715 5.82429
50.69553683636198 5.7872699999999995
50.72017401885922 5.79398
50.7448137122895 5.78413
50.76945591856022 5.76093
50.79429318636823 5.7424
50.818940443716784 5.76192
50.84359021965163 5.74461
50.868242516085964 5.70657
50.893089960641895 5.70072
50.917747323549435 5.6807300000000005
50.94240721271973 5.70441
50.96706963007175 5.68318
50.99192728239342 5.6637699999999995
51.01659478166073 5.6797699999999995
51.04126481489051 5.661980000000001
51.06593738400761 5.65664
51.090805275207074 5.61897
51.11548294172845 5.62062
51.14016314993547 5.61811
51.164845901758845 5.58137
51.18972406304274 5.57658
51.21441192780656 5.5823
51.23910234200271 5.57267
51.2637953075678 5.53303
51.288683770237945 5.51591
51.31338186432707 5.51205
51.33808251561888 5.499230000000001
51.362978729967345 5.51604
51.387684521509755 5.53161
51.41239287610203 5.47881
51.437103795691165 5.44624
51.46201036644977 5.4665099999999995
51.486726441956634 5.4645
51.51144508832545 5.44971
51.536166307509156 5.41879
51.56108326624387 5.41765
51.58580965706056 5.40754
51.61053862657523 5.40912
51.635270176746864 5.37179
51.66019755512065 5.3554699999999995
51.68493429268881 5.34477
51.70967361681515 5.3459900000000005
51.73441552946465 5.32964
51.759353359237934 5.33971
51.7841004750961 5.3701099999999995
51.80885018539685 5.3344
51.833602492111254 5.29461
51.8585508051424 5.303059999999999
51.883308330926425 5.26417
51.90806845906181 5.2392
51.932831191525715 5.25816
51.95779001977161 5.23134
51.98255798721516 5.2285900000000005
52.00732856494335 5.24057
52.03229530577543 5.19726
52.057071130455945 5.1925099999999995
52.081849571391054 5.217280000000001
52.106630630568695 5.1721900000000005
52.13160794279417 5.15944
52.15639426492067 5.17859
52.18118321127822 5.15064
52.205974783860896 5.12309
52.23096269971011 5.15623
52.255759551287994 5.1174800000000005
52.280559035098186 5.12735
52.30536115314103 5.11315
52.33035970494467 5.09661
52.35516711807904 5.1066400000000005
52.37997717147198 5.06499
52.40478986713005 5.05313
52.42979908731974 5.04326
52.454617094216 5.04632
52.47943774942214 5.0553
52.50426105495102 5.03448
52.529280976059844 5.014390000000001
52.554109609024096 5.01012
52.57894089837482 4.97336
52.60377484613117 4.98154
52.62880550079408 4.99024
52.65364479223379 4.96937
52.67848674816189 4.96737
52.70352547971946 4.93752
52.72837279155837 4.95759
52.753222773982785 4.94356
52.778075429022984 4.95142
52.80312495150885 4.91688
52.827982978797436 4.89581
52.85284368481815 4.9101300000000005
52.87770707160767 4.9192
52.90276741793998 4.87404
52.92763619336701 4.8413900000000005
52.952507655698504 4.83617
52.977381806977576 4.851369999999999
53.00245301017842 4.8661900000000005
53.02733256653592 4.83424
53.052214817996074 4.81726
53.077099766608484 4.8078
53.102181859804446 4.78367
53.127072229988265 4.7819
53.15196530349892 4.7908599999999995
53.17686108239249 4.7919599999999996
53.20195409881522 4.75774
53.22685531582556 4.74265
53.25175924441303 4.6939
53.27666588664027 4.71168
53.30176985962693 4.6845300000000005
53.3266819565689 4.7012
53.35159677336455 4.721480000000001
53.376514312083096 4.71024
53.40162927507703 4.70525
53.42655228516116 4.68657
53.45147802340193 4.6513
53.47660125628886 4.6611199999999995
53.50153247842639 4.63951
53.52646643496923 4.63497
53.55140312799818 4.641
53.576537409691696 4.60629
53.60147960336152 4.64637
53.626424539786164 4.59443
53.65137222105307 4.5680000000000005
53.67651758529126 4.60087
53.70147078399681 4.57031
53.72642673383343 4.56424
53.75138543689533 4.51764
53.776541917524526 4.54014
53.801506154876755 4.510730000000001
53.826473151763246 4.48896
53.851442910284916 4.46764
53.87661054126026 4.4720699999999995
53.9015858509782 4.45633
53.92656392866066 4.4560699999999995
53.95154477641532 4.47144
53.976723591801296 4.437119999999999
54.00171000771266 4.4298
54.02669920004598 4.40546
54.051691170915745 4.397390000000001
54.076881204886796 4.40345
54.101878760928514 4.392440000000001
54.12687910187696 4.35505
54.152077577768296 4.344130000000001
54.1770835166946 4.29384
54.20209224691339 4.33763
54.22710377055121 4.350219999999999
54.25231352511594 4.307869999999999
54.27733066384342 4.26828
54.30235060239643 4.2623
54.32737334290836 4.26037
54.35259441062629 4.24545
54.377622783395324 4.23545
54.40265396455061 4.24558
54.42768795623251 4.21289
54.45292037169559 4.2075
54.477960012857906 4.1988900000000005
54.50300247099511 4.160480000000001
54.52804774825457 4.1403
54.55329154616743 4.1185599999999996
54.57834249018678 4.12786
54.6033962597977 4.13926
54.6284528571545 4.07815
54.653708072335164 4.04223
54.67877035378786 4.04272
54.70383546947698 4.04715
54.72890342156389 4.040369999999999
54.7541700889442 3.97851
54.77924374251975 3.96472
54.8043202390049 3.97686
54.82959552413022 3.93571
54.8546777351945 3.94076
54.87976279569621 3.90725
54.90485070780914 3.9719599999999997
54.930137506558005 3.8938900000000003
54.95523115074295 3.87172
54.98032765308844 3.88855
55.005427015775496 3.8711300000000004
55.03072536339621 3.86381
55.05583047570572 3.8163300000000002
55.080938454927676 3.83944
55.10604930325027 3.7927400000000002
55.131359235107396 3.78701
55.15647585066083 3.75605
55.181595341907496 3.7516300000000005
55.20671771104285 3.70555
55.232039262617704 3.72916
55.25716741665048 3.67527
55.28229845518636 3.69585
55.30743238042802 3.62155
55.33276558731939 3.66791
55.357905315183636 3.66755
55.383047936390035 3.64192
55.40819345314859 3.57522
55.433538351073295 3.57807
55.458689688238415 3.56524
55.483843927614096 3.5709800000000005
55.509197623043605 3.57754
55.53435769621134 3.50216
55.55952067826466 3.5054
55.5846865714265 3.4411699999999996
55.61005202069737 3.4822300000000004
55.63522376553902 3.45866
55.66039842818645 3.4470699999999996
55.68557601087004 3.45514
55.7109532500271 3.37754
55.73613670233794 3.44711
