TT I
1.2716486653135266 7.75219
1.2939594142134223 7.28224
1.3162702121660406 6.15902
1.3385810600174564 6.54517
1.3608919586137629 6.838310000000001
1.383202908801069 6.5622300000000005
1.405513911425503 6.57285
1.4278249673332093 5.99786
1.4501343378461518 6.28141
1.4724455028545926 5.804869999999999
1.4947567236847858 5.86463
1.517068001182951 6.25939
1.5393793361953272 5.9736199999999995
1.5616907295681737 4.894909999999999
1.5840021821477681 5.2468900000000005
1.60631369478041 5.79056
1.6286252683124185 5.946330000000001
1.6509369035901333 5.98197
1.6732468618895553 5.10499
1.695558623192809 5.140619999999999
1.7178704487808514 5.23071
1.7401823395001077 4.97255
1.7625012545597203 5.18922
1.7848028405262486 4.9564
1.8071218901122095 5.36155
1.8294236121921872 4.71438
1.8517427996910911 4.7744800000000005
1.8740620574440425 5.05999
1.8963639900671978 4.9787
1.9186833908139995 4.5073
1.9409854680117449 4.75695
1.9633050151394713 4.9267199999999995
1.9856246367570705 5.190930000000001
2.0079269371922672 4.576630000000001
2.03024671027244 4.0479
2.0525491637446027 4.5792
2.074869091674931 4.41021
2.097171701569106 4.5018400000000005
2.1194917877373847 5.22651
2.141811954326636 5.644080000000001
2.164114805233074 4.92711
2.186435135143035 5.58425
2.208738150935709 13.2338
2.231058647554722 24.8984
2.2533792288321184 19.1216
2.275682498336085 8.65311
2.298003251406138 5.80506
2.3203066942619714 4.98043
2.3426276225136022 5.42473
2.3649486396617507 5.65766
2.387252348930071 5.56476
2.4095735463442893 5.69355
2.4318774374315884 5.66559
2.4541988185014043 6.4530400000000006
2.476502894794693 6.87625
2.498824462909887 6.25905
2.521146125856138 6.21629
2.5434504863470337 6.299580000000001
2.5657723414244717 6.8619
2.588076895590662 7.580830000000001
2.610398946189713 7.50714
2.6327210958598384 7.7335199999999995
2.6550259469304716 7.79788
2.6773482972090137 7.70575
2.6996533504259 8.04803
2.7219759047039602 7.81265
2.744298562293959 7.84665
2.7666039251246595 7.78344
2.7889267918020164 7.743930000000001
2.8112323652516555 8.58874
2.833555444408179 8.43034
2.8558786311183852 8.305769999999999
2.8781845268938557 8.76168
2.9005079311721484 8.67157
2.9228140460410397 9.19183
2.9451376712799635 9.01547
2.967444008632326 9.95316
2.9897678582247247 10.2698
3.0120918213106695 10.339
3.0343984987899373 11.0651
3.0567226913198637 11.3521
3.079029599759726 11.369000000000002
3.101354025127254 11.8897
3.123678568232338 12.5521
3.145985829517914 13.040999999999999
3.16831061055229 13.4112
3.1906181112775593 13.8119
3.212943133635653 14.3847
3.2352682779763207 15.0684
3.2575761442691227 15.4228
3.2799015350264273 15.7083
3.302209649240067 16.2021
3.3245352898092655 16.9092
3.3468436553365257 17.4379
3.369169549113219 18.0019
3.3914955708171384 18.6043
3.413804319727358 18.7265
3.4361305997334863 19.0237
3.4584396084414553 20.279
3.4807661501462652 20.7712
3.503092824025881 20.8876
3.5254022288463154 21.1115
3.5477291695206588 22.1545
3.5700388426251948 22.5121
3.5923660534916446 24.3435
3.6146934007816114 37.494
3.637003482731501 81.1054
3.6593311053109985 89.9819
3.681641464033634 52.1531
3.7039693653009733 29.9819
3.726297407241705 26.3985
3.7486081875460804 26.2298
3.7709365132734978 26.493000000000002
3.793247578841633 26.5728
3.8155761917550093 27.1243
3.8378875459837216 27.4488
3.8602164494827234 27.8791
3.882545499606844 28.6163
3.9048572932539183 29.2254
3.9271866390645718 29.7102
3.9494987298666713 30.0914
3.971828374764527 30.5745
3.9941581705403255 31.2026
4.016470713506008 31.99
4.038800813471445 32.6287
4.061113662089144 33.2636
4.0834440696459176 34.3446
4.105774632334751 34.203
4.128087945865126 34.9372
4.150418821249301 35.9847
4.172732448931298 37.1225
4.195063640413578 39.2253
4.2173775856475215 43.2329
4.239709096631102 72.067
4.262040768704612 213.33900000000003
4.284355196706267 280.13599999999997
4.306687193387355 181.327
4.329001947444346 76.3734
4.35133427213731 48.1438
4.373666762177566 44.7351
4.395982011761091 44.5522
4.418314834921175 45.9742
4.44063041906622 52.8566
4.4629635787515625 63.1145
4.4852969080429785 62.5605
4.5076130004776225 53.9763
4.529946671403969 51.3996
4.552263106909177 51.1819
4.574597122877047 51.9775
4.596931312711224 53.1801
4.619248269273446 54.0828
4.6415828092605835 54.8822
4.663900117405352 56.0641
4.686235010953232 58.071999999999996
4.708552674085913 58.955
4.730887924602802 60.541000000000004
4.753223354952695 61.586000000000006
4.775541557023902 63.3743
4.797877349456786 65.1395
4.820195915032126 67.2324
4.842532072957498 68.6977
4.864868414979744 70.6175
4.88718753227192 72.5631
4.909524244902505 74.8666
4.931843734218147 76.3647
4.954180820867835 78.865
4.976518095879839 81.847
4.998838149695359 84.8375
5.021175803844231 88.9009
5.043496238205739 92.3786
5.065834274903528 96.8654
5.088172504230693 102.302
5.1104935158799565 109.5
5.132832132875765 132.084
5.155153533596801 173.18599999999998
5.1774925416746225 213.949
5.199814334878411 419.475
5.2221537374521505 1186.89
5.244493338631803 3172.55
5.266815727034316 7560.94
5.289155727832427 11865.3
5.311478517248165 8977.39
5.333818921080011 3190.62
5.356159527788849 651.403
5.3784829252032536 204.94
5.400823940070432 153.374
5.423147747031976 134.385
5.445489173474152 123.337
5.467830807066149 117.406
5.490155234831516 112.575
5.512497285125229 108.944
5.534822130975162 106.86200000000001
5.557164601388673 104.208
5.579489868738879 101.28299999999999
5.601832762690846 100.814
5.6241758697774475 99.5565
5.646501775867269 98.7354
5.668845311622074 96.8885
5.691171647754637 96.4163
5.713515615597765 95.1634
5.735859800852677 93.8069
5.758186788542988 93.3564
5.780531411018185 93.9912
5.802858837297399 93.2863
5.825203900414495 93.3839
5.8475491852224 94.527
5.869877275883075 94.7243
5.892223006467101 95.3898
5.914551544266608 97.4648
5.936897724049891 100.281
5.959244129804903 106.99700000000001
5.981573344815301 129.062
6.0039202049061 234.822
6.026249875609095 518.284
6.04859719346037 1076.01
6.070927323278297 2277.48
6.093275102315365 4196.08
6.115623113320588 5250.11
6.137953938319995 3537.32
6.160302415650845 1197.77
6.182633708324452 286.013
6.2049826554078376 124.156
6.227331838745022 97.3917
6.249663839443684 88.8321
6.27201349767565 85.0434
6.294345974611799 89.7543
6.316696111167083 99.0607
6.339046488263839 93.4352
6.361379686074702 79.9538
6.383730546639482 73.2426
6.406064229255215 70.3179
6.428415576718203 70.1465
6.450749747566656 68.4429
6.47310158535871 67.0591
6.495453669698332 66.2443
6.517788579421056 65.6112
6.540141159237969 64.6346
6.562476565766648 64.3663
6.5848296444934045 63.7967
6.607182974060425 63.5432
6.6295191323281015 63.8199
6.651872965955752 66.8727
6.6742096296068985 89.7102
6.6965639707294615 130.065
6.71891856698715 128.918
6.741255995248479 90.7541
6.763611104154477 67.5693
6.785949046381137 61.1636
6.808304671371482 59.4272
6.8306605557940046 59.4548
6.852999275508618 58.2705
6.875355681171544 58.0146
6.897694923437771 57.5029
6.92005185377892 57.1613
6.9423916220322655 57.3124
6.964749080490181 56.5419
6.987106804399774 56.3394
7.009447368180821 56.4393
7.031805625367033 56.1922
7.054146723727803 56.4198
7.076505517631004 55.8993
7.098864581288365 56.1857
7.121206488070854 55.6448
7.143566093607822 55.5572
7.165908543567245 55.9141
7.188268694426048 56.1752
7.2106291193438095 56.3517
7.232972390625943 57.5576
7.255333366030969 69.0925
7.277677189091925 114.359
7.300038718428332 155.347
7.322400526130865 133.268
7.344745183422596 85.3411
7.367107550224791 61.873999999999995
7.389452767901992 56.8979
7.411815697249891 55.97
7.434161478756298 55.0465
7.456524974096713 55.0253
7.478888753837185 55.0979
7.501235387657368 55.1405
7.523599738562711 55.4918
7.545946944825532 55.8727
7.568311870344528 56.4083
7.5906770845765665 56.1663
7.613025156078678 57.6863
7.635390950099687 58.5748
7.657739602662809 57.7703
7.680105979923558 56.8009
7.702472650212829 56.8488
7.724822180948224 56.8284
7.747189439655568 57.0373
7.769539560075357 56.9275
7.791907410653562 57.6438
7.81425812420825 57.2781
7.836626570110925 57.2507
7.858995315087906 58.174
7.881346924933401 58.7676
7.903716270417482 59.2276
7.926068482028405 59.6114
7.948438431475253 60.4715
7.9708086843180235 60.7039
7.993161805171116 61.3045
8.015532667162402 62.0027
8.037886398416653 62.7877
8.060257873014221 63.2456
8.082629655331942 63.7147
8.104984308787587 64.9158
8.127356708900503 68.0678
8.149711981398308 73.1487
8.172085002766314 75.2665
8.194458336181368 72.1574
8.216814543847752 70.1426
8.23918850371002 70.3049
8.26154533906492 71.1554
8.283919928836452 72.8179
8.306277395339652 73.9648
8.328652618483376 75.2484
8.351028159736202 77.708
8.373386579575245 79.8705
8.395762759396959 81.6486
8.418121819038275 86.6002
8.440498640894003 99.1923
8.462875785192262 112.766
8.485235811156207 128.276
8.507613602688501 178.50799999999998
8.529974277114228 279.697
8.552352719347912 425.639
8.574731488360351 705.9630000000001
8.59709314210385 1207.97
8.619472567021075 1814.91
8.64183487789147 2139.73
8.664214962183097 1852.87
8.686577933647762 1066.39
8.708958680784317 425.773
8.731339760774953 182.581
8.753703729764451 117.568
8.77608547780821 102.391
8.798450116065078 98.0896
8.820832535634787 95.081
8.843215292401656 92.9265
8.865580941199045 91.6128
8.887964374703538 90.8342
8.910330701447199 91.2311
8.932714815164482 92.8144
8.955099270424924 91.8454
8.977466620733543 89.0376
8.999851761421976 86.6805
9.022219798361645 84.971
9.04460562795561 84.7448
9.066991803441677 84.5694
9.089360876979615 84.3588
9.111747746589993 83.5982
9.13411751544971 83.2458
9.156505082664324 83.037
9.178875550323522 83.4462
9.20126381862328 83.3738
9.223652438908596 83.8321
9.246023961427412 83.56
9.26841328802173 83.2672
9.290785518039224 83.566
9.313175554425882 84.2502
9.335565947154315 84.141
9.357939245086508 84.0452
9.380330352834827 84.6159
9.40270436697103 84.72
9.425096193225055 84.1142
9.447488380180165 85.3853
9.469863475295412 85.6271
9.492256385987508 86.1248
9.514632206018318 86.7436
9.537025843935714 86.8782
9.559402392368193 87.5362
9.581796761000229 88.8167
9.604191496441521 89.6056
9.626569144158516 92.7737
9.648964615551032 97.1346
9.671343000390081 98.6123
9.693739211225699 96.7794
9.716135793237463 94.70100000000001
9.738515290448102 94.29799999999999
9.760912617143402 95.3144
9.783292860202891 97.0854
9.805690935076182 98.2984
9.828089385495742 98.9896
9.850470754023561 101.62899999999999
9.872869957865444 109.337
9.89525208097539 122.46
9.917652041736662 133.79399999999998
9.940052382417589 135.31799999999998
9.962435644102392 146.468
9.984836746950979 191.05
10.007220771957746 261.784
10.029622640473708 375.32599999999996
10.052007432299963 563.035
10.074410069984072 848.373
10.096813093716005 1258.0
10.119199042482517 1652.16
10.141602840636468 1886.93
10.163989564971628 1648.29
10.186394141051062 997.668
10.208799107559706 460.019
10.231187001965623 217.357
10.253592751657669 136.365
10.275981430388155 116.839
10.298387966769793 114.689
10.320794897965431 116.54
10.343184759907361 115.075
10.36559248305461 109.915
10.387983138083852 106.561
10.410391656691655 110.64200000000001
10.432800574501677 123.02799999999999
10.455192425893369 141.591
10.47760214443012 168.86
10.499994797678786 212.896
10.522405320453982 292.257
10.54479877906917 397.779
10.567210109595656 500.20099999999996
10.5896218454736 555.205
10.612016518879773 504.527
10.634429067781074 372.70599999999996
10.656824555333241 222.433
10.679237920773568 133.003
10.701651695961992 99.4899
10.724048411481384 91.4205
10.746463008485165 87.9659
10.768860546937125 86.2502
10.791275969274796 84.4019
10.81369180576079 83.4158
10.836090585366925 82.1685
10.858507252467449 80.9475
10.88090686379991 80.0331
10.903324365036394 79.3379
10.925724811614439 79.263
10.948143150509463 80.5798
10.970561909719066 79.408
10.992963615930844 77.6441
11.015383218085756 76.0632
11.037785768347074 74.5583
11.06020621697282 73.9466
11.082627090322113 73.6637
11.105030913430326 72.8203
11.12745263854165 73.3442
11.149857314510728 76.1779
11.172279894912576 81.4454
11.194702904450653 81.9612
11.217108866490921 78.2571
11.239532736615194 74.3178
11.26193956033512 72.2463
11.284364294577085 70.7831
11.306789462371718 69.051
11.329197585398376 68.3115
11.351623622610898 67.8165
11.37403261614354 67.0112
11.396459526308487 66.9474
11.418869393879497 66.4341
11.441297180532617 66.2977
11.463725406927658 65.8914
11.486136592353875 65.3304
11.508565700543707 66.26899999999999
11.530977768845315 67.8529
11.553407762368774 68.4437
11.575838200059769 68.1504
11.598251599479612 66.2346
11.620682927815501 64.8028
11.64309721895548 64.5919
11.665529441478206 64.0988
11.687962112597958 63.8206
11.710377748130886 64.1532
11.732811318753434 63.6641
11.755227854859067 63.7887
11.777662328529495 63.7549
11.800079768750786 63.581
11.822515149015453 63.5014
11.844950984084935 63.5168
11.867369787303163 63.0517
11.889806534289491 63.3548
11.912226250487029 63.8758
11.934663912939751 63.8252
11.9571020346363 63.6152
11.979523127133968 63.8467
12.001962169624331 64.5555
12.024384183972964 66.0785
12.046824150809913 69.73899999999999
12.069264581333726 75.1681
12.091687985297767 81.958
12.11412934550045 91.4029
12.136553680195208 106.71700000000001
12.158995973632788 129.132
12.181438735204349 155.405
12.20386447284199 180.291
12.226308172985636 200.24
12.24873485024193 204.18400000000003
12.271179492516982 169.03900000000002
12.293607112949127 131.49200000000002
12.316052700916226 99.9832
12.338498763250042 80.3301
12.360927805303868 71.0721
12.383374818673879 67.4477
12.405804812803074 65.6903
12.428252780773262 65.3414
12.45070122756722 65.2903
12.473132656675375 65.0158
12.49558206341869 65.4576
12.518014453510101 65.1145
12.540464823770117 65.7323
12.562915677315177 65.8008
12.58534951575545 66.4115
12.607801338171472 68.2767
12.630236146511358 73.1246
12.652688941369085 77.2877
12.675124723177234 77.3894
12.697578494048786 74.2102
12.720032754458185 70.3104
12.742470003354093 68.9834
12.764925245138771 68.6777
12.787363476431278 68.937
12.809819703166806 69.3515
12.83227642391173 69.9536
12.854716135692716 70.6853
12.877173846755147 71.5387
12.899614549869717 71.943
12.9220732548287 72.5729
12.94453245827299 73.0921
12.966974655289818 74.2574
12.989434858002571 74.9337
13.011878055298721 75.8182
13.034339260862497 77.0246
13.056800969391883 78.2257
13.079245674017244 80.4077
13.101708390774869 83.0844
13.12415410463411 91.0459
13.146617833206086 103.98899999999999
13.169064559883248 116.928
13.191529303857127 132.33
13.213994557076367 155.847
13.236442809902437 192.093
13.258909083908291 244.192
13.28135835851934 300.725
13.30382565690295 360.51300000000003
13.326293469022952 411.474
13.348744283242008 417.465
13.371213125129904 365.88599999999997
13.39366497011003 277.233
13.416134845360597 186.608
13.438605238843131 131.494
13.46105863690397 110.677
13.483530069144786 109.677
13.505984506951902 115.586
13.528456981549432 125.795
13.550929978879088 141.267
13.573385983253365 165.278
13.595860028340867 202.394
13.618317081455832 249.44
13.64079217790333 292.385
13.663250283359057 332.74199999999996
13.685726434770173 360.582
13.708203115221277 341.11699999999996
13.730662806148091 275.334
13.75314054697177 202.083
13.775601299246777 141.825
13.798080104050406 103.45
13.820559442405358 88.0107
13.843021793671388 83.3749
13.865502201420897 81.5664
13.887965623051947 80.785
13.910447103807167 79.6964
13.932929122629764 78.4249
13.955394156785959 77.893
13.977877254034569 76.9858
14.000343367582113 76.1872
14.022827546871707 75.3899
14.045294743423524 74.6679
14.06778000837062 74.0281
14.090265817715476 73.7801
14.112734645763819 73.5266
14.13522154619454 73.3372
14.157691466286913 73.2258
14.180179461423874 73.1288
14.202668005486178 72.6557
14.22513957064374 71.9119
14.247629214846473 71.3927
14.270101881097517 71.3093
14.29259262906496 71.5044
14.315083930490205 72.3489
14.337558255389705 72.2755
14.360050666019726 71.7377
14.382526101071944 71.21
14.405019624534942 70.5872
14.427513705993134 69.8249
14.449990813291825 69.7245
14.47248601302899 69.655
14.49496423954951 70.0267
14.517460561197822 70.2019
14.539939910570322 69.8271
14.562437357763558 70.0731
14.58493536931253 71.2763
14.607416409993311 72.0276
14.62991555254159 72.632
14.652397725157423 72.4533
14.674898002342799 71.9622
14.697398848433282 71.48100000000001
14.719882725991326 72.41
14.74238471217934 73.1973
14.764869730765593 76.7871
14.787372860692983 81.0929
14.809876564079925 86.1781
14.83236330125751 92.0209
14.854868153850365 101.089
14.877356041159485 114.241
14.899862046604186 132.613
14.922351087688757 155.453
14.944858249632887 179.953
14.967365991421232 199.898
14.989856770231246 213.615
15.012365673994204 214.07299999999998
15.03485761569738 192.959
15.05736768508665 156.509
15.07987833888692 122.64399999999999
15.102372032001655 96.2129
15.124883856909658 79.8273
15.14737872204565 73.9467
15.169891721717274 71.8205
15.192405310371893 71.9289
15.214901940621196 71.7989
15.237416709527137 71.9308
15.259914520936249 71.7214
15.282430473753607 70.7722
15.304947020131227 69.5737
15.327446610371178 69.0482
15.349964346154254 68.4296
15.372465126703139 67.8006
15.394984055556009 67.5779
15.417486030076159 67.3975
15.44000615566487 66.9982
15.462526881230803 67.2175
15.485030653812652 67.3231
15.507552581617434 67.2314
15.530057557334603 67.2108
15.55258069104857 67.1688
15.575104429329837 67.3028
15.597611216864632 66.9813
15.620136166564563 67.0891
15.6426441664095 68.1636
15.665170331202765 70.8671
15.687697105158826 74.3081
15.710206930593545 78.0098
15.732734925158933 82.5462
15.755245972089478 88.9103
15.77777519094324 98.2954
15.800287463046663 110.999
15.822817909869592 129.244
15.84534897229804 147.211
15.867863089299354 166.215
15.890395385222186 180.25
15.912910736597423 187.5
15.935444269699861 179.895
15.957978423016485 158.66
15.980495633101265 129.119
16.003031029129367 102.126
16.02554948280019 80.7197
16.048086125229432 70.109
16.070623392487107 66.5683
16.09314371869582 65.5192
16.11568223789321 64.5924
16.13820381691126 63.2506
16.160743591742527 62.244
16.183283996022084 61.7058
16.205807461423195 60.5865
16.228349126881973 60.0608
16.25087385432698 59.9413
16.27341678466365 59.3409
16.29594277784926 59.1267
16.31848697676433 59.1302
16.341031811604868 59.5031
16.36355971058487 59.7199
16.3861058195587 59.5403
16.40863499352978 58.407
16.431182380342005 57.6543
16.453730407713202 57.2247
16.476261501364792 56.79600000000001
16.498810812136167 56.2796
16.52134319004079 56.4941
16.54389378792203 56.3317
16.566445031001553 56.018
16.588979342490088 55.8901
16.61153187824822 56.0735
16.634067483263312 55.8614
16.656621315414416 55.7539
16.679175797408888 55.2353
16.701713349928728 55.3703
16.72426913389191 55.7391
16.74680798922351 55.6685
16.76936507887444 55.6511
16.791905240734874 55.7967
16.814463639794468 55.5694
16.837022695210294 55.6867
16.859564824093756 55.9931
16.882125194503903 56.7895
16.904668639217885 57.3585
16.927230328348003 57.4251
16.949792678493612 57.5025
16.972338104193863 56.9973
16.994901778652235 56.5151
17.017448529496576 56.398
17.040013531998152 56.5782
17.06257920018044 57.3213
17.0851279459922 57.9849
17.107694947817667 59.0329
17.130245028099072 59.8999
17.15281336730298 61.2883
17.17536478578733 62.9149
17.19793446610687 65.3274
17.220504818648422 68.0109
17.243058251703697 70.8321
17.265629950971032 74.913
17.288184731571736 78.1392
17.310757781306908 81.3263
17.33333150794385 82.8508
17.355888317140174 82.1096
17.37846339986244 78.2717
17.401021565958885 72.8001
17.42359800851343 67.696
17.44617513265564 63.8099
17.468735341390783 61.4668
17.491261035594565 60.278
17.51396340099364 59.8994
17.536490463869136 59.8829
17.559018209820174 60.0856
17.58154663977963 60.1995
17.604251766089718 60.3031
17.626781572227713 60.4935
17.64931206518155 60.6673
17.671843245885103 61.1205
17.69455114821572 61.3521
17.717083712612634 61.7733
17.739616967569667 61.8305
17.762150914021706 62.2235
17.78486160749854 62.2983
17.807396945166804 62.973
17.829932977143503 63.8387
17.85246970436452 65.6411
17.875183204129467 67.7666
17.897721330097664 70.0847
17.920260154126645 72.6268
17.942799677153296 75.7684
17.9655159983646 79.5165
17.988056927677544 84.8927
18.010598558807683 92.2831
18.033140892692916 101.52600000000001
18.05586005052525 110.963
18.07840379824407 120.348
18.10094825154059 129.49
18.12366954819864 135.983
18.146215420998306 137.89
18.16876200220057 133.299
18.191309292745153 121.68700000000001
18.214033452627167 108.04899999999999
18.236582170236648 96.34299999999999
18.259131600016456 89.8288
18.281681742907335 88.439
18.304408781233683 91.7214
18.32696035875955 95.7375
18.349512652227624 99.4066
18.372065662579683 103.241
18.394795594587553 104.75299999999999
18.41735004715306 103.729
18.43990521943684 98.2676
18.46246111238171 89.898
18.485193953325208 80.4302
18.507751296070428 72.7642
18.530309362314178 67.6048
18.552868153000343 64.7464
18.57560391815056 63.2727
18.59816416623245 62.6748
18.620725141597372 62.1844
18.643286845190268 61.6475
18.666025549835414 61.2962
18.688588718427933 60.9785
18.711152618092243 60.6438
18.73389353884365 60.2602
18.75645890921984 59.8095
18.77902501351406 59.5723
18.801591852673102 59.6435
18.824335739722738 58.9637
18.846904057212626 59.0118
18.8694731124168 58.6312
18.89204290628315 58.6224
18.914789774966803 58.2714
18.937361054791623 58.1071
18.959933076131318 57.9524
18.982505839934877 58.0133
19.00525570560582 57.9617
19.027829963004184 57.7369
19.05040496572238 57.9284
19.072980714710468 57.908
19.095733592739563 58.1202
19.11831084296757 58.3767
19.140888842324735 58.8823
19.16346759176222 59.1027
19.18622349753803 59.6369
19.208803755869358 60.7347
19.231384767143577 61.7301
19.253966532312948 63.343
19.276725481241822 65.27199999999999
19.29930876296784 67.3367
19.3218928014549 69.9803
19.34465404436217 72.4672
19.36723960516257 75.3233
19.389825925592426 75.9558
19.412413006605938 75.7549
19.43517731967805 73.2431
19.457765930683355 69.2189
19.48035530514408 65.0605
19.50294544401556 60.9305
19.525712842708348 58.1073
19.54830451925909 56.4466
19.570896963095727 55.191
19.593490175174704 54.6389
19.616260674962184 54.7277
19.638855432416964 54.3719
19.661450960992624 54.5055
19.68404726164677 54.2474
19.706820878021247 54.0333
19.729418731756834 54.2953
19.752017360452857 54.1275
19.77461676506804 54.1325
19.797393513540218 54.3098
19.819994478951667 54.7313
19.84259622316767 55.2593
19.8651987471481 55.7721
19.887978643247177 55.9521
19.91058273574792 56.6351
19.933187610901943 57.1805
19.955969879466828 58.4034
19.97857632894404 59.9122
20.00118356396599 61.2324
20.023791585494575 63.2744
20.046577028914875 65.5607
20.069186632506966 67.3801
20.091797025500632 69.1646
20.114408208858933 70.0983
20.137196842715273 70.4301
20.159809615886765 69.3215
20.18242318232135 67.17699999999999
20.20503754298326 65.3359
20.227829382875154 64.0982
20.250445341109344 63.3007
20.27306209647285 63.379
20.29567964993108 64.1897
20.31847471147704 64.9656
20.34109387027612 65.7291
20.363713830075454 65.6365
20.386334591841646 64.7347
20.409132890679302 62.8054
20.431755265564437 59.838
20.454378445325528 56.9107
20.477002430930366 54.7787
20.499803982716553 53.3404
20.522429589228004 52.2784
20.54505600449589 51.9126
20.567683229489194 51.6891
20.590488049900088 51.2402
20.61311690359731 51.0813
20.63574656993626 50.9331
20.658553853717297 50.5182
20.681185154618298 50.45399999999999
20.703817271080066 50.3492
20.72645020407368 49.9235
20.749260783967177 49.8504
20.771895359337133 49.7975
20.794530754161617 49.6694
20.817166969412938 49.5738
20.83998086114876 49.67
20.86261872660049 49.4844
20.885257415405402 49.5579
20.90789692853701 49.4668
20.930714147864748 49.3933
20.953355319030678 49.5325
20.97599731745334 49.6902
20.99864014410749 49.3188
21.021460706796564 49.4138
21.044105199328826 49.6757
21.06675052302631 49.8161
21.089396678865015 50.0563
21.112220600704806 50.1602
21.134868430275347 50.6881
21.15751709492456 50.7664
21.180166595629693 51.0423
21.202993892429635 51.5317
21.22564507473034 51.6913
21.24829709602816 51.9499
21.27112693608965 52.0793
21.293780644891275 52.0959
21.316435195634053 51.4431
21.339090589297417 50.9709
21.361923832041875 50.5045
21.384580921090404 49.7479
21.407238856007325 49.1942
21.429897637773326 49.1637
21.45273429906592 49.3057
21.475394784108598 49.1786
21.498056118951983 49.1812
21.520718304578022 49.167
21.543558400304388 49.266000000000005
21.566222297108816 49.632
21.58888704765135 49.7917
21.61155265291521 50.0754
21.63439619898156 50.6669
21.657063523335786 50.9047
21.67973170537063 51.3053
21.7024007460706 51.9556
21.72524775840385 52.4305
21.747918526116475 53.5773
21.770590155457388 54.8121
21.79326264741238 56.4442
21.816113141960237 58.1247
21.838787368860547 59.7377
21.861462461341976 61.246
21.884315579735777 62.8702
21.90699241312273 63.7831
21.92967011506078 64.6351
21.95234868653799 64.7182
21.9752053151131 64.182
21.997885635446785 62.7604
22.020566828293532 60.9576
22.04324889464272 59.093999999999994
22.066109049404666 57.6461
22.088792872571794 56.8624
22.111477572219204 56.4121
22.1341631493376 56.5579
22.157026846313123 56.466
22.179714188221507 55.9465
22.202402410582668 55.2421
22.22509151438863 53.8649
22.24795876962584 52.4775
22.270649646204486 51.4967
22.293341407213727 50.7609
22.316034053646906 50.2562
22.338904883215342 49.7904
22.36159931041458 49.9082
22.38429462602756 49.6776
22.40699083104897 49.5093
22.429865251039757 49.6437
22.452563244831367 49.6776
22.47526213102522 49.5866
22.49813925616515 49.3299
22.520839937143307 49.2208
22.543541513520587 49.4013
22.56624398629403 49.1414
22.589124730075895 49.1333
22.611829005656723 49.5288
22.63453418063466 49.4612
22.657240256008077 49.5492
22.680124634582935 49.7125
22.70283252079775 50.0764
22.725541310413075 50.3213
22.74825100442868 50.4406
22.771139033969575 50.9898
22.79385054687155 51.282
22.81656296718292 52.0071
22.83927629590484 52.7249
22.862167992606945 53.6039
22.88488314827121 54.8784
22.907599215359284 55.5809
22.93031619487366 56.5064
22.953211574954405 57.4521
22.975930389478226 58.0312
22.998650119445763 58.2503
23.02137076586092 57.8494
23.044269845560063 56.9362
23.06699233506288 55.5591
23.089715744034912 53.9005
23.112617610931565 52.2421
23.135342869061212 50.8118
23.158069049684816 50.0658
23.1807961538087 49.7425
23.20370174880544 49.5579
23.226430710184808 49.6007
23.249160598093425 49.6449
23.271891413539002 49.7418
23.294800752937697 49.6381
23.31753343374794 49.8559
23.340267045128353 49.8051
23.36300158808808 50.2394
23.38591468821339 50.4951
23.408651104658304 50.9474
23.431388455719986 51.6408
23.454126742409 52.6072
23.4770436196085 53.498999999999995
23.499783787914662 54.4079
23.522524894889884 55.3078
23.54526694154616 56.1005
23.56818761219047 57.0358
23.59093154860734 57.3864
23.613676427751283 57.8761
23.636422250635754 57.4411
23.659346731118656 56.3485
23.68209445191868 54.9097
23.704843119509587 52.6876
23.72759273490623 50.7237
23.750521041644767 49.4454
23.77327256312355 48.169
23.796025035462787 47.4354
23.818956224555475 46.8715
23.841710609113413 46.7606
23.86446594758979 46.4901
23.887222241002014 46.2485
23.910157285144578 45.8917
23.932915498962537 45.8684
23.955674670778713 45.6922
23.978434801611975 45.5568
24.001373717286125 45.3897
24.024135776723917 45.2543
24.046898798245582 45.1598
24.06966278287146 45.0804
24.092605586582614 45.0438
24.115371508023642 44.9356
24.1381383956401 44.718999999999994
24.16090625045381 44.5641
24.183852958731244 44.5868
24.206622758582608 44.403999999999996
24.229393528706886 44.2905
24.252165270127392 44.3264
24.27511589952438 44.2412
24.297889594216997 44.0747
24.32066426328598 43.9352
24.34343990775613 43.9497
24.36639447485003 43.7494
24.38917208083877 43.93600000000001
24.41195066531332 43.9136
24.43490819850244 43.7546
24.457688750692377 43.5145
24.48047028445616 43.5961
24.503252800821233 43.7557
24.526214300784112 43.6789
24.548998793132213 43.7465
24.57178427117417 43.537
24.59457073593893 43.6687
24.617536219319863 43.5984
24.64032466834748 43.5863
24.663114107195035 43.403
24.685904536893013 43.1856
24.708874020360852 43.102
24.731666442613744 43.1487
24.754459858818787 43.0037
24.777254270007962 42.9374
24.80022777025625 42.9461
24.82302418230472 42.8159
24.845821592443674 42.8189
24.86862000170663 42.7861
24.891597535453727 42.7088
24.914397953892728 42.9284
24.93719937456671 42.7261
24.96000179851076 43.0215
24.98298338249997 43.2121
25.00578782394922 43.5232
25.028593271784167 43.568000000000005
25.05157790644186 43.8327
25.07438537804115 43.9577
25.097193859145293 44.0941
25.120003350792075 44.2444
25.142992065061257 44.7222
25.165803588823465 45.0514
25.18861612625217 45.1626
25.211429678386736 45.2901
25.234422489079968 45.4477
25.257238081693636 45.4067
25.280054692141732 45.5273
25.3028723214652 45.3079
25.325869245420463 45.339
25.348688923599397 45.2598
25.371509623787006 45.3925
25.394331347025812 45.0345
25.41733240110666 44.8073
25.440156181590016 44.2413
25.46298098826268 43.8391
25.48580682216873 43.2222
25.50881202326435 42.7063
25.53163992281684 42.2296
25.55446885274561 41.8018
25.577298814096377 41.5659
25.600308179121807 41.5672
25.623140214533745 41.5604
25.64597328451537 41.4097
25.66898578564376 41.1287
25.691820936010206 41.2556
25.714657124097695 41.1427
25.737494350954734 41.2046
25.760511045684957 41.1311
25.783350361364224 41.1647
25.806190718969255 41.1442
25.82903211955018 41.3384
25.852053024868923 41.2004
25.874896522722523 41.4037
25.897741066713106 41.1563
25.920586657892454 41.2019
25.943611790812668 41.4824
25.966459487728237 41.6476
25.989308234998564 41.591
26.01215803367705 41.9994
26.03518741123814 42.0744
26.05803932412957 42.0703
26.080892291600094 41.9908
26.10374631470478 42.1599
26.12677995397268 42.3337
26.14963609978026 42.2612
26.172493304397875 41.9294
26.19535156888223 41.7511
26.218389486949604 41.402
26.241249882640123 41.1542
26.26411134137826 40.9803
26.28715248187403 41.0251
26.31001607820869 40.7977
26.3328807407756 40.5868
26.35574647063438 40.8764
26.37879191991473 40.7461
26.401659795896734 40.6577
26.424528742360263 40.8495
26.447398760366614 41.0545
26.470448535598294 41.1265
26.49332070826805 41.3477
26.516193955675355 41.6472
26.53906827888316 41.9303
26.562122397260108 42.0769
26.584998883685063 42.2856
26.607876449110325 42.325
26.63075509460056 42.5074
26.65381357334404 42.7322
26.67669439061878 42.6964
26.699576291163382 42.6952
26.722459276044212 42.621
26.745522132402975 42.4126
26.768407297649354 42.1832
26.791293550442003 41.6504
26.814180891848974 41.4147
26.837248143099337 41.1774
26.860137673466657 40.9935
26.88302829566349 40.72
26.90592001075963 40.5159
26.92899167420566 40.4632
26.951885586870763 40.1735
26.974780595655517 39.9196
26.99785558178161 39.8052
27.020752794605112 39.5239
27.043651106772522 39.5019
27.06655051935668 39.4717
27.089629948036183 39.2178
27.112531573292053 39.1654
27.135434302194138 39.3805
27.158338135817015 39.1475
27.181422024430987 39.211
27.204328079372566 39.138000000000005
27.22723524226965 39.0625
27.250143514198573 39.1487
27.273231880156334 39.1441
27.296142382065014 38.9899
27.319053996245536 38.9465
27.341966723775965 38.9385
27.365059584515222 39.0253
27.38797455070062 39.1289
27.410890633481237 39.013000000000005
27.433807833936918 38.9508
27.456905206923906 39.0585
27.47982465472398 38.8781
27.502745223449743 39.0889
27.525666914182825 39.2339
27.548768816912457 39.0925
27.571692763693633 39.0251
27.59461783573812 39.0102
27.617723149491244 38.9846
27.640650484125285 38.9382
27.66357894728264 38.7768
27.686508540048052 38.7321
27.709618414237887 38.6373
27.732550278321757 38.3862
27.755483275279115 38.4093
27.778417406196485 38.3697
27.801531858397514 38.4736
27.824468269376716 38.4223
27.847405817586786 38.4664
27.870344504116094 38.5911
27.893463551932008 38.7364
27.916404527281053 38.8126
27.93934664422563 38.8887
27.962289903855886 38.9299
27.98541356491974 39.2063
28.00835912214229 39.1811
28.03130582533231 39.4638
28.054253675581805 39.5088
28.077381967556104 39.5244
28.100332124185126 39.5215
28.123283431160893 39.4826
28.146235889577238 39.4127
28.169368830154156 39.2442
28.192323603752033 38.9214
28.215279532083304 38.6375
28.238415973016764 38.4487
28.261374223145094 38.4832
28.284333631303806 38.181
28.307294198589954 38.0379
28.330435319167677 37.7957
28.353398217078915 37.5905
28.376362277420153 37.2512
28.39932750129032 37.1003
28.422473319286713 36.9557
28.44544088262495 36.884
28.468409612800283 36.7422
28.491379510913497 36.6297
28.51453004413313 36.4667
28.53750229057244 36.4716
28.56047570826344 36.4831
28.583450298308804 36.4359
28.606605564586562 36.0992
28.629582511831156 36.3123
28.65256063474956 36.2468
28.675539934446338 36.3167
28.698699951647605 36.2289
28.72168161743193 36.0637
28.74466446331978 36.0495
28.767648490417624 35.9571
28.790813276438353 36.0354
28.813799678527303 35.9773
28.836787265157085 35.9716
28.859955641890075 36.0227
28.882945610203045 35.8722
28.905936766392035 35.7189
28.928929111566863 35.8283
28.952102288520145 35.8257
28.975097024308607 35.7146
28.998092952423807 35.5777
29.021090073977508 35.4942
29.04426806913204 35.3292
29.067267590245258 35.1252
29.090268308143695 35.1614
29.11327022394099 35.1301
29.13645305530891 35.0375
29.159457379627167 34.9259
29.18246290519685 34.8413
29.20546963313352 34.7734
29.22865731875826 34.9483
29.25166646419296 34.8379
29.27467681535305 34.7749
29.29768837335608 34.7799
29.320880931312562 34.8821
29.34389491580634 34.731
29.366910110507334 34.705999999999996
29.38992651653503 34.6633
29.41312396492981 34.6149
29.436142806456754 34.6884
29.45916286268059 34.4549
29.48236399319994 34.4565
29.50538649169417 34.3683
29.528410208259935 34.3115
29.55143514402014 34.0759
29.574641196749695 33.8794
29.597668583816574 33.8686
29.6206971934585 33.7249
29.64372702680042 33.6902
29.666938019934474 33.5864
29.689970313635285 33.538000000000004
29.713003834422636 33.4941
29.73603858342347 33.4772
29.759254535188578 33.3839
29.78229175361658 33.2778
29.80533020365064 33.4471
29.82836988641968 33.3847
29.85159081507472 33.3615
29.874632976355343 33.2244
29.89767637376955 33.2301
29.920721008448314 33.0583
29.9439469322847 33.0613
29.96699405457564 33.037
29.9900424175358 33.0756
30.013092022298157 33.0664
30.03632295963995 33.0452
30.059375061131373 32.9267
30.08242840783577 32.9066
30.105483000888153 32.9522
30.128718970092244 32.8639
30.151776069006917 32.8184
30.17483441768648 32.9145
30.198074175317235 32.958
30.221135036724256 32.9736
30.24419715131772 32.8608
30.267260520236203 32.8294
30.290505341942243 32.7851
30.313571232750228 32.8434
30.336638381310948 32.809
30.35970678876503 32.8457
30.38295669299435 32.7358
30.40602763151657 32.6268
30.429099832366074 32.5574
30.452173296685572 32.571
30.47542830191959 32.6844
30.498504306502497 32.5857
30.521581577995562 32.7338
30.544660117543582 32.6345
30.56792024229725 32.6508
30.59100133132069 32.6781
30.614083691845494 32.6717
30.637167325018545 32.7082
30.660432587840603 32.7269
30.683518779717886 32.6529
30.70660624769615 32.6961
30.729694992924372 32.7486
30.75296541239743 32.5898
30.77605672557558 32.5823
30.799149319462742 32.5822
30.8224236211637 32.4639
30.845518789950724 32.3611
30.868615242910597 32.2771
30.891712981195973 32.1757
30.91499247215866 32.1314
30.938092794619365 32.1006
30.96119440587579 32.0659
30.984297307082752 31.8675
31.00758200598383 31.8008
31.030687500658694 31.6822
31.053794288760695 31.643
31.076902371446767 31.508000000000003
31.100192296997445 31.537
31.12330298246119 31.5426
31.14641496599209 31.4445
31.169528248749216 31.4026
31.19282341969534 31.4991
31.215939314557186 31.4149
31.239056512134788 31.3855
31.262175013589378 31.3261
31.28547544871168 31.3759
31.30859657161541 31.221999999999998
31.331719001892175 31.3973
31.35484274070538 31.3987
31.378148458819545 31.4242
31.401274828443725 31.3385
31.424402510106933 31.3939
31.447712205419993 31.3493
31.470842524931633 31.1898
31.493974159989783 31.2493
31.51710711176168 31.2169
31.54042212308802 31.3078
31.563557722100917 31.2779
31.586694641341655 31.0559
31.609832881979628 31.0002
31.63315322823208 30.9149
31.656294125521327 30.6796
31.679436347728515 30.7563
31.70257989602529 30.6972
31.725905596152327 30.5881
31.74905181052835 30.5449
31.772199354521323 30.7301
31.79534822930507 30.6543
31.818679302290967 30.6432
31.84183085259981 30.6029
31.864983737233473 30.4964
31.88813795736804 30.5578
31.911474422233013 30.3837
31.934631327356435 30.5498
31.9577895715215 30.5302
31.980949155906522 30.4373
32.004291031706956 30.5139
32.027453310562606 30.3209
32.05061693318573 30.2609
32.07396288236386 30.1749
32.09712920658542 30.2543
32.12029687812702 30.1663
32.14346589817093 29.9513
32.166817291729984 29.9766
32.18998902288583 29.8545
32.21316210610336 29.8625
32.23633654256711 29.68
32.259693399663725 29.6674
32.282870556771144 29.6189
32.30604907069099 29.6458
32.329228942610065 29.5185
32.35259128243769 29.3542
32.375773884550505 29.3621
32.398957848235646 29.2916
32.422143174682176 29.2776
32.445511016471215 29.2849
32.468699082679954 29.1005
32.49188851523011 29.1214
32.51507931531304 29.1458
32.538452678331 29.1201
32.56164622776311 28.9558
32.58484114831493 28.929000000000002
32.60803744118015 28.8699
32.631416344731896 28.9203
32.654615396551876 28.9373
32.67781582427913 28.8021
32.701198898634416 28.8
32.72440209253756 28.7737
32.747606665947124 28.7266
32.77081262006088 28.6125
32.79420126883317 28.5795
32.81740999876112 28.5811
32.840620112999424 28.5055
32.86383161274818 28.4291
32.88722585534586 28.4506
32.91044014056596 28.5637
32.933655814909734 28.3831
32.95687287957963 28.4201
32.98027273544904 28.2879
33.00349259526636 28.3224
33.026713849030116 28.3058
33.04993649794511 28.2598
33.073341986570746 28.1745
33.09656744032826 28.2254
33.11979429286444 28.2231
33.14302254538647 28.1476
33.166433686291185 28.1192
33.18966475336992 28.1044
33.212897224069096 27.9923
33.23613109959831 28.0372
33.259547912343415 27.9276
33.2827846121627 28.0358
33.306022720453775 27.8977
33.32926223842861 27.7157
33.352684742614166 27.8765
33.37592709463173 27.7157
33.399170859982064 27.6687
33.422597648419426 27.7015
33.44584425514446 27.4803
33.46909227885668 27.611
33.4923417207723 27.3525
33.51577423505344 27.3895
33.539026528130385 27.2974
33.56228024307245 27.3421
33.585535381098246 27.1777
33.60897364093058 27.1271
33.63223163992385 27.1034
33.6554910656699 26.9974
33.678751919389796 27.1282
33.702195944520106 27.003
33.72545966903325 26.9865
33.74872482519663 26.9521
33.771991414233746 26.9916
33.79544122444841 26.9027
33.81871069412428 26.7849
33.84198160035767 26.8018
33.86525394437455 26.8417
33.88870955949969 26.6701
33.911984794020626 26.6465
33.93526147001624 26.6428
33.958539588715006 26.6023
33.98200102861669 26.4895
34.0052820477047 26.4323
34.02856451319451 26.4288
34.05203033759056 26.458000000000002
34.07531571090147 26.4622
34.09860253431845 26.348000000000003
34.121890809074316 26.3064
34.145362493118924 26.3015
34.16865368561615 26.2281
34.191946333164054 26.1962
34.21524043699793 26.1337
34.23871800066799 26.066
34.26201503218366 25.9968
34.28531352370466 25.9463
34.30861347646881 25.9558
34.33209693978188 25.9325
34.3553998301885 25.8949
34.378704185565205 25.8372
34.402010007152356 25.7777
34.42549939016683 25.7633
34.44880815937748 25.6898
34.472118398533134 25.5879
34.49543010887669 25.6365
34.51892543169198 25.4676
34.54224009966052 25.5068
34.56555624255917 25.5772
34.58887386163339 25.4444
34.61237514439016 25.3312
34.6356957311114 25.3854
34.65901779775809 25.3337
34.68252356662995 25.2991
34.705848608458616 25.2712
34.72917513396849 25.1754
34.75250314440949 25.135
34.77601490857862 25.025
34.799345904259795 25.0112
34.82267838863559 25.0275
34.846012362958525 25.1028
34.869530142679984 25.0807
34.89286711232212 24.9493
34.91620557568269 24.9618
34.93954553401677 24.8647
34.9630693495876 24.7883
34.986412313340814 24.8273
35.00975677584668 24.7543
35.033102738362956 24.7216
35.05663261012228 24.7534
35.0799815881786 24.717
35.10333207003229 24.7074
35.12668405694369 24.7084
35.150220005273056 24.5556
35.17357501786656 24.4426
35.19693153931268 24.6106
35.220289570874385 24.5449
35.24383161619786 24.5568
35.267192683604904 24.4713
35.290555264930376 24.4687
35.314101899412165 24.4108
35.33746752422433 24.3748
35.36083466676374 24.3856
35.38420332829803 24.3162
35.407756095629054 24.424
35.43112781085063 24.3606
35.45450104888391 24.2418
35.477875810999194 24.2801
35.50143473172161 24.1699
35.52481255774625 24.221
35.54819191167777 24.1818
35.57157279478914 24.1589
35.595137889488406 23.9869
35.61852184675279 24.061999999999998
35.641907337029984 24.0051
35.665294361595684 23.9919
35.68886565090076 23.8975
35.7122557598848 23.768
35.73564740699838 23.8423
35.759040593519934 23.8726
35.78261809810353 23.8096
35.80601437933051 23.7551
35.829412203814705 23.6308
35.85281157283719 23.5343
35.876395313415884 23.6287
35.8997977874528 23.6019
35.92320180988546 23.5256
35.946790244133936 23.4459
35.97019737933222 23.4643
35.993606066789866 23.4519
36.01701630779276 23.4239
36.04061101440684 23.3285
36.06402437852291 23.3383
36.08743930005611 23.2734
36.1108557802951 23.2153
36.13445678011326 23.191
36.15787639383515 23.1742
36.18129757014299 23.1334
36.20472031032821 23.1457
36.22832762423364 23.0475
36.25175350829375 23.0631
36.275180960119776 23.0299
36.298609981005924 23.0753
36.32222362992669 22.9866
36.34565580510207 22.9358
36.36908955323448 22.9496
36.39252487562093 22.7928
36.416144880530226 22.7369
36.43958336764275 22.7539
36.463023432914625 22.7177
36.486465077645676 22.7208
36.51009145956204 22.7103
36.53353627947859 22.7026
36.55698268276811 22.6846
36.58043067073321 22.6082
36.60406345072071 22.4854
36.62751462435344 22.5241
36.65096738658405 22.4898
36.67460498210655 22.4654
36.69806093788647 22.4298
36.72151848619297 22.3786
36.744977628333636 22.4184
36.76862165890998 22.3353
36.79208400512205 22.3287
36.81554794910557 22.3367
36.83901349217101 22.2034
36.862663978991606 22.1385
36.88613273667352 22.2051
36.90960309738324 22.1612
36.933075062434064 22.0377
36.95673202673572 22.0664
36.98020721697122 22.0157
37.003684015502365 21.9152
37.027162423645365 21.8623
37.050825886711465 21.9426
37.07430753063053 21.864
37.09779078812467 21.7833
37.121275660513014 21.808000000000003
37.144945643673694 21.7758
37.16843376245278 21.7422
37.19192350009803 21.7509
37.215414857931435 21.6655
37.239091382563885 21.6357
37.262585997426164 21.6647
37.28608223645736 21.5297
37.309763684451696 21.5406
37.33326318851098 21.4399
37.356764320726555 21.5118
37.380267082425526 21.5206
37.40395510942588 21.4673
37.42746114683234 21.3926
37.45096881771841 21.3026
37.474478123414166 21.3541
37.49817275092816 21.2452
37.52168534303452 21.3059
37.54519957395567 21.1688
37.568715445024665 21.1119
37.592416694607714 21.0502
37.61593586281424 21.1183
37.63945667518264 21.1318
37.66297913304891 21.0424
37.68668702630454 20.9916
37.710212792059274 20.8007
37.733740207334854 20.9454
37.757269273470364 20.8948
37.780983832050374 20.7548
37.80451621684926 20.8195
37.82805025654007 20.8335
37.851585952464795 20.715999999999998
37.8753071980695 20.6977
37.89884622345676 20.712
37.92238690911902 20.6926
37.94611318753442 20.5952
37.969657210779765 20.6395
37.99320289834801 20.6324
38.016750251586465 20.5911
38.04048325513017 20.4781
38.06403395679343 20.4227
38.087586328183946 20.4025
38.11114037065203 20.4157
38.13488012115898 20.3958
38.1584375229181 20.2895
38.181996599821 20.3058
38.205557353221124 20.2416
38.229303872575656 20.229
38.2528679961576 20.1255
38.27643380031219 20.0942
38.30000128639589 20.0645
38.32375459653193 20.1086
38.34732546371299 20.1843
38.37089801690786 19.975
38.39447225747609 19.994
38.418232380377425 19.9887
38.441810012983396 19.9629
38.46538933705673 19.882
38.488970353960084 19.9734
38.51273731166058 19.8874
38.536321731567014 19.8437
38.55990784840681 19.8245
38.58367995004091 19.7278
38.60726947812959 19.7399
38.63086070726198 19.7327
38.654453638806274 19.6446
38.678232613930824 19.5988
38.70182896773327 19.53
38.72542702806741 19.4946
38.7490267963045 19.5644
38.77281266709232 19.445
38.79641586862214 19.4871
38.8200207821842 19.3823
38.843627409152944 19.4161
38.86742019782782 19.4056
38.891030269149255 19.2963
38.914642058016156 19.335
38.938255565806124 19.3122
38.96205529464307 19.2303
38.98567225787121 19.2645
39.00929094417078 19.2608
39.03291135492255 19.2474
39.05671804624804 19.1233
39.080341923549106 19.062
39.103967529460334 19.0785
39.127594865365744 19.0129
39.15140854155791 18.987000000000002
39.17503935514948 19.0053
39.19867190290282 18.99
39.22249083587951 18.947
39.24612686969409 18.9232
39.269764641845306 18.8577
39.293404153722804 18.8465
39.317230110864074 18.7706
39.34087311998506 18.776
39.36451787301696 18.7501
39.388164371352595 18.6889
39.41199737518003 18.6654
39.43564738196752 18.6536
39.45929913825317 18.6084
39.48295264543308 18.533
39.506792718520884 18.4943
39.530449745387216 18.5489
39.55410852735203 18.5555
39.57776906581474 18.5117
39.60161623079 18.4659
39.625280300200025 18.4296
39.64894613032202 18.3758
39.67261372255866 18.3077
39.6964680021016 18.3403
39.72013913657293 18.3079
39.74381203738292 18.2289
39.76748670593756 18.2622
39.79134812278169 18.2658
39.81502634488497 18.2068
39.83870633896685 18.2008
39.862388106436654 18.1187
39.88625668336918 18.1689
39.90994201572829 18.1077
39.933629125719285 18.0372
39.957503091207826 17.9821
39.9811937746168 18.0764
40.00488623990914 17.9821
40.02858048850006 17.9478
40.05246165409549 17.8181
40.076159487492085 17.899
40.099859108448875 17.8439
40.123560518384345 17.7614
40.1474489070226 17.804000000000002
40.171153913178564 17.7189
40.194860712584955 17.7376
40.2185693066637 17.769000000000002
40.242464941335314 17.6725
40.26617714307655 17.6419
40.289891143772046 17.5563
40.3136069448471 17.5437
40.33750984859743 17.602999999999998
40.3612292688043 17.5313
40.3849504936829 17.5407
40.40867352466194 17.4781
40.43258372059144 17.4173
40.45631038219906 17.4309
40.48003885420956 17.3552
40.503769138055105 17.3776
40.52768664931955 17.3291
40.55142057531802 17.3689
40.57515631746428 17.3139
40.599079334038514 17.2561
40.62281872700477 17.2516
40.64655994043941 17.1574
40.67030297578061 17.2002
40.69423334835778 17.1509
40.71798004609188 17.1275
40.74172857006355 17.0549
40.76547892171441 17.0674
40.7894166736039 17.1093
40.813170699248566 16.9894
40.83692655691388 16.9633
40.86068424804498 16.9872
40.884629402612525 16.9095
40.908390779366385 16.9075
40.932153993938 16.8474
40.95591904777605 16.8297
40.979871628443995 16.855999999999998
41.003640379561936 16.8032
41.02741097430883 16.7547
41.05118341413683 16.7436
41.075143444384416 16.7366
41.098919593177826 16.6836
41.1226975914255 16.6062
41.14647744058318 16.6108
41.170444943946755 16.5794
41.19422851378379 16.6128
41.218013938914645 16.5674
41.24198706625173 16.5621
41.26577622087193 16.4794
41.289567235177785 16.4591
41.31336011063129 16.4017
41.337340752422875 16.3748
41.361137369129835 16.3917
41.38493585138705 16.3193
41.40873620066004 16.3079
41.43272438060107 16.264
41.45652848292052 16.2478
41.48033445666918 16.1875
41.50414230331616 16.194000000000003
41.528138045159764 16.2154
41.551949656675205 16.1254
41.575763145513235 16.1166
41.59957851314666 16.1292
41.62358184070442 16.054000000000002
41.64740098505737 16.0312
41.6712220126409 15.9836
41.69504492493139 15.9861
41.71905586207357 15.9637
41.74288256296395 15.9726
41.766711153007456 15.9513
41.79054163368412 15.8958
41.814560204340054 15.8504
41.838394485526365 15.8958
41.86223066180303 15.8339
41.88625497706819 15.7812
41.910094962812 15.8135
41.93393684811168 15.7577
41.95778063445365 15.6089
41.981812625263366 15.6391
42.00566023303407 15.6551
42.029509746323676 15.6334
42.05336116662236 15.6197
42.077400857069705 15.6002
42.10125611078846 15.5919
42.12511327600405 15.5809
42.14897235421036 15.5001
42.173019768448455 15.4509
42.19688269209613 15.388
42.22074753323349 15.3785
42.24461429335818 15.3845
42.268669455600495 15.3277
42.292540073217886 15.3335
42.31641261433284 15.2843
42.34028708044675 15.2652
42.36435001496739 15.245
42.38822835065557 15.1559
42.41210861586426 15.1788
42.4359908120986 15.2378
42.46006154323262 15.1419
42.48394762115317 15.0778
42.507835634632315 15.1165
42.531912233047436 15.0911
42.55580413732265 15.0579
42.579697981698 15.0168
42.60359376768525 14.9483
42.62767820545945 14.9886
42.65157789440821 14.9454
42.67547952952185 14.9304
42.699383112316 14.8954
42.72347541395347 14.9005
42.74738291190531 14.8327
42.771292362102166 14.8466
42.795203766063516 14.7883
42.819303956130405 14.8399
42.843219287476536 14.7636
42.86713657716324 14.7385
42.89105582671383 14.7382
42.91516392983864 14.6696
42.939087119032166 14.6497
42.963012272677304 14.6581
42.98693939230129 14.6808
43.01105543317513 14.6012
43.034986504731386 14.4958
43.05891954686589 14.4871
43.08285456110972 14.4862
43.10697856448665 14.5025
43.130917542983475 14.4215
43.15485849820081 14.4313
43.17880143167367 14.3773
43.20293342237094 14.4117
43.226880332449 14.3478
43.25082922540554 14.3564
43.27496722682525 14.3268
43.29892010567796 14.2823
43.32287497204102 14.2563
43.34683182745632 14.1888
43.370977859791836 14.2215
43.39493871351105 14.2174
43.41890156092628 14.1442
43.44286640358341 14.1408
43.46702049182749 14.1286
43.49098934522816 14.0364
43.51496019852649 14.0411
43.5389330532723 14.1045
43.56309522248204 14.0305
43.58707210044314 13.9917
43.61105098451946 13.9648
43.63503187626491 13.9578
43.659202151562134 13.9134
43.68318707902681 13.8969
43.70717401884041 13.8323
43.731162972560874 13.8483
43.75534137913236 13.8113
43.779334381108384 13.7455
43.803329401683186 13.73
43.82732644241872 13.7878
43.8515130055166 13.7321
43.87551410707659 13.6825
43.89951723350145 13.7039
43.923709934595614 13.675999999999998
43.94771713129917 13.6439
43.97172635758096 13.6023
43.99573761501002 13.5947
44.0199385169922 13.5729
44.04395385732619 13.5571
44.067971233533086 13.5195
44.09199064718605 13.4728
44.11619977548961 13.4848
44.14022328470671 13.4879
44.16424883610785 13.4535
44.18827643127035 13.3795
44.21249381139513 13.3808
44.236525514814076 13.2929
44.26055926674478 13.3625
44.28459506876863 13.3342
44.3088207262813 13.2749
44.33286064928722 13.2736
44.35690262714919 13.2466
44.38094666145278 13.2044
44.4051806219871 13.1859
44.42922879003185 13.1431
44.45327901929361 13.114
44.477331311362136 13.1326
44.501573600619416 13.1202
44.525630039221795 13.0175
44.54968854541895 12.9927
44.573937102200176 13.0262
44.5979997645541 13.0198
44.622064499300315 13.0289
44.64613130803592 12.9339
44.67038823869318 12.9225
44.69445921643748 12.9148
44.718532272981385 12.8934
44.742607409926194 12.8813
44.76687274034801 12.8549
44.79095205918753 12.8089
44.81503346325094 12.7714
44.839116954143876 12.770999999999999
44.86339071028742 12.7576
44.88747839599524 12.7035
44.91156817336837 12.7164
44.93566004401666 12.6984
44.959942251908146 12.6666
44.984038330325966 12.685
45.00813650686762 12.5909
45.03223678314731 12.6439
45.05652746888232 12.5683
45.08063196592069 12.524000000000001
45.104738567558705 12.5451
45.128847275414856 12.5295
45.15314646515866 12.4567
45.17725940679741 12.4702
45.20137445952892 12.4528
45.22568004865265 12.4208
45.24979934496396 12.3525
45.27392075725247 12.3413
45.29804428714431 12.3248
45.322358426247604 12.3866
45.346486212804315 12.3102
45.370616121861914 12.2933
45.39474815505086 12.2445
45.41907087049246 12.2361
45.4432071734666 12.2004
45.46734560548283 12.179
45.49148616817604 12.2285
45.51581748638564 12.1699
45.5399623320197 12.159
45.56410931325473 12.1163
45.58825843173002 12.1083
45.61259837920865 12.0494
45.636751793816 12.0501
45.66090735060093 12.0163
45.68506505120716 12.0342
45.7094136545275 11.9799
45.73357566449271 11.9892
45.75773982322992 11.9616
45.78190613238733 11.9074
45.806263418194064 11.8353
45.83043404997326 11.8723
45.85460683713677 11.8849
45.87897065658495 11.8784
45.90314777634752 11.8046
45.92732705646868 11.7678
45.9515084986045 11.7689
45.97588104735473 11.7714
46.00006683541565 11.72
46.02425479047904 11.7364
46.04844491420549 11.6905
46.0728262191024 11.6859
46.09702070211635 11.6583
46.12121735879483 11.6315
46.14541619080294 11.6135
46.169806278764455 11.5635
46.194009483459034 11.5742
46.21821486849841 11.5734
46.24242243555223 11.5731
46.266821333570014 11.5343
46.29103328674601 11.4564
46.31524742696538 11.4691
46.33946375590237 11.4482
46.36387149104216 11.4026
46.38809221957392 11.3845
46.41231514186606 11.3757
46.436540259597464 11.3585
46.460956858999374 11.3251
46.48518638983522 11.2931
46.509418121166966 11.2856
46.533652054678114 11.2558
46.55807754555709 11.2177
46.58231590571962 11.2621
46.60655647313217 11.2237
46.630988654873654 11.2123
46.655233659129024 11.1475
46.67948087571551 11.1286
46.70373030632484 11.1776
46.72817142736393 11.1149
46.752425308428684 11.075999999999999
46.77668140861147 11.0904
46.80093972960865 11.0116
46.82538981736788 11.0455
46.849652602470904 11.014000000000001
46.87391761349769 11.0063
46.8981848521493 10.9776
46.9226439341274 10.948
46.946915650573224 10.8894
46.97118959976749 10.895
46.99546578341598 10.8953
47.019933887188216 10.8849
47.04421456235744 10.8623
47.06849747711879 10.8266
47.09278263318286 10.7474
47.11725978640143 10.7755
47.14154944775105 10.7753
47.165841355555656 10.745999999999999
47.1901355115306 10.7045
47.214621741924994 10.7285
47.23892041698887 10.6824
47.26322134538975 10.6109
47.28771440635075 10.6359
47.31201986422527 10.6619
47.33632758061436 10.6249
47.360637557241866 10.5578
47.38513974410611 10.5666
47.40945426407847 10.5459
47.43377104948137 10.5488
47.45809010204344 10.4962
47.48260144275502 10.4726
47.506925052572285 10.464
47.53125093475548 10.418
47.55557909103813 10.4252
47.58009961361992 10.4094
47.60443234110732 10.370999999999999
47.62876734791564 10.3657
47.65310463578333 10.3545
47.6776343683373 10.3137
47.7019762413987 10.2593
47.72632040075572 10.2244
47.75066684815169 10.2792
47.77520581885936 10.2213
47.799556865477655 10.2174
47.823910205386 10.249
47.84826584033272 10.2313
47.87281407745551 10.1786
47.89717432569297 10.1778
47.92153687423484 10.1876
47.94609208429692 10.1603
47.97045925671401 10.0715
47.99482873471275 10.0735
48.01920052005013 10.0786
48.04376504619224 10.0522
48.068141469543484 10.0554
48.09252020552573 10.0474
48.11690125590099 9.99669
48.1414751266064 9.95006
48.16586082917454 9.974680000000001
48.19024885144316 9.93717
48.2146391951793 9.92576
48.239222439012764 9.926860000000001
48.26361744916137 9.87146
48.28801478610016 9.90183
48.31241445160131 9.86048
48.337007097209366 9.83343
48.36141144338331 9.82664
48.38581812345755 9.82151
48.41022713920929 9.79646
48.434829215320704 9.77176
48.45924292604658 9.75596
48.48365897780325 9.742289999999999
48.50807737237308 9.73323
48.532688907799276 9.67495
48.55711201168574 9.677719999999999
48.581537463754074 9.65669
48.60615611725119 9.695960000000001
48.63058628942721 9.64203
48.65501881516546 9.63342
48.6794536962573 9.61797
48.70408185970339 9.56719
48.72852147531801 9.54871
48.75296345168211 9.53204
48.77740779059232 9.51897
48.80204549302823 9.509319999999999
48.82649458091802 9.51062
48.85094603676547 9.4594
48.87539986237231 9.42549
48.90004713292306 9.41183
48.92450572200832 9.42858
48.94896668628025 9.39954
48.97343002754588 9.377
48.99808689542115 9.348460000000001
49.02255501470614 9.34992
49.04702551642794 9.32645
49.0714984023988 9.34458
49.096164896893235 9.28509
49.120642575466796 9.2797
49.145122643748394 9.232489999999999
49.16960510355558 9.20854
49.19428125404938 9.250580000000001
49.2187685210852 9.21269
49.243258185121555 9.2194
49.26794160167084 9.16317
49.2924360839405 9.16595
49.31693296869764 9.126380000000001
49.34143225776915 9.10617
49.36612538195438 9.09632
49.39062950396021 9.10175
49.41513603578346 9.079089999999999
49.4396449792564 9.031830000000001
49.46434784069503 9.015830000000001
49.488861631846454 9.00558
49.513377840166804 9.00937
49.537896467493745 8.97066
49.56260909589029 8.94852
49.587132585683285 8.942960000000001
49.611658500018365 8.92934
49.636186840738596 8.87301
49.66090926588511 8.88593
49.685442483902584 8.857389999999999
49.70997813385706 8.84483
49.734516217597076 8.84638
49.75924846937352 8.86445
49.7837914452858 8.81155
49.80833686055187 8.79015
49.83288471702571 8.74704
49.85762682540054 8.766210000000001
49.882179588965734 8.71668
49.9067347993235 8.69623
49.93129245833333 8.689860000000001
49.95604445336378 8.68755
49.98060703442832 8.68186
50.005172069746266 8.63074
50.02993150438364 8.65617
50.05450147301533 8.63578
50.07907390151433 8.583639999999999
50.10364879174981 8.61005
50.12841816587289 8.57213
50.1529980044635 8.568769999999999
50.17758031042124 8.50184
50.20216508562089 8.56285
50.22694442953363 8.53508
50.25153416817468 8.48382
50.27612638170508 8.46545
50.300721072005196 8.47444
50.325510416102105 8.43244
50.350110084975064 8.39007
50.37471223628208 8.44207
50.39931687190919 8.40363
50.424116246675766 8.36159
50.44872587605249 8.40647
50.47333799543065 8.3242
50.49795260670191 8.32147
50.52276204271512 8.32488
50.54738166295838 8.2873
50.57200378079314 8.26717
50.596628398116835 8.26018
50.62144792604559 8.24969
50.646077567609396 8.227839999999999
50.670709714377715 8.21963
50.69553683636198 8.20865
50.72017401885922 8.21065
50.7448137122895 8.168619999999999
50.76945591856022 8.11905
50.79429318636823 8.1299
50.818940443716784 8.125160000000001
50.84359021965163 8.08286
50.868242516085964 8.08944
50.893089960641895 8.06212
50.917747323549435 8.04384
50.94240721271973 8.03943
50.96706963007175 8.00934
50.99192728239342 8.046710000000001
51.01659478166073 8.034089999999999
51.04126481489051 8.0341
51.06593738400761 7.978839999999999
51.090805275207074 7.955430000000001
51.11548294172845 7.94198
51.14016314993547 7.88714
51.164845901758845 7.870310000000001
51.18972406304274 7.8651
51.21441192780656 7.81577
51.23910234200271 7.8680699999999995
51.2637953075678 7.86495
51.288683770237945 7.79351
51.31338186432707 7.78558
51.33808251561888 7.788869999999999
51.362978729967345 7.80162
51.387684521509755 7.78083
51.41239287610203 7.76037
51.437103795691165 7.710319999999999
51.46201036644977 7.70907
51.486726441956634 7.694939999999999
51.51144508832545 7.66696
51.536166307509156 7.67473
51.56108326624387 7.628360000000001
51.58580965706056 7.663310000000001
51.61053862657523 7.630210000000001
51.635270176746864 7.580260000000001
51.66019755512065 7.56769
51.68493429268881 7.52964
51.70967361681515 7.52405
51.73441552946465 7.5702
51.759353359237934 7.50938
51.7841004750961 7.474589999999999
51.80885018539685 7.44981
51.833602492111254 7.4813600000000005
51.8585508051424 7.4687399999999995
51.883308330926425 7.42725
51.90806845906181 7.40235
51.932831191525715 7.4005
51.95779001977161 7.3700399999999995
51.98255798721516 7.369330000000001
52.00732856494335 7.3678300000000005
52.03229530577543 7.330080000000001
52.057071130455945 7.3254
52.081849571391054 7.320069999999999
52.106630630568695 7.29851
52.13160794279417 7.278969999999999
52.15639426492067 7.27345
52.18118321127822 7.276860000000001
52.205974783860896 7.2392
52.23096269971011 7.25148
52.255759551287994 7.214739999999999
52.280559035098186 7.20392
52.30536115314103 7.158580000000001
52.33035970494467 7.14535
52.35516711807904 7.141889999999999
52.37997717147198 7.15831
52.40478986713005 7.1424199999999995
52.42979908731974 7.09903
52.454617094216 7.05823
52.47943774942214 7.0454300000000005
52.50426105495102 7.0507800000000005
52.529280976059844 7.064710000000001
52.554109609024096 7.0453399999999995
52.57894089837482 7.02375
52.60377484613117 6.969939999999999
52.62880550079408 6.969539999999999
52.65364479223379 6.9503
52.67848674816189 6.9631
52.70352547971946 6.97875
52.72837279155837 6.94332
52.753222773982785 6.90976
52.778075429022984 6.924339999999999
52.80312495150885 6.90755
52.827982978797436 6.889939999999999
52.85284368481815 6.86925
52.87770707160767 6.84099
52.90276741793998 6.82855
52.92763619336701 6.80452
52.952507655698504 6.7864
52.977381806977576 6.74805
53.00245301017842 6.7956
53.02733256653592 6.7628699999999995
53.052214817996074 6.78408
53.077099766608484 6.74465
53.102181859804446 6.722360000000001
53.127072229988265 6.7114899999999995
53.15196530349892 6.721889999999999
53.17686108239249 6.67053
53.20195409881522 6.670789999999999
53.22685531582556 6.63388
53.25175924441303 6.60657
53.27666588664027 6.61107
53.30176985962693 6.593369999999999
53.3266819565689 6.57163
53.35159677336455 6.58057
53.376514312083096 6.55541
53.40162927507703 6.5528900000000005
53.42655228516116 6.555630000000001
53.45147802340193 6.51589
53.47660125628886 6.495080000000001
53.50153247842639 6.5103599999999995
53.52646643496923 6.49912
53.55140312799818 6.47317
53.576537409691696 6.50004
53.60147960336152 6.468780000000001
53.626424539786164 6.42939
53.65137222105307 6.43709
53.67651758529126 6.3910800000000005
53.70147078399681 6.35837
53.72642673383343 6.31476
53.75138543689533 6.34696
53.776541917524526 6.35135
53.801506154876755 6.33495
53.826473151763246 6.31611
53.851442910284916 6.2815900000000005
53.87661054126026 6.27376
53.9015858509782 6.2590900000000005
53.92656392866066 6.21745
53.95154477641532 6.240880000000001
53.976723591801296 6.20234
54.00171000771266 6.21298
54.02669920004598 6.2205
54.051691170915745 6.19754
54.076881204886796 6.17807
54.101878760928514 6.2075
54.12687910187696 6.14917
54.152077577768296 6.1436
54.1770835166946 6.10634
54.20209224691339 6.12533
54.22710377055121 6.0911599999999995
54.25231352511594 6.08575
54.27733066384342 6.07961
54.30235060239643 6.08597
54.32737334290836 6.03864
54.35259441062629 5.95739
54.377622783395324 5.98503
54.40265396455061 5.9779
54.42768795623251 5.9503900000000005
54.45292037169559 5.90583
54.477960012857906 5.93432
54.50300247099511 5.89539
54.52804774825457 5.9070599999999995
54.55329154616743 5.85278
54.57834249018678 5.84313
54.6033962597977 5.83636
54.6284528571545 5.794490000000001
54.653708072335164 5.7458599999999995
54.67877035378786 5.77276
54.70383546947698 5.74109
54.72890342156389 5.7372
54.7541700889442 5.7123800000000005
54.77924374251975 5.7131300000000005
54.8043202390049 5.6535400000000005
54.82959552413022 5.61284
54.8546777351945 5.60102
54.87976279569621 5.59357
54.90485070780914 5.63535
54.930137506558005 5.5745
54.95523115074295 5.58921
54.98032765308844 5.50668
55.005427015775496 5.506530000000001
55.03072536339621 5.511419999999999
55.05583047570572 5.44365
55.080938454927676 5.4351199999999995
55.10604930325027 5.418130000000001
55.131359235107396 5.44129
55.15647585066083 5.39644
55.181595341907496 5.33033
55.20671771104285 5.337940000000001
55.232039262617704 5.338019999999999
55.25716741665048 5.26904
55.28229845518636 5.2762
55.30743238042802 5.264469999999999
55.33276558731939 5.22393
55.357905315183636 5.23886
55.383047936390035 5.1782
55.40819345314859 5.15215
55.433538351073295 5.1397
55.458689688238415 5.1089199999999995
55.483843927614096 5.0526599999999995
55.509197623043605 5.06464
55.53435769621134 5.04361
55.55952067826466 5.03297
55.5846865714265 5.02461
55.61005202069737 4.962619999999999
55.63522376553902 4.9614
55.66039842818645 4.9686900000000005
55.68557601087004 4.94409
55.7109532500271 4.8379
55.73613670233794 4.885280000000001
