TT I
1.2716486653135266 6.68358
1.2939594142134223 6.830539999999999
1.3162702121660406 6.79738
1.3385810600174564 6.40954
1.3608919586137629 6.563560000000001
1.383202908801069 6.4252400000000005
1.405513911425503 6.28935
1.4278249673332093 5.69498
1.4501343378461518 5.57038
1.4724455028545926 5.62613
1.4947567236847858 5.21467
1.517068001182951 5.52175
1.5393793361953272 5.85318
1.5616907295681737 5.91125
1.5840021821477681 4.92581
1.60631369478041 4.35688
1.6286252683124185 4.70372
1.6509369035901333 4.72877
1.6732468618895553 4.43679
1.695558623192809 4.360040000000001
1.7178704487808514 4.54041
1.7401823395001077 4.58927
1.7625012545597203 4.6683900000000005
1.7848028405262486 4.609380000000001
1.8071218901122095 4.7407
1.8294236121921872 4.27153
1.8517427996910911 3.56699
1.8740620574440425 3.92582
1.8963639900671978 4.20744
1.9186833908139995 3.99885
1.9409854680117449 4.96685
1.9633050151394713 4.93379
1.9856246367570705 4.0342199999999995
2.0079269371922672 4.123
2.03024671027244 4.17028
2.0525491637446027 3.5246800000000005
2.074869091674931 3.78074
2.097171701569106 4.05336
2.1194917877373847 4.6597800000000005
2.141811954326636 4.24098
2.164114805233074 4.02681
2.186435135143035 4.49136
2.208738150935709 5.40281
2.231058647554722 6.67015
2.2533792288321184 6.4687
2.275682498336085 5.331519999999999
2.298003251406138 5.12777
2.3203066942619714 4.72548
2.3426276225136022 4.892119999999999
2.3649486396617507 5.550330000000001
2.387252348930071 5.8626
2.4095735463442893 6.3139
2.4318774374315884 6.80857
2.4541988185014043 6.74372
2.476502894794693 6.8868100000000005
2.498824462909887 7.23652
2.521146125856138 6.654660000000001
2.5434504863470337 7.65344
2.5657723414244717 7.3071
2.588076895590662 8.77675
2.610398946189713 7.8853100000000005
2.6327210958598384 8.39599
2.6550259469304716 8.35285
2.6773482972090137 8.56775
2.6996533504259 8.51776
2.7219759047039602 9.08179
2.744298562293959 8.78321
2.7666039251246595 8.32921
2.7889267918020164 8.4482
2.8112323652516555 8.25572
2.833555444408179 8.68955
2.8558786311183852 8.87176
2.8781845268938557 8.516919999999999
2.9005079311721484 9.268419999999999
2.9228140460410397 8.868310000000001
2.9451376712799635 9.34607
2.967444008632326 9.22355
2.9897678582247247 9.94282
3.0120918213106695 10.1529
3.0343984987899373 10.7567
3.0567226913198637 11.4103
3.079029599759726 11.1783
3.101354025127254 11.9983
3.123678568232338 12.6312
3.145985829517914 12.6236
3.16831061055229 13.4578
3.1906181112775593 13.8327
3.212943133635653 14.8023
3.2352682779763207 15.0088
3.2575761442691227 15.1218
3.2799015350264273 15.4643
3.302209649240067 16.1582
3.3245352898092655 15.9982
3.3468436553365257 16.526
3.369169549113219 17.2637
3.3914955708171384 17.9363
3.413804319727358 18.3431
3.4361305997334863 18.3515
3.4584396084414553 18.8617
3.4807661501462652 19.3867
3.503092824025881 19.9478
3.5254022288463154 20.3199
3.5477291695206588 20.5838
3.5700388426251948 20.8396
3.5923660534916446 21.4772
3.6146934007816114 22.7156
3.637003482731501 27.5851
3.6593311053109985 30.3913
3.681641464033634 26.8035
3.7039693653009733 24.2195
3.726297407241705 24.1995
3.7486081875460804 24.2389
3.7709365132734978 24.6366
3.793247578841633 25.225
3.8155761917550093 25.4887
3.8378875459837216 25.8492
3.8602164494827234 26.4361
3.882545499606844 27.1221
3.9048572932539183 27.4637
3.9271866390645718 27.7541
3.9494987298666713 28.2233
3.971828374764527 28.973000000000003
3.9941581705403255 29.0222
4.016470713506008 29.2453
4.038800813471445 30.2521
4.061113662089144 31.0909
4.0834440696459176 31.639
4.105774632334751 31.9675
4.128087945865126 32.7411
4.150418821249301 33.1712
4.172732448931298 33.6767
4.195063640413578 34.7118
4.2173775856475215 35.5808
4.239709096631102 37.8892
4.262040768704612 52.4287
4.284355196706267 64.0946
4.306687193387355 56.2325
4.329001947444346 44.1958
4.35133427213731 40.885999999999996
4.373666762177566 40.5203
4.395982011761091 40.9712
4.418314834921175 41.8198
4.44063041906622 43.3999
4.4629635787515625 45.3901
4.4852969080429785 46.6024
4.5076130004776225 46.6556
4.529946671403969 46.5895
4.552263106909177 47.3262
4.574597122877047 48.7264
4.596931312711224 49.912
4.619248269273446 50.5689
4.6415828092605835 51.1381
4.663900117405352 52.8596
4.686235010953232 53.8764
4.708552674085913 55.1551
4.730887924602802 56.3882
4.753223354952695 58.1488
4.775541557023902 59.7062
4.797877349456786 60.6309
4.820195915032126 62.7
4.842532072957498 64.1449
4.864868414979744 65.7151
4.88718753227192 67.8675
4.909524244902505 69.6493
4.931843734218147 71.7203
4.954180820867835 73.9844
4.976518095879839 76.8013
4.998838149695359 79.6852
5.021175803844231 83.1724
5.043496238205739 85.51899999999999
5.065834274903528 89.3959
5.088172504230693 92.6623
5.1104935158799565 97.24600000000001
5.132832132875765 105.45100000000001
5.155153533596801 118.243
5.1774925416746225 137.806
5.199814334878411 232.84799999999998
5.2221537374521505 803.012
5.244493338631803 2506.39
5.266815727034316 7144.32
5.289155727832427 13504.8
5.311478517248165 9539.38
5.333818921080011 3274.99
5.356159527788849 680.946
5.3784829252032536 211.56099999999998
5.400823940070432 144.879
5.423147747031976 123.96600000000001
5.445489173474152 113.896
5.467830807066149 108.09299999999999
5.490155234831516 104.398
5.512497285125229 100.991
5.534822130975162 99.5293
5.557164601388673 97.3515
5.579489868738879 94.5443
5.601832762690846 93.2277
5.6241758697774475 91.6278
5.646501775867269 90.8443
5.668845311622074 89.9275
5.691171647754637 89.3793
5.713515615597765 88.4913
5.735859800852677 87.9837
5.758186788542988 86.9086
5.780531411018185 86.8561
5.802858837297399 86.6337
5.825203900414495 86.5206
5.8475491852224 86.2893
5.869877275883075 86.9861
5.892223006467101 88.0867
5.914551544266608 88.5615
5.936897724049891 90.846
5.959244129804903 95.6628
5.981573344815301 106.715
6.0039202049061 163.615
6.026249875609095 396.336
6.04859719346037 895.7589999999999
6.070927323278297 2061.2
6.093275102315365 4566.45
6.115623113320588 5557.65
6.137953938319995 3617.45
6.160302415650845 1081.38
6.182633708324452 238.898
6.2049826554078376 109.529
6.227331838745022 87.2718
6.249663839443684 80.2018
6.27201349767565 75.7107
6.294345974611799 73.6721
6.316696111167083 72.9224
6.339046488263839 71.4501
6.361379686074702 68.604
6.383730546639482 66.6839
6.406064229255215 64.5968
6.428415576718203 64.2731
6.450749747566656 63.6434
6.47310158535871 62.6483
6.495453669698332 61.7618
6.517788579421056 61.3216
6.540141159237969 59.8172
6.562476565766648 59.5399
6.5848296444934045 58.8231
6.607182974060425 58.4338
6.6295191323281015 57.7124
6.651872965955752 57.31399999999999
6.6742096296068985 58.5266
6.6965639707294615 63.2038
6.71891856698715 64.4433
6.741255995248479 60.0843
6.763611104154477 56.7548
6.785949046381137 55.4423
6.808304671371482 54.4265
6.8306605557940046 54.4681
6.852999275508618 53.9592
6.875355681171544 53.9594
6.897694923437771 53.3566
6.92005185377892 53.442
6.9423916220322655 53.1918
6.964749080490181 52.4775
6.987106804399774 52.288000000000004
7.009447368180821 52.6584
7.031805625367033 52.2091
7.054146723727803 51.9877
7.076505517631004 52.3117
7.098864581288365 52.3812
7.121206488070854 51.7413
7.143566093607822 51.3199
7.165908543567245 51.4779
7.188268694426048 51.3655
7.2106291193438095 50.9928
7.232972390625943 51.0326
7.255333366030969 51.6968
7.277677189091925 55.9347
7.300038718428332 61.7938
7.322400526130865 61.3808
7.344745183422596 56.1506
7.367107550224791 52.0847
7.389452767901992 51.7916
7.411815697249891 51.7398
7.434161478756298 51.0197
7.456524974096713 51.3149
7.478888753837185 51.258
7.501235387657368 52.9228
7.523599738562711 59.0648
7.545946944825532 69.6407
7.568311870344528 73.6591
7.5906770845765665 66.1754
7.613025156078678 56.9636
7.635390950099687 53.7112
7.657739602662809 52.5172
7.680105979923558 52.4851
7.702472650212829 53.1511
7.724822180948224 52.7044
7.747189439655568 53.0202
7.769539560075357 53.3106
7.791907410653562 53.8159
7.81425812420825 53.5329
7.836626570110925 53.836999999999996
7.858995315087906 54.7665
7.881346924933401 54.9864
7.903716270417482 55.195
7.926068482028405 55.6925
7.948438431475253 56.3676
7.9708086843180235 56.7871
7.993161805171116 57.5438
8.015532667162402 57.698
8.037886398416653 58.8714
8.060257873014221 58.8368
8.082629655331942 59.614
8.104984308787587 60.0413
8.127356708900503 60.6914
8.149711981398308 62.4811
8.172085002766314 63.3978
8.194458336181368 63.8903
8.216814543847752 64.6449
8.23918850371002 65.7905
8.26154533906492 66.3884
8.283919928836452 68.2803
8.306277395339652 69.1325
8.328652618483376 70.2715
8.351028159736202 72.3302
8.373386579575245 74.1527
8.395762759396959 75.32600000000001
8.418121819038275 77.9665
8.440498640894003 81.5598
8.462875785192262 86.6665
8.485235811156207 94.6437
8.507613602688501 128.299
8.529974277114228 229.541
8.552352719347912 373.745
8.574731488360351 618.9259999999999
8.59709314210385 1088.52
8.619472567021075 1835.98
8.64183487789147 2270.5
8.664214962183097 1980.03
8.686577933647762 1096.39
8.708958680784317 415.82199999999995
8.731339760774953 176.174
8.753703729764451 110.01700000000001
8.77608547780821 94.8382
8.798450116065078 91.1366
8.820832535634787 88.3803
8.843215292401656 87.1456
8.865580941199045 85.8216
8.887964374703538 84.5303
8.910330701447199 83.6168
8.932714815164482 83.0132
8.955099270424924 82.0166
8.977466620733543 81.6872
8.999851761421976 81.2751
9.022219798361645 80.0417
9.04460562795561 80.3269
9.066991803441677 80.0746
9.089360876979615 79.5246
9.111747746589993 79.2403
9.13411751544971 79.237
9.156505082664324 79.1671
9.178875550323522 79.2092
9.20126381862328 81.8097
9.223652438908596 91.5735
9.246023961427412 107.955
9.26841328802173 114.48700000000001
9.290785518039224 103.809
9.313175554425882 89.3152
9.335565947154315 81.6708
9.357939245086508 79.9594
9.380330352834827 79.6785
9.40270436697103 80.07600000000001
9.425096193225055 79.7463
9.447488380180165 80.3894
9.469863475295412 80.4699
9.492256385987508 80.9483
9.514632206018318 81.403
9.537025843935714 81.5202
9.559402392368193 82.3898
9.581796761000229 83.2915
9.604191496441521 83.5387
9.626569144158516 84.1712
9.648964615551032 85.1854
9.671343000390081 86.4307
9.693739211225699 87.4169
9.716135793237463 87.8818
9.738515290448102 88.634
9.760912617143402 89.6352
9.783292860202891 90.735
9.805690935076182 91.9243
9.828089385495742 92.5564
9.850470754023561 94.081
9.872869957865444 96.0598
9.89525208097539 98.6012
9.917652041736662 102.65700000000001
9.940052382417589 106.319
9.962435644102392 115.346
9.984836746950979 147.941
10.007220771957746 228.365
10.029622640473708 350.6
10.052007432299963 515.953
10.074410069984072 776.8789999999999
10.096813093716005 1200.83
10.119199042482517 1755.82
10.141602840636468 2077.09
10.163989564971628 1679.55
10.186394141051062 998.033
10.208799107559706 440.189
10.231187001965623 200.815
10.253592751657669 124.913
10.275981430388155 107.329
10.298387966769793 103.29899999999999
10.320794897965431 102.133
10.343184759907361 100.70200000000001
10.36559248305461 99.0941
10.387983138083852 97.5142
10.410391656691655 98.9151
10.432800574501677 107.98100000000001
10.455192425893369 130.14
10.47760214443012 161.506
10.499994797678786 202.30200000000002
10.522405320453982 272.034
10.54479877906917 379.653
10.567210109595656 505.32
10.5896218454736 582.602
10.612016518879773 566.121
10.634429067781074 398.73800000000006
10.656824555333241 230.535
10.679237920773568 141.418
10.701651695961992 104.021
10.724048411481384 92.9221
10.746463008485165 86.5994
10.768860546937125 82.4531
10.791275969274796 79.8415
10.81369180576079 78.7641
10.836090585366925 77.8287
10.858507252467449 76.4837
10.88090686379991 75.2835
10.903324365036394 74.6428
10.925724811614439 73.4778
10.948143150509463 73.7056
10.970561909719066 72.5722
10.992963615930844 71.6188
11.015383218085756 70.5808
11.037785768347074 69.7356
11.06020621697282 69.3402
11.082627090322113 68.8187
11.105030913430326 68.3126
11.12745263854165 68.0041
11.149857314510728 67.2885
11.172279894912576 67.8821
11.194702904450653 67.32600000000001
11.217108866490921 66.4197
11.239532736615194 65.5338
11.26193956033512 65.2182
11.284364294577085 64.9512
11.306789462371718 64.3245
11.329197585398376 63.7093
11.351623622610898 63.6847
11.37403261614354 63.2394
11.396459526308487 63.1136
11.418869393879497 62.7035
11.441297180532617 62.3055
11.463725406927658 62.0345
11.486136592353875 61.3694
11.508565700543707 60.9385
11.530977768845315 61.3912
11.553407762368774 61.1672
11.575838200059769 61.3553
11.598251599479612 60.8812
11.620682927815501 60.583999999999996
11.64309721895548 60.5819
11.665529441478206 60.3046
11.687962112597958 60.0376
11.710377748130886 60.1475
11.732811318753434 60.103
11.755227854859067 59.8794
11.777662328529495 59.7086
11.800079768750786 59.6278
11.822515149015453 59.5736
11.844950984084935 60.1465
11.867369787303163 60.0264
11.889806534289491 60.173
11.912226250487029 62.1238
11.934663912939751 65.4151
11.9571020346363 68.4249
11.979523127133968 68.933
12.001962169624331 66.585
12.024384183972964 63.71
12.046824150809913 64.3459
12.069264581333726 69.4564
12.091687985297767 77.148
12.11412934550045 86.1386
12.136553680195208 98.79899999999999
12.158995973632788 119.86200000000001
12.181438735204349 146.659
12.20386447284199 179.82299999999998
12.226308172985636 203.419
12.24873485024193 213.239
12.271179492516982 174.72799999999998
12.293607112949127 134.924
12.316052700916226 98.8132
12.338498763250042 74.4179
12.360927805303868 64.8623
12.383374818673879 62.1978
12.405804812803074 61.5627
12.428252780773262 61.1678
12.45070122756722 61.0512
12.473132656675375 61.3242
12.49558206341869 61.6305
12.518014453510101 61.3242
12.540464823770117 61.4797
12.562915677315177 61.5671
12.58534951575545 61.9719
12.607801338171472 62.0206
12.630236146511358 62.6118
12.652688941369085 63.7397
12.675124723177234 64.2421
12.697578494048786 64.3845
12.720032754458185 64.0083
12.742470003354093 64.458
12.764925245138771 64.8259
12.787363476431278 64.8992
12.809819703166806 65.3345
12.83227642391173 66.0439
12.854716135692716 66.5974
12.877173846755147 67.7734
12.899614549869717 68.1125
12.9220732548287 68.5454
12.94453245827299 68.9624
12.966974655289818 70.1527
12.989434858002571 70.9882
13.011878055298721 71.6768
13.034339260862497 72.7963
13.056800969391883 74.1963
13.079245674017244 76.4409
13.101708390774869 78.3716
13.12415410463411 82.5177
13.146617833206086 92.5989
13.169064559883248 108.13600000000001
13.191529303857127 126.23100000000001
13.213994557076367 148.61
13.236442809902437 180.53799999999998
13.258909083908291 228.877
13.28135835851934 290.784
13.30382565690295 366.14
13.326293469022952 430.18800000000005
13.348744283242008 445.654
13.371213125129904 380.99699999999996
13.39366497011003 279.95099999999996
13.416134845360597 184.774
13.438605238843131 127.631
13.46105863690397 103.14200000000001
13.483530069144786 99.1884
13.505984506951902 107.365
13.528456981549432 120.559
13.550929978879088 135.982
13.573385983253365 156.828
13.595860028340867 189.44799999999998
13.618317081455832 237.201
13.64079217790333 296.88599999999997
13.663250283359057 356.851
13.685726434770173 390.457
13.708203115221277 359.32099999999997
13.730662806148091 288.817
13.75314054697177 205.878
13.775601299246777 138.724
13.798080104050406 100.588
13.820559442405358 84.82700000000001
13.843021793671388 79.71600000000001
13.865502201420897 77.5806
13.887965623051947 76.8994
13.910447103807167 75.8541
13.932929122629764 74.811
13.955394156785959 74.3653
13.977877254034569 73.5994
14.000343367582113 72.6154
14.022827546871707 72.0363
14.045294743423524 71.3442
14.06778000837062 70.743
14.090265817715476 71.1026
14.112734645763819 72.0221
14.13522154619454 74.0892
14.157691466286913 75.6432
14.180179461423874 75.6951
14.202668005486178 73.5334
14.22513957064374 70.8739
14.247629214846473 68.7035
14.270101881097517 67.8529
14.29259262906496 67.5706
14.315083930490205 67.3825
14.337558255389705 67.3536
14.360050666019726 67.1445
14.382526101071944 67.0299
14.405019624534942 66.6188
14.427513705993134 66.3499
14.449990813291825 66.3656
14.47248601302899 66.3768
14.49496423954951 66.6088
14.517460561197822 66.3508
14.539939910570322 66.0888
14.562437357763558 66.2869
14.58493536931253 66.4082
14.607416409993311 66.6578
14.62991555254159 67.0117
14.652397725157423 67.1658
14.674898002342799 67.2839
14.697398848433282 67.3898
14.719882725991326 68.1423
14.74238471217934 68.5968
14.764869730765593 70.5435
14.787372860692983 74.2394
14.809876564079925 81.1316
14.83236330125751 88.7668
14.854868153850365 97.7727
14.877356041159485 110.125
14.899862046604186 125.76
14.922351087688757 148.71
14.944858249632887 178.90099999999998
14.967365991421232 208.187
14.989856770231246 228.24099999999999
15.012365673994204 227.90200000000002
15.03485761569738 200.373
15.05736768508665 160.74200000000002
15.07987833888692 122.10700000000001
15.102372032001655 93.9416
15.124883856909658 77.3709
15.14737872204565 71.0853
15.169891721717274 68.7961
15.192405310371893 67.7879
15.214901940621196 67.3059
15.237416709527137 66.6952
15.259914520936249 66.4171
15.282430473753607 65.896
15.304947020131227 65.3243
15.327446610371178 65.1162
15.349964346154254 64.6514
15.372465126703139 64.3267
15.394984055556009 64.1541
15.417486030076159 64.0082
15.44000615566487 63.6785
15.462526881230803 63.5918
15.485030653812652 63.511
15.507552581617434 63.3507
15.530057557334603 63.4754
15.55258069104857 63.5342
15.575104429329837 63.7818
15.597611216864632 63.5709
15.620136166564563 63.5844
15.6426441664095 63.963
15.665170331202765 65.2558
15.687697105158826 68.4757
15.710206930593545 73.6643
15.732734925158933 79.6293
15.755245972089478 86.8846
15.77777519094324 94.5162
15.800287463046663 105.82700000000001
15.822817909869592 122.133
15.84534897229804 143.308
15.867863089299354 169.333
15.890395385222186 190.282
15.912910736597423 202.916
15.935444269699861 192.015
15.957978423016485 168.91099999999997
15.980495633101265 133.537
16.003031029129367 103.521
16.02554948280019 81.1415
16.048086125229432 69.2488
16.070623392487107 64.8114
16.09314371869582 62.9992
16.11568223789321 61.4681
16.13820381691126 59.9333
16.160743591742527 59.1509
16.183283996022084 58.2482
16.205807461423195 57.45399999999999
16.228349126881973 56.8951
16.25087385432698 56.7424
16.27341678466365 56.4143
16.29594277784926 56.027
16.31848697676433 55.6913
16.341031811604868 55.144
16.36355971058487 55.3986
16.3861058195587 55.0304
16.40863499352978 54.6019
16.431182380342005 54.2586
16.453730407713202 54.146
16.476261501364792 53.8392
16.498810812136167 53.506
16.52134319004079 53.6868
16.54389378792203 53.3849
16.566445031001553 53.4618
16.588979342490088 53.2494
16.61153187824822 53.0365
16.634067483263312 52.9059
16.656621315414416 53.1222
16.679175797408888 52.6914
16.701713349928728 52.5616
16.72426913389191 52.723
16.74680798922351 52.8282
16.76936507887444 52.7449
16.791905240734874 52.7388
16.814463639794468 52.7389
16.837022695210294 52.7913
16.859564824093756 52.9831
16.882125194503903 53.0497
16.904668639217885 53.6337
16.927230328348003 53.8199
16.949792678493612 54.1015
16.972338104193863 54.2043
16.994901778652235 54.0359
17.017448529496576 53.7707
17.040013531998152 53.8488
17.06257920018044 54.0542
17.0851279459922 54.7468
17.107694947817667 55.8938
17.130245028099072 57.0771
17.15281336730298 58.472
17.17536478578733 60.2335
17.19793446610687 62.13
17.220504818648422 64.9517
17.243058251703697 67.8817
17.265629950971032 72.4119
17.288184731571736 77.0688
17.310757781306908 81.699
17.33333150794385 83.1246
17.355888317140174 82.6816
17.37846339986244 78.8473
17.401021565958885 71.9275
17.42359800851343 65.9496
17.44617513265564 61.4255
17.468735341390783 58.813
17.491261035594565 57.5406
17.51396340099364 57.2392
17.536490463869136 57.2228
17.559018209820174 57.1902
17.58154663977963 57.4503
17.604251766089718 57.5577
17.626781572227713 57.8018
17.64931206518155 57.9025
17.671843245885103 58.3253
17.69455114821572 58.6252
17.717083712612634 58.8655
17.739616967569667 59.4804
17.762150914021706 60.0424
17.78486160749854 60.2009
17.807396945166804 60.9988
17.829932977143503 61.2296
17.85246970436452 62.0091
17.875183204129467 63.4345
17.897721330097664 66.7909
17.920260154126645 69.8174
17.942799677153296 73.1598
17.9655159983646 77.3509
17.988056927677544 82.2927
18.010598558807683 88.7948
18.033140892692916 97.7054
18.05586005052525 109.27799999999999
18.07840379824407 121.546
18.10094825154059 133.405
18.12366954819864 141.849
18.146215420998306 143.04399999999998
18.16876200220057 137.325
18.191309292745153 123.152
18.214033452627167 108.834
18.236582170236648 96.1179
18.259131600016456 88.2876
18.281681742907335 85.9079
18.304408781233683 89.0765
18.32696035875955 94.2741
18.349512652227624 99.3898
18.372065662579683 105.566
18.394795594587553 107.76
18.41735004715306 105.156
18.43990521943684 98.6692
18.46246111238171 89.5194
18.485193953325208 79.0755
18.507751296070428 71.0894
18.530309362314178 65.796
18.552868153000343 62.9562
18.57560391815056 61.3182
18.59816416623245 60.7555
18.620725141597372 60.3299
18.643286845190268 59.6196
18.666025549835414 58.8396
18.688588718427933 58.1925
18.711152618092243 58.0367
18.73389353884365 58.0013
18.75645890921984 57.5313
18.77902501351406 57.0642
18.801591852673102 57.1864
18.824335739722738 56.4887
18.846904057212626 56.588
18.8694731124168 56.1766
18.89204290628315 56.1853
18.914789774966803 55.9163
18.937361054791623 55.7311
18.959933076131318 55.3653
18.982505839934877 55.2391
19.00525570560582 55.1743
19.027829963004184 55.2026
19.05040496572238 54.992
19.072980714710468 55.0524
19.095733592739563 55.1314
19.11831084296757 55.3972
19.140888842324735 56.0447
19.16346759176222 56.3779
19.18622349753803 57.0353
19.208803755869358 58.2391
19.231384767143577 59.3487
19.253966532312948 60.6257
19.276725481241822 62.7402
19.29930876296784 65.6991
19.3218928014549 68.9421
19.34465404436217 72.3056
19.36723960516257 75.1904
19.389825925592426 76.0852
19.412413006605938 75.2259
19.43517731967805 72.4176
19.457765930683355 67.7644
19.48035530514408 63.2798
19.50294544401556 59.5363
19.525712842708348 56.4106
19.54830451925909 54.3787
19.570896963095727 52.8678
19.593490175174704 52.718
19.616260674962184 52.5048
19.638855432416964 52.1131
19.661450960992624 52.3582
19.68404726164677 51.8608
19.706820878021247 51.9485
19.729418731756834 52.0433
19.752017360452857 51.7662
19.77461676506804 52.1038
19.797393513540218 51.8544
19.819994478951667 52.0825
19.84259622316767 52.7349
19.8651987471481 53.3593
19.887978643247177 53.8036
19.91058273574792 54.3889
19.933187610901943 55.1935
19.955969879466828 56.111999999999995
19.97857632894404 57.4458
20.00118356396599 59.144
20.023791585494575 61.1244
20.046577028914875 63.9435
20.069186632506966 66.5559
20.091797025500632 69.2619
20.114408208858933 70.5646
20.137196842715273 70.8083
20.159809615886765 69.3457
20.18242318232135 66.6662
20.20503754298326 64.1558
20.227829382875154 62.5579
20.250445341109344 61.8386
20.27306209647285 62.1065
20.29567964993108 63.6866
20.31847471147704 64.6786
20.34109387027612 65.4514
20.363713830075454 65.4978
20.386334591841646 64.135
20.409132890679302 61.6773
20.431755265564437 58.3561
20.454378445325528 55.0917
20.477002430930366 52.7924
20.499803982716553 51.1653
20.522429589228004 50.1298
20.54505600449589 49.5497
20.567683229489194 49.2219
20.590488049900088 48.9892
20.61311690359731 48.9921
20.63574656993626 48.7702
20.658553853717297 48.4459
20.681185154618298 48.3021
20.703817271080066 48.1785
20.72645020407368 48.0747
20.749260783967177 48.0121
20.771895359337133 47.8985
20.794530754161617 48.092
20.817166969412938 48.1327
20.83998086114876 48.0052
20.86261872660049 47.593
20.885257415405402 47.5738
20.90789692853701 47.4683
20.930714147864748 47.2652
20.953355319030678 47.2893
20.97599731745334 47.3669
20.99864014410749 47.2915
21.021460706796564 47.4227
21.044105199328826 47.5996
21.06675052302631 47.873999999999995
21.089396678865015 47.9248
21.112220600704806 48.0745
21.134868430275347 48.603
21.15751709492456 48.6897
21.180166595629693 49.0944
21.202993892429635 49.7292
21.22564507473034 50.0632
21.24829709602816 50.5016
21.27112693608965 50.6746
21.293780644891275 50.7191
21.316435195634053 50.0318
21.339090589297417 49.3858
21.361923832041875 48.6464
21.384580921090404 48.0039
21.407238856007325 47.3449
21.429897637773326 47.2148
21.45273429906592 47.4674
21.475394784108598 47.2708
21.498056118951983 47.2528
21.520718304578022 47.45
21.543558400304388 47.4711
21.566222297108816 47.5548
21.58888704765135 47.5644
21.61155265291521 47.8717
21.63439619898156 48.6325
21.657063523335786 48.7817
21.67973170537063 49.5491
21.7024007460706 49.9641
21.72524775840385 50.8904
21.747918526116475 51.8463
21.770590155457388 52.8343
21.79326264741238 54.1793
21.816113141960237 55.9287
21.838787368860547 58.2025
21.861462461341976 60.4312
21.884315579735777 62.7203
21.90699241312273 64.4056
21.92967011506078 65.4566
21.95234868653799 65.2375
21.9752053151131 64.0289
21.997885635446785 62.0533
22.020566828293532 59.6804
22.04324889464272 57.8132
22.066109049404666 56.3555
22.088792872571794 55.9428
22.111477572219204 55.9495
22.1341631493376 55.9815
22.157026846313123 56.0444
22.179714188221507 55.4055
22.202402410582668 54.3363
22.22509151438863 52.5812
22.24795876962584 51.0443
22.270649646204486 50.0021
22.293341407213727 48.9361
22.316034053646906 48.3014
22.338904883215342 47.8569
22.36159931041458 47.8678
22.38429462602756 47.7618
22.40699083104897 47.4979
22.429865251039757 47.5369
22.452563244831367 47.4583
22.47526213102522 47.6676
22.49813925616515 47.6777
22.520839937143307 47.3085
22.543541513520587 47.4348
22.56624398629403 47.3585
22.589124730075895 47.3082
22.611829005656723 47.5626
22.63453418063466 47.62
22.657240256008077 47.7742
22.680124634582935 47.7703
22.70283252079775 48.3565
22.725541310413075 48.6818
22.74825100442868 48.8958
22.771139033969575 49.5866
22.79385054687155 49.8161
22.81656296718292 50.4887
22.83927629590484 51.1921
22.862167992606945 52.1553
22.88488314827121 53.3721
22.907599215359284 54.3909
22.93031619487366 55.9267
22.953211574954405 56.9452
22.975930389478226 57.8688
22.998650119445763 58.1905
23.02137076586092 57.6449
23.044269845560063 56.4877
23.06699233506288 54.81100000000001
23.089715744034912 52.7126
23.112617610931565 51.0186
23.135342869061212 49.6973
23.158069049684816 48.7203
23.1807961538087 48.092
23.20370174880544 47.78
23.226430710184808 47.7914
23.249160598093425 47.745
23.271891413539002 47.7993
23.294800752937697 47.873000000000005
23.31753343374794 48.2005
23.340267045128353 48.4947
23.36300158808808 48.8043
23.38591468821339 49.2944
23.408651104658304 49.7392
23.431388455719986 50.398
23.454126742409 51.2665
23.4770436196085 52.1242
23.499783787914662 53.4487
23.522524894889884 54.6235
23.54526694154616 55.8562
23.56818761219047 57.2467
23.59093154860734 58.0679
23.613676427751283 58.4857
23.636422250635754 58.0102
23.659346731118656 56.466
23.68209445191868 54.541000000000004
23.704843119509587 52.0529
23.72759273490623 50.0389
23.750521041644767 48.0638
23.77327256312355 47.0296
23.796025035462787 46.1221
23.818956224555475 45.5189
23.841710609113413 45.2374
23.86446594758979 44.9387
23.887222241002014 44.5708
23.910157285144578 44.3474
23.932915498962537 44.321000000000005
23.955674670778713 44.1254
23.978434801611975 44.0104
24.001373717286125 43.8861
24.024135776723917 43.7318
24.046898798245582 43.7538
24.06966278287146 43.5646
24.092605586582614 43.2681
24.115371508023642 43.1012
24.1381383956401 42.9165
24.16090625045381 42.924
24.183852958731244 42.918
24.206622758582608 42.8263
24.229393528706886 42.6829
24.252165270127392 42.7253
24.27511589952438 42.6394
24.297889594216997 42.358000000000004
24.32066426328598 42.3732
24.34343990775613 42.345
24.36639447485003 42.2273
24.38917208083877 42.2791
24.41195066531332 41.8693
24.43490819850244 42.2867
24.457688750692377 42.0653
24.48047028445616 41.9097
24.503252800821233 42.2025
24.526214300784112 42.2077
24.548998793132213 42.0746
24.57178427117417 42.0578
24.59457073593893 42.0716
24.617536219319863 41.9222
24.64032466834748 42.2439
24.663114107195035 42.0548
24.685904536893013 41.6982
24.708874020360852 41.6499
24.731666442613744 41.5947
24.754459858818787 41.5295
24.777254270007962 41.4083
24.80022777025625 41.3855
24.82302418230472 41.2423
24.845821592443674 41.2522
24.86862000170663 41.2679
24.891597535453727 41.0788
24.914397953892728 41.3035
24.93719937456671 41.3477
24.96000179851076 41.6512
24.98298338249997 41.5808
25.00578782394922 41.7803
25.028593271784167 41.9574
25.05157790644186 42.291000000000004
25.07438537804115 42.5643
25.097193859145293 42.8938
25.120003350792075 43.1715
25.142992065061257 43.6589
25.165803588823465 44.0482
25.18861612625217 44.1048
25.211429678386736 44.2818
25.234422489079968 44.4931
25.257238081693636 44.3984
25.280054692141732 44.4623
25.3028723214652 44.6102
25.325869245420463 44.7304
25.348688923599397 44.7962
25.371509623787006 44.6195
25.394331347025812 44.3549
25.41733240110666 43.8928
25.440156181590016 43.0749
25.46298098826268 42.6139
25.48580682216873 41.9022
25.50881202326435 41.4003
25.53163992281684 40.8989
25.55446885274561 40.5026
25.577298814096377 40.1923
25.600308179121807 39.9693
25.623140214533745 40.1063
25.64597328451537 39.93
25.66898578564376 39.7541
25.691820936010206 39.8062
25.714657124097695 39.8223
25.737494350954734 39.7485
25.760511045684957 39.6636
25.783350361364224 39.7051
25.806190718969255 39.7527
25.82903211955018 39.9222
25.852053024868923 39.9754
25.874896522722523 39.9297
25.897741066713106 39.7222
25.920586657892454 39.9706
25.943611790812668 40.146
25.966459487728237 40.2585
25.989308234998564 40.2464
26.01215803367705 40.5668
26.03518741123814 40.8646
26.05803932412957 40.9451
26.080892291600094 41.0021
26.10374631470478 41.0702
26.12677995397268 41.2842
26.14963609978026 41.3842
26.172493304397875 40.9531
26.19535156888223 40.6995
26.218389486949604 40.398
26.241249882640123 40.0815
26.26411134137826 39.6023
26.28715248187403 39.6624
26.31001607820869 39.4315
26.3328807407756 39.3053
26.35574647063438 39.4859
26.37879191991473 39.3837
26.401659795896734 39.3725
26.424528742360263 39.604
26.447398760366614 39.7394
26.470448535598294 39.7853
26.49332070826805 40.1131
26.516193955675355 40.4115
26.53906827888316 40.5239
26.562122397260108 40.8431
26.584998883685063 41.2042
26.607876449110325 41.528
26.63075509460056 41.758
26.65381357334404 41.9026
26.67669439061878 41.8066
26.699576291163382 41.9423
26.722459276044212 41.8063
26.745522132402975 41.4295
26.768407297649354 41.2524
26.791293550442003 40.9328
26.814180891848974 40.5191
26.837248143099337 40.2747
26.860137673466657 40.1093
26.88302829566349 39.8672
26.90592001075963 39.6935
26.92899167420566 39.5371
26.951885586870763 39.1254
26.974780595655517 38.9102
26.99785558178161 38.7408
27.020752794605112 38.4915
27.043651106772522 38.2819
27.06655051935668 38.2326
27.089629948036183 38.1163
27.112531573292053 38.1077
27.135434302194138 38.1313
27.158338135817015 37.9002
27.181422024430987 37.8923
27.204328079372566 37.8144
27.22723524226965 37.8731
27.250143514198573 37.9165
27.273231880156334 37.8165
27.296142382065014 37.7827
27.319053996245536 37.6593
27.341966723775965 37.8024
27.365059584515222 37.809
27.38797455070062 37.8559
27.410890633481237 37.8039
27.433807833936918 37.8391
27.456905206923906 37.931999999999995
27.47982465472398 37.8015
27.502745223449743 37.9943
27.525666914182825 38.0836
27.548768816912457 38.1988
27.571692763693633 38.0304
27.59461783573812 37.9623
27.617723149491244 37.6414
27.640650484125285 37.6892
27.66357894728264 37.4815
27.686508540048052 37.6002
27.709618414237887 37.4591
27.732550278321757 37.2779
27.755483275279115 37.3335
27.778417406196485 37.2732
27.801531858397514 37.3547
27.824468269376716 37.1893
27.847405817586786 37.1258
27.870344504116094 37.4243
27.893463551932008 37.6391
27.916404527281053 37.7355
27.93934664422563 38.0187
27.962289903855886 37.9065
27.98541356491974 38.2665
28.00835912214229 38.3853
28.03130582533231 38.7379
28.054253675581805 38.9877
28.077381967556104 38.82
28.100332124185126 38.7862
28.123283431160893 38.738
28.146235889577238 38.6725
28.169368830154156 38.5774
28.192323603752033 38.3306
28.215279532083304 37.9816
28.238415973016764 37.6884
28.261374223145094 37.6491
28.284333631303806 37.3712
28.307294198589954 37.1936
28.330435319167677 36.7635
28.353398217078915 36.4958
28.376362277420153 36.3408
28.39932750129032 36.1306
28.422473319286713 36.0179
28.44544088262495 35.8904
28.468409612800283 35.6619
28.491379510913497 35.5094
28.51453004413313 35.3281
28.53750229057244 35.3298
28.56047570826344 35.3204
28.583450298308804 35.3574
28.606605564586562 35.0242
28.629582511831156 35.0933
28.65256063474956 34.9818
28.675539934446338 34.9876
28.698699951647605 35.0683
28.72168161743193 34.9153
28.74466446331978 34.9413
28.767648490417624 34.9294
28.790813276438353 34.8519
28.813799678527303 34.811
28.836787265157085 34.973
28.859955641890075 34.8256
28.882945610203045 34.8373
28.905936766392035 34.8008
28.928929111566863 34.854
28.952102288520145 34.7375
28.975097024308607 34.5455
28.998092952423807 34.4389
29.021090073977508 34.4271
29.04426806913204 34.4402
29.067267590245258 34.2568
29.090268308143695 34.0968
29.11327022394099 34.0175
29.13645305530891 33.9156
29.159457379627167 33.8535
29.18246290519685 33.8555
29.20546963313352 33.6792
29.22865731875826 33.8263
29.25166646419296 33.7866
29.27467681535305 33.607
29.29768837335608 33.6756
29.320880931312562 33.7625
29.34389491580634 33.6983
29.366910110507334 33.6303
29.38992651653503 33.639
29.41312396492981 33.6976
29.436142806456754 33.6702
29.45916286268059 33.6273
29.48236399319994 33.3932
29.50538649169417 33.2783
29.528410208259935 33.2901
29.55143514402014 33.0918
29.574641196749695 32.9317
29.597668583816574 32.8198
29.6206971934585 32.6068
29.64372702680042 32.6069
29.666938019934474 32.4514
29.689970313635285 32.5052
29.713003834422636 32.4455
29.73603858342347 32.5055
29.759254535188578 32.2735
29.78229175361658 32.2373
29.80533020365064 32.2722
29.82836988641968 32.1904
29.85159081507472 32.2157
29.874632976355343 32.0976
29.89767637376955 32.141999999999996
29.920721008448314 32.0191
29.9439469322847 32.1189
29.96699405457564 32.0332
29.9900424175358 32.1186
30.013092022298157 31.9415
30.03632295963995 31.8006
30.059375061131373 31.9468
30.08242840783577 32.031
30.105483000888153 32.0836
30.128718970092244 31.9199
30.151776069006917 31.8454
30.17483441768648 31.8753
30.198074175317235 31.9063
30.221135036724256 31.8814
30.24419715131772 31.91
30.267260520236203 31.7743
30.290505341942243 31.8774
30.313571232750228 31.8051
30.336638381310948 31.8086
30.35970678876503 31.8176
30.38295669299435 31.6949
30.40602763151657 31.7458
30.429099832366074 31.5552
30.452173296685572 31.5473
30.47542830191959 31.5676
30.498504306502497 31.5045
30.521581577995562 31.6946
30.544660117543582 31.7394
30.56792024229725 31.7095
30.59100133132069 31.5999
30.614083691845494 31.6575
30.637167325018545 31.7135
30.660432587840603 31.8331
30.683518779717886 31.8074
30.70660624769615 31.8928
30.729694992924372 31.7724
30.75296541239743 31.794
30.77605672557558 31.7761
30.799149319462742 31.7759
30.8224236211637 31.6866
30.845518789950724 31.4908
30.868615242910597 31.4491
30.891712981195973 31.2834
30.91499247215866 31.2199
30.938092794619365 31.1809
30.96119440587579 31.065
30.984297307082752 30.9017
31.00758200598383 30.8515
31.030687500658694 30.7245
31.053794288760695 30.7378
31.076902371446767 30.5635
31.100192296997445 30.6494
31.12330298246119 30.6222
31.14641496599209 30.6147
31.169528248749216 30.5975
31.19282341969534 30.5496
31.215939314557186 30.5419
31.239056512134788 30.5837
31.262175013589378 30.4724
31.28547544871168 30.4015
31.30859657161541 30.3655
31.331719001892175 30.4016
31.35484274070538 30.5169
31.378148458819545 30.4361
31.401274828443725 30.4477
31.424402510106933 30.5178
31.447712205419993 30.5835
31.470842524931633 30.4368
31.493974159989783 30.4748
31.51710711176168 30.5056
31.54042212308802 30.3831
31.563557722100917 30.4002
31.586694641341655 30.2813
31.609832881979628 30.2168
31.63315322823208 30.1841
31.656294125521327 29.9915
31.679436347728515 29.909000000000002
31.70257989602529 29.8157
31.725905596152327 29.7806
31.74905181052835 29.6969
31.772199354521323 29.7323
31.79534822930507 29.8061
31.818679302290967 29.7783
31.84183085259981 29.8063
31.864983737233473 29.7217
31.88813795736804 29.8524
31.911474422233013 29.7108
31.934631327356435 29.7019
31.9577895715215 29.6355
31.980949155906522 29.6754
32.004291031706956 29.7347
32.027453310562606 29.5811
32.05061693318573 29.5203
32.07396288236386 29.549
32.09712920658542 29.4582
32.12029687812702 29.2712
32.14346589817093 29.1812
32.166817291729984 29.0976
32.18998902288583 29.0404
32.21316210610336 28.9521
32.23633654256711 28.829
32.259693399663725 28.8215
32.282870556771144 28.7742
32.30604907069099 28.8014
32.329228942610065 28.6926
32.35259128243769 28.5827
32.375773884550505 28.6039
32.398957848235646 28.5359
32.422143174682176 28.4665
32.445511016471215 28.3513
32.468699082679954 28.36
32.49188851523011 28.3378
32.51507931531304 28.2839
32.538452678331 28.2496
32.56164622776311 28.1528
32.58484114831493 28.0963
32.60803744118015 28.1414
32.631416344731896 28.1013
32.654615396551876 28.0306
32.67781582427913 27.924
32.701198898634416 27.8943
32.72440209253756 27.8091
32.747606665947124 27.8141
32.77081262006088 27.6445
32.79420126883317 27.6874
32.81740999876112 27.7067
32.840620112999424 27.576
32.86383161274818 27.498
32.88722585534586 27.5869
32.91044014056596 27.6944
32.933655814909734 27.6035
32.95687287957963 27.5788
32.98027273544904 27.4895
33.00349259526636 27.4793
33.026713849030116 27.5205
33.04993649794511 27.4187
33.073341986570746 27.4251
33.09656744032826 27.3927
33.11979429286444 27.4821
33.14302254538647 27.3912
33.166433686291185 27.3474
33.18966475336992 27.4036
33.212897224069096 27.276999999999997
33.23613109959831 27.3015
33.259547912343415 27.1875
33.2827846121627 27.1922
33.306022720453775 27.1887
33.32926223842861 26.9698
33.352684742614166 26.9855
33.37592709463173 27.0211
33.399170859982064 26.9284
33.422597648419426 26.8224
33.44584425514446 26.7584
33.46909227885668 26.7039
33.4923417207723 26.6652
33.51577423505344 26.7063
33.539026528130385 26.6132
33.56228024307245 26.548000000000002
33.585535381098246 26.3562
33.60897364093058 26.3556
33.63223163992385 26.3479
33.6554910656699 26.264
33.678751919389796 26.2845
33.702195944520106 26.2057
33.72545966903325 26.22
33.74872482519663 26.1161
33.771991414233746 26.1039
33.79544122444841 26.0306
33.81871069412428 25.9873
33.84198160035767 25.979
33.86525394437455 26.0123
33.88870955949969 25.927
33.911984794020626 25.9599
33.93526147001624 25.8864
33.958539588715006 25.8267
33.98200102861669 25.7322
34.0052820477047 25.6568
34.02856451319451 25.675
34.05203033759056 25.631
34.07531571090147 25.656
34.09860253431845 25.6077
34.121890809074316 25.5211
34.145362493118924 25.554000000000002
34.16865368561615 25.4773
34.191946333164054 25.3593
34.21524043699793 25.3323
34.23871800066799 25.3249
34.26201503218366 25.2386
34.28531352370466 25.1781
34.30861347646881 25.1163
34.33209693978188 25.1737
34.3553998301885 25.1821
34.378704185565205 25.0475
34.402010007152356 25.0108
34.42549939016683 24.9633
34.44880815937748 24.9564
34.472118398533134 24.8705
34.49543010887669 24.8351
34.51892543169198 24.7492
34.54224009966052 24.7703
34.56555624255917 24.7337
34.58887386163339 24.6534
34.61237514439016 24.6874
34.6356957311114 24.5943
34.65901779775809 24.5536
34.68252356662995 24.5601
34.705848608458616 24.5246
34.72917513396849 24.4206
34.75250314440949 24.4513
34.77601490857862 24.2786
34.799345904259795 24.2763
34.82267838863559 24.2824
34.846012362958525 24.3007
34.869530142679984 24.2068
34.89286711232212 24.1872
34.91620557568269 24.1931
34.93954553401677 24.2135
34.9630693495876 24.1374
34.986412313340814 24.0893
35.00975677584668 24.134
35.033102738362956 23.9672
35.05663261012228 24.0145
35.0799815881786 24.022
35.10333207003229 23.8692
35.12668405694369 23.9174
35.150220005273056 23.9566
35.17357501786656 23.8706
35.19693153931268 23.8171
35.220289570874385 23.805
35.24383161619786 23.8345
35.267192683604904 23.8385
35.290555264930376 23.828000000000003
35.314101899412165 23.783
35.33746752422433 23.7139
35.36083466676374 23.7419
35.38420332829803 23.6682
35.407756095629054 23.6969
35.43112781085063 23.6913
35.45450104888391 23.6561
35.477875810999194 23.6805
35.50143473172161 23.5226
35.52481255774625 23.5876
35.54819191167777 23.5708
35.57157279478914 23.4454
35.595137889488406 23.4374
35.61852184675279 23.4233
35.641907337029984 23.3113
35.665294361595684 23.3278
35.68886565090076 23.2921
35.7122557598848 23.2497
35.73564740699838 23.1782
35.759040593519934 23.1284
35.78261809810353 23.1226
35.80601437933051 23.1131
35.829412203814705 23.0136
35.85281157283719 22.8252
35.876395313415884 22.9401
35.8997977874528 22.8748
35.92320180988546 22.7693
35.946790244133936 22.7957
35.97019737933222 22.8174
35.993606066789866 22.7466
36.01701630779276 22.7224
36.04061101440684 22.6841
36.06402437852291 22.6625
36.08743930005611 22.6764
36.1108557802951 22.5438
36.13445678011326 22.5555
36.15787639383515 22.5351
36.18129757014299 22.5146
36.20472031032821 22.4786
36.22832762423364 22.4488
36.25175350829375 22.4061
36.275180960119776 22.311
36.298609981005924 22.3285
36.32222362992669 22.3006
36.34565580510207 22.3072
36.36908955323448 22.2481
36.39252487562093 22.1436
36.416144880530226 22.1672
36.43958336764275 22.1452
36.463023432914625 22.1063
36.486465077645676 22.0469
36.51009145956204 22.0952
36.53353627947859 22.1446
36.55698268276811 21.9901
36.58043067073321 21.9328
36.60406345072071 21.8931
36.62751462435344 21.9278
36.65096738658405 21.8584
36.67460498210655 21.8867
36.69806093788647 21.8577
36.72151848619297 21.7875
36.744977628333636 21.8341
36.76862165890998 21.6715
36.79208400512205 21.6781
36.81554794910557 21.6371
36.83901349217101 21.509
36.862663978991606 21.5059
36.88613273667352 21.5425
36.90960309738324 21.5752
36.933075062434064 21.4077
36.95673202673572 21.3797
36.98020721697122 21.3875
37.003684015502365 21.2846
37.027162423645365 21.3071
37.050825886711465 21.2772
37.07430753063053 21.1991
37.09779078812467 21.1795
37.121275660513014 21.2151
37.144945643673694 21.1282
37.16843376245278 21.0694
37.19192350009803 21.0926
37.215414857931435 21.0317
37.239091382563885 20.9311
37.262585997426164 20.9415
37.28608223645736 20.9858
37.309763684451696 20.9537
37.33326318851098 20.8904
37.356764320726555 20.8121
37.380267082425526 20.7804
37.40395510942588 20.8369
37.42746114683234 20.7608
37.45096881771841 20.6945
37.474478123414166 20.6012
37.49817275092816 20.5732
37.52168534303452 20.6245
37.54519957395567 20.5907
37.568715445024665 20.5533
37.592416694607714 20.3933
37.61593586281424 20.499000000000002
37.63945667518264 20.5016
37.66297913304891 20.4015
37.68668702630454 20.4447
37.710212792059274 20.2978
37.733740207334854 20.3116
37.757269273470364 20.2647
37.780983832050374 20.2632
37.80451621684926 20.2271
37.82805025654007 20.2248
37.851585952464795 20.1737
37.8753071980695 20.0454
37.89884622345676 20.0695
37.92238690911902 20.0013
37.94611318753442 20.0016
37.969657210779765 19.9943
37.99320289834801 19.9831
38.016750251586465 19.9055
38.04048325513017 19.8408
38.06403395679343 19.8593
38.087586328183946 19.7973
38.11114037065203 19.81
38.13488012115898 19.8278
38.1584375229181 19.7167
38.181996599821 19.7212
38.205557353221124 19.6575
38.229303872575656 19.6968
38.2528679961576 19.6478
38.27643380031219 19.5447
38.30000128639589 19.5302
38.32375459653193 19.5008
38.34732546371299 19.5177
38.37089801690786 19.5061
38.39447225747609 19.4835
38.418232380377425 19.3921
38.441810012983396 19.3718
38.46538933705673 19.3869
38.488970353960084 19.3002
38.51273731166058 19.2502
38.536321731567014 19.215999999999998
38.55990784840681 19.1886
38.58367995004091 19.1953
38.60726947812959 19.1093
38.63086070726198 19.0884
38.654453638806274 19.1064
38.678232613930824 18.9517
38.70182896773327 18.9782
38.72542702806741 18.9428
38.7490267963045 18.9274
38.77281266709232 18.9334
38.79641586862214 18.9186
38.8200207821842 18.8321
38.843627409152944 18.8513
38.86742019782782 18.7724
38.891030269149255 18.6997
38.914642058016156 18.8012
38.938255565806124 18.773
38.96205529464307 18.7044
38.98567225787121 18.695999999999998
39.00929094417078 18.5903
39.03291135492255 18.6232
39.05671804624804 18.5968
39.080341923549106 18.5123
39.103967529460334 18.5412
39.127594865365744 18.4971
39.15140854155791 18.3791
39.17503935514948 18.3702
39.19867190290282 18.4269
39.22249083587951 18.4372
39.24612686969409 18.3548
39.269764641845306 18.301
39.293404153722804 18.3399
39.317230110864074 18.1944
39.34087311998506 18.2185
39.36451787301696 18.2088
39.388164371352595 18.1042
39.41199737518003 18.0676
39.43564738196752 18.0774
39.45929913825317 18.0798
39.48295264543308 18.0395
39.506792718520884 18.0187
39.530449745387216 17.9913
39.55410852735203 17.9422
39.57776906581474 17.9385
39.60161623079 17.8679
39.625280300200025 17.897000000000002
39.64894613032202 17.8391
39.67261372255866 17.8285
39.6964680021016 17.835
39.72013913657293 17.8252
39.74381203738292 17.7666
39.76748670593756 17.7457
39.79134812278169 17.7273
39.81502634488497 17.7043
39.83870633896685 17.6177
39.862388106436654 17.5946
39.88625668336918 17.5961
39.90994201572829 17.5999
39.933629125719285 17.5046
39.957503091207826 17.4721
39.9811937746168 17.4764
40.00488623990914 17.417
40.02858048850006 17.3788
40.05246165409549 17.4038
40.076159487492085 17.3225
40.099859108448875 17.2892
40.123560518384345 17.2512
40.1474489070226 17.2513
40.171153913178564 17.2179
40.194860712584955 17.1719
40.2185693066637 17.1945
40.242464941335314 17.135
40.26617714307655 17.137999999999998
40.289891143772046 17.1108
40.3136069448471 17.0678
40.33750984859743 17.0667
40.3612292688043 17.0191
40.3849504936829 17.0278
40.40867352466194 17.042
40.43258372059144 16.9096
40.45631038219906 16.9733
40.48003885420956 16.8787
40.503769138055105 16.837
40.52768664931955 16.8638
40.55142057531802 16.8102
40.57515631746428 16.7744
40.599079334038514 16.8284
40.62281872700477 16.6673
40.64655994043941 16.6771
40.67030297578061 16.7232
40.69423334835778 16.6683
40.71798004609188 16.6533
40.74172857006355 16.5625
40.76547892171441 16.5898
40.7894166736039 16.6037
40.813170699248566 16.471
40.83692655691388 16.439
40.86068424804498 16.4976
40.884629402612525 16.4689
40.908390779366385 16.4501
40.932153993938 16.3844
40.95591904777605 16.3611
40.979871628443995 16.3642
41.003640379561936 16.358
41.02741097430883 16.3032
41.05118341413683 16.2271
41.075143444384416 16.272000000000002
41.098919593177826 16.2312
41.1226975914255 16.1959
41.14647744058318 16.1956
41.170444943946755 16.1338
41.19422851378379 16.1219
41.218013938914645 16.0285
41.24198706625173 16.0115
41.26577622087193 16.0057
41.289567235177785 15.9465
41.31336011063129 15.9573
41.337340752422875 15.9481
41.361137369129835 15.9219
41.38493585138705 15.8828
41.40873620066004 15.8495
41.43272438060107 15.8561
41.45652848292052 15.7546
41.48033445666918 15.7099
41.50414230331616 15.7356
41.528138045159764 15.742
41.551949656675205 15.6791
41.575763145513235 15.6778
41.59957851314666 15.6409
41.62358184070442 15.6392
41.64740098505737 15.5679
41.6712220126409 15.6156
41.69504492493139 15.5431
41.71905586207357 15.5051
41.74288256296395 15.4441
41.766711153007456 15.3893
41.79054163368412 15.373
41.814560204340054 15.4196
41.838394485526365 15.3843
41.86223066180303 15.3024
41.88625497706819 15.3401
41.910094962812 15.3533
41.93393684811168 15.2777
41.95778063445365 15.2538
41.981812625263366 15.2252
42.00566023303407 15.2096
42.029509746323676 15.1998
42.05336116662236 15.1342
42.077400857069705 15.1404
42.10125611078846 15.1387
42.12511327600405 15.1048
42.14897235421036 15.0615
42.173019768448455 15.0196
42.19688269209613 14.9551
42.22074753323349 14.9656
42.24461429335818 14.960999999999999
42.268669455600495 14.9403
42.292540073217886 14.8748
42.31641261433284 14.8606
42.34028708044675 14.8358
42.36435001496739 14.8074
42.38822835065557 14.8791
42.41210861586426 14.806
42.4359908120986 14.7896
42.46006154323262 14.7345
42.48394762115317 14.6636
42.507835634632315 14.7209
42.531912233047436 14.675999999999998
42.55580413732265 14.6726
42.579697981698 14.6169
42.60359376768525 14.5578
42.62767820545945 14.5486
42.65157789440821 14.5794
42.67547952952185 14.4546
42.699383112316 14.4799
42.72347541395347 14.4844
42.74738291190531 14.4456
42.771292362102166 14.3965
42.795203766063516 14.3779
42.819303956130405 14.3463
42.843219287476536 14.2915
42.86713657716324 14.2806
42.89105582671383 14.2971
42.91516392983864 14.2691
42.939087119032166 14.2416
42.963012272677304 14.1881
42.98693939230129 14.1112
43.01105543317513 14.1146
43.034986504731386 14.1639
43.05891954686589 14.1046
43.08285456110972 14.0708
43.10697856448665 14.0334
43.130917542983475 14.0443
43.15485849820081 14.0498
43.17880143167367 13.9571
43.20293342237094 13.9015
43.226880332449 13.9143
43.25082922540554 13.8911
43.27496722682525 13.9292
43.29892010567796 13.8437
43.32287497204102 13.8371
43.34683182745632 13.8277
43.370977859791836 13.8143
43.39493871351105 13.7659
43.41890156092628 13.7027
43.44286640358341 13.7155
43.46702049182749 13.6929
43.49098934522816 13.6642
43.51496019852649 13.7121
43.5389330532723 13.6135
43.56309522248204 13.5603
43.58707210044314 13.6219
43.61105098451946 13.6076
43.63503187626491 13.5544
43.659202151562134 13.5247
43.68318707902681 13.5014
43.70717401884041 13.4427
43.731162972560874 13.4162
43.75534137913236 13.4009
43.779334381108384 13.3746
43.803329401683186 13.3631
43.82732644241872 13.3297
43.8515130055166 13.3374
43.87551410707659 13.3003
43.89951723350145 13.3117
43.923709934595614 13.2824
43.94771713129917 13.2531
43.97172635758096 13.1974
43.99573761501002 13.1997
44.0199385169922 13.1671
44.04395385732619 13.1408
44.067971233533086 13.1243
44.09199064718605 13.1076
44.11619977548961 13.0972
44.14022328470671 13.0477
44.16424883610785 13.0358
44.18827643127035 13.0369
44.21249381139513 12.9752
44.236525514814076 12.9741
44.26055926674478 12.9538
44.28459506876863 12.9266
44.3088207262813 12.9193
44.33286064928722 12.8787
44.35690262714919 12.8379
44.38094666145278 12.8309
44.4051806219871 12.8434
44.42922879003185 12.7745
44.45327901929361 12.7647
44.477331311362136 12.7306
44.501573600619416 12.6924
44.525630039221795 12.725
44.54968854541895 12.7048
44.573937102200176 12.6916
44.5979997645541 12.6458
44.622064499300315 12.5811
44.64613130803592 12.6004
44.67038823869318 12.6121
44.69445921643748 12.5707
44.718532272981385 12.5483
44.742607409926194 12.4798
44.76687274034801 12.4718
44.79095205918753 12.4313
44.81503346325094 12.4328
44.839116954143876 12.4443
44.86339071028742 12.3965
44.88747839599524 12.3877
44.91156817336837 12.3156
44.93566004401666 12.3378
44.959942251908146 12.3121
44.984038330325966 12.312999999999999
45.00813650686762 12.2144
45.03223678314731 12.196
45.05652746888232 12.219000000000001
45.08063196592069 12.2041
45.104738567558705 12.1662
45.128847275414856 12.1949
45.15314646515866 12.1352
45.17725940679741 12.1049
45.20137445952892 12.0862
45.22568004865265 12.0831
45.24979934496396 12.0406
45.27392075725247 12.0497
45.29804428714431 12.0157
45.322358426247604 11.9868
45.346486212804315 11.9459
45.370616121861914 11.9439
45.39474815505086 11.9363
45.41907087049246 11.8787
45.4432071734666 11.8467
45.46734560548283 11.8582
45.49148616817604 11.8186
45.51581748638564 11.8286
45.5399623320197 11.7876
45.56410931325473 11.7388
45.58825843173002 11.7328
45.61259837920865 11.69
45.636751793816 11.6917
45.66090735060093 11.668
45.68506505120716 11.6812
45.7094136545275 11.5812
45.73357566449271 11.6047
45.75773982322992 11.6111
45.78190613238733 11.5828
45.806263418194064 11.5481
45.83043404997326 11.5431
45.85460683713677 11.5333
45.87897065658495 11.4948
45.90314777634752 11.4518
45.92732705646868 11.4461
45.9515084986045 11.3954
45.97588104735473 11.3986
46.00006683541565 11.4126
46.02425479047904 11.3818
46.04844491420549 11.3741
46.0728262191024 11.3396
46.09702070211635 11.3476
46.12121735879483 11.2568
46.14541619080294 11.267999999999999
46.169806278764455 11.2816
46.194009483459034 11.2395
46.21821486849841 11.1866
46.24242243555223 11.1927
46.266821333570014 11.1726
46.29103328674601 11.1376
46.31524742696538 11.1619
46.33946375590237 11.1085
46.36387149104216 11.1206
46.38809221957392 11.0563
46.41231514186606 11.0718
46.436540259597464 11.0389
46.460956858999374 10.9935
46.48518638983522 10.9971
46.509418121166966 10.9706
46.533652054678114 10.9193
46.55807754555709 10.9209
46.58231590571962 10.9317
46.60655647313217 10.9172
46.630988654873654 10.8846
46.655233659129024 10.8191
46.67948087571551 10.8039
46.70373030632484 10.8006
46.72817142736393 10.7744
46.752425308428684 10.7814
46.77668140861147 10.749
46.80093972960865 10.6749
46.82538981736788 10.6791
46.849652602470904 10.7039
46.87391761349769 10.6581
46.8981848521493 10.658
46.9226439341274 10.6222
46.946915650573224 10.5944
46.97118959976749 10.5584
46.99546578341598 10.5645
47.019933887188216 10.5468
47.04421456235744 10.5216
47.06849747711879 10.4778
47.09278263318286 10.4378
47.11725978640143 10.4723
47.14154944775105 10.4405
47.165841355555656 10.4567
47.1901355115306 10.4192
47.214621741924994 10.3936
47.23892041698887 10.4072
47.26322134538975 10.3706
47.28771440635075 10.314
47.31201986422527 10.3268
47.33632758061436 10.2855
47.360637557241866 10.2943
47.38513974410611 10.2782
47.40945426407847 10.2394
47.43377104948137 10.2247
47.45809010204344 10.1928
47.48260144275502 10.2093
47.506925052572285 10.1903
47.53125093475548 10.1589
47.55557909103813 10.1311
47.58009961361992 10.1003
47.60443234110732 10.1198
47.62876734791564 10.0721
47.65310463578333 10.0765
47.6776343683373 10.0361
47.7019762413987 9.98896
47.72632040075572 9.9902
47.75066684815169 9.9581
47.77520581885936 9.97348
47.799556865477655 9.91367
47.823910205386 9.923919999999999
47.84826584033272 9.9499
47.87281407745551 9.883280000000001
47.89717432569297 9.8819
47.92153687423484 9.86433
47.94609208429692 9.8511
47.97045925671401 9.78922
47.99482873471275 9.74288
48.01920052005013 9.76984
48.04376504619224 9.77201
48.068141469543484 9.76563
48.09252020552573 9.75707
48.11690125590099 9.7324
48.1414751266064 9.68645
48.16586082917454 9.69168
48.19024885144316 9.647739999999999
48.2146391951793 9.65778
48.239222439012764 9.60881
48.26361744916137 9.58821
48.28801478610016 9.57052
48.31241445160131 9.61011
48.337007097209366 9.52533
48.36141144338331 9.54767
48.38581812345755 9.52595
48.41022713920929 9.55204
48.434829215320704 9.49653
48.45924292604658 9.46855
48.48365897780325 9.49737
48.50807737237308 9.44655
48.532688907799276 9.41779
48.55711201168574 9.3838
48.581537463754074 9.3619
48.60615611725119 9.37084
48.63058628942721 9.35096
48.65501881516546 9.351339999999999
48.6794536962573 9.3382
48.70408185970339 9.30617
48.72852147531801 9.2516
48.75296345168211 9.23142
48.77740779059232 9.24917
48.80204549302823 9.27905
48.82649458091802 9.24785
48.85094603676547 9.19051
48.87539986237231 9.21537
48.90004713292306 9.1611
48.92450572200832 9.15152
48.94896668628025 9.12599
48.97343002754588 9.10064
48.99808689542115 9.08948
49.02255501470614 9.13529
49.04702551642794 9.0229
49.0714984023988 9.015939999999999
49.096164896893235 8.98963
49.120642575466796 8.98282
49.145122643748394 8.975660000000001
49.16960510355558 8.95792
49.19428125404938 8.97494
49.2187685210852 8.98189
49.243258185121555 8.90076
49.26794160167084 8.888010000000001
49.2924360839405 8.8543
49.31693296869764 8.8423
49.34143225776915 8.841610000000001
49.36612538195438 8.80712
49.39062950396021 8.80587
49.41513603578346 8.78788
49.4396449792564 8.758560000000001
49.46434784069503 8.7787
49.488861631846454 8.76309
49.513377840166804 8.72648
49.537896467493745 8.69005
49.56260909589029 8.671289999999999
49.587132585683285 8.686810000000001
49.611658500018365 8.689689999999999
49.636186840738596 8.64216
49.66090926588511 8.6424
49.685442483902584 8.627460000000001
49.70997813385706 8.58957
49.734516217597076 8.5892
49.75924846937352 8.55983
49.7837914452858 8.5545
49.80833686055187 8.48809
49.83288471702571 8.506269999999999
49.85762682540054 8.472560000000001
49.882179588965734 8.446660000000001
49.9067347993235 8.448080000000001
49.93129245833333 8.47306
49.95604445336378 8.47908
49.98060703442832 8.41232
50.005172069746266 8.41675
50.02993150438364 8.40375
50.05450147301533 8.38492
50.07907390151433 8.342080000000001
50.10364879174981 8.34024
50.12841816587289 8.30306
50.1529980044635 8.2951
50.17758031042124 8.28895
50.20216508562089 8.28991
50.22694442953363 8.25681
50.25153416817468 8.24346
50.27612638170508 8.23413
50.300721072005196 8.20927
50.325510416102105 8.1904
50.350110084975064 8.17401
50.37471223628208 8.19007
50.39931687190919 8.1515
50.424116246675766 8.12272
50.44872587605249 8.14327
50.47333799543065 8.089739999999999
50.49795260670191 8.10458
50.52276204271512 8.04838
50.54738166295838 8.056980000000001
50.57200378079314 8.04376
50.596628398116835 8.03328
50.62144792604559 8.017339999999999
50.646077567609396 7.987839999999999
50.670709714377715 8.00982
50.69553683636198 7.952189999999999
50.72017401885922 7.935989999999999
50.7448137122895 7.932180000000001
50.76945591856022 7.9358
50.79429318636823 7.9165399999999995
50.818940443716784 7.918539999999999
50.84359021965163 7.871410000000001
50.868242516085964 7.87373
50.893089960641895 7.8212600000000005
50.917747323549435 7.79858
50.94240721271973 7.7665
50.96706963007175 7.7828
50.99192728239342 7.76089
51.01659478166073 7.78865
51.04126481489051 7.7843800000000005
51.06593738400761 7.7248600000000005
51.090805275207074 7.728280000000001
51.11548294172845 7.65821
51.14016314993547 7.7096800000000005
51.164845901758845 7.68895
51.18972406304274 7.65382
51.21441192780656 7.62781
51.23910234200271 7.639130000000001
51.2637953075678 7.62454
51.288683770237945 7.5879
51.31338186432707 7.57684
51.33808251561888 7.5442
51.362978729967345 7.533110000000001
51.387684521509755 7.5241
51.41239287610203 7.50833
51.437103795691165 7.493530000000001
51.46201036644977 7.45564
51.486726441956634 7.420839999999999
51.51144508832545 7.460939999999999
51.536166307509156 7.435230000000001
51.56108326624387 7.42421
51.58580965706056 7.444960000000001
51.61053862657523 7.416810000000001
51.635270176746864 7.38152
51.66019755512065 7.37189
51.68493429268881 7.33127
51.70967361681515 7.3227199999999995
51.73441552946465 7.3136
51.759353359237934 7.284910000000001
51.7841004750961 7.282310000000001
51.80885018539685 7.3064100000000005
51.833602492111254 7.26492
51.8585508051424 7.265860000000001
51.883308330926425 7.20635
51.90806845906181 7.204269999999999
51.932831191525715 7.20087
51.95779001977161 7.19148
51.98255798721516 7.1177399999999995
52.00732856494335 7.12529
52.03229530577543 7.126239999999999
52.057071130455945 7.1166
52.081849571391054 7.0966
52.106630630568695 7.108210000000001
52.13160794279417 7.0811399999999995
52.15639426492067 7.0583100000000005
52.18118321127822 7.04396
52.205974783860896 7.0372
52.23096269971011 7.06619
52.255759551287994 6.99675
52.280559035098186 7.001469999999999
52.30536115314103 6.97359
52.33035970494467 6.94566
52.35516711807904 6.960369999999999
52.37997717147198 6.944789999999999
52.40478986713005 6.93164
52.42979908731974 6.907939999999999
52.454617094216 6.91177
52.47943774942214 6.877260000000001
52.50426105495102 6.85641
52.529280976059844 6.85007
52.554109609024096 6.80525
52.57894089837482 6.783360000000001
52.60377484613117 6.79414
52.62880550079408 6.83055
52.65364479223379 6.79564
52.67848674816189 6.754239999999999
52.70352547971946 6.78597
52.72837279155837 6.73261
52.753222773982785 6.688910000000001
52.778075429022984 6.7011199999999995
52.80312495150885 6.691339999999999
52.827982978797436 6.70913
52.85284368481815 6.6562600000000005
52.87770707160767 6.618519999999999
52.90276741793998 6.63819
52.92763619336701 6.61522
52.952507655698504 6.58385
52.977381806977576 6.57065
53.00245301017842 6.58529
53.02733256653592 6.596080000000001
53.052214817996074 6.59172
53.077099766608484 6.55251
53.102181859804446 6.51633
53.127072229988265 6.53151
53.15196530349892 6.51121
53.17686108239249 6.50189
53.20195409881522 6.49504
53.22685531582556 6.46382
53.25175924441303 6.42387
53.27666588664027 6.447080000000001
53.30176985962693 6.40209
53.3266819565689 6.40081
53.35159677336455 6.41465
53.376514312083096 6.36385
53.40162927507703 6.3625
53.42655228516116 6.36497
53.45147802340193 6.35832
53.47660125628886 6.33235
53.50153247842639 6.33135
53.52646643496923 6.30842
53.55140312799818 6.29812
53.576537409691696 6.27704
53.60147960336152 6.25889
53.626424539786164 6.20526
53.65137222105307 6.19428
53.67651758529126 6.224530000000001
53.70147078399681 6.1959
53.72642673383343 6.224
53.75138543689533 6.15826
53.776541917524526 6.16728
53.801506154876755 6.13815
53.826473151763246 6.11998
53.851442910284916 6.11134
53.87661054126026 6.09046
53.9015858509782 6.087269999999999
53.92656392866066 6.06953
53.95154477641532 6.09584
53.976723591801296 6.06395
54.00171000771266 6.02559
54.02669920004598 6.02632
54.051691170915745 6.00514
54.076881204886796 6.04844
54.101878760928514 5.99349
54.12687910187696 5.99593
54.152077577768296 5.94834
54.1770835166946 5.92771
54.20209224691339 5.91935
54.22710377055121 5.9270000000000005
54.25231352511594 5.89511
54.27733066384342 5.83608
54.30235060239643 5.8596900000000005
54.32737334290836 5.86734
54.35259441062629 5.8177
54.377622783395324 5.81015
54.40265396455061 5.81345
54.42768795623251 5.79835
54.45292037169559 5.762519999999999
54.477960012857906 5.7449900000000005
54.50300247099511 5.74827
54.52804774825457 5.7247699999999995
54.55329154616743 5.6825
54.57834249018678 5.69968
54.6033962597977 5.66571
54.6284528571545 5.6262300000000005
54.653708072335164 5.6294699999999995
54.67877035378786 5.6543
54.70383546947698 5.60677
54.72890342156389 5.613519999999999
54.7541700889442 5.51478
54.77924374251975 5.55157
54.8043202390049 5.49852
54.82959552413022 5.4261099999999995
54.8546777351945 5.49892
54.87976279569621 5.44493
54.90485070780914 5.51909
54.930137506558005 5.4233400000000005
54.95523115074295 5.3937800000000005
54.98032765308844 5.37407
55.005427015775496 5.397469999999999
55.03072536339621 5.3855699999999995
55.05583047570572 5.34048
55.080938454927676 5.28525
55.10604930325027 5.30233
55.131359235107396 5.25054
55.15647585066083 5.225219999999999
55.181595341907496 5.1966
55.20671771104285 5.20868
55.232039262617704 5.18509
55.25716741665048 5.15974
55.28229845518636 5.14235
55.30743238042802 5.06973
55.33276558731939 5.07958
55.357905315183636 5.09121
55.383047936390035 4.98396
55.40819345314859 4.99529
55.433538351073295 5.01277
55.458689688238415 4.99391
55.483843927614096 4.92092
55.509197623043605 4.95295
55.53435769621134 4.86974
55.55952067826466 4.82165
55.5846865714265 4.87019
55.61005202069737 4.82885
55.63522376553902 4.82875
55.66039842818645 4.76909
55.68557601087004 4.786169999999999
55.7109532500271 4.6812
55.73613670233794 4.75028
