TT I
1.2716486653135266 7.710089999999999
1.2939594142134223 7.14083
1.3162702121660406 6.95016
1.3385810600174564 6.46886
1.3608919586137629 7.13685
1.383202908801069 6.36687
1.405513911425503 5.93075
1.4278249673332093 6.61252
1.4501343378461518 6.652839999999999
1.4724455028545926 6.25494
1.4947567236847858 5.79785
1.517068001182951 5.86095
1.5393793361953272 6.22016
1.5616907295681737 6.06039
1.5840021821477681 5.78411
1.60631369478041 5.18109
1.6286252683124185 5.66159
1.6509369035901333 5.18754
1.6732468618895553 5.58221
1.695558623192809 5.00181
1.7178704487808514 5.50054
1.7401823395001077 4.77623
1.7625012545597203 5.16666
1.7848028405262486 4.58893
1.8071218901122095 5.15561
1.8294236121921872 5.26196
1.8517427996910911 5.21542
1.8740620574440425 4.981669999999999
1.8963639900671978 5.63897
1.9186833908139995 4.93626
1.9409854680117449 5.31851
1.9633050151394713 5.51971
1.9856246367570705 4.93714
2.0079269371922672 4.61259
2.03024671027244 5.07987
2.0525491637446027 4.88098
2.074869091674931 4.75421
2.097171701569106 4.56555
2.1194917877373847 5.34905
2.141811954326636 5.18348
2.164114805233074 5.08456
2.186435135143035 7.053139999999999
2.208738150935709 18.0819
2.231058647554722 40.9483
2.2533792288321184 32.1545
2.275682498336085 13.2081
2.298003251406138 6.085780000000001
2.3203066942619714 5.026590000000001
2.3426276225136022 5.060630000000001
2.3649486396617507 5.52163
2.387252348930071 5.38197
2.4095735463442893 5.23495
2.4318774374315884 5.48056
2.4541988185014043 5.5297
2.476502894794693 5.52093
2.498824462909887 5.07892
2.521146125856138 5.3911
2.5434504863470337 5.98595
2.5657723414244717 5.750369999999999
2.588076895590662 6.61367
2.610398946189713 6.744
2.6327210958598384 6.955889999999999
2.6550259469304716 6.4347900000000005
2.6773482972090137 6.7381899999999995
2.6996533504259 7.044339999999999
2.7219759047039602 7.397130000000001
2.744298562293959 7.24143
2.7666039251246595 7.8074699999999995
2.7889267918020164 7.21962
2.8112323652516555 7.6977199999999995
2.833555444408179 7.8236300000000005
2.8558786311183852 7.831519999999999
2.8781845268938557 8.647739999999999
2.9005079311721484 8.648480000000001
2.9228140460410397 8.792069999999999
2.9451376712799635 9.39452
2.967444008632326 9.36541
2.9897678582247247 9.885530000000001
3.0120918213106695 10.7611
3.0343984987899373 11.3055
3.0567226913198637 11.5663
3.079029599759726 11.8791
3.101354025127254 12.3431
3.123678568232338 12.9126
3.145985829517914 12.7602
3.16831061055229 13.5618
3.1906181112775593 14.4517
3.212943133635653 14.6356
3.2352682779763207 15.0902
3.2575761442691227 15.7256
3.2799015350264273 16.223
3.302209649240067 16.7817
3.3245352898092655 17.5128
3.3468436553365257 18.1359
3.369169549113219 18.230999999999998
3.3914955708171384 18.9048
3.413804319727358 19.4701
3.4361305997334863 19.855
3.4584396084414553 20.2777
3.4807661501462652 21.1405
3.503092824025881 21.5267
3.5254022288463154 21.7573
3.5477291695206588 22.6984
3.5700388426251948 23.3065
3.5923660534916446 25.4871
3.6146934007816114 46.2985
3.637003482731501 126.272
3.6593311053109985 143.418
3.681641464033634 77.7418
3.7039693653009733 34.8719
3.726297407241705 27.6496
3.7486081875460804 27.0562
3.7709365132734978 27.3547
3.793247578841633 27.1228
3.8155761917550093 27.5361
3.8378875459837216 28.0535
3.8602164494827234 28.6171
3.882545499606844 29.162
3.9048572932539183 30.1997
3.9271866390645718 30.2362
3.9494987298666713 30.6135
3.971828374764527 30.9483
3.9941581705403255 31.9869
4.016470713506008 32.745
4.038800813471445 33.181
4.061113662089144 33.8396
4.0834440696459176 35.2349
4.105774632334751 35.3535
4.128087945865126 36.0392
4.150418821249301 36.9954
4.172732448931298 38.9069
4.195063640413578 41.3071
4.2173775856475215 47.3666
4.239709096631102 91.83
4.262040768704612 344.361
4.284355196706267 484.556
4.306687193387355 309.52299999999997
4.329001947444346 107.119
4.35133427213731 53.1632
4.373666762177566 47.1932
4.395982011761091 46.5607
4.418314834921175 47.7974
4.44063041906622 58.6604
4.4629635787515625 76.6546
4.4852969080429785 76.34
4.5076130004776225 59.5127
4.529946671403969 53.9203
4.552263106909177 53.2259
4.574597122877047 53.5323
4.596931312711224 53.8087
4.619248269273446 54.8128
4.6415828092605835 55.7924
4.663900117405352 56.9953
4.686235010953232 58.5778
4.708552674085913 59.4868
4.730887924602802 61.263000000000005
4.753223354952695 62.5686
4.775541557023902 64.5714
4.797877349456786 66.1088
4.820195915032126 67.7627
4.842532072957498 69.1532
4.864868414979744 71.3492
4.88718753227192 73.9947
4.909524244902505 75.7485
4.931843734218147 77.2059
4.954180820867835 79.9771
4.976518095879839 83.2648
4.998838149695359 86.3575
5.021175803844231 90.4234
5.043496238205739 94.4907
5.065834274903528 99.1641
5.088172504230693 105.22399999999999
5.1104935158799565 113.86399999999999
5.132832132875765 147.654
5.155153533596801 214.65099999999998
5.1774925416746225 269.628
5.199814334878411 491.32800000000003
5.2221537374521505 1302.07
5.244493338631803 2962.0
5.266815727034316 6291.17
5.289155727832427 11002.4
5.311478517248165 9866.62
5.333818921080011 4247.1
5.356159527788849 958.4889999999999
5.3784829252032536 257.64099999999996
5.400823940070432 173.168
5.423147747031976 145.792
5.445489173474152 131.275
5.467830807066149 123.76
5.490155234831516 117.49600000000001
5.512497285125229 112.963
5.534822130975162 110.055
5.557164601388673 106.999
5.579489868738879 103.895
5.601832762690846 103.29899999999999
5.6241758697774475 102.444
5.646501775867269 100.804
5.668845311622074 99.2765
5.691171647754637 98.3048
5.713515615597765 97.0972
5.735859800852677 96.2555
5.758186788542988 95.9046
5.780531411018185 97.0167
5.802858837297399 96.3163
5.825203900414495 96.5003
5.8475491852224 97.0344
5.869877275883075 97.2748
5.892223006467101 98.5071
5.914551544266608 100.09899999999999
5.936897724049891 103.68799999999999
5.959244129804903 111.064
5.981573344815301 136.701
6.0039202049061 251.894
6.026249875609095 539.443
6.04859719346037 1029.81
6.070927323278297 1929.06
6.093275102315365 3627.26
6.115623113320588 4803.47
6.137953938319995 3885.98
6.160302415650845 1505.12
6.182633708324452 370.147
6.2049826554078376 144.514
6.227331838745022 107.046
6.249663839443684 94.7478
6.27201349767565 89.9685
6.294345974611799 99.2078
6.316696111167083 119.41799999999999
6.339046488263839 111.956
6.361379686074702 88.6376
6.383730546639482 76.4674
6.406064229255215 72.5324
6.428415576718203 71.9327
6.450749747566656 70.5633
6.47310158535871 69.207
6.495453669698332 67.957
6.517788579421056 67.0852
6.540141159237969 66.1733
6.562476565766648 65.9449
6.5848296444934045 66.0691
6.607182974060425 65.8391
6.6295191323281015 66.0737
6.651872965955752 70.6205
6.6742096296068985 109.536
6.6965639707294615 184.96200000000002
6.71891856698715 189.21
6.741255995248479 119.589
6.763611104154477 75.8484
6.785949046381137 63.9531
6.808304671371482 61.3303
6.8306605557940046 61.2179
6.852999275508618 59.7687
6.875355681171544 59.196999999999996
6.897694923437771 59.1416
6.92005185377892 59.1114
6.9423916220322655 59.1095
6.964749080490181 58.2968
6.987106804399774 58.0874
7.009447368180821 58.2301
7.031805625367033 57.8909
7.054146723727803 57.8727
7.076505517631004 57.9025
7.098864581288365 57.7338
7.121206488070854 57.2153
7.143566093607822 57.2693
7.165908543567245 58.1984
7.188268694426048 58.2997
7.2106291193438095 58.4964
7.232972390625943 60.6163
7.255333366030969 78.2222
7.277677189091925 161.23
7.300038718428332 242.683
7.322400526130865 202.165
7.344745183422596 113.471
7.367107550224791 68.6744
7.389452767901992 59.8429
7.411815697249891 57.7445
7.434161478756298 56.5814
7.456524974096713 56.8943
7.478888753837185 56.6081
7.501235387657368 56.8828
7.523599738562711 56.9105
7.545946944825532 57.3525
7.568311870344528 57.6023
7.5906770845765665 58.0671
7.613025156078678 59.8094
7.635390950099687 62.1869
7.657739602662809 60.8363
7.680105979923558 58.6325
7.702472650212829 58.1787
7.724822180948224 58.0277
7.747189439655568 58.2571
7.769539560075357 58.1184
7.791907410653562 58.7511
7.81425812420825 58.3043
7.836626570110925 58.8476
7.858995315087906 59.5712
7.881346924933401 59.6642
7.903716270417482 60.5379
7.926068482028405 60.7646
7.948438431475253 61.5381
7.9708086843180235 61.9201
7.993161805171116 62.4615
8.015532667162402 62.8179
8.037886398416653 63.965
8.060257873014221 64.5092
8.082629655331942 65.3717
8.104984308787587 66.6525
8.127356708900503 71.202
8.149711981398308 79.5747
8.172085002766314 83.3383
8.194458336181368 77.6799
8.216814543847752 72.6181
8.23918850371002 71.6452
8.26154533906492 72.4533
8.283919928836452 74.4237
8.306277395339652 75.1736
8.328652618483376 76.6485
8.351028159736202 78.8841
8.373386579575245 81.0792
8.395762759396959 83.0657
8.418121819038275 89.7061
8.440498640894003 109.316
8.462875785192262 130.994
8.485235811156207 146.197
8.507613602688501 189.72400000000002
8.529974277114228 290.078
8.552352719347912 428.731
8.574731488360351 622.419
8.59709314210385 981.575
8.619472567021075 1542.92
8.64183487789147 2070.0
8.664214962183097 2054.6
8.686577933647762 1281.39
8.708958680784317 562.441
8.731339760774953 226.565
8.753703729764451 129.879
8.77608547780821 108.21700000000001
8.798450116065078 101.774
8.820832535634787 97.6341
8.843215292401656 95.4947
8.865580941199045 93.5085
8.887964374703538 92.5586
8.910330701447199 94.7441
8.932714815164482 98.7162
8.955099270424924 97.4775
8.977466620733543 92.9412
8.999851761421976 88.6784
9.022219798361645 86.6511
9.04460562795561 86.1568
9.066991803441677 85.3548
9.089360876979615 85.5728
9.111747746589993 85.1272
9.13411751544971 84.2137
9.156505082664324 84.478
9.178875550323522 84.7079
9.20126381862328 85.3955
9.223652438908596 85.8467
9.246023961427412 85.7356
9.26841328802173 85.0978
9.290785518039224 84.6336
9.313175554425882 85.6132
9.335565947154315 85.3242
9.357939245086508 85.8074
9.380330352834827 85.8211
9.40270436697103 85.7303
9.425096193225055 85.5849
9.447488380180165 86.57799999999999
9.469863475295412 87.3093
9.492256385987508 87.4067
9.514632206018318 87.7773
9.537025843935714 88.477
9.559402392368193 89.1112
9.581796761000229 90.5864
9.604191496441521 92.0541
9.626569144158516 96.4725
9.648964615551032 104.0
9.671343000390081 106.32700000000001
9.693739211225699 102.40899999999999
9.716135793237463 97.7265
9.738515290448102 96.27600000000001
9.760912617143402 97.1923
9.783292860202891 98.57700000000001
9.805690935076182 100.18700000000001
9.828089385495742 100.973
9.850470754023561 103.821
9.872869957865444 114.287
9.89525208097539 137.001
9.917652041736662 157.058
9.940052382417589 155.631
9.962435644102392 158.935
9.984836746950979 196.33700000000002
10.007220771957746 271.469
10.029622640473708 374.79
10.052007432299963 510.29
10.074410069984072 702.419
10.096813093716005 1023.06
10.119199042482517 1483.15
10.141602840636468 1890.35
10.163989564971628 1820.87
10.186394141051062 1230.25
10.208799107559706 585.523
10.231187001965623 270.505
10.253592751657669 152.721
10.275981430388155 124.338
10.298387966769793 122.678
10.320794897965431 126.516
10.343184759907361 124.954
10.36559248305461 117.13600000000001
10.387983138083852 110.49600000000001
10.410391656691655 113.21700000000001
10.432800574501677 126.15
10.455192425893369 145.62
10.47760214443012 171.45
10.499994797678786 202.363
10.522405320453982 252.074
10.54479877906917 335.033
10.567210109595656 443.439
10.5896218454736 541.07
10.612016518879773 544.826
10.634429067781074 417.832
10.656824555333241 258.66700000000003
10.679237920773568 150.07
10.701651695961992 106.40100000000001
10.724048411481384 94.7697
10.746463008485165 90.6459
10.768860546937125 88.4945
10.791275969274796 86.4803
10.81369180576079 85.3644
10.836090585366925 84.1166
10.858507252467449 82.973
10.88090686379991 81.9549
10.903324365036394 81.7416
10.925724811614439 81.9403
10.948143150509463 84.3727
10.970561909719066 83.7581
10.992963615930844 81.1089
11.015383218085756 78.2782
11.037785768347074 76.3701
11.06020621697282 75.4996
11.082627090322113 74.9582
11.105030913430326 74.8551
11.12745263854165 75.6614
11.149857314510728 81.1475
11.172279894912576 91.2554
11.194702904450653 93.2708
11.217108866490921 87.1659
11.239532736615194 80.3807
11.26193956033512 76.8569
11.284364294577085 74.4219
11.306789462371718 71.4831
11.329197585398376 69.7974
11.351623622610898 69.664
11.37403261614354 68.7108
11.396459526308487 68.5205
11.418869393879497 67.9799
11.441297180532617 67.527
11.463725406927658 67.3076
11.486136592353875 67.3149
11.508565700543707 68.1015
11.530977768845315 71.286
11.553407762368774 73.3945
11.575838200059769 72.3037
11.598251599479612 68.8641
11.620682927815501 66.9105
11.64309721895548 66.2268
11.665529441478206 65.5369
11.687962112597958 65.3306
11.710377748130886 65.5218
11.732811318753434 65.3811
11.755227854859067 65.449
11.777662328529495 65.3816
11.800079768750786 65.07600000000001
11.822515149015453 64.9246
11.844950984084935 64.8754
11.867369787303163 64.6014
11.889806534289491 64.7074
11.912226250487029 65.093
11.934663912939751 65.5025
11.9571020346363 65.3362
11.979523127133968 64.9342
12.001962169624331 65.6904
12.024384183972964 67.2113
12.046824150809913 71.3036
12.069264581333726 77.0618
12.091687985297767 84.06700000000001
12.11412934550045 92.0172
12.136553680195208 101.598
12.158995973632788 116.50399999999999
12.181438735204349 136.407
12.20386447284199 165.732
12.226308172985636 196.99400000000003
12.24873485024193 212.76
12.271179492516982 193.988
12.293607112949127 154.03
12.316052700916226 117.655
12.338498763250042 91.1172
12.360927805303868 77.4149
12.383374818673879 70.9026
12.405804812803074 67.8632
12.428252780773262 67.2943
12.45070122756722 66.9917
12.473132656675375 66.6921
12.49558206341869 66.6726
12.518014453510101 66.9942
12.540464823770117 67.1581
12.562915677315177 67.3025
12.58534951575545 68.0013
12.607801338171472 71.1432
12.630236146511358 79.0469
12.652688941369085 87.0115
12.675124723177234 88.0726
12.697578494048786 81.37100000000001
12.720032754458185 74.1509
12.742470003354093 70.9493
12.764925245138771 70.2246
12.787363476431278 70.42699999999999
12.809819703166806 70.8257
12.83227642391173 71.6237
12.854716135692716 72.033
12.877173846755147 73.1965
12.899614549869717 73.5471
12.9220732548287 74.0883
12.94453245827299 74.8506
12.966974655289818 75.6174
12.989434858002571 76.1761
13.011878055298721 77.0172
13.034339260862497 78.0444
13.056800969391883 79.3578
13.079245674017244 81.8626
13.101708390774869 84.2931
13.12415410463411 92.3478
13.146617833206086 106.071
13.169064559883248 120.645
13.191529303857127 135.829
13.213994557076367 151.988
13.236442809902437 174.609
13.258909083908291 210.062
13.28135835851934 255.90599999999998
13.30382565690295 320.349
13.326293469022952 398.161
13.348744283242008 445.155
13.371213125129904 414.51
13.39366497011003 326.72700000000003
13.416134845360597 221.459
13.438605238843131 149.874
13.46105863690397 118.94
13.483530069144786 114.115
13.505984506951902 118.74799999999999
13.528456981549432 128.754
13.550929978879088 140.035
13.573385983253365 154.673
13.595860028340867 178.333
13.618317081455832 212.97299999999998
13.64079217790333 257.30400000000003
13.663250283359057 312.453
13.685726434770173 360.62199999999996
13.708203115221277 370.915
13.730662806148091 316.233
13.75314054697177 238.12400000000002
13.775601299246777 159.36
13.798080104050406 112.366
13.820559442405358 92.5722
13.843021793671388 85.9394
13.865502201420897 83.5056
13.887965623051947 82.7026
13.910447103807167 81.488
13.932929122629764 79.9007
13.955394156785959 79.664
13.977877254034569 78.7395
14.000343367582113 77.6259
14.022827546871707 76.6562
14.045294743423524 76.1582
14.06778000837062 75.6095
14.090265817715476 75.6066
14.112734645763819 75.0605
14.13522154619454 75.2242
14.157691466286913 75.5809
14.180179461423874 75.19800000000001
14.202668005486178 74.425
14.22513957064374 73.2606
14.247629214846473 73.062
14.270101881097517 72.8627
14.29259262906496 73.5123
14.315083930490205 74.46600000000001
14.337558255389705 75.1843
14.360050666019726 74.7502
14.382526101071944 73.5121
14.405019624534942 72.1283
14.427513705993134 71.0274
14.449990813291825 71.1628
14.47248601302899 71.056
14.49496423954951 71.1953
14.517460561197822 71.0817
14.539939910570322 70.8219
14.562437357763558 71.5977
14.58493536931253 72.9049
14.607416409993311 74.5494
14.62991555254159 75.473
14.652397725157423 75.2119
14.674898002342799 74.2095
14.697398848433282 73.3598
14.719882725991326 73.6544
14.74238471217934 74.7969
14.764869730765593 78.3299
14.787372860692983 82.5585
14.809876564079925 88.1727
14.83236330125751 93.7172
14.854868153850365 99.9056
14.877356041159485 108.47
14.899862046604186 120.009
14.922351087688757 136.425
14.944858249632887 159.113
14.967365991421232 187.292
14.989856770231246 213.852
15.012365673994204 229.322
15.03485761569738 212.042
15.05736768508665 176.454
15.07987833888692 135.79
15.102372032001655 104.35700000000001
15.124883856909658 84.0542
15.14737872204565 76.4574
15.169891721717274 73.8418
15.192405310371893 73.4005
15.214901940621196 74.555
15.237416709527137 75.0921
15.259914520936249 75.092
15.282430473753607 74.1459
15.304947020131227 72.4797
15.327446610371178 71.1808
15.349964346154254 69.9356
15.372465126703139 69.4164
15.394984055556009 68.9562
15.417486030076159 68.8369
15.44000615566487 68.2503
15.462526881230803 68.1777
15.485030653812652 68.9
15.507552581617434 68.9894
15.530057557334603 69.337
15.55258069104857 69.0784
15.575104429329837 68.7109
15.597611216864632 68.2198
15.620136166564563 68.1823
15.6426441664095 69.1685
15.665170331202765 71.9593
15.687697105158826 75.4636
15.710206930593545 79.6063
15.732734925158933 83.8986
15.755245972089478 88.6778
15.77777519094324 94.7086
15.800287463046663 102.975
15.822817909869592 115.214
15.84534897229804 130.27100000000002
15.867863089299354 151.46
15.890395385222186 173.648
15.912910736597423 193.394
15.935444269699861 199.063
15.957978423016485 180.662
15.980495633101265 149.81799999999998
16.003031029129367 116.395
16.02554948280019 88.6312
16.048086125229432 74.7096
16.070623392487107 69.9161
16.09314371869582 68.8261
16.11568223789321 67.8074
16.13820381691126 66.4703
16.160743591742527 64.8966
16.183283996022084 63.5541
16.205807461423195 62.1739
16.228349126881973 61.4406
16.25087385432698 61.4195
16.27341678466365 60.8881
16.29594277784926 60.5478
16.31848697676433 61.0716
16.341031811604868 62.1733
16.36355971058487 62.907
16.3861058195587 62.5306
16.40863499352978 60.8231
16.431182380342005 59.2922
16.453730407713202 58.5252
16.476261501364792 58.11600000000001
16.498810812136167 57.589
16.52134319004079 57.6815
16.54389378792203 57.5192
16.566445031001553 57.5209
16.588979342490088 57.2311
16.61153187824822 57.0975
16.634067483263312 56.9498
16.656621315414416 56.6855
16.679175797408888 56.5353
16.701713349928728 56.7415
16.72426913389191 57.0162
16.74680798922351 57.1774
16.76936507887444 57.3333
16.791905240734874 57.1608
16.814463639794468 56.8474
16.837022695210294 56.9207
16.859564824093756 57.4291
16.882125194503903 58.7379
16.904668639217885 59.6671
16.927230328348003 60.08
16.949792678493612 60.0998
16.972338104193863 58.9222
16.994901778652235 58.0688
17.017448529496576 57.7783
17.040013531998152 58.0991
17.06257920018044 58.3691
17.0851279459922 59.0966
17.107694947817667 60.1746
17.130245028099072 61.0883
17.15281336730298 62.5677
17.17536478578733 63.6162
17.19793446610687 65.0376
17.220504818648422 67.0125
17.243058251703697 68.8308
17.265629950971032 72.2806
17.288184731571736 76.4648
17.310757781306908 81.6797
17.33333150794385 85.24700000000001
17.355888317140174 86.1315
17.37846339986244 83.7547
17.401021565958885 77.3568
17.42359800851343 71.484
17.44617513265564 66.3553
17.468735341390783 63.0649
17.491261035594565 61.5383
17.51396340099364 61.1585
17.536490463869136 61.0837
17.559018209820174 61.2611
17.58154663977963 61.3528
17.604251766089718 61.4991
17.626781572227713 61.7844
17.64931206518155 61.9019
17.671843245885103 62.5693
17.69455114821572 63.0922
17.717083712612634 63.2588
17.739616967569667 63.3149
17.762150914021706 63.2529
17.78486160749854 63.2613
17.807396945166804 63.9309
17.829932977143503 64.8824
17.85246970436452 66.4756
17.875183204129467 68.7478
17.897721330097664 71.4829
17.920260154126645 74.1689
17.942799677153296 77.024
17.9655159983646 79.4532
17.988056927677544 82.8361
18.010598558807683 87.4297
18.033140892692916 94.1085
18.05586005052525 101.77799999999999
18.07840379824407 112.12700000000001
18.10094825154059 124.601
18.12366954819864 137.34799999999998
18.146215420998306 144.566
18.16876200220057 143.51
18.191309292745153 132.651
18.214033452627167 117.508
18.236582170236648 102.551
18.259131600016456 92.1573
18.281681742907335 87.5501
18.304408781233683 88.3887
18.32696035875955 91.6909
18.349512652227624 96.667
18.372065662579683 103.087
18.394795594587553 108.79299999999999
18.41735004715306 110.015
18.43990521943684 105.48100000000001
18.46246111238171 96.9045
18.485193953325208 85.6671
18.507751296070428 76.389
18.530309362314178 70.3632
18.552868153000343 66.7195
18.57560391815056 64.7438
18.59816416623245 64.0704
18.620725141597372 63.6587
18.643286845190268 63.2135
18.666025549835414 62.7096
18.688588718427933 62.1038
18.711152618092243 61.7975
18.73389353884365 61.63399999999999
18.75645890921984 61.2646
18.77902501351406 60.8391
18.801591852673102 60.726000000000006
18.824335739722738 60.3686
18.846904057212626 60.1078
18.8694731124168 59.858000000000004
18.89204290628315 59.8255
18.914789774966803 59.4793
18.937361054791623 59.1921
18.959933076131318 59.0636
18.982505839934877 59.3057
19.00525570560582 59.4693
19.027829963004184 59.0892
19.05040496572238 59.4278
19.072980714710468 59.3301
19.095733592739563 59.4927
19.11831084296757 59.7569
19.140888842324735 60.5773
19.16346759176222 60.9999
19.18622349753803 61.3339
19.208803755869358 61.7814
19.231384767143577 62.4913
19.253966532312948 63.1452
19.276725481241822 64.506
19.29930876296784 65.8817
19.3218928014549 68.4152
19.34465404436217 72.0164
19.36723960516257 75.5752
19.389825925592426 78.2973
19.412413006605938 79.4472
19.43517731967805 77.6688
19.457765930683355 73.6815
19.48035530514408 68.8639
19.50294544401556 63.9925
19.525712842708348 60.3176
19.54830451925909 58.0781
19.570896963095727 56.5613
19.593490175174704 55.9749
19.616260674962184 55.812
19.638855432416964 55.5973
19.661450960992624 55.7137
19.68404726164677 55.5568
19.706820878021247 55.4293
19.729418731756834 55.6746
19.752017360452857 55.2869
19.77461676506804 55.4276
19.797393513540218 55.5366
19.819994478951667 55.8321
19.84259622316767 56.6608
19.8651987471481 56.8954
19.887978643247177 57.2611
19.91058273574792 57.7817
19.933187610901943 58.3068
19.955969879466828 58.8822
19.97857632894404 59.7644
20.00118356396599 60.4983
20.023791585494575 61.9872
20.046577028914875 64.415
20.069186632506966 66.6593
20.091797025500632 69.2246
20.114408208858933 71.1509
20.137196842715273 72.5528
20.159809615886765 72.0369
20.18242318232135 69.649
20.20503754298326 67.4
20.227829382875154 65.0391
20.250445341109344 63.2343
20.27306209647285 62.9077
20.29567964993108 63.8233
20.31847471147704 65.2184
20.34109387027612 66.6951
20.363713830075454 67.7759
20.386334591841646 67.789
20.409132890679302 65.9955
20.431755265564437 62.6707
20.454378445325528 59.4693
20.477002430930366 57.0291
20.499803982716553 55.2914
20.522429589228004 54.2269
20.54505600449589 53.5534
20.567683229489194 53.2286
20.590488049900088 52.6078
20.61311690359731 52.1672
20.63574656993626 52.0621
20.658553853717297 51.4818
20.681185154618298 51.523
20.703817271080066 51.4577
20.72645020407368 51.0897
20.749260783967177 50.8893
20.771895359337133 50.857
20.794530754161617 50.883
20.817166969412938 50.8108
20.83998086114876 50.7922
20.86261872660049 50.5804
20.885257415405402 50.5188
20.90789692853701 50.2816
20.930714147864748 50.4145
20.953355319030678 50.2791
20.97599731745334 50.33
20.99864014410749 50.3727
21.021460706796564 50.3568
21.044105199328826 50.6526
21.06675052302631 50.8432
21.089396678865015 50.9945
21.112220600704806 51.1727
21.134868430275347 51.3937
21.15751709492456 51.5295
21.180166595629693 51.8439
21.202993892429635 52.3107
21.22564507473034 52.675
21.24829709602816 52.9941
21.27112693608965 53.138999999999996
21.293780644891275 53.3613
21.316435195634053 53.1081
21.339090589297417 52.3356
21.361923832041875 51.9061
21.384580921090404 51.0809
21.407238856007325 50.5842
21.429897637773326 50.3297
21.45273429906592 50.2063
21.475394784108598 50.0276
21.498056118951983 49.9394
21.520718304578022 50.2778
21.543558400304388 50.3006
21.566222297108816 50.4593
21.58888704765135 50.6192
21.61155265291521 51.0545
21.63439619898156 51.556999999999995
21.657063523335786 51.7844
21.67973170537063 52.147
21.7024007460706 52.6719
21.72524775840385 53.4381
21.747918526116475 54.068999999999996
21.770590155457388 54.8609
21.79326264741238 56.065
21.816113141960237 57.1491
21.838787368860547 58.7708
21.861462461341976 60.3904
21.884315579735777 62.4129
21.90699241312273 64.5076
21.92967011506078 66.2745
21.95234868653799 67.4022
21.9752053151131 67.2164
21.997885635446785 65.6566
22.020566828293532 63.3159
22.04324889464272 60.9005
22.066109049404666 58.6595
22.088792872571794 57.5762
22.111477572219204 57.5637
22.1341631493376 57.7226
22.157026846313123 57.9086
22.179714188221507 58.0475
22.202402410582668 57.1516
22.22509151438863 55.5903
22.24795876962584 54.2868
22.270649646204486 53.09
22.293341407213727 52.2798
22.316034053646906 51.4096
22.338904883215342 51.1327
22.36159931041458 50.953
22.38429462602756 50.9203
22.40699083104897 50.8295
22.429865251039757 51.0391
22.452563244831367 50.9138
22.47526213102522 50.8105
22.49813925616515 50.589
22.520839937143307 50.4486
22.543541513520587 50.3363
22.56624398629403 50.41
22.589124730075895 50.3368
22.611829005656723 50.5523
22.63453418063466 50.4355
22.657240256008077 50.6715
22.680124634582935 50.9378
22.70283252079775 51.1306
22.725541310413075 51.4099
22.74825100442868 51.5911
22.771139033969575 51.9851
22.79385054687155 51.9641
22.81656296718292 52.4116
22.83927629590484 53.028
22.862167992606945 53.586000000000006
22.88488314827121 54.4088
22.907599215359284 55.3127
22.93031619487366 56.4084
22.953211574954405 57.681999999999995
22.975930389478226 58.9094
22.998650119445763 60.0439
23.02137076586092 60.0466
23.044269845560063 59.3912
23.06699233506288 58.06399999999999
23.089715744034912 56.3319
23.112617610931565 54.2484
23.135342869061212 52.4815
23.158069049684816 51.4479
23.1807961538087 50.7676
23.20370174880544 50.7129
23.226430710184808 50.6995
23.249160598093425 50.8273
23.271891413539002 50.7384
23.294800752937697 50.7414
23.31753343374794 50.8459
23.340267045128353 50.9209
23.36300158808808 51.42
23.38591468821339 51.5054
23.408651104658304 51.4532
23.431388455719986 52.0534
23.454126742409 52.5777
23.4770436196085 53.2631
23.499783787914662 54.0053
23.522524894889884 54.7854
23.54526694154616 56.0061
23.56818761219047 57.3216
23.59093154860734 58.4244
23.613676427751283 59.8585
23.636422250635754 59.9327
23.659346731118656 59.0475
23.68209445191868 57.5246
23.704843119509587 55.2333
23.72759273490623 52.9048
23.750521041644767 51.0545
23.77327256312355 49.7209
23.796025035462787 48.8374
23.818956224555475 48.0772
23.841710609113413 47.753
23.86446594758979 47.59
23.887222241002014 47.2866
23.910157285144578 47.0306
23.932915498962537 46.9226
23.955674670778713 46.7548
23.978434801611975 46.593
24.001373717286125 46.5908
24.024135776723917 46.2545
24.046898798245582 46.2723
24.06966278287146 46.2223
24.092605586582614 45.7561
24.115371508023642 45.951
24.1381383956401 45.7784
24.16090625045381 45.6758
24.183852958731244 45.74100000000001
24.206622758582608 45.3847
24.229393528706886 45.3335
24.252165270127392 45.2921
24.27511589952438 45.2491
24.297889594216997 44.9029
24.32066426328598 44.9024
24.34343990775613 44.9276
24.36639447485003 44.9431
24.38917208083877 44.9536
24.41195066531332 44.6805
24.43490819850244 44.6069
24.457688750692377 44.2356
24.48047028445616 44.3962
24.503252800821233 44.5926
24.526214300784112 44.5859
24.548998793132213 44.5748
24.57178427117417 44.2799
24.59457073593893 44.4934
24.617536219319863 44.492
24.64032466834748 44.4396
24.663114107195035 44.4702
24.685904536893013 44.1587
24.708874020360852 44.2411
24.731666442613744 44.0398
24.754459858818787 44.0487
24.777254270007962 43.8888
24.80022777025625 43.7644
24.82302418230472 43.8026
24.845821592443674 43.854
24.86862000170663 43.7049
24.891597535453727 43.6686
24.914397953892728 43.8565
24.93719937456671 43.7414
24.96000179851076 43.7839
24.98298338249997 43.9022
25.00578782394922 44.0833
25.028593271784167 44.2513
25.05157790644186 44.4571
25.07438537804115 44.5256
25.097193859145293 44.792
25.120003350792075 44.9642
25.142992065061257 45.2568
25.165803588823465 45.6233
25.18861612625217 45.9583
25.211429678386736 45.9415
25.234422489079968 46.208
25.257238081693636 46.0913
25.280054692141732 46.1743
25.3028723214652 46.0241
25.325869245420463 46.3081
25.348688923599397 46.3489
25.371509623787006 46.3623
25.394331347025812 46.3577
25.41733240110666 46.2854
25.440156181590016 45.8152
25.46298098826268 45.3562
25.48580682216873 44.5982
25.50881202326435 43.8375
25.53163992281684 43.3656
25.55446885274561 42.9243
25.577298814096377 42.4271
25.600308179121807 42.2767
25.623140214533745 42.3288
25.64597328451537 42.2703
25.66898578564376 42.0648
25.691820936010206 42.0655
25.714657124097695 41.8784
25.737494350954734 41.9972
25.760511045684957 42.0534
25.783350361364224 41.9276
25.806190718969255 42.0031
25.82903211955018 42.0854
25.852053024868923 42.1175
25.874896522722523 42.1751
25.897741066713106 42.0769
25.920586657892454 42.0217
25.943611790812668 42.1637
25.966459487728237 42.3066
25.989308234998564 42.0515
26.01215803367705 42.3748
26.03518741123814 42.5912
26.05803932412957 42.6497
26.080892291600094 42.6957
26.10374631470478 42.8908
26.12677995397268 43.0949
26.14963609978026 43.2386
26.172493304397875 42.9846
26.19535156888223 42.8576
26.218389486949604 42.492
26.241249882640123 42.2205
26.26411134137826 42.0464
26.28715248187403 41.8146
26.31001607820869 41.6302
26.3328807407756 41.4923
26.35574647063438 41.6533
26.37879191991473 41.5876
26.401659795896734 41.6015
26.424528742360263 41.7453
26.447398760366614 41.76
26.470448535598294 41.7562
26.49332070826805 42.0032
26.516193955675355 42.2574
26.53906827888316 42.3431
26.562122397260108 42.5329
26.584998883685063 42.7507
26.607876449110325 43.1429
26.63075509460056 43.3735
26.65381357334404 43.4807
26.67669439061878 43.4893
26.699576291163382 43.5877
26.722459276044212 43.5334
26.745522132402975 43.3311
26.768407297649354 43.0787
26.791293550442003 42.7578
26.814180891848974 42.6197
26.837248143099337 42.1449
26.860137673466657 42.1221
26.88302829566349 41.678000000000004
26.90592001075963 41.6918
26.92899167420566 41.5703
26.951885586870763 41.1591
26.974780595655517 40.8887
26.99785558178161 40.7574
27.020752794605112 40.5339
27.043651106772522 40.2562
27.06655051935668 40.299
27.089629948036183 40.1175
27.112531573292053 39.9967
27.135434302194138 40.1205
27.158338135817015 39.9763
27.181422024430987 40.0618
27.204328079372566 39.8587
27.22723524226965 39.9441
27.250143514198573 40.0114
27.273231880156334 39.9015
27.296142382065014 39.7565
27.319053996245536 39.659
27.341966723775965 39.7001
27.365059584515222 39.77
27.38797455070062 39.9399
27.410890633481237 39.6601
27.433807833936918 39.7251
27.456905206923906 39.8047
27.47982465472398 39.8046
27.502745223449743 39.8433
27.525666914182825 39.9398
27.548768816912457 39.9892
27.571692763693633 39.8171
27.59461783573812 39.7445
27.617723149491244 39.641999999999996
27.640650484125285 39.662
27.66357894728264 39.6085
27.686508540048052 39.5444
27.709618414237887 39.4632
27.732550278321757 39.2103
27.755483275279115 39.1828
27.778417406196485 39.2028
27.801531858397514 39.1407
27.824468269376716 39.0452
27.847405817586786 39.0986
27.870344504116094 39.2078
27.893463551932008 39.3952
27.916404527281053 39.5629
27.93934664422563 39.6501
27.962289903855886 39.6171
27.98541356491974 39.7012
28.00835912214229 39.7778
28.03130582533231 40.0773
28.054253675581805 40.346
28.077381967556104 40.3162
28.100332124185126 40.2946
28.123283431160893 40.3747
28.146235889577238 40.3192
28.169368830154156 40.1189
28.192323603752033 39.8322
28.215279532083304 39.5475
28.238415973016764 39.3832
28.261374223145094 39.2871
28.284333631303806 39.1495
28.307294198589954 39.0067
28.330435319167677 38.8494
28.353398217078915 38.414
28.376362277420153 38.0703
28.39932750129032 38.0785
28.422473319286713 37.8614
28.44544088262495 37.9988
28.468409612800283 37.5904
28.491379510913497 37.3439
28.51453004413313 37.423
28.53750229057244 37.266
28.56047570826344 37.1571
28.583450298308804 37.2065
28.606605564586562 36.9044
28.629582511831156 37.0818
28.65256063474956 36.9391
28.675539934446338 36.9438
28.698699951647605 36.8961
28.72168161743193 36.7756
28.74466446331978 36.7651
28.767648490417624 36.7412
28.790813276438353 36.7168
28.813799678527303 36.7264
28.836787265157085 36.653
28.859955641890075 36.6304
28.882945610203045 36.6062
28.905936766392035 36.5743
28.928929111566863 36.654
28.952102288520145 36.5225
28.975097024308607 36.4775
28.998092952423807 36.3544
29.021090073977508 36.2221
29.04426806913204 36.2515
29.067267590245258 35.9994
29.090268308143695 35.945
29.11327022394099 35.8796
29.13645305530891 35.7767
29.159457379627167 35.7399
29.18246290519685 35.6257
29.20546963313352 35.5307
29.22865731875826 35.5433
29.25166646419296 35.6468
29.27467681535305 35.3709
29.29768837335608 35.3925
29.320880931312562 35.4695
29.34389491580634 35.4684
29.366910110507334 35.4145
29.38992651653503 35.3901
29.41312396492981 35.4438
29.436142806456754 35.4467
29.45916286268059 35.3271
29.48236399319994 35.2678
29.50538649169417 35.1638
29.528410208259935 35.0809
29.55143514402014 34.8422
29.574641196749695 34.733000000000004
29.597668583816574 34.6217
29.6206971934585 34.4295
29.64372702680042 34.3875
29.666938019934474 34.2751
29.689970313635285 34.1879
29.713003834422636 34.2738
29.73603858342347 34.1557
29.759254535188578 34.0793
29.78229175361658 34.0288
29.80533020365064 34.1527
29.82836988641968 34.1098
29.85159081507472 33.9392
29.874632976355343 33.8404
29.89767637376955 33.9052
29.920721008448314 33.9338
29.9439469322847 33.8581
29.96699405457564 33.783
29.9900424175358 33.7635
30.013092022298157 33.6316
30.03632295963995 33.6543
30.059375061131373 33.6681
30.08242840783577 33.7369
30.105483000888153 33.5325
30.128718970092244 33.5808
30.151776069006917 33.5317
30.17483441768648 33.6478
30.198074175317235 33.6037
30.221135036724256 33.5595
30.24419715131772 33.5659
30.267260520236203 33.5502
30.290505341942243 33.4898
30.313571232750228 33.5763
30.336638381310948 33.5726
30.35970678876503 33.5358
30.38295669299435 33.365
30.40602763151657 33.4252
30.429099832366074 33.4005
30.452173296685572 33.2868
30.47542830191959 33.1478
30.498504306502497 33.2025
30.521581577995562 33.2574
30.544660117543582 33.2691
30.56792024229725 33.3509
30.59100133132069 33.2775
30.614083691845494 33.2696
30.637167325018545 33.3588
30.660432587840603 33.3043
30.683518779717886 33.1951
30.70660624769615 33.3334
30.729694992924372 33.4006
30.75296541239743 33.3599
30.77605672557558 33.2788
30.799149319462742 33.2683
30.8224236211637 33.15
30.845518789950724 33.0452
30.868615242910597 33.0545
30.891712981195973 32.9101
30.91499247215866 32.8081
30.938092794619365 32.8137
30.96119440587579 32.7621
30.984297307082752 32.6028
31.00758200598383 32.4303
31.030687500658694 32.4014
31.053794288760695 32.3178
31.076902371446767 32.2747
31.100192296997445 32.2505
31.12330298246119 32.2337
31.14641496599209 32.1099
31.169528248749216 32.2103
31.19282341969534 32.0531
31.215939314557186 32.0108
31.239056512134788 32.0777
31.262175013589378 31.9138
31.28547544871168 31.8944
31.30859657161541 31.9396
31.331719001892175 31.8903
31.35484274070538 31.9532
31.378148458819545 31.8851
31.401274828443725 31.9152
31.424402510106933 31.9278
31.447712205419993 32.0642
31.470842524931633 31.8715
31.493974159989783 31.853
31.51710711176168 31.8568
31.54042212308802 31.872
31.563557722100917 31.9195
31.586694641341655 31.8439
31.609832881979628 31.663
31.63315322823208 31.6401
31.656294125521327 31.4641
31.679436347728515 31.373
31.70257989602529 31.4072
31.725905596152327 31.3338
31.74905181052835 31.2156
31.772199354521323 31.2945
31.79534822930507 31.2501
31.818679302290967 31.151999999999997
31.84183085259981 31.1813
31.864983737233473 31.1707
31.88813795736804 31.1869
31.911474422233013 31.0971
31.934631327356435 31.2052
31.9577895715215 31.1619
31.980949155906522 31.0892
32.004291031706956 31.0727
32.027453310562606 30.9932
32.05061693318573 30.998
32.07396288236386 30.9541
32.09712920658542 30.8477
32.12029687812702 30.7437
32.14346589817093 30.7307
32.166817291729984 30.6442
32.18998902288583 30.6206
32.21316210610336 30.4873
32.23633654256711 30.5119
32.259693399663725 30.4798
32.282870556771144 30.2399
32.30604907069099 30.3377
32.329228942610065 30.274
32.35259128243769 30.0579
32.375773884550505 29.9542
32.398957848235646 29.9896
32.422143174682176 29.8983
32.445511016471215 29.7778
32.468699082679954 29.8027
32.49188851523011 29.7236
32.51507931531304 29.6822
32.538452678331 29.6356
32.56164622776311 29.5643
32.58484114831493 29.4884
32.60803744118015 29.5365
32.631416344731896 29.5661
32.654615396551876 29.478
32.67781582427913 29.4871
32.701198898634416 29.3516
32.72440209253756 29.3204
32.747606665947124 29.2673
32.77081262006088 29.2415
32.79420126883317 29.1831
32.81740999876112 29.2519
32.840620112999424 29.1465
32.86383161274818 28.982
32.88722585534586 29.011999999999997
32.91044014056596 29.1199
32.933655814909734 28.9691
32.95687287957963 29.0799
32.98027273544904 28.9291
33.00349259526636 28.8271
33.026713849030116 28.941999999999997
33.04993649794511 28.8373
33.073341986570746 28.884
33.09656744032826 28.7789
33.11979429286444 28.8018
33.14302254538647 28.8711
33.166433686291185 28.7679
33.18966475336992 28.683000000000003
33.212897224069096 28.554000000000002
33.23613109959831 28.5254
33.259547912343415 28.6398
33.2827846121627 28.576
33.306022720453775 28.465999999999998
33.32926223842861 28.4157
33.352684742614166 28.5033
33.37592709463173 28.4355
33.399170859982064 28.3654
33.422597648419426 28.3119
33.44584425514446 28.1289
33.46909227885668 28.1199
33.4923417207723 28.0451
33.51577423505344 28.0176
33.539026528130385 27.9551
33.56228024307245 27.8626
33.585535381098246 27.7368
33.60897364093058 27.7876
33.63223163992385 27.7816
33.6554910656699 27.6147
33.678751919389796 27.6488
33.702195944520106 27.590999999999998
33.72545966903325 27.5957
33.74872482519663 27.4872
33.771991414233746 27.4628
33.79544122444841 27.4666
33.81871069412428 27.3374
33.84198160035767 27.346999999999998
33.86525394437455 27.4104
33.88870955949969 27.2662
33.911984794020626 27.2901
33.93526147001624 27.309
33.958539588715006 27.1951
33.98200102861669 27.1049
34.0052820477047 26.9827
34.02856451319451 27.0434
34.05203033759056 26.9684
34.07531571090147 26.9732
34.09860253431845 26.9209
34.121890809074316 26.854
34.145362493118924 26.8181
34.16865368561615 26.7973
34.191946333164054 26.7644
34.21524043699793 26.719
34.23871800066799 26.6823
34.26201503218366 26.5542
34.28531352370466 26.5006
34.30861347646881 26.4618
34.33209693978188 26.4346
34.3553998301885 26.4525
34.378704185565205 26.3734
34.402010007152356 26.3419
34.42549939016683 26.4105
34.44880815937748 26.256999999999998
34.472118398533134 26.2291
34.49543010887669 26.2086
34.51892543169198 26.1429
34.54224009966052 26.0774
34.56555624255917 26.1272
34.58887386163339 25.95
34.61237514439016 25.963
34.6356957311114 25.9305
34.65901779775809 25.8183
34.68252356662995 25.8759
34.705848608458616 25.8532
34.72917513396849 25.8107
34.75250314440949 25.6817
34.77601490857862 25.6484
34.799345904259795 25.5876
34.82267838863559 25.5566
34.846012362958525 25.5575
34.869530142679984 25.5063
34.89286711232212 25.4768
34.91620557568269 25.4968
34.93954553401677 25.4725
34.9630693495876 25.4199
34.986412313340814 25.3872
35.00975677584668 25.4407
35.033102738362956 25.3414
35.05663261012228 25.2772
35.0799815881786 25.2684
35.10333207003229 25.1317
35.12668405694369 25.1034
35.150220005273056 25.11
35.17357501786656 25.1712
35.19693153931268 25.0785
35.220289570874385 25.0525
35.24383161619786 25.0869
35.267192683604904 25.0161
35.290555264930376 24.9961
35.314101899412165 24.9409
35.33746752422433 24.9577
35.36083466676374 24.916
35.38420332829803 24.7654
35.407756095629054 24.8673
35.43112781085063 24.8678
35.45450104888391 24.7845
35.477875810999194 24.726999999999997
35.50143473172161 24.6817
35.52481255774625 24.7353
35.54819191167777 24.7575
35.57157279478914 24.6364
35.595137889488406 24.5876
35.61852184675279 24.5584
35.641907337029984 24.5397
35.665294361595684 24.4538
35.68886565090076 24.4038
35.7122557598848 24.4341
35.73564740699838 24.3888
35.759040593519934 24.3375
35.78261809810353 24.2859
35.80601437933051 24.1714
35.829412203814705 24.2147
35.85281157283719 24.1473
35.876395313415884 24.1405
35.8997977874528 24.0089
35.92320180988546 24.0141
35.946790244133936 24.0281
35.97019737933222 24.0323
35.993606066789866 23.9007
36.01701630779276 23.9071
36.04061101440684 23.8598
36.06402437852291 23.8183
36.08743930005611 23.8061
36.1108557802951 23.7793
36.13445678011326 23.704
36.15787639383515 23.7101
36.18129757014299 23.6518
36.20472031032821 23.6326
36.22832762423364 23.5157
36.25175350829375 23.5477
36.275180960119776 23.4486
36.298609981005924 23.5159
36.32222362992669 23.4576
36.34565580510207 23.4265
36.36908955323448 23.3986
36.39252487562093 23.3481
36.416144880530226 23.2648
36.43958336764275 23.3054
36.463023432914625 23.2282
36.486465077645676 23.1392
36.51009145956204 23.2111
36.53353627947859 23.268
36.55698268276811 23.2565
36.58043067073321 23.046999999999997
36.60406345072071 23.0369
36.62751462435344 23.0108
36.65096738658405 23.0467
36.67460498210655 22.9526
36.69806093788647 23.0045
36.72151848619297 22.9083
36.744977628333636 22.8034
36.76862165890998 22.7912
36.79208400512205 22.7472
36.81554794910557 22.7943
36.83901349217101 22.6691
36.862663978991606 22.614
36.88613273667352 22.5653
36.90960309738324 22.5768
36.933075062434064 22.5824
36.95673202673572 22.4862
36.98020721697122 22.4697
37.003684015502365 22.453000000000003
37.027162423645365 22.3259
37.050825886711465 22.3193
37.07430753063053 22.2917
37.09779078812467 22.372
37.121275660513014 22.268
37.144945643673694 22.2247
37.16843376245278 22.1585
37.19192350009803 22.1988
37.215414857931435 22.1521
37.239091382563885 22.0604
37.262585997426164 22.0756
37.28608223645736 22.0207
37.309763684451696 21.969
37.33326318851098 21.933000000000003
37.356764320726555 21.8789
37.380267082425526 21.872
37.40395510942588 21.8583
37.42746114683234 21.7986
37.45096881771841 21.7059
37.474478123414166 21.778000000000002
37.49817275092816 21.7337
37.52168534303452 21.6985
37.54519957395567 21.5928
37.568715445024665 21.6422
37.592416694607714 21.5794
37.61593586281424 21.6181
37.63945667518264 21.6083
37.66297913304891 21.4752
37.68668702630454 21.4659
37.710212792059274 21.3807
37.733740207334854 21.3139
37.757269273470364 21.3297
37.780983832050374 21.2621
37.80451621684926 21.2678
37.82805025654007 21.2328
37.851585952464795 21.1961
37.8753071980695 21.1177
37.89884622345676 21.1116
37.92238690911902 21.0942
37.94611318753442 20.9816
37.969657210779765 20.9989
37.99320289834801 20.979
38.016750251586465 20.9064
38.04048325513017 20.9756
38.06403395679343 20.8407
38.087586328183946 20.8666
38.11114037065203 20.8166
38.13488012115898 20.8626
38.1584375229181 20.7265
38.181996599821 20.7037
38.205557353221124 20.6839
38.229303872575656 20.625999999999998
38.2528679961576 20.6104
38.27643380031219 20.6502
38.30000128639589 20.5051
38.32375459653193 20.5137
38.34732546371299 20.5184
38.37089801690786 20.517
38.39447225747609 20.4172
38.418232380377425 20.3999
38.441810012983396 20.3097
38.46538933705673 20.332
38.488970353960084 20.3213
38.51273731166058 20.3103
38.536321731567014 20.2234
38.55990784840681 20.1614
38.58367995004091 20.1067
38.60726947812959 20.0944
38.63086070726198 20.1607
38.654453638806274 20.1574
38.678232613930824 20.0152
38.70182896773327 19.9718
38.72542702806741 19.9706
38.7490267963045 19.9551
38.77281266709232 19.8717
38.79641586862214 19.8875
38.8200207821842 19.8386
38.843627409152944 19.8587
38.86742019782782 19.8336
38.891030269149255 19.7453
38.914642058016156 19.7498
38.938255565806124 19.7533
38.96205529464307 19.6605
38.98567225787121 19.6276
39.00929094417078 19.6373
39.03291135492255 19.5938
39.05671804624804 19.5383
39.080341923549106 19.4738
39.103967529460334 19.4731
39.127594865365744 19.4083
39.15140854155791 19.3827
39.17503935514948 19.4548
39.19867190290282 19.3419
39.22249083587951 19.2945
39.24612686969409 19.3029
39.269764641845306 19.3025
39.293404153722804 19.2664
39.317230110864074 19.1647
39.34087311998506 19.1766
39.36451787301696 19.1264
39.388164371352595 19.0724
39.41199737518003 19.076
39.43564738196752 19.0217
39.45929913825317 19.0533
39.48295264543308 19.0155
39.506792718520884 18.9311
39.530449745387216 18.9216
39.55410852735203 18.8544
39.57776906581474 18.9282
39.60161623079 18.8765
39.625280300200025 18.8333
39.64894613032202 18.7364
39.67261372255866 18.8123
39.6964680021016 18.7423
39.72013913657293 18.7417
39.74381203738292 18.682000000000002
39.76748670593756 18.666
39.79134812278169 18.6444
39.81502634488497 18.6156
39.83870633896685 18.5441
39.862388106436654 18.494
39.88625668336918 18.4904
39.90994201572829 18.5012
39.933629125719285 18.4619
39.957503091207826 18.4452
39.9811937746168 18.3844
40.00488623990914 18.3539
40.02858048850006 18.2862
40.05246165409549 18.2832
40.076159487492085 18.2332
40.099859108448875 18.2586
40.123560518384345 18.2164
40.1474489070226 18.1762
40.171153913178564 18.1081
40.194860712584955 18.0756
40.2185693066637 18.0986
40.242464941335314 18.0384
40.26617714307655 18.0913
40.289891143772046 18.0281
40.3136069448471 17.9435
40.33750984859743 17.9038
40.3612292688043 17.9079
40.3849504936829 17.8455
40.40867352466194 17.8353
40.43258372059144 17.8062
40.45631038219906 17.8186
40.48003885420956 17.7246
40.503769138055105 17.7617
40.52768664931955 17.7526
40.55142057531802 17.7281
40.57515631746428 17.6433
40.599079334038514 17.6608
40.62281872700477 17.6038
40.64655994043941 17.6057
40.67030297578061 17.6031
40.69423334835778 17.5321
40.71798004609188 17.4196
40.74172857006355 17.4449
40.76547892171441 17.381
40.7894166736039 17.4089
40.813170699248566 17.3431
40.83692655691388 17.373
40.86068424804498 17.3627
40.884629402612525 17.3052
40.908390779366385 17.2966
40.932153993938 17.2394
40.95591904777605 17.2707
40.979871628443995 17.2408
41.003640379561936 17.1802
41.02741097430883 17.1511
41.05118341413683 17.1154
41.075143444384416 17.082
41.098919593177826 17.0963
41.1226975914255 17.0425
41.14647744058318 16.9992
41.170444943946755 16.9351
41.19422851378379 16.9389
41.218013938914645 16.9309
41.24198706625173 16.8203
41.26577622087193 16.8415
41.289567235177785 16.8353
41.31336011063129 16.7884
41.337340752422875 16.7864
41.361137369129835 16.7357
41.38493585138705 16.7659
41.40873620066004 16.7123
41.43272438060107 16.6862
41.45652848292052 16.6565
41.48033445666918 16.5556
41.50414230331616 16.588
41.528138045159764 16.5145
41.551949656675205 16.4513
41.575763145513235 16.4647
41.59957851314666 16.3924
41.62358184070442 16.4014
41.64740098505737 16.4215
41.6712220126409 16.3349
41.69504492493139 16.3287
41.71905586207357 16.3161
41.74288256296395 16.2847
41.766711153007456 16.2054
41.79054163368412 16.1759
41.814560204340054 16.2282
41.838394485526365 16.243
41.86223066180303 16.1318
41.88625497706819 16.0609
41.910094962812 16.0726
41.93393684811168 16.0918
41.95778063445365 15.9729
41.981812625263366 15.9638
42.00566023303407 15.9855
42.029509746323676 15.9926
42.05336116662236 15.9492
42.077400857069705 15.9341
42.10125611078846 15.977
42.12511327600405 15.9038
42.14897235421036 15.8293
42.173019768448455 15.8408
42.19688269209613 15.79
42.22074753323349 15.7738
42.24461429335818 15.7411
42.268669455600495 15.732000000000001
42.292540073217886 15.6557
42.31641261433284 15.6427
42.34028708044675 15.609000000000002
42.36435001496739 15.6175
42.38822835065557 15.6035
42.41210861586426 15.543
42.4359908120986 15.5781
42.46006154323262 15.4638
42.48394762115317 15.4203
42.507835634632315 15.4855
42.531912233047436 15.4287
42.55580413732265 15.3615
42.579697981698 15.3401
42.60359376768525 15.3176
42.62767820545945 15.2842
42.65157789440821 15.3181
42.67547952952185 15.2282
42.699383112316 15.2708
42.72347541395347 15.1686
42.74738291190531 15.1236
42.771292362102166 15.1569
42.795203766063516 15.1199
42.819303956130405 15.0817
42.843219287476536 15.0664
42.86713657716324 15.067
42.89105582671383 15.0776
42.91516392983864 14.9996
42.939087119032166 15.013
42.963012272677304 14.9397
42.98693939230129 14.8799
43.01105543317513 14.8805
43.034986504731386 14.8561
43.05891954686589 14.8377
43.08285456110972 14.8259
43.10697856448665 14.8005
43.130917542983475 14.7322
43.15485849820081 14.7703
43.17880143167367 14.7261
43.20293342237094 14.6817
43.226880332449 14.6526
43.25082922540554 14.6655
43.27496722682525 14.64
43.29892010567796 14.5881
43.32287497204102 14.5421
43.34683182745632 14.4878
43.370977859791836 14.4715
43.39493871351105 14.4779
43.41890156092628 14.4985
43.44286640358341 14.4705
43.46702049182749 14.3931
43.49098934522816 14.3753
43.51496019852649 14.3864
43.5389330532723 14.3349
43.56309522248204 14.3166
43.58707210044314 14.2758
43.61105098451946 14.2411
43.63503187626491 14.2396
43.659202151562134 14.2226
43.68318707902681 14.1998
43.70717401884041 14.1617
43.731162972560874 14.1775
43.75534137913236 14.097000000000001
43.779334381108384 14.0738
43.803329401683186 14.071
43.82732644241872 14.0531
43.8515130055166 14.0273
43.87551410707659 13.9743
43.89951723350145 14.0099
43.923709934595614 13.9749
43.94771713129917 13.9136
43.97172635758096 13.9277
43.99573761501002 13.8692
44.0199385169922 13.8412
44.04395385732619 13.8548
44.067971233533086 13.81
44.09199064718605 13.8192
44.11619977548961 13.74
44.14022328470671 13.7135
44.16424883610785 13.7132
44.18827643127035 13.6997
44.21249381139513 13.635
44.236525514814076 13.5916
44.26055926674478 13.5876
44.28459506876863 13.6318
44.3088207262813 13.5453
44.33286064928722 13.5682
44.35690262714919 13.5259
44.38094666145278 13.4986
44.4051806219871 13.4965
44.42922879003185 13.4212
44.45327901929361 13.4073
44.477331311362136 13.4216
44.501573600619416 13.3998
44.525630039221795 13.3424
44.54968854541895 13.3277
44.573937102200176 13.3475
44.5979997645541 13.352
44.622064499300315 13.2527
44.64613130803592 13.2595
44.67038823869318 13.2291
44.69445921643748 13.177999999999999
44.718532272981385 13.1119
44.742607409926194 13.1545
44.76687274034801 13.136
44.79095205918753 13.0926
44.81503346325094 13.1008
44.839116954143876 13.0975
44.86339071028742 13.0588
44.88747839599524 13.0253
44.91156817336837 12.9711
44.93566004401666 12.9923
44.959942251908146 12.9266
44.984038330325966 12.9081
45.00813650686762 12.8873
45.03223678314731 12.8689
45.05652746888232 12.8491
45.08063196592069 12.8091
45.104738567558705 12.7968
45.128847275414856 12.8011
45.15314646515866 12.7142
45.17725940679741 12.7494
45.20137445952892 12.7426
45.22568004865265 12.7456
45.24979934496396 12.6633
45.27392075725247 12.6566
45.29804428714431 12.5901
45.322358426247604 12.6095
45.346486212804315 12.6037
45.370616121861914 12.5456
45.39474815505086 12.5415
45.41907087049246 12.4916
45.4432071734666 12.5087
45.46734560548283 12.505
45.49148616817604 12.4707
45.51581748638564 12.4367
45.5399623320197 12.3952
45.56410931325473 12.392000000000001
45.58825843173002 12.3764
45.61259837920865 12.3477
45.636751793816 12.3319
45.66090735060093 12.2546
45.68506505120716 12.2727
45.7094136545275 12.2287
45.73357566449271 12.2226
45.75773982322992 12.1805
45.78190613238733 12.1737
45.806263418194064 12.1423
45.83043404997326 12.1372
45.85460683713677 12.085
45.87897065658495 12.0884
45.90314777634752 12.0348
45.92732705646868 12.054
45.9515084986045 12.0112
45.97588104735473 11.9819
46.00006683541565 11.9923
46.02425479047904 11.9476
46.04844491420549 11.9453
46.0728262191024 11.946
46.09702070211635 11.9359
46.12121735879483 11.911
46.14541619080294 11.8889
46.169806278764455 11.8554
46.194009483459034 11.8469
46.21821486849841 11.786
46.24242243555223 11.7944
46.266821333570014 11.7884
46.29103328674601 11.69
46.31524742696538 11.7114
46.33946375590237 11.6883
46.36387149104216 11.6791
46.38809221957392 11.6525
46.41231514186606 11.6634
46.436540259597464 11.6302
46.460956858999374 11.6024
46.48518638983522 11.5894
46.509418121166966 11.5584
46.533652054678114 11.5035
46.55807754555709 11.5063
46.58231590571962 11.5013
46.60655647313217 11.5008
46.630988654873654 11.4375
46.655233659129024 11.3909
46.67948087571551 11.3989
46.70373030632484 11.3448
46.72817142736393 11.3336
46.752425308428684 11.3541
46.77668140861147 11.3323
46.80093972960865 11.2619
46.82538981736788 11.2282
46.849652602470904 11.2207
46.87391761349769 11.2047
46.8981848521493 11.1952
46.9226439341274 11.1781
46.946915650573224 11.1528
46.97118959976749 11.1205
46.99546578341598 11.1093
47.019933887188216 11.1482
47.04421456235744 11.140999999999998
47.06849747711879 11.0826
47.09278263318286 10.9961
47.11725978640143 11.0227
47.14154944775105 11.0221
47.165841355555656 10.9632
47.1901355115306 10.9294
47.214621741924994 10.9441
47.23892041698887 10.9311
47.26322134538975 10.8758
47.28771440635075 10.8995
47.31201986422527 10.8898
47.33632758061436 10.8272
47.360637557241866 10.7988
47.38513974410611 10.8227
47.40945426407847 10.7969
47.43377104948137 10.7808
47.45809010204344 10.7446
47.48260144275502 10.7283
47.506925052572285 10.69
47.53125093475548 10.6645
47.55557909103813 10.6651
47.58009961361992 10.5731
47.60443234110732 10.5557
47.62876734791564 10.59
47.65310463578333 10.5693
47.6776343683373 10.5484
47.7019762413987 10.5174
47.72632040075572 10.5049
47.75066684815169 10.5044
47.77520581885936 10.4689
47.799556865477655 10.4458
47.823910205386 10.4493
47.84826584033272 10.440999999999999
47.87281407745551 10.3915
47.89717432569297 10.3983
47.92153687423484 10.3832
47.94609208429692 10.3944
47.97045925671401 10.3449
47.99482873471275 10.3109
48.01920052005013 10.2887
48.04376504619224 10.279000000000002
48.068141469543484 10.2636
48.09252020552573 10.2405
48.11690125590099 10.2242
48.1414751266064 10.2321
48.16586082917454 10.1937
48.19024885144316 10.1527
48.2146391951793 10.1641
48.239222439012764 10.1227
48.26361744916137 10.0996
48.28801478610016 10.1223
48.31241445160131 10.0725
48.337007097209366 10.0607
48.36141144338331 10.0412
48.38581812345755 10.0198
48.41022713920929 10.0133
48.434829215320704 9.97673
48.45924292604658 9.9999
48.48365897780325 10.0054
48.50807737237308 9.95246
48.532688907799276 9.93069
48.55711201168574 9.8962
48.581537463754074 9.86609
48.60615611725119 9.87715
48.63058628942721 9.89038
48.65501881516546 9.81528
48.6794536962573 9.783610000000001
48.70408185970339 9.80538
48.72852147531801 9.785169999999999
48.75296345168211 9.74611
48.77740779059232 9.74387
48.80204549302823 9.72747
48.82649458091802 9.71451
48.85094603676547 9.6834
48.87539986237231 9.6794
48.90004713292306 9.63626
48.92450572200832 9.66643
48.94896668628025 9.60253
48.97343002754588 9.56926
48.99808689542115 9.5841
49.02255501470614 9.57355
49.04702551642794 9.53549
49.0714984023988 9.52828
49.096164896893235 9.49653
49.120642575466796 9.47564
49.145122643748394 9.43122
49.16960510355558 9.41433
49.19428125404938 9.41445
49.2187685210852 9.39366
49.243258185121555 9.39831
49.26794160167084 9.38697
49.2924360839405 9.38724
49.31693296869764 9.3374
49.34143225776915 9.31826
49.36612538195438 9.30071
49.39062950396021 9.30373
49.41513603578346 9.26121
49.4396449792564 9.23628
49.46434784069503 9.233039999999999
49.488861631846454 9.22898
49.513377840166804 9.223239999999999
49.537896467493745 9.149289999999999
49.56260909589029 9.10933
49.587132585683285 9.11008
49.611658500018365 9.10908
49.636186840738596 9.090489999999999
49.66090926588511 9.108460000000001
49.685442483902584 9.062669999999999
49.70997813385706 9.04213
49.734516217597076 9.03687
49.75924846937352 9.00738
49.7837914452858 8.98569
49.80833686055187 8.953710000000001
49.83288471702571 8.93384
49.85762682540054 8.98731
49.882179588965734 8.91863
49.9067347993235 8.90705
49.93129245833333 8.88397
49.95604445336378 8.86454
49.98060703442832 8.86928
50.005172069746266 8.84784
50.02993150438364 8.8608
50.05450147301533 8.83699
50.07907390151433 8.79097
50.10364879174981 8.80713
50.12841816587289 8.75677
50.1529980044635 8.73362
50.17758031042124 8.737689999999999
50.20216508562089 8.74727
50.22694442953363 8.69917
50.25153416817468 8.67401
50.27612638170508 8.649569999999999
50.300721072005196 8.62457
50.325510416102105 8.61031
50.350110084975064 8.62045
50.37471223628208 8.60573
50.39931687190919 8.5865
50.424116246675766 8.56697
50.44872587605249 8.51728
50.47333799543065 8.50325
50.49795260670191 8.5207
50.52276204271512 8.528319999999999
50.54738166295838 8.49522
50.57200378079314 8.50141
50.596628398116835 8.43984
50.62144792604559 8.44891
50.646077567609396 8.39374
50.670709714377715 8.40209
50.69553683636198 8.39654
50.72017401885922 8.3411
50.7448137122895 8.36052
50.76945591856022 8.330210000000001
50.79429318636823 8.34884
50.818940443716784 8.31483
50.84359021965163 8.30424
50.868242516085964 8.268189999999999
50.893089960641895 8.22326
50.917747323549435 8.25025
50.94240721271973 8.25019
50.96706963007175 8.15467
50.99192728239342 8.191130000000001
51.01659478166073 8.22282
51.04126481489051 8.176730000000001
51.06593738400761 8.12712
51.090805275207074 8.13743
51.11548294172845 8.13745
51.14016314993547 8.1023
51.164845901758845 8.05747
51.18972406304274 8.06132
51.21441192780656 8.07448
51.23910234200271 8.02935
51.2637953075678 7.980510000000001
51.288683770237945 8.00462
51.31338186432707 7.9809
51.33808251561888 7.932989999999999
51.362978729967345 7.94084
51.387684521509755 7.967210000000001
51.41239287610203 7.9545699999999995
51.437103795691165 7.90738
51.46201036644977 7.886
51.486726441956634 7.845619999999999
51.51144508832545 7.85831
51.536166307509156 7.8425899999999995
51.56108326624387 7.79632
51.58580965706056 7.84868
51.61053862657523 7.7996
51.635270176746864 7.775710000000001
51.66019755512065 7.7575199999999995
51.68493429268881 7.73614
51.70967361681515 7.73764
51.73441552946465 7.69077
51.759353359237934 7.699319999999999
51.7841004750961 7.688
51.80885018539685 7.63845
51.833602492111254 7.642519999999999
51.8585508051424 7.630039999999999
51.883308330926425 7.5876399999999995
51.90806845906181 7.5823100000000005
51.932831191525715 7.56159
51.95779001977161 7.58478
51.98255798721516 7.5307699999999995
52.00732856494335 7.54218
52.03229530577543 7.564019999999999
52.057071130455945 7.516560000000001
52.081849571391054 7.51213
52.106630630568695 7.47783
52.13160794279417 7.4575
52.15639426492067 7.45712
52.18118321127822 7.419810000000001
52.205974783860896 7.388610000000001
52.23096269971011 7.37438
52.255759551287994 7.36607
52.280559035098186 7.324889999999999
52.30536115314103 7.35035
52.33035970494467 7.32557
52.35516711807904 7.315580000000001
52.37997717147198 7.29758
52.40478986713005 7.296139999999999
52.42979908731974 7.24635
52.454617094216 7.26673
52.47943774942214 7.238239999999999
52.50426105495102 7.2131300000000005
52.529280976059844 7.191739999999999
52.554109609024096 7.19257
52.57894089837482 7.17766
52.60377484613117 7.1899
52.62880550079408 7.157039999999999
52.65364479223379 7.13783
52.67848674816189 7.125660000000001
52.70352547971946 7.11405
52.72837279155837 7.0641
52.753222773982785 7.075239999999999
52.778075429022984 7.07143
52.80312495150885 7.0595
52.827982978797436 7.018510000000001
52.85284368481815 7.0143
52.87770707160767 6.95776
52.90276741793998 6.96335
52.92763619336701 6.948580000000001
52.952507655698504 6.94905
52.977381806977576 6.90492
53.00245301017842 6.94958
53.02733256653592 6.9253
53.052214817996074 6.90715
53.077099766608484 6.87027
53.102181859804446 6.88708
53.127072229988265 6.85089
53.15196530349892 6.84565
53.17686108239249 6.8093699999999995
53.20195409881522 6.80249
53.22685531582556 6.80852
53.25175924441303 6.7485100000000005
53.27666588664027 6.79177
53.30176985962693 6.75455
53.3266819565689 6.70317
53.35159677336455 6.7104
53.376514312083096 6.731330000000001
53.40162927507703 6.7462800000000005
53.42655228516116 6.731139999999999
53.45147802340193 6.64277
53.47660125628886 6.6233
53.50153247842639 6.62522
53.52646643496923 6.620310000000001
53.55140312799818 6.620710000000001
53.576537409691696 6.627960000000001
53.60147960336152 6.59905
53.626424539786164 6.607289999999999
53.65137222105307 6.55314
53.67651758529126 6.51816
53.70147078399681 6.51233
53.72642673383343 6.52377
53.75138543689533 6.49791
53.776541917524526 6.49137
53.801506154876755 6.474480000000001
53.826473151763246 6.4688300000000005
53.851442910284916 6.43296
53.87661054126026 6.397930000000001
53.9015858509782 6.37017
53.92656392866066 6.39639
53.95154477641532 6.38994
53.976723591801296 6.3638900000000005
54.00171000771266 6.34969
54.02669920004598 6.32831
54.051691170915745 6.329619999999999
54.076881204886796 6.31581
54.101878760928514 6.2716
54.12687910187696 6.30703
54.152077577768296 6.22728
54.1770835166946 6.2308900000000005
54.20209224691339 6.286969999999999
54.22710377055121 6.20367
54.25231352511594 6.19156
54.27733066384342 6.18243
54.30235060239643 6.19885
54.32737334290836 6.17436
54.35259441062629 6.105659999999999
54.377622783395324 6.11894
54.40265396455061 6.1281300000000005
54.42768795623251 6.05452
54.45292037169559 6.027019999999999
54.477960012857906 6.01201
54.50300247099511 6.04092
54.52804774825457 6.02468
54.55329154616743 5.94102
54.57834249018678 5.92654
54.6033962597977 5.927980000000001
54.6284528571545 5.93547
54.653708072335164 5.94611
54.67877035378786 5.8794
54.70383546947698 5.82562
54.72890342156389 5.83389
54.7541700889442 5.8149
54.77924374251975 5.7919
54.8043202390049 5.760330000000001
54.82959552413022 5.75146
54.8546777351945 5.741569999999999
54.87976279569621 5.68776
54.90485070780914 5.67705
54.930137506558005 5.6422300000000005
54.95523115074295 5.684080000000001
54.98032765308844 5.65731
55.005427015775496 5.5988
55.03072536339621 5.6041
55.05583047570572 5.56645
55.080938454927676 5.55393
55.10604930325027 5.53317
55.131359235107396 5.5098
55.15647585066083 5.49846
55.181595341907496 5.45386
55.20671771104285 5.4478
55.232039262617704 5.4511
55.25716741665048 5.42697
55.28229845518636 5.40751
55.30743238042802 5.32848
55.33276558731939 5.33081
55.357905315183636 5.30032
55.383047936390035 5.21298
55.40819345314859 5.21974
55.433538351073295 5.25517
55.458689688238415 5.23494
55.483843927614096 5.1386400000000005
55.509197623043605 5.13809
55.53435769621134 5.1186
55.55952067826466 5.16033
55.5846865714265 5.08026
55.61005202069737 5.08035
55.63522376553902 5.03306
55.66039842818645 5.02827
55.68557601087004 4.966080000000001
55.7109532500271 4.95613
55.73613670233794 5.00202
