TT I
1.2716486653135266 7.140039999999999
1.2939594142134223 6.88307
1.3162702121660406 6.74891
1.3385810600174564 6.269369999999999
1.3608919586137629 6.51018
1.383202908801069 6.0958
1.405513911425503 5.554209999999999
1.4278249673332093 6.1243300000000005
1.4501343378461518 6.63245
1.4724455028545926 6.28242
1.4947567236847858 6.23358
1.517068001182951 6.15396
1.5393793361953272 5.8107
1.5616907295681737 5.56574
1.5840021821477681 5.62654
1.60631369478041 5.43334
1.6286252683124185 5.81301
1.6509369035901333 5.05202
1.6732468618895553 4.88457
1.695558623192809 4.81245
1.7178704487808514 4.630669999999999
1.7401823395001077 4.54706
1.7625012545597203 5.0109900000000005
1.7848028405262486 5.2151
1.8071218901122095 5.24989
1.8294236121921872 4.6321699999999995
1.8517427996910911 5.0927
1.8740620574440425 4.86335
1.8963639900671978 5.11608
1.9186833908139995 4.67071
1.9409854680117449 4.30969
1.9633050151394713 4.7445
1.9856246367570705 4.61947
2.0079269371922672 4.69985
2.03024671027244 4.39339
2.0525491637446027 4.1170599999999995
2.074869091674931 4.40409
2.097171701569106 4.77948
2.1194917877373847 4.92385
2.141811954326636 4.34478
2.164114805233074 4.98879
2.186435135143035 5.83349
2.208738150935709 11.3002
2.231058647554722 23.1606
2.2533792288321184 18.0773
2.275682498336085 8.81195
2.298003251406138 6.01431
2.3203066942619714 5.76963
2.3426276225136022 5.3897
2.3649486396617507 4.82029
2.387252348930071 5.34272
2.4095735463442893 5.46063
2.4318774374315884 5.45691
2.4541988185014043 5.33315
2.476502894794693 6.30075
2.498824462909887 5.75892
2.521146125856138 6.333480000000001
2.5434504863470337 6.166919999999999
2.5657723414244717 6.5256099999999995
2.588076895590662 7.37563
2.610398946189713 6.63997
2.6327210958598384 7.044560000000001
2.6550259469304716 7.37165
2.6773482972090137 7.60952
2.6996533504259 7.62432
2.7219759047039602 7.4347
2.744298562293959 7.11977
2.7666039251246595 7.3769100000000005
2.7889267918020164 7.49026
2.8112323652516555 8.021289999999999
2.833555444408179 8.117939999999999
2.8558786311183852 7.974530000000001
2.8781845268938557 8.45007
2.9005079311721484 8.805060000000001
2.9228140460410397 8.90809
2.9451376712799635 9.778830000000001
2.967444008632326 9.23954
2.9897678582247247 9.83982
3.0120918213106695 9.9176
3.0343984987899373 11.0186
3.0567226913198637 11.0699
3.079029599759726 11.5657
3.101354025127254 12.0986
3.123678568232338 12.9238
3.145985829517914 13.2665
3.16831061055229 13.262
3.1906181112775593 14.45
3.212943133635653 14.7689
3.2352682779763207 15.3164
3.2575761442691227 15.345
3.2799015350264273 15.7786
3.302209649240067 16.182000000000002
3.3245352898092655 16.9481
3.3468436553365257 17.5883
3.369169549113219 17.988
3.3914955708171384 18.5947
3.413804319727358 18.7323
3.4361305997334863 19.3834
3.4584396084414553 19.7818
3.4807661501462652 20.5667
3.503092824025881 21.1422
3.5254022288463154 20.6171
3.5477291695206588 21.833000000000002
3.5700388426251948 22.45
3.5923660534916446 23.2105
3.6146934007816114 35.9885
3.637003482731501 75.3657
3.6593311053109985 82.9463
3.681641464033634 49.8636
3.7039693653009733 29.7698
3.726297407241705 26.4109
3.7486081875460804 26.2112
3.7709365132734978 26.456
3.793247578841633 26.5398
3.8155761917550093 26.78
3.8378875459837216 27.3085
3.8602164494827234 28.1097
3.882545499606844 28.5374
3.9048572932539183 28.6568
3.9271866390645718 29.2842
3.9494987298666713 29.6315
3.971828374764527 30.4768
3.9941581705403255 31.0684
4.016470713506008 31.6023
4.038800813471445 32.1614
4.061113662089144 32.9617
4.0834440696459176 33.9927
4.105774632334751 34.5128
4.128087945865126 35.1091
4.150418821249301 36.1528
4.172732448931298 37.6881
4.195063640413578 38.8976
4.2173775856475215 42.2627
4.239709096631102 69.8996
4.262040768704612 195.918
4.284355196706267 259.67900000000003
4.306687193387355 168.33599999999998
4.329001947444346 72.9667
4.35133427213731 47.506
4.373666762177566 44.1668
4.395982011761091 45.1864
4.418314834921175 46.3154
4.44063041906622 52.7891
4.4629635787515625 61.6151
4.4852969080429785 61.5832
4.5076130004776225 54.1135
4.529946671403969 51.7518
4.552263106909177 51.5221
4.574597122877047 52.3336
4.596931312711224 53.46
4.619248269273446 54.3189
4.6415828092605835 55.2046
4.663900117405352 56.0782
4.686235010953232 57.3868
4.708552674085913 59.5124
4.730887924602802 60.3046
4.753223354952695 61.5845
4.775541557023902 63.5043
4.797877349456786 65.1355
4.820195915032126 66.8691
4.842532072957498 68.81
4.864868414979744 70.766
4.88718753227192 72.9088
4.909524244902505 74.8078
4.931843734218147 76.5182
4.954180820867835 79.2132
4.976518095879839 82.3692
4.998838149695359 85.9381
5.021175803844231 88.7989
5.043496238205739 92.4338
5.065834274903528 97.0041
5.088172504230693 102.615
5.1104935158799565 109.92299999999999
5.132832132875765 131.78
5.155153533596801 171.731
5.1774925416746225 214.141
5.199814334878411 437.043
5.2221537374521505 1233.46
5.244493338631803 3232.35
5.266815727034316 7627.6
5.289155727832427 11816.8
5.311478517248165 8925.08
5.333818921080011 3172.58
5.356159527788849 648.471
5.3784829252032536 205.226
5.400823940070432 153.55200000000002
5.423147747031976 134.116
5.445489173474152 123.09899999999999
5.467830807066149 117.85700000000001
5.490155234831516 112.851
5.512497285125229 109.131
5.534822130975162 106.76299999999999
5.557164601388673 104.46600000000001
5.579489868738879 101.615
5.601832762690846 100.561
5.6241758697774475 99.8702
5.646501775867269 98.7349
5.668845311622074 97.2926
5.691171647754637 96.1576
5.713515615597765 95.0853
5.735859800852677 94.5268
5.758186788542988 93.3979
5.780531411018185 93.891
5.802858837297399 93.5271
5.825203900414495 94.0584
5.8475491852224 95.0062
5.869877275883075 95.0679
5.892223006467101 95.6201
5.914551544266608 97.2916
5.936897724049891 100.539
5.959244129804903 107.101
5.981573344815301 132.409
6.0039202049061 243.649
6.026249875609095 535.719
6.04859719346037 1103.42
6.070927323278297 2320.25
6.093275102315365 4205.85
6.115623113320588 5188.31
6.137953938319995 3512.69
6.160302415650845 1195.31
6.182633708324452 286.39099999999996
6.2049826554078376 123.426
6.227331838745022 96.8926
6.249663839443684 88.4572
6.27201349767565 85.199
6.294345974611799 88.5867
6.316696111167083 97.4345
6.339046488263839 91.803
6.361379686074702 79.2037
6.383730546639482 72.7822
6.406064229255215 70.0095
6.428415576718203 69.4682
6.450749747566656 68.2448
6.47310158535871 67.4197
6.495453669698332 66.6366
6.517788579421056 65.6658
6.540141159237969 64.8463
6.562476565766648 64.4369
6.5848296444934045 63.9714
6.607182974060425 63.5152
6.6295191323281015 63.593999999999994
6.651872965955752 66.3906
6.6742096296068985 87.4933
6.6965639707294615 124.06
6.71891856698715 123.34100000000001
6.741255995248479 88.0986
6.763611104154477 66.7057
6.785949046381137 61.2139
6.808304671371482 59.2705
6.8306605557940046 58.7829
6.852999275508618 58.4468
6.875355681171544 57.9896
6.897694923437771 57.4841
6.92005185377892 56.9374
6.9423916220322655 56.9666
6.964749080490181 56.3036
6.987106804399774 56.397
7.009447368180821 56.3402
7.031805625367033 56.0175
7.054146723727803 56.2897
7.076505517631004 56.1726
7.098864581288365 56.0875
7.121206488070854 55.6793
7.143566093607822 55.6675
7.165908543567245 55.903999999999996
7.188268694426048 55.8995
7.2106291193438095 56.2937
7.232972390625943 57.342
7.255333366030969 68.1427
7.277677189091925 110.78
7.300038718428332 147.605
7.322400526130865 127.07700000000001
7.344745183422596 83.3259
7.367107550224791 61.2905
7.389452767901992 56.6244
7.411815697249891 55.6062
7.434161478756298 55.0368
7.456524974096713 55.1012
7.478888753837185 54.7003
7.501235387657368 55.2269
7.523599738562711 55.1665
7.545946944825532 55.9421
7.568311870344528 56.2317
7.5906770845765665 56.4203
7.613025156078678 57.5943
7.635390950099687 58.3661
7.657739602662809 57.4193
7.680105979923558 56.3962
7.702472650212829 57.0391
7.724822180948224 57.0782
7.747189439655568 57.0286
7.769539560075357 57.3104
7.791907410653562 57.2203
7.81425812420825 57.2457
7.836626570110925 57.5562
7.858995315087906 58.4553
7.881346924933401 58.3855
7.903716270417482 59.2416
7.926068482028405 59.6851
7.948438431475253 60.0034
7.9708086843180235 60.4237
7.993161805171116 61.4161
8.015532667162402 61.5161
8.037886398416653 62.931000000000004
8.060257873014221 63.6287
8.082629655331942 64.1514
8.104984308787587 64.8071
8.127356708900503 67.7416
8.149711981398308 72.6917
8.172085002766314 74.5055
8.194458336181368 72.1815
8.216814543847752 70.1645
8.23918850371002 70.5586
8.26154533906492 71.485
8.283919928836452 72.8619
8.306277395339652 73.8889
8.328652618483376 75.4748
8.351028159736202 77.3444
8.373386579575245 79.7269
8.395762759396959 81.5841
8.418121819038275 86.4922
8.440498640894003 98.2739
8.462875785192262 112.148
8.485235811156207 129.267
8.507613602688501 183.237
8.529974277114228 283.7
8.552352719347912 434.11300000000006
8.574731488360351 713.2289999999999
8.59709314210385 1212.34
8.619472567021075 1795.14
8.64183487789147 2105.63
8.664214962183097 1847.44
8.686577933647762 1064.55
8.708958680784317 436.82599999999996
8.731339760774953 184.738
8.753703729764451 117.52799999999999
8.77608547780821 102.522
8.798450116065078 98.2028
8.820832535634787 94.42399999999999
8.843215292401656 92.6568
8.865580941199045 91.3438
8.887964374703538 90.3228
8.910330701447199 91.2499
8.932714815164482 92.4869
8.955099270424924 91.1592
8.977466620733543 88.9149
8.999851761421976 86.6069
9.022219798361645 85.3974
9.04460562795561 84.84200000000001
9.066991803441677 84.5745
9.089360876979615 84.2888
9.111747746589993 83.7967
9.13411751544971 83.1222
9.156505082664324 83.2713
9.178875550323522 83.5902
9.20126381862328 83.9534
9.223652438908596 83.803
9.246023961427412 83.9533
9.26841328802173 83.4435
9.290785518039224 83.3386
9.313175554425882 84.3072
9.335565947154315 84.3206
9.357939245086508 84.2718
9.380330352834827 84.5892
9.40270436697103 84.6856
9.425096193225055 84.39399999999999
9.447488380180165 84.9702
9.469863475295412 85.3488
9.492256385987508 85.8091
9.514632206018318 86.3309
9.537025843935714 86.9441
9.559402392368193 87.8594
9.581796761000229 89.0237
9.604191496441521 90.0681
9.626569144158516 93.0217
9.648964615551032 96.7906
9.671343000390081 98.1267
9.693739211225699 96.3486
9.716135793237463 95.0004
9.738515290448102 94.6524
9.760912617143402 95.8817
9.783292860202891 96.9662
9.805690935076182 98.3058
9.828089385495742 99.2916
9.850470754023561 101.51700000000001
9.872869957865444 108.506
9.89525208097539 121.45100000000001
9.917652041736662 131.99
9.940052382417589 134.275
9.962435644102392 148.891
9.984836746950979 195.53099999999998
10.007220771957746 268.279
10.029622640473708 381.68
10.052007432299963 568.377
10.074410069984072 861.7510000000001
10.096813093716005 1262.11
10.119199042482517 1659.72
10.141602840636468 1900.71
10.163989564971628 1648.08
10.186394141051062 995.704
10.208799107559706 454.77099999999996
10.231187001965623 214.792
10.253592751657669 135.901
10.275981430388155 116.565
10.298387966769793 114.53399999999999
10.320794897965431 116.072
10.343184759907361 114.396
10.36559248305461 109.684
10.387983138083852 106.861
10.410391656691655 111.443
10.432800574501677 124.62899999999999
10.455192425893369 142.463
10.47760214443012 170.035
10.499994797678786 216.298
10.522405320453982 295.131
10.54479877906917 399.88
10.567210109595656 497.408
10.5896218454736 547.276
10.612016518879773 503.093
10.634429067781074 372.019
10.656824555333241 220.335
10.679237920773568 132.369
10.701651695961992 99.8315
10.724048411481384 91.3164
10.746463008485165 87.8518
10.768860546937125 86.4576
10.791275969274796 84.6916
10.81369180576079 83.5483
10.836090585366925 82.416
10.858507252467449 80.9179
10.88090686379991 80.2504
10.903324365036394 79.6799
10.925724811614439 79.2723
10.948143150509463 80.1435
10.970561909719066 79.2952
10.992963615930844 77.8222
11.015383218085756 75.8507
11.037785768347074 74.406
11.06020621697282 73.8965
11.082627090322113 73.6422
11.105030913430326 72.77199999999999
11.12745263854165 73.0776
11.149857314510728 75.9232
11.172279894912576 80.5769
11.194702904450653 80.8879
11.217108866490921 77.2128
11.239532736615194 73.7736
11.26193956033512 71.9965
11.284364294577085 70.6901
11.306789462371718 68.8799
11.329197585398376 68.1263
11.351623622610898 68.1079
11.37403261614354 67.1759
11.396459526308487 66.9068
11.418869393879497 66.6304
11.441297180532617 66.1641
11.463725406927658 65.9553
11.486136592353875 65.7903
11.508565700543707 66.0442
11.530977768845315 67.5236
11.553407762368774 68.0092
11.575838200059769 67.6707
11.598251599479612 65.8942
11.620682927815501 64.9462
11.64309721895548 64.4558
11.665529441478206 64.1201
11.687962112597958 63.699
11.710377748130886 63.8827
11.732811318753434 63.4529
11.755227854859067 63.8291
11.777662328529495 63.5736
11.800079768750786 63.4834
11.822515149015453 63.1795
11.844950984084935 63.5916
11.867369787303163 63.4269
11.889806534289491 63.4564
11.912226250487029 63.4937
11.934663912939751 63.731
11.9571020346363 63.7613
11.979523127133968 63.8039
12.001962169624331 64.5576
12.024384183972964 66.2973
12.046824150809913 70.1238
12.069264581333726 75.8744
12.091687985297767 82.2473
12.11412934550045 91.7056
12.136553680195208 107.346
12.158995973632788 129.541
12.181438735204349 155.61
12.20386447284199 179.791
12.226308172985636 200.22400000000002
12.24873485024193 202.73
12.271179492516982 170.59
12.293607112949127 131.295
12.316052700916226 99.2466
12.338498763250042 79.9282
12.360927805303868 70.6817
12.383374818673879 67.2206
12.405804812803074 65.7098
12.428252780773262 65.3216
12.45070122756722 65.2223
12.473132656675375 65.0418
12.49558206341869 65.1475
12.518014453510101 65.4923
12.540464823770117 65.5412
12.562915677315177 65.6872
12.58534951575545 66.3766
12.607801338171472 68.0929
12.630236146511358 72.4735
12.652688941369085 76.0973
12.675124723177234 76.6144
12.697578494048786 73.8014
12.720032754458185 70.2097
12.742470003354093 68.8447
12.764925245138771 68.7568
12.787363476431278 69.2529
12.809819703166806 69.2205
12.83227642391173 70.0433
12.854716135692716 70.6664
12.877173846755147 71.9987
12.899614549869717 71.8827
12.9220732548287 72.8261
12.94453245827299 73.4384
12.966974655289818 74.5863
12.989434858002571 75.2047
13.011878055298721 76.0519
13.034339260862497 77.0742
13.056800969391883 78.4069
13.079245674017244 80.6933
13.101708390774869 83.5511
13.12415410463411 92.1837
13.146617833206086 104.945
13.169064559883248 117.87799999999999
13.191529303857127 133.27100000000002
13.213994557076367 157.159
13.236442809902437 194.74400000000003
13.258909083908291 246.238
13.28135835851934 304.383
13.30382565690295 359.76800000000003
13.326293469022952 407.923
13.348744283242008 416.26
13.371213125129904 367.74
13.39366497011003 277.151
13.416134845360597 185.995
13.438605238843131 131.059
13.46105863690397 111.01700000000001
13.483530069144786 110.195
13.505984506951902 115.99700000000001
13.528456981549432 126.76299999999999
13.550929978879088 142.681
13.573385983253365 167.135
13.595860028340867 203.642
13.618317081455832 250.38099999999997
13.64079217790333 291.942
13.663250283359057 329.384
13.685726434770173 354.842
13.708203115221277 338.645
13.730662806148091 272.155
13.75314054697177 202.327
13.775601299246777 140.69299999999998
13.798080104050406 103.12899999999999
13.820559442405358 87.9034
13.843021793671388 83.37100000000001
13.865502201420897 81.8227
13.887965623051947 80.9209
13.910447103807167 79.7068
13.932929122629764 78.4462
13.955394156785959 77.9202
13.977877254034569 77.08800000000001
14.000343367582113 76.0143
14.022827546871707 75.5069
14.045294743423524 74.4632
14.06778000837062 73.929
14.090265817715476 74.1807
14.112734645763819 73.7588
14.13522154619454 73.3688
14.157691466286913 73.4242
14.180179461423874 73.163
14.202668005486178 72.2508
14.22513957064374 71.9984
14.247629214846473 71.3623
14.270101881097517 71.1159
14.29259262906496 71.5048
14.315083930490205 71.8919
14.337558255389705 72.1179
14.360050666019726 71.8219
14.382526101071944 70.9809
14.405019624534942 70.5894
14.427513705993134 70.1482
14.449990813291825 69.9098
14.47248601302899 69.6929
14.49496423954951 69.8805
14.517460561197822 70.1875
14.539939910570322 70.1191
14.562437357763558 70.375
14.58493536931253 71.2805
14.607416409993311 71.9258
14.62991555254159 72.2464
14.652397725157423 72.4162
14.674898002342799 71.7148
14.697398848433282 71.4762
14.719882725991326 72.3221
14.74238471217934 73.7606
14.764869730765593 77.6099
14.787372860692983 81.4514
14.809876564079925 86.0535
14.83236330125751 92.4951
14.854868153850365 101.573
14.877356041159485 115.447
14.899862046604186 133.907
14.922351087688757 156.306
14.944858249632887 180.88400000000001
14.967365991421232 198.93599999999998
14.989856770231246 213.418
15.012365673994204 212.50599999999997
15.03485761569738 190.985
15.05736768508665 156.444
15.07987833888692 122.09299999999999
15.102372032001655 95.7941
15.124883856909658 79.9217
15.14737872204565 73.8296
15.169891721717274 71.9716
15.192405310371893 71.4923
15.214901940621196 71.8405
15.237416709527137 71.5253
15.259914520936249 71.7047
15.282430473753607 70.811
15.304947020131227 69.7998
15.327446610371178 69.1301
15.349964346154254 68.2746
15.372465126703139 67.8285
15.394984055556009 67.7855
15.417486030076159 67.4774
15.44000615566487 67.0992
15.462526881230803 67.1937
15.485030653812652 67.1798
15.507552581617434 67.1991
15.530057557334603 67.206
15.55258069104857 67.1685
15.575104429329837 67.4175
15.597611216864632 66.876
15.620136166564563 67.1518
15.6426441664095 68.4292
15.665170331202765 71.312
15.687697105158826 74.6294
15.710206930593545 78.3393
15.732734925158933 82.65100000000001
15.755245972089478 89.2134
15.77777519094324 98.8244
15.800287463046663 111.984
15.822817909869592 129.887
15.84534897229804 148.39700000000002
15.867863089299354 167.834
15.890395385222186 180.733
15.912910736597423 187.99900000000002
15.935444269699861 180.275
15.957978423016485 157.993
15.980495633101265 129.09799999999998
16.003031029129367 101.37799999999999
16.02554948280019 80.3377
16.048086125229432 69.7877
16.070623392487107 66.3748
16.09314371869582 65.1988
16.11568223789321 64.249
16.13820381691126 63.185
16.160743591742527 62.144
16.183283996022084 61.3293
16.205807461423195 60.3651
16.228349126881973 59.8322
16.25087385432698 59.7468
16.27341678466365 59.2701
16.29594277784926 59.1399
16.31848697676433 59.4515
16.341031811604868 59.4227
16.36355971058487 59.5777
16.3861058195587 59.4089
16.40863499352978 58.4554
16.431182380342005 57.5768
16.453730407713202 56.9505
16.476261501364792 56.8144
16.498810812136167 56.4783
16.52134319004079 56.4233
16.54389378792203 56.3004
16.566445031001553 56.1067
16.588979342490088 56.0564
16.61153187824822 55.7423
16.634067483263312 55.6722
16.656621315414416 55.4896
16.679175797408888 55.3793
16.701713349928728 55.3837
16.72426913389191 55.5822
16.74680798922351 55.7057
16.76936507887444 55.7209
16.791905240734874 55.6296
16.814463639794468 55.45
16.837022695210294 55.6478
16.859564824093756 56.15
16.882125194503903 56.7417
16.904668639217885 57.1584
16.927230328348003 57.2154
16.949792678493612 57.3916
16.972338104193863 56.8729
16.994901778652235 56.4981
17.017448529496576 56.6666
17.040013531998152 56.9172
17.06257920018044 57.4171
17.0851279459922 58.1522
17.107694947817667 58.9088
17.130245028099072 59.938
17.15281336730298 61.4033
17.17536478578733 63.0486
17.19793446610687 65.4001
17.220504818648422 68.4016
17.243058251703697 71.2127
17.265629950971032 74.961
17.288184731571736 78.0499
17.310757781306908 81.2369
17.33333150794385 82.9931
17.355888317140174 81.977
17.37846339986244 78.6782
17.401021565958885 72.9574
17.42359800851343 67.5945
17.44617513265564 63.7304
17.468735341390783 61.3677
17.491261035594565 60.3109
17.51396340099364 60.0436
17.536490463869136 60.0256
17.559018209820174 60.0306
17.58154663977963 59.9953
17.604251766089718 60.093999999999994
17.626781572227713 60.4867
17.64931206518155 60.7803
17.671843245885103 61.1687
17.69455114821572 61.3098
17.717083712612634 61.6881
17.739616967569667 61.6982
17.762150914021706 62.2387
17.78486160749854 62.2777
17.807396945166804 63.2097
17.829932977143503 64.1342
17.85246970436452 66.0441
17.875183204129467 67.936
17.897721330097664 70.0926
17.920260154126645 72.6082
17.942799677153296 75.9825
17.9655159983646 79.9298
17.988056927677544 85.1288
18.010598558807683 92.9901
18.033140892692916 101.999
18.05586005052525 111.214
18.07840379824407 120.39
18.10094825154059 129.438
18.12366954819864 136.304
18.146215420998306 138.659
18.16876200220057 134.188
18.191309292745153 122.45100000000001
18.214033452627167 108.363
18.236582170236648 96.6324
18.259131600016456 90.4087
18.281681742907335 88.7282
18.304408781233683 91.8317
18.32696035875955 95.7003
18.349512652227624 99.7229
18.372065662579683 103.501
18.394795594587553 104.947
18.41735004715306 103.954
18.43990521943684 98.5805
18.46246111238171 89.6743
18.485193953325208 80.3927
18.507751296070428 72.6354
18.530309362314178 67.6381
18.552868153000343 64.9834
18.57560391815056 63.3219
18.59816416623245 62.8444
18.620725141597372 62.201
18.643286845190268 61.6734
18.666025549835414 61.1816
18.688588718427933 60.695
18.711152618092243 60.6108
18.73389353884365 60.3835
18.75645890921984 60.0071
18.77902501351406 59.6784
18.801591852673102 59.5906
18.824335739722738 59.078
18.846904057212626 58.9578
18.8694731124168 58.6807
18.89204290628315 58.6982
18.914789774966803 58.4296
18.937361054791623 58.185
18.959933076131318 57.9491
18.982505839934877 57.958
19.00525570560582 58.098
19.027829963004184 57.6115
19.05040496572238 57.8389
19.072980714710468 57.86600000000001
19.095733592739563 58.1048
19.11831084296757 58.3215
19.140888842324735 58.9713
19.16346759176222 59.3146
19.18622349753803 59.8329
19.208803755869358 60.6972
19.231384767143577 61.7814
19.253966532312948 63.2236
19.276725481241822 65.3024
19.29930876296784 67.46300000000001
19.3218928014549 69.9671
19.34465404436217 72.5733
19.36723960516257 74.9754
19.389825925592426 75.7475
19.412413006605938 75.6845
19.43517731967805 73.2482
19.457765930683355 69.5672
19.48035530514408 64.8727
19.50294544401556 60.7374
19.525712842708348 57.7169
19.54830451925909 56.1345
19.570896963095727 55.0577
19.593490175174704 54.8195
19.616260674962184 54.7008
19.638855432416964 54.3225
19.661450960992624 54.4414
19.68404726164677 54.3507
19.706820878021247 54.2062
19.729418731756834 54.5543
19.752017360452857 54.0996
19.77461676506804 54.1864
19.797393513540218 54.5185
19.819994478951667 54.891000000000005
19.84259622316767 55.5006
19.8651987471481 55.9381
19.887978643247177 55.9646
19.91058273574792 56.5411
19.933187610901943 57.4651
19.955969879466828 58.5392
19.97857632894404 60.0738
20.00118356396599 61.5368
20.023791585494575 63.3546
20.046577028914875 65.472
20.069186632506966 67.3121
20.091797025500632 68.9928
20.114408208858933 69.7351
20.137196842715273 70.4519
20.159809615886765 69.5617
20.18242318232135 67.2585
20.20503754298326 65.4758
20.227829382875154 64.0071
20.250445341109344 63.5073
20.27306209647285 63.5214
20.29567964993108 64.1768
20.31847471147704 64.7983
20.34109387027612 65.3349
20.363713830075454 65.4608
20.386334591841646 64.791
20.409132890679302 62.6492
20.431755265564437 59.8271
20.454378445325528 56.8653
20.477002430930366 54.778
20.499803982716553 53.2662
20.522429589228004 52.5941
20.54505600449589 51.894
20.567683229489194 51.6042
20.590488049900088 51.2008
20.61311690359731 50.9216
20.63574656993626 50.6239
20.658553853717297 50.4629
20.681185154618298 50.508
20.703817271080066 50.5169
20.72645020407368 49.9953
20.749260783967177 49.7107
20.771895359337133 49.9374
20.794530754161617 49.8383
20.817166969412938 49.6378
20.83998086114876 49.5326
20.86261872660049 49.4483
20.885257415405402 49.5818
20.90789692853701 49.55
20.930714147864748 49.5192
20.953355319030678 49.3526
20.97599731745334 49.4099
20.99864014410749 49.2953
21.021460706796564 49.5809
21.044105199328826 49.7695
21.06675052302631 49.7394
21.089396678865015 49.8683
21.112220600704806 50.2402
21.134868430275347 50.8604
21.15751709492456 50.8775
21.180166595629693 51.141999999999996
21.202993892429635 51.5212
21.22564507473034 51.7151
21.24829709602816 51.8829
21.27112693608965 52.1903
21.293780644891275 52.1953
21.316435195634053 51.4653
21.339090589297417 50.9556
21.361923832041875 50.523999999999994
21.384580921090404 49.7017
21.407238856007325 49.4469
21.429897637773326 49.2366
21.45273429906592 49.1153
21.475394784108598 49.1724
21.498056118951983 49.2051
21.520718304578022 49.3708
21.543558400304388 49.2293
21.566222297108816 49.6497
21.58888704765135 49.7164
21.61155265291521 49.9775
21.63439619898156 50.4598
21.657063523335786 50.7991
21.67973170537063 51.3116
21.7024007460706 51.6651
21.72524775840385 52.5406
21.747918526116475 53.7201
21.770590155457388 54.8907
21.79326264741238 56.497
21.816113141960237 58.2484
21.838787368860547 59.6998
21.861462461341976 61.2646
21.884315579735777 62.7396
21.90699241312273 63.8244
21.92967011506078 64.7077
21.95234868653799 64.6467
21.9752053151131 64.1209
21.997885635446785 62.9486
22.020566828293532 60.8966
22.04324889464272 58.8805
22.066109049404666 57.3538
22.088792872571794 56.6291
22.111477572219204 56.397
22.1341631493376 56.6065
22.157026846313123 56.4642
22.179714188221507 55.9791
22.202402410582668 55.2493
22.22509151438863 53.7455
22.24795876962584 52.3686
22.270649646204486 51.6282
22.293341407213727 50.6706
22.316034053646906 50.1426
22.338904883215342 49.9882
22.36159931041458 49.8384
22.38429462602756 49.7156
22.40699083104897 49.6171
22.429865251039757 49.5684
22.452563244831367 49.5869
22.47526213102522 49.5445
22.49813925616515 49.3664
22.520839937143307 49.2543
22.543541513520587 49.3738
22.56624398629403 49.148
22.589124730075895 49.2507
22.611829005656723 49.527
22.63453418063466 49.3537
22.657240256008077 49.6645
22.680124634582935 49.7333
22.70283252079775 50.0794
22.725541310413075 50.4158
22.74825100442868 50.64
22.771139033969575 51.0081
22.79385054687155 51.3791
22.81656296718292 52.1948
22.83927629590484 52.9592
22.862167992606945 53.8241
22.88488314827121 54.6841
22.907599215359284 55.5861
22.93031619487366 56.3832
22.953211574954405 57.265
22.975930389478226 57.9705
22.998650119445763 58.3427
23.02137076586092 57.723
23.044269845560063 57.2042
23.06699233506288 55.6642
23.089715744034912 54.0489
23.112617610931565 52.2685
23.135342869061212 51.0538
23.158069049684816 50.0641
23.1807961538087 49.4284
23.20370174880544 49.5505
23.226430710184808 49.5995
23.249160598093425 49.6013
23.271891413539002 49.6214
23.294800752937697 49.6632
23.31753343374794 49.9104
23.340267045128353 50.0078
23.36300158808808 50.4053
23.38591468821339 50.6428
23.408651104658304 51.0085
23.431388455719986 51.7927
23.454126742409 52.4383
23.4770436196085 53.336000000000006
23.499783787914662 54.4298
23.522524894889884 55.2978
23.54526694154616 56.1244
23.56818761219047 57.0126
23.59093154860734 57.4331
23.613676427751283 57.9546
23.636422250635754 57.6513
23.659346731118656 56.4358
23.68209445191868 54.8582
23.704843119509587 52.8434
23.72759273490623 50.9083
23.750521041644767 49.346000000000004
23.77327256312355 48.168
23.796025035462787 47.5023
23.818956224555475 46.8711
23.841710609113413 46.8071
23.86446594758979 46.3846
23.887222241002014 46.199
23.910157285144578 45.8427
23.932915498962537 45.9734
23.955674670778713 45.7556
23.978434801611975 45.7194
24.001373717286125 45.4718
24.024135776723917 45.4243
24.046898798245582 45.3027
24.06966278287146 45.1249
24.092605586582614 44.8001
24.115371508023642 44.702
24.1381383956401 44.5737
24.16090625045381 44.6347
24.183852958731244 44.6067
24.206622758582608 44.4023
24.229393528706886 44.3102
24.252165270127392 44.2897
24.27511589952438 44.177
24.297889594216997 44.1206
24.32066426328598 43.8373
24.34343990775613 43.9985
24.36639447485003 43.7652
24.38917208083877 43.8824
24.41195066531332 43.7437
24.43490819850244 43.8358
24.457688750692377 43.6301
24.48047028445616 43.736000000000004
24.503252800821233 43.6434
24.526214300784112 43.8057
24.548998793132213 43.76
24.57178427117417 43.4979
24.59457073593893 43.5462
24.617536219319863 43.4503
24.64032466834748 43.6188
24.663114107195035 43.497
24.685904536893013 43.2821
24.708874020360852 43.1844
24.731666442613744 43.2873
24.754459858818787 43.1505
24.777254270007962 42.9233
24.80022777025625 43.0003
24.82302418230472 42.8461
24.845821592443674 42.8913
24.86862000170663 42.7055
24.891597535453727 42.7475
24.914397953892728 43.0525
24.93719937456671 42.8977
24.96000179851076 42.9972
24.98298338249997 43.2415
25.00578782394922 43.4428
25.028593271784167 43.5363
25.05157790644186 43.7859
25.07438537804115 44.0282
25.097193859145293 44.2327
25.120003350792075 44.5085
25.142992065061257 44.7125
25.165803588823465 44.7838
25.18861612625217 45.3419
25.211429678386736 45.2314
25.234422489079968 45.354
25.257238081693636 45.4546
25.280054692141732 45.545
25.3028723214652 45.4614
25.325869245420463 45.4462
25.348688923599397 45.2684
25.371509623787006 45.342
25.394331347025812 45.0672
25.41733240110666 44.8492
25.440156181590016 44.309
25.46298098826268 43.8606
25.48580682216873 43.3605
25.50881202326435 42.6257
25.53163992281684 42.2032
25.55446885274561 41.9729
25.577298814096377 41.5058
25.600308179121807 41.5056
25.623140214533745 41.4589
25.64597328451537 41.3338
25.66898578564376 41.093999999999994
25.691820936010206 41.2092
25.714657124097695 41.2255
25.737494350954734 41.1026
25.760511045684957 41.0131
25.783350361364224 41.1468
25.806190718969255 41.1847
25.82903211955018 41.3056
25.852053024868923 41.4067
25.874896522722523 41.2145
25.897741066713106 41.1942
25.920586657892454 41.4763
25.943611790812668 41.54600000000001
25.966459487728237 41.6218
25.989308234998564 41.4728
26.01215803367705 41.8341
26.03518741123814 41.9976
26.05803932412957 42.278999999999996
26.080892291600094 42.06399999999999
26.10374631470478 42.184
26.12677995397268 42.2971
26.14963609978026 42.3955
26.172493304397875 42.035
26.19535156888223 41.9185
26.218389486949604 41.5441
26.241249882640123 41.2374
26.26411134137826 41.0282
26.28715248187403 40.9943
26.31001607820869 40.7123
26.3328807407756 40.5558
26.35574647063438 40.6644
26.37879191991473 40.7386
26.401659795896734 40.7872
26.424528742360263 40.8284
26.447398760366614 41.0454
26.470448535598294 41.245
26.49332070826805 41.4739
26.516193955675355 41.6523
26.53906827888316 41.7849
26.562122397260108 41.9344
26.584998883685063 42.2934
26.607876449110325 42.3922
26.63075509460056 42.5322
26.65381357334404 42.6356
26.67669439061878 42.7376
26.699576291163382 42.6674
26.722459276044212 42.528999999999996
26.745522132402975 42.2888
26.768407297649354 42.2645
26.791293550442003 41.8438
26.814180891848974 41.5568
26.837248143099337 41.1057
26.860137673466657 41.0216
26.88302829566349 40.726
26.90592001075963 40.7085
26.92899167420566 40.5384
26.951885586870763 39.9566
26.974780595655517 39.8901
26.99785558178161 39.7524
27.020752794605112 39.5633
27.043651106772522 39.4544
27.06655051935668 39.4181
27.089629948036183 39.3217
27.112531573292053 39.2689
27.135434302194138 39.3823
27.158338135817015 39.1526
27.181422024430987 39.1834
27.204328079372566 39.0967
27.22723524226965 39.104
27.250143514198573 39.0782
27.273231880156334 39.1311
27.296142382065014 38.9503
27.319053996245536 38.8535
27.341966723775965 39.0262
27.365059584515222 39.1927
27.38797455070062 39.1746
27.410890633481237 39.0006
27.433807833936918 38.991
27.456905206923906 39.1173
27.47982465472398 39.0702
27.502745223449743 39.0453
27.525666914182825 39.278
27.548768816912457 39.1768
27.571692763693633 39.2047
27.59461783573812 39.0036
27.617723149491244 38.9288
27.640650484125285 38.7275
27.66357894728264 38.8201
27.686508540048052 38.8536
27.709618414237887 38.664
27.732550278321757 38.4898
27.755483275279115 38.4695
27.778417406196485 38.4527
27.801531858397514 38.6233
27.824468269376716 38.4464
27.847405817586786 38.3597
27.870344504116094 38.6144
27.893463551932008 38.7311
27.916404527281053 38.9195
27.93934664422563 39.0311
27.962289903855886 38.9515
27.98541356491974 39.1116
28.00835912214229 39.2628
28.03130582533231 39.5285
28.054253675581805 39.4539
28.077381967556104 39.5197
28.100332124185126 39.5026
28.123283431160893 39.4549
28.146235889577238 39.3148
28.169368830154156 39.3517
28.192323603752033 39.0587
28.215279532083304 38.8051
28.238415973016764 38.448
28.261374223145094 38.503
28.284333631303806 38.3166
28.307294198589954 38.1195
28.330435319167677 37.6272
28.353398217078915 37.5284
28.376362277420153 37.3797
28.39932750129032 37.1898
28.422473319286713 36.9998
28.44544088262495 36.883
28.468409612800283 36.7456
28.491379510913497 36.5758
28.51453004413313 36.5503
28.53750229057244 36.4307
28.56047570826344 36.4786
28.583450298308804 36.4526
28.606605564586562 36.3433
28.629582511831156 36.2952
28.65256063474956 36.1823
28.675539934446338 36.1651
28.698699951647605 36.1196
28.72168161743193 35.9691
28.74466446331978 36.1336
28.767648490417624 36.0098
28.790813276438353 36.0361
28.813799678527303 35.917
28.836787265157085 35.9307
28.859955641890075 36.0357
28.882945610203045 35.928000000000004
28.905936766392035 35.8727
28.928929111566863 35.8535
28.952102288520145 35.7872
28.975097024308607 35.7246
28.998092952423807 35.6001
29.021090073977508 35.4798
29.04426806913204 35.4478
29.067267590245258 35.3813
29.090268308143695 35.138000000000005
29.11327022394099 35.1341
29.13645305530891 35.0663
29.159457379627167 34.9634
29.18246290519685 34.8567
29.20546963313352 34.939
29.22865731875826 34.8299
29.25166646419296 34.8963
29.27467681535305 34.8321
29.29768837335608 34.8853
29.320880931312562 34.8079
29.34389491580634 34.7586
29.366910110507334 34.6642
29.38992651653503 34.653
29.41312396492981 34.7437
29.436142806456754 34.6278
29.45916286268059 34.5073
29.48236399319994 34.5228
29.50538649169417 34.4208
29.528410208259935 34.3049
29.55143514402014 33.9983
29.574641196749695 33.9352
29.597668583816574 33.8005
29.6206971934585 33.6417
29.64372702680042 33.7244
29.666938019934474 33.6791
29.689970313635285 33.6039
29.713003834422636 33.485
29.73603858342347 33.4524
29.759254535188578 33.3549
29.78229175361658 33.3871
29.80533020365064 33.4883
29.82836988641968 33.4215
29.85159081507472 33.2995
29.874632976355343 33.2087
29.89767637376955 33.2472
29.920721008448314 33.1125
29.9439469322847 33.146
29.96699405457564 33.1285
29.9900424175358 33.0702
30.013092022298157 33.0448
30.03632295963995 32.9352
30.059375061131373 32.9035
30.08242840783577 33.0605
30.105483000888153 32.9505
30.128718970092244 32.8893
30.151776069006917 32.936
30.17483441768648 32.9571
30.198074175317235 32.8555
30.221135036724256 32.8774
30.24419715131772 32.9308
30.267260520236203 32.8496
30.290505341942243 32.7885
30.313571232750228 32.8796
30.336638381310948 32.9004
30.35970678876503 32.8414
30.38295669299435 32.7204
30.40602763151657 32.6947
30.429099832366074 32.6101
30.452173296685572 32.6089
30.47542830191959 32.5887
30.498504306502497 32.5035
30.521581577995562 32.6201
30.544660117543582 32.5936
30.56792024229725 32.7124
30.59100133132069 32.6066
30.614083691845494 32.5844
30.637167325018545 32.5636
30.660432587840603 32.6621
30.683518779717886 32.6826
30.70660624769615 32.7027
30.729694992924372 32.6521
30.75296541239743 32.6961
30.77605672557558 32.6826
30.799149319462742 32.6058
30.8224236211637 32.5024
30.845518789950724 32.309
30.868615242910597 32.3443
30.891712981195973 32.2002
30.91499247215866 32.1502
30.938092794619365 31.9934
30.96119440587579 31.9093
30.984297307082752 31.9595
31.00758200598383 31.7692
31.030687500658694 31.7061
31.053794288760695 31.7446
31.076902371446767 31.5646
31.100192296997445 31.6075
31.12330298246119 31.5797
31.14641496599209 31.441
31.169528248749216 31.4657
31.19282341969534 31.4168
31.215939314557186 31.4476
31.239056512134788 31.4971
31.262175013589378 31.4467
31.28547544871168 31.3758
31.30859657161541 31.2879
31.331719001892175 31.2896
31.35484274070538 31.482
31.378148458819545 31.5519
31.401274828443725 31.3871
31.424402510106933 31.2972
31.447712205419993 31.4537
31.470842524931633 31.2654
31.493974159989783 31.2477
31.51710711176168 31.2258
31.54042212308802 31.2902
31.563557722100917 31.2257
31.586694641341655 31.1622
31.609832881979628 30.9892
31.63315322823208 30.8898
31.656294125521327 30.8389
31.679436347728515 30.7271
31.70257989602529 30.6523
31.725905596152327 30.7037
31.74905181052835 30.6055
31.772199354521323 30.6382
31.79534822930507 30.6727
31.818679302290967 30.5816
31.84183085259981 30.5579
31.864983737233473 30.575
31.88813795736804 30.61
31.911474422233013 30.4676
31.934631327356435 30.511999999999997
31.9577895715215 30.4776
31.980949155906522 30.4685
32.004291031706956 30.4939
32.027453310562606 30.3002
32.05061693318573 30.3391
32.07396288236386 30.2548
32.09712920658542 30.1511
32.12029687812702 30.0202
32.14346589817093 29.9639
32.166817291729984 29.9636
32.18998902288583 29.866999999999997
32.21316210610336 29.8223
32.23633654256711 29.6843
32.259693399663725 29.6488
32.282870556771144 29.5918
32.30604907069099 29.6334
32.329228942610065 29.6176
32.35259128243769 29.4543
32.375773884550505 29.4607
32.398957848235646 29.3264
32.422143174682176 29.2691
32.445511016471215 29.2057
32.468699082679954 29.1278
32.49188851523011 29.1331
32.51507931531304 29.028000000000002
32.538452678331 29.0361
32.56164622776311 28.9742
32.58484114831493 28.9729
32.60803744118015 28.9121
32.631416344731896 28.9347
32.654615396551876 28.9311
32.67781582427913 28.854
32.701198898634416 28.8006
32.72440209253756 28.7409
32.747606665947124 28.6784
32.77081262006088 28.6385
32.79420126883317 28.5611
32.81740999876112 28.5858
32.840620112999424 28.5052
32.86383161274818 28.4541
32.88722585534586 28.5016
32.91044014056596 28.4923
32.933655814909734 28.4174
32.95687287957963 28.4811
32.98027273544904 28.36
33.00349259526636 28.2973
33.026713849030116 28.3061
33.04993649794511 28.3236
33.073341986570746 28.2358
33.09656744032826 28.1837
33.11979429286444 28.2764
33.14302254538647 28.16
33.166433686291185 28.1671
33.18966475336992 28.1751
33.212897224069096 28.0088
33.23613109959831 28.0633
33.259547912343415 27.8979
33.2827846121627 27.8858
33.306022720453775 27.9088
33.32926223842861 27.8518
33.352684742614166 27.8828
33.37592709463173 27.8159
33.399170859982064 27.7686
33.422597648419426 27.6323
33.44584425514446 27.6309
33.46909227885668 27.6012
33.4923417207723 27.4691
33.51577423505344 27.4564
33.539026528130385 27.3104
33.56228024307245 27.305
33.585535381098246 27.218000000000004
33.60897364093058 27.1816
33.63223163992385 27.1934
33.6554910656699 27.1152
33.678751919389796 27.1169
33.702195944520106 27.0351
33.72545966903325 27.1593
33.74872482519663 26.9162
33.771991414233746 26.9074
33.79544122444841 26.8354
33.81871069412428 26.7492
33.84198160035767 26.7324
33.86525394437455 26.7539
33.88870955949969 26.6834
33.911984794020626 26.7802
33.93526147001624 26.6799
33.958539588715006 26.5578
33.98200102861669 26.4903
34.0052820477047 26.4085
34.02856451319451 26.4475
34.05203033759056 26.4299
34.07531571090147 26.4174
34.09860253431845 26.3514
34.121890809074316 26.3468
34.145362493118924 26.3333
34.16865368561615 26.2076
34.191946333164054 26.2136
34.21524043699793 26.1775
34.23871800066799 26.1242
34.26201503218366 26.0435
34.28531352370466 25.9743
34.30861347646881 25.9562
34.33209693978188 25.8548
34.3553998301885 25.953000000000003
34.378704185565205 25.8609
34.402010007152356 25.8005
34.42549939016683 25.8005
34.44880815937748 25.6908
34.472118398533134 25.6059
34.49543010887669 25.6221
34.51892543169198 25.5187
34.54224009966052 25.5848
34.56555624255917 25.5071
34.58887386163339 25.4401
34.61237514439016 25.3992
34.6356957311114 25.3428
34.65901779775809 25.3254
34.68252356662995 25.3204
34.705848608458616 25.2448
34.72917513396849 25.1846
34.75250314440949 25.1425
34.77601490857862 25.144000000000002
34.799345904259795 25.0464
34.82267838863559 25.109
34.846012362958525 25.0409
34.869530142679984 25.0564
34.89286711232212 24.9607
34.91620557568269 24.9335
34.93954553401677 24.9721
34.9630693495876 24.8353
34.986412313340814 24.8935
35.00975677584668 24.8749
35.033102738362956 24.8433
35.05663261012228 24.7136
35.0799815881786 24.7073
35.10333207003229 24.6045
35.12668405694369 24.6641
35.150220005273056 24.6597
35.17357501786656 24.6909
35.19693153931268 24.5889
35.220289570874385 24.5353
35.24383161619786 24.5489
35.267192683604904 24.4553
35.290555264930376 24.4791
35.314101899412165 24.4818
35.33746752422433 24.3958
35.36083466676374 24.4059
35.38420332829803 24.2966
35.407756095629054 24.3206
35.43112781085063 24.3198
35.45450104888391 24.3269
35.477875810999194 24.274
35.50143473172161 24.2155
35.52481255774625 24.2019
35.54819191167777 24.1383
35.57157279478914 24.1518
35.595137889488406 24.1194
35.61852184675279 24.0947
35.641907337029984 24.0241
35.665294361595684 23.9337
35.68886565090076 23.8969
35.7122557598848 23.9004
35.73564740699838 23.8819
35.759040593519934 23.8095
35.78261809810353 23.7447
35.80601437933051 23.7091
35.829412203814705 23.7241
35.85281157283719 23.6491
35.876395313415884 23.6252
35.8997977874528 23.5456
35.92320180988546 23.5888
35.946790244133936 23.4398
35.97019737933222 23.4855
35.993606066789866 23.4631
36.01701630779276 23.4341
36.04061101440684 23.3303
36.06402437852291 23.4536
36.08743930005611 23.3823
36.1108557802951 23.2225
36.13445678011326 23.2472
36.15787639383515 23.1803
36.18129757014299 23.2089
36.20472031032821 23.1808
36.22832762423364 23.0426
36.25175350829375 23.0531
36.275180960119776 22.9673
36.298609981005924 23.0325
36.32222362992669 23.0046
36.34565580510207 22.9337
36.36908955323448 22.9368
36.39252487562093 22.8143
36.416144880530226 22.8479
36.43958336764275 22.7686
36.463023432914625 22.8451
36.486465077645676 22.6334
36.51009145956204 22.7642
36.53353627947859 22.6939
36.55698268276811 22.7525
36.58043067073321 22.5833
36.60406345072071 22.4903
36.62751462435344 22.5893
36.65096738658405 22.5195
36.67460498210655 22.49
36.69806093788647 22.4157
36.72151848619297 22.4357
36.744977628333636 22.3714
36.76862165890998 22.2699
36.79208400512205 22.3338
36.81554794910557 22.2619
36.83901349217101 22.2333
36.862663978991606 22.1231
36.88613273667352 22.1676
36.90960309738324 22.1281
36.933075062434064 22.0892
36.95673202673572 22.0798
36.98020721697122 22.0082
37.003684015502365 21.9807
37.027162423645365 21.9201
37.050825886711465 21.9322
37.07430753063053 21.8469
37.09779078812467 21.8391
37.121275660513014 21.8155
37.144945643673694 21.8184
37.16843376245278 21.7046
37.19192350009803 21.7296
37.215414857931435 21.6586
37.239091382563885 21.601999999999997
37.262585997426164 21.5622
37.28608223645736 21.5757
37.309763684451696 21.5217
37.33326318851098 21.5134
37.356764320726555 21.4496
37.380267082425526 21.4823
37.40395510942588 21.4001
37.42746114683234 21.3827
37.45096881771841 21.3379
37.474478123414166 21.3278
37.49817275092816 21.2847
37.52168534303452 21.214000000000002
37.54519957395567 21.1639
37.568715445024665 21.1102
37.592416694607714 21.1043
37.61593586281424 21.165
37.63945667518264 21.1413
37.66297913304891 21.0799
37.68668702630454 20.980999999999998
37.710212792059274 20.9062
37.733740207334854 20.9269
37.757269273470364 20.9149
37.780983832050374 20.8581
37.80451621684926 20.8747
37.82805025654007 20.8039
37.851585952464795 20.7452
37.8753071980695 20.6782
37.89884622345676 20.6214
37.92238690911902 20.583000000000002
37.94611318753442 20.5576
37.969657210779765 20.5708
37.99320289834801 20.5931
38.016750251586465 20.5186
38.04048325513017 20.467
38.06403395679343 20.4559
38.087586328183946 20.4615
38.11114037065203 20.4549
38.13488012115898 20.416
38.1584375229181 20.28
38.181996599821 20.1958
38.205557353221124 20.1894
38.229303872575656 20.2656
38.2528679961576 20.253
38.27643380031219 20.1734
38.30000128639589 20.1245
38.32375459653193 20.0927
38.34732546371299 20.1004
38.37089801690786 20.0413
38.39447225747609 20.0082
38.418232380377425 19.9864
38.441810012983396 19.9762
38.46538933705673 19.8936
38.488970353960084 19.8935
38.51273731166058 19.8625
38.536321731567014 19.7832
38.55990784840681 19.7998
38.58367995004091 19.7061
38.60726947812959 19.62
38.63086070726198 19.6971
38.654453638806274 19.6664
38.678232613930824 19.6506
38.70182896773327 19.5639
38.72542702806741 19.5331
38.7490267963045 19.5114
38.77281266709232 19.4287
38.79641586862214 19.4683
38.8200207821842 19.4014
38.843627409152944 19.3267
38.86742019782782 19.3871
38.891030269149255 19.3494
38.914642058016156 19.3076
38.938255565806124 19.3034
38.96205529464307 19.2534
38.98567225787121 19.2234
39.00929094417078 19.2018
39.03291135492255 19.1232
39.05671804624804 19.121
39.080341923549106 19.0743
39.103967529460334 19.0736
39.127594865365744 19.0049
39.15140854155791 18.9929
39.17503935514948 18.9659
39.19867190290282 18.9313
39.22249083587951 18.9052
39.24612686969409 18.8701
39.269764641845306 18.8772
39.293404153722804 18.9405
39.317230110864074 18.804000000000002
39.34087311998506 18.7458
39.36451787301696 18.7517
39.388164371352595 18.7008
39.41199737518003 18.6595
39.43564738196752 18.6267
39.45929913825317 18.5685
39.48295264543308 18.5702
39.506792718520884 18.5287
39.530449745387216 18.4988
39.55410852735203 18.4874
39.57776906581474 18.4445
39.60161623079 18.4807
39.625280300200025 18.4255
39.64894613032202 18.345
39.67261372255866 18.3183
39.6964680021016 18.386
39.72013913657293 18.391
39.74381203738292 18.327
39.76748670593756 18.2123
39.79134812278169 18.2078
39.81502634488497 18.1638
39.83870633896685 18.1161
39.862388106436654 18.1321
39.88625668336918 18.1304
39.90994201572829 18.1243
39.933629125719285 18.0984
39.957503091207826 17.9611
39.9811937746168 17.987000000000002
40.00488623990914 17.9631
40.02858048850006 17.9275
40.05246165409549 17.8936
40.076159487492085 17.8339
40.099859108448875 17.8846
40.123560518384345 17.8102
40.1474489070226 17.7561
40.171153913178564 17.7498
40.194860712584955 17.7556
40.2185693066637 17.643
40.242464941335314 17.6659
40.26617714307655 17.6652
40.289891143772046 17.6245
40.3136069448471 17.6415
40.33750984859743 17.5773
40.3612292688043 17.5075
40.3849504936829 17.4712
40.40867352466194 17.5399
40.43258372059144 17.4954
40.45631038219906 17.4831
40.48003885420956 17.3909
40.503769138055105 17.3727
40.52768664931955 17.3531
40.55142057531802 17.3438
40.57515631746428 17.3382
40.599079334038514 17.2815
40.62281872700477 17.2082
40.64655994043941 17.2182
40.67030297578061 17.1539
40.69423334835778 17.1662
40.71798004609188 17.1259
40.74172857006355 17.0997
40.76547892171441 17.0821
40.7894166736039 17.0004
40.813170699248566 17.002
40.83692655691388 16.9911
40.86068424804498 16.9805
40.884629402612525 16.9486
40.908390779366385 16.8862
40.932153993938 16.8861
40.95591904777605 16.88
40.979871628443995 16.8618
41.003640379561936 16.8034
41.02741097430883 16.8166
41.05118341413683 16.8115
41.075143444384416 16.7418
41.098919593177826 16.6975
41.1226975914255 16.6668
41.14647744058318 16.6368
41.170444943946755 16.5914
41.19422851378379 16.5874
41.218013938914645 16.5662
41.24198706625173 16.4921
41.26577622087193 16.4951
41.289567235177785 16.4921
41.31336011063129 16.4164
41.337340752422875 16.419
41.361137369129835 16.4196
41.38493585138705 16.4014
41.40873620066004 16.2997
41.43272438060107 16.3619
41.45652848292052 16.3046
41.48033445666918 16.2249
41.50414230331616 16.2447
41.528138045159764 16.1884
41.551949656675205 16.1176
41.575763145513235 16.1271
41.59957851314666 16.0503
41.62358184070442 16.0715
41.64740098505737 16.0864
41.6712220126409 16.0289
41.69504492493139 15.9612
41.71905586207357 15.962
41.74288256296395 15.970999999999998
41.766711153007456 15.923
41.79054163368412 15.8464
41.814560204340054 15.9034
41.838394485526365 15.8498
41.86223066180303 15.7991
41.88625497706819 15.7856
41.910094962812 15.7635
41.93393684811168 15.7226
41.95778063445365 15.6952
41.981812625263366 15.6531
42.00566023303407 15.6174
42.029509746323676 15.5852
42.05336116662236 15.5975
42.077400857069705 15.5409
42.10125611078846 15.5314
42.12511327600405 15.5477
42.14897235421036 15.4676
42.173019768448455 15.4866
42.19688269209613 15.4278
42.22074753323349 15.3709
42.24461429335818 15.3646
42.268669455600495 15.4214
42.292540073217886 15.3278
42.31641261433284 15.3089
42.34028708044675 15.2964
42.36435001496739 15.2974
42.38822835065557 15.2508
42.41210861586426 15.2077
42.4359908120986 15.2104
42.46006154323262 15.1623
42.48394762115317 15.1292
42.507835634632315 15.1349
42.531912233047436 15.1047
42.55580413732265 15.0581
42.579697981698 15.0102
42.60359376768525 15.0715
42.62767820545945 14.9971
42.65157789440821 15.011
42.67547952952185 14.9297
42.699383112316 14.8601
42.72347541395347 14.8101
42.74738291190531 14.8068
42.771292362102166 14.8407
42.795203766063516 14.8078
42.819303956130405 14.7683
42.843219287476536 14.7628
42.86713657716324 14.7142
42.89105582671383 14.7119
42.91516392983864 14.6872
42.939087119032166 14.6637
42.963012272677304 14.6216
42.98693939230129 14.6269
43.01105543317513 14.5494
43.034986504731386 14.5058
43.05891954686589 14.6033
43.08285456110972 14.5098
43.10697856448665 14.4733
43.130917542983475 14.3752
43.15485849820081 14.4121
43.17880143167367 14.3605
43.20293342237094 14.3855
43.226880332449 14.3451
43.25082922540554 14.3002
43.27496722682525 14.3144
43.29892010567796 14.2922
43.32287497204102 14.2405
43.34683182745632 14.2072
43.370977859791836 14.1768
43.39493871351105 14.1778
43.41890156092628 14.1975
43.44286640358341 14.1037
43.46702049182749 14.1043
43.49098934522816 14.0633
43.51496019852649 14.0054
43.5389330532723 14.0026
43.56309522248204 13.9855
43.58707210044314 14.027999999999999
43.61105098451946 13.9297
43.63503187626491 13.9607
43.659202151562134 13.9087
43.68318707902681 13.9054
43.70717401884041 13.8554
43.731162972560874 13.7952
43.75534137913236 13.8075
43.779334381108384 13.8271
43.803329401683186 13.7847
43.82732644241872 13.7751
43.8515130055166 13.7577
43.87551410707659 13.6955
43.89951723350145 13.667
43.923709934595614 13.6778
43.94771713129917 13.6445
43.97172635758096 13.582
43.99573761501002 13.5863
44.0199385169922 13.5641
44.04395385732619 13.5585
44.067971233533086 13.5107
44.09199064718605 13.4761
44.11619977548961 13.467
44.14022328470671 13.4728
44.16424883610785 13.4456
44.18827643127035 13.4056
44.21249381139513 13.3945
44.236525514814076 13.3351
44.26055926674478 13.3417
44.28459506876863 13.2884
44.3088207262813 13.2696
44.33286064928722 13.284
44.35690262714919 13.2669
44.38094666145278 13.1755
44.4051806219871 13.2024
44.42922879003185 13.2217
44.45327901929361 13.1397
44.477331311362136 13.1159
44.501573600619416 13.0956
44.525630039221795 13.0261
44.54968854541895 13.015999999999998
44.573937102200176 13.0244
44.5979997645541 13.0338
44.622064499300315 12.9973
44.64613130803592 12.9497
44.67038823869318 12.9451
44.69445921643748 12.9255
44.718532272981385 12.890999999999998
44.742607409926194 12.8326
44.76687274034801 12.8058
44.79095205918753 12.7554
44.81503346325094 12.7959
44.839116954143876 12.8046
44.86339071028742 12.7725
44.88747839599524 12.6923
44.91156817336837 12.6348
44.93566004401666 12.6921
44.959942251908146 12.6667
44.984038330325966 12.6516
45.00813650686762 12.6202
45.03223678314731 12.6143
45.05652746888232 12.5931
45.08063196592069 12.5671
45.104738567558705 12.5336
45.128847275414856 12.5166
45.15314646515866 12.4533
45.17725940679741 12.4658
45.20137445952892 12.4376
45.22568004865265 12.4067
45.24979934496396 12.4017
45.27392075725247 12.3536
45.29804428714431 12.3822
45.322358426247604 12.3442
45.346486212804315 12.3061
45.370616121861914 12.2885
45.39474815505086 12.2718
45.41907087049246 12.2542
45.4432071734666 12.1924
45.46734560548283 12.1859
45.49148616817604 12.2382
45.51581748638564 12.1754
45.5399623320197 12.1527
45.56410931325473 12.0668
45.58825843173002 12.1296
45.61259837920865 12.1062
45.636751793816 12.0533
45.66090735060093 12.0158
45.68506505120716 11.9911
45.7094136545275 12.0005
45.73357566449271 11.9551
45.75773982322992 11.94
45.78190613238733 11.9215
45.806263418194064 11.8698
45.83043404997326 11.8846
45.85460683713677 11.8379
45.87897065658495 11.8501
45.90314777634752 11.7757
45.92732705646868 11.8433
45.9515084986045 11.7884
45.97588104735473 11.7393
46.00006683541565 11.7076
46.02425479047904 11.6961
46.04844491420549 11.6846
46.0728262191024 11.6513
46.09702070211635 11.6425
46.12121735879483 11.6193
46.14541619080294 11.5909
46.169806278764455 11.5959
46.194009483459034 11.5462
46.21821486849841 11.5735
46.24242243555223 11.5444
46.266821333570014 11.4906
46.29103328674601 11.4392
46.31524742696538 11.4961
46.33946375590237 11.4161
46.36387149104216 11.4367
46.38809221957392 11.3473
46.41231514186606 11.3505
46.436540259597464 11.376
46.460956858999374 11.3536
46.48518638983522 11.3075
46.509418121166966 11.3029
46.533652054678114 11.2775
46.55807754555709 11.2775
46.58231590571962 11.1918
46.60655647313217 11.2328
46.630988654873654 11.1531
46.655233659129024 11.1718
46.67948087571551 11.1643
46.70373030632484 11.1198
46.72817142736393 11.0946
46.752425308428684 11.1078
46.77668140861147 11.0826
46.80093972960865 11.0247
46.82538981736788 11.0261
46.849652602470904 11.0127
46.87391761349769 11.0259
46.8981848521493 10.984000000000002
46.9226439341274 10.9171
46.946915650573224 10.8832
46.97118959976749 10.9192
46.99546578341598 10.8951
47.019933887188216 10.8792
47.04421456235744 10.86
47.06849747711879 10.8229
47.09278263318286 10.7954
47.11725978640143 10.7526
47.14154944775105 10.7438
47.165841355555656 10.7566
47.1901355115306 10.6709
47.214621741924994 10.7392
47.23892041698887 10.6988
47.26322134538975 10.6411
47.28771440635075 10.6352
47.31201986422527 10.6178
47.33632758061436 10.609000000000002
47.360637557241866 10.6086
47.38513974410611 10.5832
47.40945426407847 10.5353
47.43377104948137 10.5205
47.45809010204344 10.4682
47.48260144275502 10.4849
47.506925052572285 10.4508
47.53125093475548 10.4223
47.55557909103813 10.4799
47.58009961361992 10.4295
47.60443234110732 10.3694
47.62876734791564 10.3726
47.65310463578333 10.3405
47.6776343683373 10.3421
47.7019762413987 10.2827
47.72632040075572 10.2869
47.75066684815169 10.2671
47.77520581885936 10.2541
47.799556865477655 10.2543
47.823910205386 10.236
47.84826584033272 10.2188
47.87281407745551 10.1649
47.89717432569297 10.1526
47.92153687423484 10.1711
47.94609208429692 10.1313
47.97045925671401 10.0874
47.99482873471275 10.0782
48.01920052005013 10.0869
48.04376504619224 10.0682
48.068141469543484 10.0817
48.09252020552573 10.0603
48.11690125590099 9.99288
48.1414751266064 10.0055
48.16586082917454 9.95614
48.19024885144316 9.93564
48.2146391951793 9.93525
48.239222439012764 9.91945
48.26361744916137 9.90417
48.28801478610016 9.906930000000001
48.31241445160131 9.90811
48.337007097209366 9.869580000000001
48.36141144338331 9.79745
48.38581812345755 9.76592
48.41022713920929 9.77255
48.434829215320704 9.75925
48.45924292604658 9.752839999999999
48.48365897780325 9.76202
48.50807737237308 9.72033
48.532688907799276 9.70122
48.55711201168574 9.716460000000001
48.581537463754074 9.6941
48.60615611725119 9.65865
48.63058628942721 9.630289999999999
48.65501881516546 9.64226
48.6794536962573 9.613539999999999
48.70408185970339 9.59029
48.72852147531801 9.57509
48.75296345168211 9.53068
48.77740779059232 9.55585
48.80204549302823 9.50557
48.82649458091802 9.49714
48.85094603676547 9.47436
48.87539986237231 9.48729
48.90004713292306 9.41104
48.92450572200832 9.423860000000001
48.94896668628025 9.39557
48.97343002754588 9.37245
48.99808689542115 9.33426
49.02255501470614 9.349260000000001
49.04702551642794 9.308689999999999
49.0714984023988 9.2896
49.096164896893235 9.28227
49.120642575466796 9.28403
49.145122643748394 9.27417
49.16960510355558 9.24167
49.19428125404938 9.238560000000001
49.2187685210852 9.17725
49.243258185121555 9.19898
49.26794160167084 9.19219
49.2924360839405 9.193999999999999
49.31693296869764 9.15893
49.34143225776915 9.1476
49.36612538195438 9.090069999999999
49.39062950396021 9.129660000000001
49.41513603578346 9.10324
49.4396449792564 9.063180000000001
49.46434784069503 9.01492
49.488861631846454 9.01095
49.513377840166804 9.033339999999999
49.537896467493745 8.97145
49.56260909589029 8.97146
49.587132585683285 8.95467
49.611658500018365 8.93857
49.636186840738596 8.897260000000001
49.66090926588511 8.8819
49.685442483902584 8.84502
49.70997813385706 8.839789999999999
49.734516217597076 8.81964
49.75924846937352 8.8304
49.7837914452858 8.79844
49.80833686055187 8.775839999999999
49.83288471702571 8.74035
49.85762682540054 8.76343
49.882179588965734 8.73983
49.9067347993235 8.72659
49.93129245833333 8.71467
49.95604445336378 8.69528
49.98060703442832 8.68028
50.005172069746266 8.67689
50.02993150438364 8.65889
50.05450147301533 8.608089999999999
50.07907390151433 8.57547
50.10364879174981 8.574010000000001
50.12841816587289 8.58724
50.1529980044635 8.55485
50.17758031042124 8.50804
50.20216508562089 8.516589999999999
50.22694442953363 8.47016
50.25153416817468 8.466330000000001
50.27612638170508 8.478489999999999
50.300721072005196 8.439210000000001
50.325510416102105 8.438080000000001
50.350110084975064 8.40851
50.37471223628208 8.41533
50.39931687190919 8.39255
50.424116246675766 8.38764
50.44872587605249 8.37297
50.47333799543065 8.33417
50.49795260670191 8.32724
50.52276204271512 8.32044
50.54738166295838 8.3006
50.57200378079314 8.26003
50.596628398116835 8.25638
50.62144792604559 8.2328
50.646077567609396 8.21978
50.670709714377715 8.230030000000001
50.69553683636198 8.208260000000001
50.72017401885922 8.226360000000001
50.7448137122895 8.19403
50.76945591856022 8.15361
50.79429318636823 8.149189999999999
50.818940443716784 8.1258
50.84359021965163 8.0974
50.868242516085964 8.10722
50.893089960641895 8.106110000000001
50.917747323549435 8.07209
50.94240721271973 8.02935
50.96706963007175 7.993460000000001
50.99192728239342 7.98767
51.01659478166073 7.99277
51.04126481489051 7.98722
51.06593738400761 7.98255
51.090805275207074 7.95495
51.11548294172845 7.971360000000001
51.14016314993547 7.94275
51.164845901758845 7.8997
51.18972406304274 7.88093
51.21441192780656 7.87706
51.23910234200271 7.844289999999999
51.2637953075678 7.82141
51.288683770237945 7.81332
51.31338186432707 7.79927
51.33808251561888 7.77786
51.362978729967345 7.76733
51.387684521509755 7.7633600000000005
51.41239287610203 7.74927
51.437103795691165 7.72748
51.46201036644977 7.69813
51.486726441956634 7.667489999999999
51.51144508832545 7.6502
51.536166307509156 7.646610000000001
51.56108326624387 7.62397
51.58580965706056 7.618710000000001
51.61053862657523 7.620430000000001
51.635270176746864 7.6029
51.66019755512065 7.563
51.68493429268881 7.517739999999999
51.70967361681515 7.540080000000001
51.73441552946465 7.5635
51.759353359237934 7.53923
51.7841004750961 7.5303
51.80885018539685 7.48077
51.833602492111254 7.499969999999999
51.8585508051424 7.47497
51.883308330926425 7.4321600000000005
51.90806845906181 7.4062600000000005
51.932831191525715 7.38887
51.95779001977161 7.353789999999999
51.98255798721516 7.36758
52.00732856494335 7.344060000000001
52.03229530577543 7.352589999999999
52.057071130455945 7.338760000000001
52.081849571391054 7.30075
52.106630630568695 7.28063
52.13160794279417 7.25175
52.15639426492067 7.270860000000001
52.18118321127822 7.248889999999999
52.205974783860896 7.2698
52.23096269971011 7.219869999999999
52.255759551287994 7.20348
52.280559035098186 7.189080000000001
52.30536115314103 7.15667
52.33035970494467 7.14129
52.35516711807904 7.120480000000001
52.37997717147198 7.080139999999999
52.40478986713005 7.10672
52.42979908731974 7.05302
52.454617094216 7.09536
52.47943774942214 7.0850800000000005
52.50426105495102 7.061780000000001
52.529280976059844 7.02738
52.554109609024096 7.01238
52.57894089837482 6.9840800000000005
52.60377484613117 7.03176
52.62880550079408 7.01843
52.65364479223379 6.98635
52.67848674816189 6.972239999999999
52.70352547971946 6.936610000000001
52.72837279155837 6.9458899999999995
52.753222773982785 6.884110000000001
52.778075429022984 6.9168899999999995
52.80312495150885 6.900710000000001
52.827982978797436 6.87655
52.85284368481815 6.87893
52.87770707160767 6.841880000000001
52.90276741793998 6.81987
52.92763619336701 6.86033
52.952507655698504 6.79524
52.977381806977576 6.80028
53.00245301017842 6.7716899999999995
53.02733256653592 6.770160000000001
53.052214817996074 6.74596
53.077099766608484 6.749689999999999
53.102181859804446 6.70516
53.127072229988265 6.6942699999999995
53.15196530349892 6.6699600000000006
53.17686108239249 6.664289999999999
53.20195409881522 6.6288800000000005
53.22685531582556 6.62972
53.25175924441303 6.61015
53.27666588664027 6.616639999999999
53.30176985962693 6.6070199999999994
53.3266819565689 6.6195
53.35159677336455 6.590310000000001
53.376514312083096 6.617319999999999
53.40162927507703 6.5468
53.42655228516116 6.53725
53.45147802340193 6.45999
53.47660125628886 6.49524
53.50153247842639 6.48608
53.52646643496923 6.4686900000000005
53.55140312799818 6.44683
53.576537409691696 6.43982
53.60147960336152 6.4477199999999995
53.626424539786164 6.41071
53.65137222105307 6.412999999999999
53.67651758529126 6.3907300000000005
53.70147078399681 6.37482
53.72642673383343 6.39785
53.75138543689533 6.38259
53.776541917524526 6.37259
53.801506154876755 6.30438
53.826473151763246 6.29854
53.851442910284916 6.24607
53.87661054126026 6.28432
53.9015858509782 6.27401
53.92656392866066 6.26047
53.95154477641532 6.23846
53.976723591801296 6.2081599999999995
54.00171000771266 6.21392
54.02669920004598 6.21318
54.051691170915745 6.21005
54.076881204886796 6.19254
54.101878760928514 6.1942900000000005
54.12687910187696 6.14513
54.152077577768296 6.13164
54.1770835166946 6.1129999999999995
54.20209224691339 6.13874
54.22710377055121 6.08586
54.25231352511594 6.0772900000000005
54.27733066384342 6.05335
54.30235060239643 6.05805
54.32737334290836 6.0433699999999995
54.35259441062629 5.96456
54.377622783395324 6.01544
54.40265396455061 5.99164
54.42768795623251 5.98785
54.45292037169559 5.90681
54.477960012857906 5.9243
54.50300247099511 5.923369999999999
54.52804774825457 5.84807
54.55329154616743 5.83765
54.57834249018678 5.86551
54.6033962597977 5.81836
54.6284528571545 5.80926
54.653708072335164 5.75638
54.67877035378786 5.77997
54.70383546947698 5.72478
54.72890342156389 5.74505
54.7541700889442 5.67478
54.77924374251975 5.65725
54.8043202390049 5.66179
54.82959552413022 5.66099
54.8546777351945 5.656619999999999
54.87976279569621 5.60164
54.90485070780914 5.6016
54.930137506558005 5.57145
54.95523115074295 5.608619999999999
54.98032765308844 5.5433
55.005427015775496 5.517119999999999
55.03072536339621 5.4932099999999995
55.05583047570572 5.47834
55.080938454927676 5.50898
55.10604930325027 5.47425
55.131359235107396 5.42365
55.15647585066083 5.34742
55.181595341907496 5.39278
55.20671771104285 5.32275
55.232039262617704 5.29652
55.25716741665048 5.2599800000000005
55.28229845518636 5.28923
55.30743238042802 5.253019999999999
55.33276558731939 5.21882
55.357905315183636 5.18337
55.383047936390035 5.17662
55.40819345314859 5.13767
55.433538351073295 5.1407300000000005
55.458689688238415 5.13339
55.483843927614096 5.10139
55.509197623043605 5.05443
55.53435769621134 5.04038
55.55952067826466 4.994759999999999
55.5846865714265 5.03034
55.61005202069737 4.93838
55.63522376553902 4.90729
55.66039842818645 4.92727
55.68557601087004 4.90529
55.7109532500271 4.88283
55.73613670233794 4.89307
