TT I
1.2716486653135266 8.080639999999999
1.2939594142134223 7.40562
1.3162702121660406 7.3289
1.3385810600174564 6.67209
1.3608919586137629 6.7464699999999995
1.383202908801069 6.645919999999999
1.405513911425503 6.0816300000000005
1.4278249673332093 6.668810000000001
1.4501343378461518 7.388139999999999
1.4724455028545926 6.89721
1.4947567236847858 6.48931
1.517068001182951 6.86694
1.5393793361953272 6.19455
1.5616907295681737 6.13489
1.5840021821477681 6.113519999999999
1.60631369478041 5.64461
1.6286252683124185 6.0568800000000005
1.6509369035901333 5.755730000000001
1.6732468618895553 5.87309
1.695558623192809 5.5479400000000005
1.7178704487808514 5.04975
1.7401823395001077 5.03787
1.7625012545597203 5.6822
1.7848028405262486 5.6685300000000005
1.8071218901122095 5.32365
1.8294236121921872 4.9311300000000005
1.8517427996910911 5.27808
1.8740620574440425 5.14433
1.8963639900671978 5.25579
1.9186833908139995 5.01122
1.9409854680117449 5.22536
1.9633050151394713 5.00013
1.9856246367570705 5.25892
2.0079269371922672 5.24458
2.03024671027244 4.742
2.0525491637446027 4.7619
2.074869091674931 4.9534199999999995
2.097171701569106 4.95519
2.1194917877373847 5.225
2.141811954326636 4.88769
2.164114805233074 5.01259
2.186435135143035 5.15371
2.208738150935709 4.75129
2.231058647554722 4.2822
2.2533792288321184 4.4011
2.275682498336085 4.72923
2.298003251406138 4.98183
2.3203066942619714 5.13623
2.3426276225136022 4.42886
2.3649486396617507 3.8319
2.387252348930071 4.12218
2.4095735463442893 3.8588699999999996
2.4318774374315884 4.75584
2.4541988185014043 4.19046
2.476502894794693 4.4683
2.498824462909887 4.3186
2.521146125856138 4.214519999999999
2.5434504863470337 4.4143
2.5657723414244717 4.43992
2.588076895590662 4.98441
2.610398946189713 5.15219
2.6327210958598384 5.10255
2.6550259469304716 4.57636
2.6773482972090137 5.02635
2.6996533504259 5.24486
2.7219759047039602 5.829
2.744298562293959 5.96071
2.7666039251246595 5.63929
2.7889267918020164 6.250430000000001
2.8112323652516555 6.5793800000000005
2.833555444408179 7.16875
2.8558786311183852 7.56625
2.8781845268938557 7.71645
2.9005079311721484 8.413039999999999
2.9228140460410397 8.772
2.9451376712799635 8.62317
2.967444008632326 8.99498
2.9897678582247247 9.416360000000001
3.0120918213106695 10.3034
3.0343984987899373 10.3444
3.0567226913198637 11.3507
3.079029599759726 11.7356
3.101354025127254 12.6731
3.123678568232338 12.0705
3.145985829517914 13.1792
3.16831061055229 13.6082
3.1906181112775593 14.2658
3.212943133635653 14.5871
3.2352682779763207 14.9155
3.2575761442691227 15.5967
3.2799015350264273 15.3453
3.302209649240067 15.9822
3.3245352898092655 16.3399
3.3468436553365257 17.1092
3.369169549113219 17.6818
3.3914955708171384 18.0617
3.413804319727358 18.4046
3.4361305997334863 18.1932
3.4584396084414553 18.6513
3.4807661501462652 19.9738
3.503092824025881 20.3398
3.5254022288463154 20.1908
3.5477291695206588 20.7619
3.5700388426251948 21.435
3.5923660534916446 21.4854
3.6146934007816114 22.2207
3.637003482731501 22.1323
3.6593311053109985 22.5908
3.681641464033634 23.0438
3.7039693653009733 23.5005
3.726297407241705 23.7947
3.7486081875460804 24.1808
3.7709365132734978 24.9651
3.793247578841633 25.456
3.8155761917550093 25.4065
3.8378875459837216 26.0118
3.8602164494827234 26.6138
3.882545499606844 27.1578
3.9048572932539183 27.7583
3.9271866390645718 27.8784
3.9494987298666713 28.427
3.971828374764527 28.7935
3.9941581705403255 29.5107
4.016470713506008 29.7158
4.038800813471445 30.7058
4.061113662089144 31.2395
4.0834440696459176 31.6584
4.105774632334751 32.2209
4.128087945865126 32.6223
4.150418821249301 32.8648
4.172732448931298 33.8749
4.195063640413578 34.4428
4.2173775856475215 35.395
4.239709096631102 36.3088
4.262040768704612 36.378
4.284355196706267 36.9988
4.306687193387355 37.4886
4.329001947444346 38.7185
4.35133427213731 38.9795
4.373666762177566 39.8578
4.395982011761091 40.6923
4.418314834921175 41.6394
4.44063041906622 42.646
4.4629635787515625 43.3794
4.4852969080429785 44.1964
4.5076130004776225 45.8926
4.529946671403969 46.9297
4.552263106909177 47.6061
4.574597122877047 48.8256
4.596931312711224 50.038000000000004
4.619248269273446 50.7384
4.6415828092605835 52.2602
4.663900117405352 53.2941
4.686235010953232 54.9607
4.708552674085913 56.0632
4.730887924602802 57.7988
4.753223354952695 58.9203
4.775541557023902 60.688
4.797877349456786 61.6792
4.820195915032126 64.4685
4.842532072957498 65.6711
4.864868414979744 68.0957
4.88718753227192 70.0618
4.909524244902505 71.9422
4.931843734218147 74.8726
4.954180820867835 78.3997
4.976518095879839 82.1894
4.998838149695359 85.7912
5.021175803844231 90.8081
5.043496238205739 95.5107
5.065834274903528 101.531
5.088172504230693 109.147
5.1104935158799565 118.323
5.132832132875765 133.838
5.155153533596801 158.128
5.1774925416746225 217.09400000000002
5.199814334878411 576.932
5.2221537374521505 2007.0
5.244493338631803 3757.02
5.266815727034316 5119.09
5.289155727832427 7689.99
5.311478517248165 9483.38
5.333818921080011 6636.88
5.356159527788849 2189.01
5.3784829252032536 516.096
5.400823940070432 228.192
5.423147747031976 169.294
5.445489173474152 144.22299999999998
5.467830807066149 130.006
5.490155234831516 121.79799999999999
5.512497285125229 115.37200000000001
5.534822130975162 112.006
5.557164601388673 108.199
5.579489868738879 103.885
5.601832762690846 101.553
5.6241758697774475 99.7517
5.646501775867269 98.7916
5.668845311622074 97.7717
5.691171647754637 97.6096
5.713515615597765 96.3615
5.735859800852677 95.5225
5.758186788542988 95.2475
5.780531411018185 95.3899
5.802858837297399 94.9981
5.825203900414495 95.8492
5.8475491852224 96.7094
5.869877275883075 99.3575
5.892223006467101 102.13799999999999
5.914551544266608 106.081
5.936897724049891 113.65899999999999
5.959244129804903 126.009
5.981573344815301 159.846
6.0039202049061 299.4
6.026249875609095 768.546
6.04859719346037 1397.72
6.070927323278297 1858.46
6.093275102315365 2528.48
6.115623113320588 3569.58
6.137953938319995 3937.12
6.160302415650845 2330.27
6.182633708324452 760.6510000000001
6.2049826554078376 235.418
6.227331838745022 128.329
6.249663839443684 101.87299999999999
6.27201349767565 90.4154
6.294345974611799 83.6472
6.316696111167083 78.6411
6.339046488263839 75.6769
6.361379686074702 72.3881
6.383730546639482 70.5019
6.406064229255215 68.2359
6.428415576718203 67.3557
6.450749747566656 66.0458
6.47310158535871 64.7243
6.495453669698332 63.8779
6.517788579421056 63.1285
6.540141159237969 61.9147
6.562476565766648 61.4163
6.5848296444934045 60.6861
6.607182974060425 59.6991
6.6295191323281015 59.1925
6.651872965955752 58.7362
6.6742096296068985 57.8847
6.6965639707294615 57.836000000000006
6.71891856698715 57.0514
6.741255995248479 56.6439
6.763611104154477 56.1769
6.785949046381137 55.9522
6.808304671371482 55.2078
6.8306605557940046 54.8112
6.852999275508618 54.0538
6.875355681171544 54.0866
6.897694923437771 53.7346
6.92005185377892 54.0918
6.9423916220322655 53.8189
6.964749080490181 52.9966
6.987106804399774 52.7859
7.009447368180821 53.1207
7.031805625367033 52.6861
7.054146723727803 52.6204
7.076505517631004 52.6235
7.098864581288365 52.172
7.121206488070854 51.9246
7.143566093607822 51.688
7.165908543567245 51.6115
7.188268694426048 51.4499
7.2106291193438095 51.5659
7.232972390625943 51.6671
7.255333366030969 51.4779
7.277677189091925 51.6445
7.300038718428332 51.4871
7.322400526130865 51.611999999999995
7.344745183422596 51.4035
7.367107550224791 51.5928
7.389452767901992 51.7413
7.411815697249891 51.8171
7.434161478756298 51.1302
7.456524974096713 51.5587
7.478888753837185 51.7202
7.501235387657368 52.7751
7.523599738562711 56.0981
7.545946944825532 63.7188
7.568311870344528 66.1038
7.5906770845765665 61.2583
7.613025156078678 55.7698
7.635390950099687 53.8868
7.657739602662809 53.1398
7.680105979923558 53.07899999999999
7.702472650212829 53.425
7.724822180948224 53.3171
7.747189439655568 53.9323
7.769539560075357 54.2375
7.791907410653562 54.0471
7.81425812420825 54.0572
7.836626570110925 54.5636
7.858995315087906 55.6386
7.881346924933401 55.7402
7.903716270417482 56.2853
7.926068482028405 56.5507
7.948438431475253 57.056000000000004
7.9708086843180235 57.7029
7.993161805171116 58.2542
8.015532667162402 58.6547
8.037886398416653 59.5429
8.060257873014221 59.8617
8.082629655331942 60.6327
8.104984308787587 61.413000000000004
8.127356708900503 62.144
8.149711981398308 63.0388
8.172085002766314 63.9189
8.194458336181368 64.5499
8.216814543847752 65.7047
8.23918850371002 67.2249
8.26154533906492 68.2297
8.283919928836452 70.0965
8.306277395339652 71.2218
8.328652618483376 72.6006
8.351028159736202 75.0105
8.373386579575245 77.6123
8.395762759396959 79.6336
8.418121819038275 83.0502
8.440498640894003 88.109
8.462875785192262 95.6155
8.485235811156207 110.947
8.507613602688501 174.77200000000002
8.529974277114228 373.119
8.552352719347912 613.819
8.574731488360351 769.623
8.59709314210385 841.1669999999999
8.619472567021075 1013.05
8.64183487789147 1382.72
8.664214962183097 1796.98
8.686577933647762 1722.2
8.708958680784317 1031.67
8.731339760774953 448.384
8.753703729764451 187.15900000000002
8.77608547780821 119.648
8.798450116065078 104.682
8.820832535634787 97.3654
8.843215292401656 93.5896
8.865580941199045 91.087
8.887964374703538 88.7453
8.910330701447199 87.115
8.932714815164482 86.1748
8.955099270424924 84.7466
8.977466620733543 84.2253
8.999851761421976 83.40799999999999
9.022219798361645 82.773
9.04460562795561 82.5131
9.066991803441677 82.1964
9.089360876979615 81.6282
9.111747746589993 81.2358
9.13411751544971 81.0033
9.156505082664324 80.3742
9.178875550323522 81.0229
9.20126381862328 81.8187
9.223652438908596 87.6981
9.246023961427412 98.9814
9.26841328802173 101.8
9.290785518039224 96.1036
9.313175554425882 87.7384
9.335565947154315 83.1763
9.357939245086508 81.7148
9.380330352834827 81.4464
9.40270436697103 81.4736
9.425096193225055 81.5523
9.447488380180165 81.8486
9.469863475295412 82.3516
9.492256385987508 82.8215
9.514632206018318 83.3455
9.537025843935714 83.7738
9.559402392368193 84.2126
9.581796761000229 84.819
9.604191496441521 85.405
9.626569144158516 86.1338
9.648964615551032 86.7718
9.671343000390081 87.4864
9.693739211225699 88.7677
9.716135793237463 89.8575
9.738515290448102 90.5688
9.760912617143402 92.0199
9.783292860202891 93.2623
9.805690935076182 94.6368
9.828089385495742 95.7653
9.850470754023561 98.2488
9.872869957865444 100.38799999999999
9.89525208097539 103.509
9.917652041736662 107.38799999999999
9.940052382417589 113.895
9.962435644102392 130.82299999999998
9.984836746950979 187.575
10.007220771957746 347.222
10.029622640473708 555.697
10.052007432299963 681.8860000000001
10.074410069984072 714.26
10.096813093716005 768.153
10.119199042482517 942.8439999999999
10.141602840636468 1287.38
10.163989564971628 1598.65
10.186394141051062 1577.63
10.208799107559706 1053.6
10.231187001965623 536.77
10.253592751657669 235.61
10.275981430388155 138.591
10.298387966769793 117.4
10.320794897965431 111.427
10.343184759907361 107.87100000000001
10.36559248305461 105.501
10.387983138083852 104.01799999999999
10.410391656691655 106.021
10.432800574501677 120.955
10.455192425893369 164.47799999999998
10.47760214443012 217.81799999999998
10.499994797678786 249.421
10.522405320453982 255.352
10.54479877906917 267.175
10.567210109595656 307.063
10.5896218454736 381.661
10.612016518879773 472.22900000000004
10.634429067781074 494.519
10.656824555333241 394.338
10.679237920773568 244.317
10.701651695961992 142.15
10.724048411481384 102.825
10.746463008485165 91.5241
10.768860546937125 86.7182
10.791275969274796 83.1071
10.81369180576079 81.2941
10.836090585366925 79.9205
10.858507252467449 78.3318
10.88090686379991 77.3556
10.903324365036394 76.6286
10.925724811614439 75.2488
10.948143150509463 74.8634
10.970561909719066 73.955
10.992963615930844 72.9685
11.015383218085756 72.0229
11.037785768347074 70.7895
11.06020621697282 70.5152
11.082627090322113 70.0024
11.105030913430326 69.4323
11.12745263854165 68.8384
11.149857314510728 68.066
11.172279894912576 67.9681
11.194702904450653 67.0854
11.217108866490921 66.4057
11.239532736615194 66.0271
11.26193956033512 65.887
11.284364294577085 65.3746
11.306789462371718 64.888
11.329197585398376 64.6133
11.351623622610898 64.9536
11.37403261614354 64.2701
11.396459526308487 64.0007
11.418869393879497 63.2182
11.441297180532617 63.0966
11.463725406927658 62.8911
11.486136592353875 62.5028
11.508565700543707 62.0612
11.530977768845315 61.8425
11.553407762368774 61.5699
11.575838200059769 61.5454
11.598251599479612 61.5266
11.620682927815501 61.3362
11.64309721895548 61.5791
11.665529441478206 61.3224
11.687962112597958 60.9987
11.710377748130886 60.8166
11.732811318753434 60.7339
11.755227854859067 60.8597
11.777662328529495 60.5819
11.800079768750786 60.5027
11.822515149015453 60.6171
11.844950984084935 60.7209
11.867369787303163 60.4923
11.889806534289491 60.9482
11.912226250487029 61.8153
11.934663912939751 64.3041
11.9571020346363 66.2549
11.979523127133968 66.3019
12.001962169624331 65.9792
12.024384183972964 65.1484
12.046824150809913 67.3991
12.069264581333726 77.0674
12.091687985297767 90.6683
12.11412934550045 101.75
12.136553680195208 107.663
12.158995973632788 109.35700000000001
12.181438735204349 112.874
12.20386447284199 122.822
12.226308172985636 141.784
12.24873485024193 168.82299999999998
12.271179492516982 188.47
12.293607112949127 180.864
12.316052700916226 145.108
12.338498763250042 102.863
12.360927805303868 76.5794
12.383374818673879 66.7502
12.405804812803074 63.8107
12.428252780773262 63.2134
12.45070122756722 62.7931
12.473132656675375 62.4351
12.49558206341869 62.5289
12.518014453510101 62.3248
12.540464823770117 62.4311
12.562915677315177 62.7534
12.58534951575545 63.0173
12.607801338171472 62.7987
12.630236146511358 63.162
12.652688941369085 63.3696
12.675124723177234 63.7378
12.697578494048786 64.3707
12.720032754458185 64.4757
12.742470003354093 65.11399999999999
12.764925245138771 65.2588
12.787363476431278 65.8944
12.809819703166806 66.2886
12.83227642391173 67.1658
12.854716135692716 67.619
12.877173846755147 68.7919
12.899614549869717 68.8277
12.9220732548287 69.8731
12.94453245827299 70.1934
12.966974655289818 71.4476
12.989434858002571 72.2517
13.011878055298721 73.2036
13.034339260862497 74.347
13.056800969391883 75.9652
13.079245674017244 78.4189
13.101708390774869 80.8971
13.12415410463411 86.2554
13.146617833206086 102.4
13.169064559883248 133.372
13.191529303857127 165.692
13.213994557076367 188.421
13.236442809902437 195.81900000000002
13.258909083908291 197.467
13.28135835851934 205.796
13.30382565690295 228.787
13.326293469022952 271.022
13.348744283242008 331.36800000000005
13.371213125129904 386.582
13.39366497011003 387.99699999999996
13.416134845360597 320.982
13.438605238843131 223.81799999999998
13.46105863690397 150.64600000000002
13.483530069144786 121.85799999999999
13.505984506951902 130.446
13.528456981549432 155.634
13.550929978879088 175.002
13.573385983253365 182.139
13.595860028340867 181.166
13.618317081455832 183.697
13.64079217790333 196.825
13.663250283359057 221.31
13.685726434770173 263.185
13.708203115221277 316.478
13.730662806148091 339.907
13.75314054697177 313.97900000000004
13.775601299246777 245.983
13.798080104050406 164.33900000000003
13.820559442405358 110.316
13.843021793671388 89.015
13.865502201420897 82.4033
13.887965623051947 80.2377
13.910447103807167 78.4021
13.932929122629764 76.9365
13.955394156785959 76.454
13.977877254034569 75.3328
14.000343367582113 74.3443
14.022827546871707 73.6179
14.045294743423524 72.9448
14.06778000837062 72.351
14.090265817715476 72.3835
14.112734645763819 72.3132
14.13522154619454 73.2221
14.157691466286913 74.4145
14.180179461423874 73.8745
14.202668005486178 72.8746
14.22513957064374 71.4055
14.247629214846473 70.172
14.270101881097517 69.3329
14.29259262906496 68.7971
14.315083930490205 68.5334
14.337558255389705 68.1798
14.360050666019726 68.0601
14.382526101071944 67.9465
14.405019624534942 67.6541
14.427513705993134 67.5824
14.449990813291825 67.59
14.47248601302899 67.5602
14.49496423954951 67.6907
14.517460561197822 67.5675
14.539939910570322 67.2973
14.562437357763558 67.6819
14.58493536931253 68.043
14.607416409993311 68.0709
14.62991555254159 68.209
14.652397725157423 68.2503
14.674898002342799 68.7217
14.697398848433282 69.1844
14.719882725991326 70.1019
14.74238471217934 70.7327
14.764869730765593 73.3841
14.787372860692983 79.8696
14.809876564079925 93.4678
14.83236330125751 107.45299999999999
14.854868153850365 116.939
14.877356041159485 120.831
14.899862046604186 120.32700000000001
14.922351087688757 122.176
14.944858249632887 127.76
14.967365991421232 139.575
14.989856770231246 157.486
15.012365673994204 182.93200000000002
15.03485761569738 204.122
15.05736768508665 205.239
15.07987833888692 181.968
15.102372032001655 145.416
15.124883856909658 106.04799999999999
15.14737872204565 83.3273
15.169891721717274 73.7118
15.192405310371893 70.9062
15.214901940621196 69.5248
15.237416709527137 68.3184
15.259914520936249 67.9483
15.282430473753607 67.3018
15.304947020131227 66.4562
15.327446610371178 66.2634
15.349964346154254 65.8393
15.372465126703139 65.7127
15.394984055556009 65.7882
15.417486030076159 65.4395
15.44000615566487 65.4086
15.462526881230803 65.0547
15.485030653812652 64.9919
15.507552581617434 64.7371
15.530057557334603 64.8482
15.55258069104857 64.9583
15.575104429329837 65.4873
15.597611216864632 64.9745
15.620136166564563 65.1665
15.6426441664095 65.8375
15.665170331202765 67.7913
15.687697105158826 73.2316
15.710206930593545 83.7554
15.732734925158933 95.3699
15.755245972089478 103.429
15.77777519094324 107.48200000000001
15.800287463046663 107.665
15.822817909869592 107.64200000000001
15.84534897229804 110.11399999999999
15.867863089299354 117.78399999999999
15.890395385222186 128.85299999999998
15.912910736597423 146.276
15.935444269699861 168.176
15.957978423016485 183.753
15.980495633101265 179.582
16.003031029129367 157.54
16.02554948280019 122.14
16.048086125229432 92.118
16.070623392487107 74.6638
16.09314371869582 66.7083
16.11568223789321 63.2135
16.13820381691126 61.4685
16.160743591742527 60.7545
16.183283996022084 59.5439
16.205807461423195 58.6548
16.228349126881973 58.1576
16.25087385432698 58.211000000000006
16.27341678466365 57.5595
16.29594277784926 57.1858
16.31848697676433 56.8034
16.341031811604868 56.3371
16.36355971058487 56.1109
16.3861058195587 55.888000000000005
16.40863499352978 55.2783
16.431182380342005 55.2323
16.453730407713202 55.0373
16.476261501364792 54.7067
16.498810812136167 54.355
16.52134319004079 54.7567
16.54389378792203 54.205
16.566445031001553 54.3389
16.588979342490088 54.0671
16.61153187824822 54.0925
16.634067483263312 54.0261
16.656621315414416 53.9012
16.679175797408888 53.5515
16.701713349928728 53.724
16.72426913389191 53.8389
16.74680798922351 53.6622
16.76936507887444 53.7844
16.791905240734874 53.7589
16.814463639794468 53.4559
16.837022695210294 53.6272
16.859564824093756 53.5789
16.882125194503903 53.9079
16.904668639217885 54.2141
16.927230328348003 54.1673
16.949792678493612 54.5352
16.972338104193863 54.5712
16.994901778652235 54.4821
17.017448529496576 54.7961
17.040013531998152 54.7577
17.06257920018044 55.07
17.0851279459922 56.2697
17.107694947817667 58.3693
17.130245028099072 60.426
17.15281336730298 62.7448
17.17536478578733 64.03399999999999
17.19793446610687 64.2026
17.220504818648422 64.2248
17.243058251703697 64.4588
17.265629950971032 65.4239
17.288184731571736 67.1361
17.310757781306908 70.2058
17.33333150794385 73.2292
17.355888317140174 77.1692
17.37846339986244 80.7447
17.401021565958885 80.7684
17.42359800851343 77.4534
17.44617513265564 71.7823
17.468735341390783 66.2328
17.491261035594565 61.6157
17.51396340099364 59.2529
17.536490463869136 58.5069
17.559018209820174 58.3273
17.58154663977963 58.5984
17.604251766089718 58.7013
17.626781572227713 58.7957
17.64931206518155 58.7703
17.671843245885103 59.1725
17.69455114821572 59.24
17.717083712612634 59.5265
17.739616967569667 60.0916
17.762150914021706 60.7462
17.78486160749854 61.1225
17.807396945166804 61.5472
17.829932977143503 62.1092
17.85246970436452 63.3455
17.875183204129467 65.9822
17.897721330097664 71.3819
17.920260154126645 78.0302
17.942799677153296 83.81700000000001
17.9655159983646 86.7149
17.988056927677544 88.0841
18.010598558807683 88.0457
18.033140892692916 88.6955
18.05586005052525 90.4688
18.07840379824407 94.1958
18.10094825154059 100.399
18.12366954819864 109.624
18.146215420998306 122.72200000000001
18.16876200220057 136.941
18.191309292745153 145.57299999999998
18.214033452627167 144.50799999999998
18.236582170236648 131.563
18.259131600016456 113.92399999999999
18.281681742907335 97.7521
18.304408781233683 87.743
18.32696035875955 84.0503
18.349512652227624 84.211
18.372065662579683 87.6904
18.394795594587553 92.4387
18.41735004715306 97.8575
18.43990521943684 101.902
18.46246111238171 102.15799999999999
18.485193953325208 96.5979
18.507751296070428 87.3083
18.530309362314178 77.9884
18.552868153000343 69.8442
18.57560391815056 65.0678
18.59816416623245 62.8521
18.620725141597372 61.9484
18.643286845190268 60.9435
18.666025549835414 60.6144
18.688588718427933 59.7011
18.711152618092243 59.4695
18.73389353884365 59.1066
18.75645890921984 58.7466
18.77902501351406 58.5179
18.801591852673102 58.3068
18.824335739722738 57.8147
18.846904057212626 57.7133
18.8694731124168 57.3814
18.89204290628315 57.3837
18.914789774966803 57.0259
18.937361054791623 56.799
18.959933076131318 56.5827
18.982505839934877 56.6487
19.00525570560582 56.6518
19.027829963004184 56.185
19.05040496572238 56.321999999999996
19.072980714710468 56.2703
19.095733592739563 56.461999999999996
19.11831084296757 56.6488
19.140888842324735 57.9267
19.16346759176222 59.3119
19.18622349753803 60.4398
19.208803755869358 61.5901
19.231384767143577 61.8168
19.253966532312948 61.7124
19.276725481241822 61.8012
19.29930876296784 62.1706
19.3218928014549 62.9549
19.34465404436217 63.9092
19.36723960516257 65.5408
19.389825925592426 67.4094
19.412413006605938 70.0803
19.43517731967805 72.5841
19.457765930683355 73.77
19.48035530514408 72.3555
19.50294544401556 69.2353
19.525712842708348 64.6623
19.54830451925909 59.9275
19.570896963095727 56.398
19.593490175174704 54.6411
19.616260674962184 53.9173
19.638855432416964 53.3278
19.661450960992624 53.2899
19.68404726164677 53.1925
19.706820878021247 52.903999999999996
19.729418731756834 53.228
19.752017360452857 53.0691
19.77461676506804 53.0624
19.797393513540218 53.1679
19.819994478951667 53.227
19.84259622316767 54.1917
19.8651987471481 55.5222
19.887978643247177 56.5161
19.91058273574792 57.4182
19.933187610901943 58.18600000000001
19.955969879466828 58.2532
19.97857632894404 57.9963
20.00118356396599 57.9151
20.023791585494575 58.2501
20.046577028914875 59.3361
20.069186632506966 60.496
20.091797025500632 62.9712
20.114408208858933 65.6328
20.137196842715273 68.6547
20.159809615886765 71.4126
20.18242318232135 72.1736
20.20503754298326 70.9078
20.227829382875154 68.4886
20.250445341109344 65.2282
20.27306209647285 62.1622
20.29567964993108 60.2915
20.31847471147704 59.7671
20.34109387027612 60.4393
20.363713830075454 61.8753
20.386334591841646 63.6998
20.409132890679302 64.7464
20.431755265564437 64.256
20.454378445325528 62.4035
20.477002430930366 59.3731
20.499803982716553 56.1247
20.522429589228004 53.425
20.54505600449589 51.6465
20.567683229489194 50.7898
20.590488049900088 50.2932
20.61311690359731 50.0165
20.63574656993626 49.6751
20.658553853717297 49.4255
20.681185154618298 49.349
20.703817271080066 49.3628
20.72645020407368 48.8587
20.749260783967177 48.7507
20.771895359337133 48.9615
20.794530754161617 48.9846
20.817166969412938 48.6769
20.83998086114876 48.5128
20.86261872660049 48.4961
20.885257415405402 48.4928
20.90789692853701 48.2734
20.930714147864748 48.2153
20.953355319030678 48.309
20.97599731745334 48.4134
20.99864014410749 48.4938
21.021460706796564 48.7308
21.044105199328826 48.9322
21.06675052302631 48.9839
21.089396678865015 49.0328
21.112220600704806 49.1502
21.134868430275347 49.2205
21.15751709492456 48.9414
21.180166595629693 48.8932
21.202993892429635 49.0173
21.22564507473034 49.2512
21.24829709602816 49.4843
21.27112693608965 50.0561
21.293780644891275 50.7794
21.316435195634053 51.0609
21.339090589297417 50.8586
21.361923832041875 50.9818
21.384580921090404 50.3561
21.407238856007325 49.6739
21.429897637773326 48.9181
21.45273429906592 48.5379
21.475394784108598 48.4051
21.498056118951983 48.2781
21.520718304578022 48.3543
21.543558400304388 48.3842
21.566222297108816 48.5401
21.58888704765135 48.6039
21.61155265291521 49.0301
21.63439619898156 49.8843
21.657063523335786 51.0469
21.67973170537063 52.0601
21.7024007460706 52.8205
21.72524775840385 53.4328
21.747918526116475 53.7469
21.770590155457388 53.8526
21.79326264741238 53.7591
21.816113141960237 54.1434
21.838787368860547 54.8654
21.861462461341976 55.833
21.884315579735777 57.4547
21.90699241312273 58.919
21.92967011506078 60.7623
21.95234868653799 62.8547
21.9752053151131 64.7466
21.997885635446785 65.8077
22.020566828293532 65.6509
22.04324889464272 63.917
22.066109049404666 60.9685
22.088792872571794 58.0641
22.111477572219204 56.0029
22.1341631493376 55.0528
22.157026846313123 54.7888
22.179714188221507 55.4905
22.202402410582668 56.0573
22.22509151438863 55.8379
22.24795876962584 55.107
22.270649646204486 53.9265
22.293341407213727 52.419
22.316034053646906 51.076
22.338904883215342 49.7791
22.36159931041458 49.2624
22.38429462602756 49.0332
22.40699083104897 48.583
22.429865251039757 48.468999999999994
22.452563244831367 48.6986
22.47526213102522 48.4798
22.49813925616515 48.5041
22.520839937143307 48.3638
22.543541513520587 48.5178
22.56624398629403 48.4465
22.589124730075895 48.3446
22.611829005656723 48.5974
22.63453418063466 48.4486
22.657240256008077 48.6128
22.680124634582935 48.995
22.70283252079775 49.8468
22.725541310413075 50.7148
22.74825100442868 51.1237
22.771139033969575 51.7063
22.79385054687155 51.5104
22.81656296718292 51.4547
22.83927629590484 51.6038
22.862167992606945 51.5623
22.88488314827121 51.89
22.907599215359284 52.1807
22.93031619487366 52.6239
22.953211574954405 53.1562
22.975930389478226 53.8935
22.998650119445763 55.1303
23.02137076586092 56.1621
23.044269845560063 57.3709
23.06699233506288 57.8166
23.089715744034912 57.498000000000005
23.112617610931565 56.2127
23.135342869061212 54.3642
23.158069049684816 52.5424
23.1807961538087 50.7666
23.20370174880544 49.8009
23.226430710184808 49.183
23.249160598093425 48.9408
23.271891413539002 48.9631
23.294800752937697 49.2576
23.31753343374794 50.0743
23.340267045128353 50.7055
23.36300158808808 51.214
23.38591468821339 51.6281
23.408651104658304 51.7806
23.431388455719986 51.428000000000004
23.454126742409 51.3372
23.4770436196085 51.1731
23.499783787914662 51.4925
23.522524894889884 51.5506
23.54526694154616 51.9662
23.56818761219047 52.6675
23.59093154860734 53.3828
23.613676427751283 54.9018
23.636422250635754 56.1745
23.659346731118656 57.1166
23.68209445191868 57.8079
23.704843119509587 57.2744
23.72759273490623 55.8491
23.750521041644767 53.8584
23.77327256312355 51.2897
23.796025035462787 49.2485
23.818956224555475 47.4196
23.841710609113413 46.7973
23.86446594758979 46.14
23.887222241002014 45.6207
23.910157285144578 45.2785
23.932915498962537 45.3701
23.955674670778713 45.1601
23.978434801611975 44.9019
24.001373717286125 44.7512
24.024135776723917 44.6292
24.046898798245582 44.4051
24.06966278287146 44.2754
24.092605586582614 44.1696
24.115371508023642 43.9759
24.1381383956401 43.8329
24.16090625045381 43.7442
24.183852958731244 43.7513
24.206622758582608 43.6509
24.229393528706886 43.4553
24.252165270127392 43.6091
24.27511589952438 43.5418
24.297889594216997 43.3004
24.32066426328598 43.3333
24.34343990775613 43.3072
24.36639447485003 43.1326
24.38917208083877 42.9416
24.41195066531332 42.9602
24.43490819850244 43.07899999999999
24.457688750692377 42.7338
24.48047028445616 42.6172
24.503252800821233 42.6667
24.526214300784112 42.6977
24.548998793132213 42.7597
24.57178427117417 42.5668
24.59457073593893 42.5183
24.617536219319863 42.6937
24.64032466834748 42.7964
24.663114107195035 42.8245
24.685904536893013 42.573
24.708874020360852 42.5176
24.731666442613744 42.4843
24.754459858818787 42.3607
24.777254270007962 42.3305
24.80022777025625 42.2261
24.82302418230472 42.0085
24.845821592443674 42.1548
24.86862000170663 42.3118
24.891597535453727 42.1991
24.914397953892728 42.4682
24.93719937456671 42.3944
24.96000179851076 42.5751
24.98298338249997 42.6157
25.00578782394922 42.6295
25.028593271784167 42.7349
25.05157790644186 43.0452
25.07438537804115 43.1847
25.097193859145293 43.2934
25.120003350792075 43.2761
25.142992065061257 43.7517
25.165803588823465 43.8975
25.18861612625217 44.0828
25.211429678386736 44.1579
25.234422489079968 44.3638
25.257238081693636 44.3814
25.280054692141732 44.7218
25.3028723214652 44.6916
25.325869245420463 44.43600000000001
25.348688923599397 44.4569
25.371509623787006 44.5522
25.394331347025812 44.5011
25.41733240110666 44.5248
25.440156181590016 44.591
25.46298098826268 44.6046
25.48580682216873 44.3594
25.50881202326435 43.8092
25.53163992281684 43.1613
25.55446885274561 42.323
25.577298814096377 41.5876
25.600308179121807 41.2177
25.623140214533745 41.0695
25.64597328451537 40.7049
25.66898578564376 40.5799
25.691820936010206 40.5485
25.714657124097695 40.5897
25.737494350954734 40.5816
25.760511045684957 40.3868
25.783350361364224 40.4475
25.806190718969255 40.7129
25.82903211955018 40.7898
25.852053024868923 40.7099
25.874896522722523 40.7237
25.897741066713106 40.6839
25.920586657892454 40.6812
25.943611790812668 40.7168
25.966459487728237 40.6401
25.989308234998564 40.6429
26.01215803367705 40.74
26.03518741123814 40.8748
26.05803932412957 40.7698
26.080892291600094 40.7854
26.10374631470478 40.9622
26.12677995397268 41.3296
26.14963609978026 41.57899999999999
26.172493304397875 41.6473
26.19535156888223 41.9831
26.218389486949604 41.7845
26.241249882640123 41.7647
26.26411134137826 41.2159
26.28715248187403 41.0983
26.31001607820869 40.8468
26.3328807407756 40.4631
26.35574647063438 40.5867
26.37879191991473 40.5546
26.401659795896734 40.3808
26.424528742360263 40.6128
26.447398760366614 40.6673
26.470448535598294 40.6023
26.49332070826805 40.6002
26.516193955675355 40.7328
26.53906827888316 40.8394
26.562122397260108 40.7526
26.584998883685063 40.9103
26.607876449110325 41.2266
26.63075509460056 41.1961
26.65381357334404 41.4791
26.67669439061878 41.6766
26.699576291163382 41.9097
26.722459276044212 42.2923
26.745522132402975 42.3803
26.768407297649354 42.4411
26.791293550442003 42.1108
26.814180891848974 41.9144
26.837248143099337 41.4452
26.860137673466657 40.9535
26.88302829566349 40.6623
26.90592001075963 40.7192
26.92899167420566 40.566
26.951885586870763 40.1228
26.974780595655517 40.0646
26.99785558178161 39.8092
27.020752794605112 39.571999999999996
27.043651106772522 39.2942
27.06655051935668 39.1999
27.089629948036183 38.833
27.112531573292053 38.7956
27.135434302194138 38.7958
27.158338135817015 38.6528
27.181422024430987 38.6773
27.204328079372566 38.6829
27.22723524226965 38.6697
27.250143514198573 38.6886
27.273231880156334 38.7301
27.296142382065014 38.4592
27.319053996245536 38.4805
27.341966723775965 38.4904
27.365059584515222 38.5054
27.38797455070062 38.3679
27.410890633481237 38.2414
27.433807833936918 38.2467
27.456905206923906 38.3716
27.47982465472398 38.3473
27.502745223449743 38.4397
27.525666914182825 38.469
27.548768816912457 38.4382
27.571692763693633 38.4561
27.59461783573812 38.4573
27.617723149491244 38.3351
27.640650484125285 38.4357
27.66357894728264 38.4879
27.686508540048052 38.5368
27.709618414237887 38.5194
27.732550278321757 38.2567
27.755483275279115 38.3425
27.778417406196485 38.3
27.801531858397514 38.2389
27.824468269376716 38.1386
27.847405817586786 38.0928
27.870344504116094 38.1843
27.893463551932008 38.171
27.916404527281053 38.2221
27.93934664422563 38.2853
27.962289903855886 38.2178
27.98541356491974 38.3997
28.00835912214229 38.4768
28.03130582533231 38.5221
28.054253675581805 38.6078
28.077381967556104 38.6343
28.100332124185126 38.8268
28.123283431160893 38.9735
28.146235889577238 38.9879
28.169368830154156 39.1555
28.192323603752033 39.0708
28.215279532083304 38.9291
28.238415973016764 38.6392
28.261374223145094 38.4006
28.284333631303806 38.1653
28.307294198589954 38.1876
28.330435319167677 37.8127
28.353398217078915 37.6689
28.376362277420153 37.3268
28.39932750129032 37.2673
28.422473319286713 37.1094
28.44544088262495 36.9093
28.468409612800283 36.5565
28.491379510913497 36.1596
28.51453004413313 36.076
28.53750229057244 35.966
28.56047570826344 35.9055
28.583450298308804 35.9431
28.606605564586562 35.8001
28.629582511831156 35.8952
28.65256063474956 35.5804
28.675539934446338 35.7325
28.698699951647605 35.7267
28.72168161743193 35.5274
28.74466446331978 35.4169
28.767648490417624 35.2822
28.790813276438353 35.3475
28.813799678527303 35.403
28.836787265157085 35.1967
28.859955641890075 35.2473
28.882945610203045 35.2151
28.905936766392035 35.1046
28.928929111566863 35.1276
28.952102288520145 35.1604
28.975097024308607 35.0446
28.998092952423807 34.9535
29.021090073977508 35.1412
29.04426806913204 35.0486
29.067267590245258 34.9386
29.090268308143695 34.8507
29.11327022394099 34.728
29.13645305530891 34.6925
29.159457379627167 34.596
29.18246290519685 34.4196
29.20546963313352 34.2535
29.22865731875826 34.4415
29.25166646419296 34.2994
29.27467681535305 34.0481
29.29768837335608 34.0682
29.320880931312562 34.0503
29.34389491580634 34.0626
29.366910110507334 33.9382
29.38992651653503 33.9647
29.41312396492981 33.9266
29.436142806456754 34.0574
29.45916286268059 33.9785
29.48236399319994 34.056999999999995
29.50538649169417 33.9363
29.528410208259935 33.9968
29.55143514402014 33.7773
29.574641196749695 33.6673
29.597668583816574 33.575
29.6206971934585 33.3929
29.64372702680042 33.4194
29.666938019934474 33.2211
29.689970313635285 33.1014
29.713003834422636 32.8641
29.73603858342347 32.8578
29.759254535188578 32.7579
29.78229175361658 32.6557
29.80533020365064 32.7095
29.82836988641968 32.8233
29.85159081507472 32.73
29.874632976355343 32.6642
29.89767637376955 32.7519
29.920721008448314 32.5963
29.9439469322847 32.67
29.96699405457564 32.5176
29.9900424175358 32.5456
30.013092022298157 32.5271
30.03632295963995 32.537
30.059375061131373 32.4968
30.08242840783577 32.4551
30.105483000888153 32.4683
30.128718970092244 32.3194
30.151776069006917 32.3561
30.17483441768648 32.2903
30.198074175317235 32.2607
30.221135036724256 32.3482
30.24419715131772 32.2416
30.267260520236203 32.1586
30.290505341942243 32.1776
30.313571232750228 32.3978
30.336638381310948 32.3751
30.35970678876503 32.3869
30.38295669299435 32.319
30.40602763151657 32.316
30.429099832366074 32.3329
30.452173296685572 32.195
30.47542830191959 32.1349
30.498504306502497 32.1367
30.521581577995562 32.1793
30.544660117543582 32.215
30.56792024229725 32.1125
30.59100133132069 32.0059
30.614083691845494 32.0401
30.637167325018545 32.0365
30.660432587840603 32.0601
30.683518779717886 31.8805
30.70660624769615 32.0042
30.729694992924372 32.1057
30.75296541239743 32.1647
30.77605672557558 32.1164
30.799149319462742 32.1799
30.8224236211637 32.0834
30.845518789950724 32.1691
30.868615242910597 32.0214
30.891712981195973 31.9126
30.91499247215866 31.8416
30.938092794619365 31.8555
30.96119440587579 31.6792
30.984297307082752 31.5676
31.00758200598383 31.4165
31.030687500658694 31.4914
31.053794288760695 31.3559
31.076902371446767 31.3067
31.100192296997445 31.3524
31.12330298246119 31.2216
31.14641496599209 31.0368
31.169528248749216 31.1389
31.19282341969534 31.0417
31.215939314557186 31.0299
31.239056512134788 31.1097
31.262175013589378 30.8928
31.28547544871168 30.8827
31.30859657161541 30.7818
31.331719001892175 30.778000000000002
31.35484274070538 30.8557
31.378148458819545 30.9133
31.401274828443725 30.7678
31.424402510106933 30.8098
31.447712205419993 30.8415
31.470842524931633 30.7514
31.493974159989783 30.7726
31.51710711176168 30.8092
31.54042212308802 30.7803
31.563557722100917 30.7904
31.586694641341655 30.719
31.609832881979628 30.7548
31.63315322823208 30.828000000000003
31.656294125521327 30.6593
31.679436347728515 30.6014
31.70257989602529 30.4441
31.725905596152327 30.3656
31.74905181052835 30.221999999999998
31.772199354521323 30.2375
31.79534822930507 30.1882
31.818679302290967 30.235
31.84183085259981 30.2047
31.864983737233473 30.1526
31.88813795736804 30.2524
31.911474422233013 29.9136
31.934631327356435 29.9574
31.9577895715215 30.0387
31.980949155906522 29.949
32.004291031706956 30.0479
32.027453310562606 29.9838
32.05061693318573 29.9824
32.07396288236386 30.0826
32.09712920658542 29.8825
32.12029687812702 29.8741
32.14346589817093 29.7234
32.166817291729984 29.7298
32.18998902288583 29.6112
32.21316210610336 29.5688
32.23633654256711 29.4821
32.259693399663725 29.3809
32.282870556771144 29.3535
32.30604907069099 29.4464
32.329228942610065 29.2419
32.35259128243769 29.0704
32.375773884550505 29.014
32.398957848235646 28.988000000000003
32.422143174682176 28.8331
32.445511016471215 28.7488
32.468699082679954 28.7119
32.49188851523011 28.6659
32.51507931531304 28.6122
32.538452678331 28.6526
32.56164622776311 28.6612
32.58484114831493 28.5007
32.60803744118015 28.5232
32.631416344731896 28.5881
32.654615396551876 28.483
32.67781582427913 28.497
32.701198898634416 28.304000000000002
32.72440209253756 28.2731
32.747606665947124 28.2642
32.77081262006088 28.2198
32.79420126883317 28.1764
32.81740999876112 28.2199
32.840620112999424 28.094
32.86383161274818 27.986
32.88722585534586 27.9805
32.91044014056596 28.0751
32.933655814909734 27.9766
32.95687287957963 28.0412
32.98027273544904 27.951999999999998
33.00349259526636 27.8908
33.026713849030116 27.8653
33.04993649794511 27.8583
33.073341986570746 27.718000000000004
33.09656744032826 27.7474
33.11979429286444 27.7237
33.14302254538647 27.8064
33.166433686291185 27.7771
33.18966475336992 27.6439
33.212897224069096 27.5582
33.23613109959831 27.5355
33.259547912343415 27.5271
33.2827846121627 27.5875
33.306022720453775 27.5511
33.32926223842861 27.4671
33.352684742614166 27.4625
33.37592709463173 27.4919
33.399170859982064 27.4774
33.422597648419426 27.4165
33.44584425514446 27.2703
33.46909227885668 27.1808
33.4923417207723 27.0809
33.51577423505344 27.0987
33.539026528130385 26.9371
33.56228024307245 26.9219
33.585535381098246 26.7711
33.60897364093058 26.7717
33.63223163992385 26.7332
33.6554910656699 26.6595
33.678751919389796 26.5972
33.702195944520106 26.5632
33.72545966903325 26.6224
33.74872482519663 26.4796
33.771991414233746 26.4988
33.79544122444841 26.4359
33.81871069412428 26.3159
33.84198160035767 26.303
33.86525394437455 26.3228
33.88870955949969 26.3107
33.911984794020626 26.246
33.93526147001624 26.2998
33.958539588715006 26.176
33.98200102861669 26.0947
34.0052820477047 26.0051
34.02856451319451 26.0105
34.05203033759056 25.9942
34.07531571090147 26.0282
34.09860253431845 25.932
34.121890809074316 25.9646
34.145362493118924 25.956
34.16865368561615 25.7895
34.191946333164054 25.7783
34.21524043699793 25.7762
34.23871800066799 25.6835
34.26201503218366 25.61
34.28531352370466 25.6231
34.30861347646881 25.5111
34.33209693978188 25.5302
34.3553998301885 25.5648
34.378704185565205 25.4166
34.402010007152356 25.3709
34.42549939016683 25.3653
34.44880815937748 25.2559
34.472118398533134 25.2146
34.49543010887669 25.2685
34.51892543169198 25.1628
34.54224009966052 25.0346
34.56555624255917 25.1159
34.58887386163339 25.028000000000002
34.61237514439016 24.9556
34.6356957311114 24.9602
34.65901779775809 24.9302
34.68252356662995 24.9432
34.705848608458616 24.8766
34.72917513396849 24.781999999999996
34.75250314440949 24.7338
34.77601490857862 24.6232
34.799345904259795 24.5576
34.82267838863559 24.6431
34.846012362958525 24.6278
34.869530142679984 24.598000000000003
34.89286711232212 24.5557
34.91620557568269 24.5349
34.93954553401677 24.5911
34.9630693495876 24.4172
34.986412313340814 24.465999999999998
35.00975677584668 24.4804
35.033102738362956 24.4447
35.05663261012228 24.3032
35.0799815881786 24.3489
35.10333207003229 24.2606
35.12668405694369 24.307
35.150220005273056 24.2323
35.17357501786656 24.2136
35.19693153931268 24.174
35.220289570874385 24.1362
35.24383161619786 24.2114
35.267192683604904 24.1533
35.290555264930376 24.0577
35.314101899412165 24.0166
35.33746752422433 24.0483
35.36083466676374 24.0103
35.38420332829803 23.8168
35.407756095629054 23.9167
35.43112781085063 23.8846
35.45450104888391 23.7965
35.477875810999194 23.9196
35.50143473172161 23.859
35.52481255774625 23.8661
35.54819191167777 23.7697
35.57157279478914 23.791999999999998
35.595137889488406 23.8069
35.61852184675279 23.7316
35.641907337029984 23.701
35.665294361595684 23.654
35.68886565090076 23.5937
35.7122557598848 23.5799
35.73564740699838 23.5435
35.759040593519934 23.4668
35.78261809810353 23.5063
35.80601437933051 23.3883
35.829412203814705 23.2583
35.85281157283719 23.224
35.876395313415884 23.281999999999996
35.8997977874528 23.1877
35.92320180988546 23.2058
35.946790244133936 23.1404
35.97019737933222 23.1219
35.993606066789866 23.085
36.01701630779276 23.0884
36.04061101440684 23.0358
36.06402437852291 23.0376
36.08743930005611 22.9881
36.1108557802951 22.8556
36.13445678011326 22.8877
36.15787639383515 22.8762
36.18129757014299 22.8621
36.20472031032821 22.764
36.22832762423364 22.8066
36.25175350829375 22.6778
36.275180960119776 22.6138
36.298609981005924 22.6204
36.32222362992669 22.7052
36.34565580510207 22.5863
36.36908955323448 22.5497
36.39252487562093 22.4175
36.416144880530226 22.432
36.43958336764275 22.4431
36.463023432914625 22.3868
36.486465077645676 22.3213
36.51009145956204 22.3422
36.53353627947859 22.4133
36.55698268276811 22.3769
36.58043067073321 22.3406
36.60406345072071 22.2856
36.62751462435344 22.1608
36.65096738658405 22.1355
36.67460498210655 22.0692
36.69806093788647 22.054000000000002
36.72151848619297 22.0308
36.744977628333636 22.0781
36.76862165890998 22.0123
36.79208400512205 22.0379
36.81554794910557 22.0001
36.83901349217101 21.9149
36.862663978991606 21.8762
36.88613273667352 21.8154
36.90960309738324 21.8355
36.933075062434064 21.7234
36.95673202673572 21.7608
36.98020721697122 21.7463
37.003684015502365 21.6909
37.027162423645365 21.6103
37.050825886711465 21.6187
37.07430753063053 21.5562
37.09779078812467 21.5045
37.121275660513014 21.4443
37.144945643673694 21.3565
37.16843376245278 21.3933
37.19192350009803 21.4197
37.215414857931435 21.3113
37.239091382563885 21.2713
37.262585997426164 21.2751
37.28608223645736 21.2868
37.309763684451696 21.2667
37.33326318851098 21.1432
37.356764320726555 21.2112
37.380267082425526 21.1388
37.40395510942588 21.0873
37.42746114683234 21.0111
37.45096881771841 20.9784
37.474478123414166 20.9777
37.49817275092816 20.8931
37.52168534303452 20.8655
37.54519957395567 20.8311
37.568715445024665 20.7969
37.592416694607714 20.7556
37.61593586281424 20.8265
37.63945667518264 20.7695
37.66297913304891 20.6867
37.68668702630454 20.7183
37.710212792059274 20.6231
37.733740207334854 20.6011
37.757269273470364 20.525
37.780983832050374 20.5479
37.80451621684926 20.5722
37.82805025654007 20.5407
37.851585952464795 20.4589
37.8753071980695 20.4505
37.89884622345676 20.4058
37.92238690911902 20.3159
37.94611318753442 20.2718
37.969657210779765 20.2556
37.99320289834801 20.2266
38.016750251586465 20.1713
38.04048325513017 20.092
38.06403395679343 20.1592
38.087586328183946 20.1388
38.11114037065203 20.0663
38.13488012115898 20.0451
38.1584375229181 20.0001
38.181996599821 19.9613
38.205557353221124 19.923
38.229303872575656 19.9074
38.2528679961576 19.8051
38.27643380031219 19.7802
38.30000128639589 19.7722
38.32375459653193 19.7813
38.34732546371299 19.8002
38.37089801690786 19.7978
38.39447225747609 19.7198
38.418232380377425 19.6421
38.441810012983396 19.6476
38.46538933705673 19.6158
38.488970353960084 19.5557
38.51273731166058 19.5734
38.536321731567014 19.5435
38.55990784840681 19.4928
38.58367995004091 19.4026
38.60726947812959 19.3976
38.63086070726198 19.4158
38.654453638806274 19.366
38.678232613930824 19.2991
38.70182896773327 19.2829
38.72542702806741 19.2462
38.7490267963045 19.2175
38.77281266709232 19.2246
38.79641586862214 19.1511
38.8200207821842 19.1151
38.843627409152944 19.1422
38.86742019782782 19.1122
38.891030269149255 19.0568
38.914642058016156 19.0406
38.938255565806124 19.0159
38.96205529464307 18.9748
38.98567225787121 18.8673
39.00929094417078 18.9176
39.03291135492255 18.9346
39.05671804624804 18.8826
39.080341923549106 18.7929
39.103967529460334 18.7405
39.127594865365744 18.7011
39.15140854155791 18.7228
39.17503935514948 18.7001
39.19867190290282 18.7137
39.22249083587951 18.6322
39.24612686969409 18.6321
39.269764641845306 18.5662
39.293404153722804 18.5412
39.317230110864074 18.4534
39.34087311998506 18.4708
39.36451787301696 18.425
39.388164371352595 18.385
39.41199737518003 18.3726
39.43564738196752 18.3998
39.45929913825317 18.3717
39.48295264543308 18.3621
39.506792718520884 18.3373
39.530449745387216 18.255
39.55410852735203 18.2151
39.57776906581474 18.1809
39.60161623079 18.1839
39.625280300200025 18.143
39.64894613032202 18.0378
39.67261372255866 18.0442
39.6964680021016 18.0524
39.72013913657293 18.0947
39.74381203738292 18.022000000000002
39.76748670593756 17.935
39.79134812278169 17.9826
39.81502634488497 17.9576
39.83870633896685 17.8605
39.862388106436654 17.8797
39.88625668336918 17.8396
39.90994201572829 17.8173
39.933629125719285 17.7546
39.957503091207826 17.6839
39.9811937746168 17.7356
40.00488623990914 17.7118
40.02858048850006 17.6807
40.05246165409549 17.6377
40.076159487492085 17.5518
40.099859108448875 17.5507
40.123560518384345 17.5343
40.1474489070226 17.5094
40.171153913178564 17.4992
40.194860712584955 17.3989
40.2185693066637 17.4227
40.242464941335314 17.4065
40.26617714307655 17.3595
40.289891143772046 17.3272
40.3136069448471 17.3597
40.33750984859743 17.3265
40.3612292688043 17.2437
40.3849504936829 17.2388
40.40867352466194 17.2356
40.43258372059144 17.2293
40.45631038219906 17.1728
40.48003885420956 17.0886
40.503769138055105 17.1064
40.52768664931955 17.12
40.55142057531802 17.0039
40.57515631746428 17.0246
40.599079334038514 16.9933
40.62281872700477 16.9552
40.64655994043941 16.9109
40.67030297578061 16.9286
40.69423334835778 16.914
40.71798004609188 16.8684
40.74172857006355 16.7991
40.76547892171441 16.8232
40.7894166736039 16.7996
40.813170699248566 16.7298
40.83692655691388 16.6808
40.86068424804498 16.7573
40.884629402612525 16.704
40.908390779366385 16.6959
40.932153993938 16.5956
40.95591904777605 16.593
40.979871628443995 16.6318
41.003640379561936 16.5772
41.02741097430883 16.5618
41.05118341413683 16.463
41.075143444384416 16.5082
41.098919593177826 16.4959
41.1226975914255 16.4297
41.14647744058318 16.3559
41.170444943946755 16.3435
41.19422851378379 16.3202
41.218013938914645 16.2625
41.24198706625173 16.2456
41.26577622087193 16.2327
41.289567235177785 16.265
41.31336011063129 16.2105
41.337340752422875 16.1514
41.361137369129835 16.1743
41.38493585138705 16.111
41.40873620066004 16.0505
41.43272438060107 16.015
41.45652848292052 16.031
41.48033445666918 15.9737
41.50414230331616 15.9645
41.528138045159764 15.9167
41.551949656675205 15.857000000000001
41.575763145513235 15.8103
41.59957851314666 15.8902
41.62358184070442 15.8073
41.64740098505737 15.7709
41.6712220126409 15.7429
41.69504492493139 15.7422
41.71905586207357 15.7324
41.74288256296395 15.6829
41.766711153007456 15.6519
41.79054163368412 15.6339
41.814560204340054 15.6738
41.838394485526365 15.647
41.86223066180303 15.5568
41.88625497706819 15.5485
41.910094962812 15.5522
41.93393684811168 15.5029
41.95778063445365 15.4212
41.981812625263366 15.4624
42.00566023303407 15.3793
42.029509746323676 15.3846
42.05336116662236 15.3738
42.077400857069705 15.3627
42.10125611078846 15.3363
42.12511327600405 15.3007
42.14897235421036 15.2561
42.173019768448455 15.1996
42.19688269209613 15.1267
42.22074753323349 15.1049
42.24461429335818 15.1414
42.268669455600495 15.0819
42.292540073217886 15.0856
42.31641261433284 15.0741
42.34028708044675 15.1232
42.36435001496739 15.0181
42.38822835065557 14.9845
42.41210861586426 14.9754
42.4359908120986 14.9595
42.46006154323262 14.9509
42.48394762115317 14.9082
42.507835634632315 14.8838
42.531912233047436 14.8886
42.55580413732265 14.8595
42.579697981698 14.770999999999999
42.60359376768525 14.7354
42.62767820545945 14.7601
42.65157789440821 14.7609
42.67547952952185 14.7508
42.699383112316 14.6964
42.72347541395347 14.6147
42.74738291190531 14.6157
42.771292362102166 14.6071
42.795203766063516 14.6033
42.819303956130405 14.4808
42.843219287476536 14.482999999999999
42.86713657716324 14.5356
42.89105582671383 14.4841
42.91516392983864 14.4072
42.939087119032166 14.3891
42.963012272677304 14.3938
42.98693939230129 14.4169
43.01105543317513 14.3801
43.034986504731386 14.3567
43.05891954686589 14.3182
43.08285456110972 14.3387
43.10697856448665 14.2814
43.130917542983475 14.2674
43.15485849820081 14.1959
43.17880143167367 14.1449
43.20293342237094 14.1294
43.226880332449 14.1021
43.25082922540554 14.1172
43.27496722682525 14.0769
43.29892010567796 14.0824
43.32287497204102 14.0501
43.34683182745632 14.0151
43.370977859791836 13.9638
43.39493871351105 13.9479
43.41890156092628 13.9316
43.44286640358341 13.9515
43.46702049182749 13.9368
43.49098934522816 13.8673
43.51496019852649 13.8288
43.5389330532723 13.8024
43.56309522248204 13.8018
43.58707210044314 13.8131
43.61105098451946 13.7362
43.63503187626491 13.7427
43.659202151562134 13.7118
43.68318707902681 13.6968
43.70717401884041 13.6531
43.731162972560874 13.6399
43.75534137913236 13.6211
43.779334381108384 13.5738
43.803329401683186 13.5783
43.82732644241872 13.5904
43.8515130055166 13.5276
43.87551410707659 13.4817
43.89951723350145 13.4377
43.923709934595614 13.4337
43.94771713129917 13.443
43.97172635758096 13.3923
43.99573761501002 13.3958
44.0199385169922 13.3277
44.04395385732619 13.3244
44.067971233533086 13.3101
44.09199064718605 13.2542
44.11619977548961 13.1893
44.14022328470671 13.2732
44.16424883610785 13.2532
44.18827643127035 13.2267
44.21249381139513 13.1712
44.236525514814076 13.1329
44.26055926674478 13.1682
44.28459506876863 13.1205
44.3088207262813 13.0756
44.33286064928722 13.0313
44.35690262714919 13.0448
44.38094666145278 12.9711
44.4051806219871 12.9804
44.42922879003185 12.9636
44.45327901929361 12.9493
44.477331311362136 12.8975
44.501573600619416 12.8423
44.525630039221795 12.8799
44.54968854541895 12.8539
44.573937102200176 12.7944
44.5979997645541 12.7966
44.622064499300315 12.7611
44.64613130803592 12.7538
44.67038823869318 12.7636
44.69445921643748 12.7169
44.718532272981385 12.7046
44.742607409926194 12.6866
44.76687274034801 12.6142
44.79095205918753 12.6057
44.81503346325094 12.5861
44.839116954143876 12.6136
44.86339071028742 12.5942
44.88747839599524 12.5129
44.91156817336837 12.5118
44.93566004401666 12.4874
44.959942251908146 12.4726
44.984038330325966 12.4327
45.00813650686762 12.3787
45.03223678314731 12.3526
45.05652746888232 12.3557
45.08063196592069 12.3355
45.104738567558705 12.31
45.128847275414856 12.3324
45.15314646515866 12.2507
45.17725940679741 12.2906
45.20137445952892 12.2149
45.22568004865265 12.2044
45.24979934496396 12.2501
45.27392075725247 12.1839
45.29804428714431 12.2164
45.322358426247604 12.1794
45.346486212804315 12.1246
45.370616121861914 12.1186
45.39474815505086 12.12
45.41907087049246 12.0492
45.4432071734666 12.0435
45.46734560548283 12.0183
45.49148616817604 11.9894
45.51581748638564 11.939
45.5399623320197 11.9355
45.56410931325473 11.9205
45.58825843173002 11.9166
45.61259837920865 11.8646
45.636751793816 11.8425
45.66090735060093 11.8135
45.68506505120716 11.7958
45.7094136545275 11.764000000000001
45.73357566449271 11.7522
45.75773982322992 11.7568
45.78190613238733 11.7313
45.806263418194064 11.6992
45.83043404997326 11.7118
45.85460683713677 11.6917
45.87897065658495 11.6426
45.90314777634752 11.6604
45.92732705646868 11.6229
45.9515084986045 11.5937
45.97588104735473 11.5603
46.00006683541565 11.5166
46.02425479047904 11.4836
46.04844491420549 11.5063
46.0728262191024 11.4996
46.09702070211635 11.4782
46.12121735879483 11.477
46.14541619080294 11.4247
46.169806278764455 11.4115
46.194009483459034 11.4006
46.21821486849841 11.36
46.24242243555223 11.3533
46.266821333570014 11.2845
46.29103328674601 11.2555
46.31524742696538 11.2773
46.33946375590237 11.273
46.36387149104216 11.2466
46.38809221957392 11.216
46.41231514186606 11.2485
46.436540259597464 11.2012
46.460956858999374 11.1433
46.48518638983522 11.1744
46.509418121166966 11.1332
46.533652054678114 11.0781
46.55807754555709 11.0951
46.58231590571962 11.0779
46.60655647313217 11.0308
46.630988654873654 10.9742
46.655233659129024 10.962
46.67948087571551 10.9983
46.70373030632484 10.9701
46.72817142736393 10.9414
46.752425308428684 10.9222
46.77668140861147 10.9206
46.80093972960865 10.8547
46.82538981736788 10.8629
46.849652602470904 10.87
46.87391761349769 10.824000000000002
46.8981848521493 10.7601
46.9226439341274 10.7633
46.946915650573224 10.7178
46.97118959976749 10.7258
46.99546578341598 10.6956
47.019933887188216 10.6608
47.04421456235744 10.6652
47.06849747711879 10.6499
47.09278263318286 10.654000000000002
47.11725978640143 10.6512
47.14154944775105 10.6395
47.165841355555656 10.5787
47.1901355115306 10.5165
47.214621741924994 10.5078
47.23892041698887 10.5075
47.26322134538975 10.5049
47.28771440635075 10.4792
47.31201986422527 10.4662
47.33632758061436 10.4356
47.360637557241866 10.4106
47.38513974410611 10.3969
47.40945426407847 10.3989
47.43377104948137 10.3791
47.45809010204344 10.3441
47.48260144275502 10.3316
47.506925052572285 10.2998
47.53125093475548 10.2364
47.55557909103813 10.2682
47.58009961361992 10.2524
47.60443234110732 10.2349
47.62876734791564 10.1963
47.65310463578333 10.1877
47.6776343683373 10.1811
47.7019762413987 10.142999999999999
47.72632040075572 10.15
47.75066684815169 10.0821
47.77520581885936 10.0745
47.799556865477655 10.1178
47.823910205386 10.0581
47.84826584033272 10.0592
47.87281407745551 10.0469
47.89717432569297 10.0223
47.92153687423484 9.97401
47.94609208429692 9.97606
47.97045925671401 9.98909
47.99482873471275 9.94576
48.01920052005013 9.9096
48.04376504619224 9.86652
48.068141469543484 9.89143
48.09252020552573 9.89383
48.11690125590099 9.82611
48.1414751266064 9.80364
48.16586082917454 9.79257
48.19024885144316 9.75367
48.2146391951793 9.78121
48.239222439012764 9.766760000000001
48.26361744916137 9.7217
48.28801478610016 9.728710000000001
48.31241445160131 9.77334
48.337007097209366 9.718160000000001
48.36141144338331 9.68788
48.38581812345755 9.64062
48.41022713920929 9.648810000000001
48.434829215320704 9.62541
48.45924292604658 9.61474
48.48365897780325 9.60817
48.50807737237308 9.5811
48.532688907799276 9.55749
48.55711201168574 9.5321
48.581537463754074 9.49214
48.60615611725119 9.51948
48.63058628942721 9.522839999999999
48.65501881516546 9.47574
48.6794536962573 9.4504
48.70408185970339 9.44246
48.72852147531801 9.42045
48.75296345168211 9.3601
48.77740779059232 9.383410000000001
48.80204549302823 9.39425
48.82649458091802 9.35042
48.85094603676547 9.29111
48.87539986237231 9.28173
48.90004713292306 9.28754
48.92450572200832 9.26728
48.94896668628025 9.26694
48.97343002754588 9.24233
48.99808689542115 9.204039999999999
49.02255501470614 9.232289999999999
49.04702551642794 9.189680000000001
49.0714984023988 9.16137
49.096164896893235 9.15414
49.120642575466796 9.10287
49.145122643748394 9.11927
49.16960510355558 9.11104
49.19428125404938 9.09703
49.2187685210852 9.0594
49.243258185121555 9.07478
49.26794160167084 9.0444
49.2924360839405 9.01412
49.31693296869764 8.99356
49.34143225776915 8.96269
49.36612538195438 8.94111
49.39062950396021 8.99173
49.41513603578346 8.9241
49.4396449792564 8.92631
49.46434784069503 8.90352
49.488861631846454 8.86381
49.513377840166804 8.838330000000001
49.537896467493745 8.86325
49.56260909589029 8.83434
49.587132585683285 8.83969
49.611658500018365 8.8088
49.636186840738596 8.762089999999999
49.66090926588511 8.76175
49.685442483902584 8.74155
49.70997813385706 8.73512
49.734516217597076 8.69069
49.75924846937352 8.68574
49.7837914452858 8.6576
49.80833686055187 8.61399
49.83288471702571 8.63612
49.85762682540054 8.643139999999999
49.882179588965734 8.597430000000001
49.9067347993235 8.5715
49.93129245833333 8.55782
49.95604445336378 8.57921
49.98060703442832 8.56287
50.005172069746266 8.5709
50.02993150438364 8.54605
50.05450147301533 8.4555
50.07907390151433 8.45602
50.10364879174981 8.489130000000001
50.12841816587289 8.44353
50.1529980044635 8.440669999999999
50.17758031042124 8.43096
50.20216508562089 8.41669
50.22694442953363 8.37308
50.25153416817468 8.3599
50.27612638170508 8.36262
50.300721072005196 8.33275
50.325510416102105 8.29668
50.350110084975064 8.29377
50.37471223628208 8.31165
50.39931687190919 8.31162
50.424116246675766 8.29992
50.44872587605249 8.25177
50.47333799543065 8.25084
50.49795260670191 8.22097
50.52276204271512 8.18585
50.54738166295838 8.20213
50.57200378079314 8.18671
50.596628398116835 8.15095
50.62144792604559 8.14663
50.646077567609396 8.11497
50.670709714377715 8.13692
50.69553683636198 8.086910000000001
50.72017401885922 8.08432
50.7448137122895 8.09277
50.76945591856022 8.046660000000001
50.79429318636823 8.03565
50.818940443716784 8.02764
50.84359021965163 7.9842699999999995
50.868242516085964 7.991910000000001
50.893089960641895 7.964060000000001
50.917747323549435 7.94015
50.94240721271973 7.96091
50.96706963007175 7.89532
50.99192728239342 7.8798
51.01659478166073 7.900360000000001
51.04126481489051 7.91637
51.06593738400761 7.88818
51.090805275207074 7.84594
51.11548294172845 7.84455
51.14016314993547 7.82159
51.164845901758845 7.80425
51.18972406304274 7.792039999999999
51.21441192780656 7.77101
51.23910234200271 7.75736
51.2637953075678 7.72895
51.288683770237945 7.6835
51.31338186432707 7.686
51.33808251561888 7.67245
51.362978729967345 7.644769999999999
51.387684521509755 7.64249
51.41239287610203 7.59425
51.437103795691165 7.614730000000001
51.46201036644977 7.58599
51.486726441956634 7.5723899999999995
51.51144508832545 7.535639999999999
51.536166307509156 7.569960000000001
51.56108326624387 7.55485
51.58580965706056 7.4703
51.61053862657523 7.533410000000001
51.635270176746864 7.4474800000000005
51.66019755512065 7.469469999999999
51.68493429268881 7.447260000000001
51.70967361681515 7.458889999999999
51.73441552946465 7.41633
51.759353359237934 7.40638
51.7841004750961 7.4227300000000005
51.80885018539685 7.40575
51.833602492111254 7.37401
51.8585508051424 7.344939999999999
51.883308330926425 7.34837
51.90806845906181 7.320989999999999
51.932831191525715 7.32348
51.95779001977161 7.303669999999999
51.98255798721516 7.30169
52.00732856494335 7.23965
52.03229530577543 7.2195800000000006
52.057071130455945 7.21427
52.081849571391054 7.2217199999999995
52.106630630568695 7.20605
52.13160794279417 7.17287
52.15639426492067 7.21382
52.18118321127822 7.17546
52.205974783860896 7.13709
52.23096269971011 7.10263
52.255759551287994 7.124210000000001
52.280559035098186 7.046130000000001
52.30536115314103 7.062810000000001
52.33035970494467 7.06698
52.35516711807904 7.04007
52.37997717147198 7.05369
52.40478986713005 7.05651
52.42979908731974 7.0214
52.454617094216 7.00745
52.47943774942214 6.97946
52.50426105495102 6.95735
52.529280976059844 6.948760000000001
52.554109609024096 6.9363600000000005
52.57894089837482 6.93354
52.60377484613117 6.881069999999999
52.62880550079408 6.91345
52.65364479223379 6.888669999999999
52.67848674816189 6.8562199999999995
52.70352547971946 6.829839999999999
52.72837279155837 6.81338
52.753222773982785 6.804180000000001
52.778075429022984 6.81284
52.80312495150885 6.80899
52.827982978797436 6.78367
52.85284368481815 6.75915
52.87770707160767 6.7894
52.90276741793998 6.757060000000001
52.92763619336701 6.72032
52.952507655698504 6.70397
52.977381806977576 6.70852
53.00245301017842 6.695639999999999
53.02733256653592 6.681780000000001
53.052214817996074 6.66972
53.077099766608484 6.65119
53.102181859804446 6.637760000000001
53.127072229988265 6.599410000000001
53.15196530349892 6.62097
53.17686108239249 6.5416099999999995
53.20195409881522 6.55199
53.22685531582556 6.5312
53.25175924441303 6.5142
53.27666588664027 6.52468
53.30176985962693 6.50534
53.3266819565689 6.48423
53.35159677336455 6.49369
53.376514312083096 6.49335
53.40162927507703 6.477869999999999
53.42655228516116 6.43289
53.45147802340193 6.43499
53.47660125628886 6.45011
53.50153247842639 6.4034
53.52646643496923 6.36415
53.55140312799818 6.39219
53.576537409691696 6.38
53.60147960336152 6.3673
53.626424539786164 6.3304800000000006
53.65137222105307 6.30275
53.67651758529126 6.321969999999999
53.70147078399681 6.30851
53.72642673383343 6.27923
53.75138543689533 6.23537
53.776541917524526 6.26205
53.801506154876755 6.23825
53.826473151763246 6.20985
53.851442910284916 6.23231
53.87661054126026 6.21615
53.9015858509782 6.20541
53.92656392866066 6.18295
53.95154477641532 6.14325
53.976723591801296 6.12564
54.00171000771266 6.1033800000000005
54.02669920004598 6.10658
54.051691170915745 6.05912
54.076881204886796 6.09576
54.101878760928514 6.0838
54.12687910187696 5.9787
54.152077577768296 6.02623
54.1770835166946 6.03629
54.20209224691339 5.95947
54.22710377055121 5.98309
54.25231352511594 5.94615
54.27733066384342 5.918130000000001
54.30235060239643 5.96168
54.32737334290836 5.9031199999999995
54.35259441062629 5.85696
54.377622783395324 5.87219
54.40265396455061 5.86379
54.42768795623251 5.79119
54.45292037169559 5.78901
54.477960012857906 5.77609
54.50300247099511 5.79648
54.52804774825457 5.7451099999999995
54.55329154616743 5.71488
54.57834249018678 5.67024
54.6033962597977 5.68314
54.6284528571545 5.64801
54.653708072335164 5.66395
54.67877035378786 5.5996
54.70383546947698 5.58678
54.72890342156389 5.57223
54.7541700889442 5.52698
54.77924374251975 5.5104
54.8043202390049 5.47473
54.82959552413022 5.47269
54.8546777351945 5.49377
54.87976279569621 5.4337800000000005
54.90485070780914 5.47274
54.930137506558005 5.4154599999999995
54.95523115074295 5.42809
54.98032765308844 5.38131
55.005427015775496 5.3636800000000004
55.03072536339621 5.37459
55.05583047570572 5.29474
55.080938454927676 5.271730000000001
55.10604930325027 5.28779
55.131359235107396 5.24512
55.15647585066083 5.26323
55.181595341907496 5.20861
55.20671771104285 5.13633
55.232039262617704 5.1237
55.25716741665048 5.04172
55.28229845518636 5.04595
55.30743238042802 5.03451
55.33276558731939 5.01295
55.357905315183636 5.02193
55.383047936390035 4.97377
55.40819345314859 4.9608300000000005
55.433538351073295 4.94824
55.458689688238415 4.937180000000001
55.483843927614096 4.87748
55.509197623043605 4.88249
55.53435769621134 4.89192
55.55952067826466 4.84377
55.5846865714265 4.8247599999999995
55.61005202069737 4.80815
55.63522376553902 4.75707
55.66039842818645 4.76807
55.68557601087004 4.74403
55.7109532500271 4.68035
55.73613670233794 4.7355
