TT I
1.2716486653135266 7.14469
1.2939594142134223 6.8926300000000005
1.3162702121660406 6.93837
1.3385810600174564 6.22023
1.3608919586137629 6.46525
1.383202908801069 5.9840800000000005
1.405513911425503 5.79378
1.4278249673332093 6.12301
1.4501343378461518 6.1332699999999996
1.4724455028545926 5.76884
1.4947567236847858 5.8793
1.517068001182951 6.128340000000001
1.5393793361953272 5.66601
1.5616907295681737 5.9323
1.5840021821477681 5.43574
1.60631369478041 5.34109
1.6286252683124185 5.02315
1.6509369035901333 4.68126
1.6732468618895553 4.91592
1.695558623192809 4.6183
1.7178704487808514 5.145580000000001
1.7401823395001077 4.67071
1.7625012545597203 4.4271
1.7848028405262486 4.8586800000000006
1.8071218901122095 5.19545
1.8294236121921872 5.181830000000001
1.8517427996910911 4.55083
1.8740620574440425 3.97704
1.8963639900671978 4.6985
1.9186833908139995 4.7708
1.9409854680117449 4.6971300000000005
1.9633050151394713 4.5351300000000005
1.9856246367570705 4.62087
2.0079269371922672 4.25906
2.03024671027244 4.4772099999999995
2.0525491637446027 4.28795
2.074869091674931 4.48245
2.097171701569106 4.29234
2.1194917877373847 4.23894
2.141811954326636 4.54065
2.164114805233074 4.69986
2.186435135143035 4.53849
2.208738150935709 5.43428
2.231058647554722 6.8368
2.2533792288321184 5.48942
2.275682498336085 4.94572
2.298003251406138 5.54146
2.3203066942619714 5.23161
2.3426276225136022 5.08039
2.3649486396617507 5.5423800000000005
2.387252348930071 6.11338
2.4095735463442893 6.33955
2.4318774374315884 6.29244
2.4541988185014043 6.48891
2.476502894794693 7.1218699999999995
2.498824462909887 7.063160000000001
2.521146125856138 7.49475
2.5434504863470337 7.62506
2.5657723414244717 8.13017
2.588076895590662 7.4668600000000005
2.610398946189713 8.08492
2.6327210958598384 8.02265
2.6550259469304716 8.536
2.6773482972090137 8.05325
2.6996533504259 7.93319
2.7219759047039602 7.78647
2.744298562293959 8.395560000000001
2.7666039251246595 7.963310000000001
2.7889267918020164 8.14412
2.8112323652516555 7.74932
2.833555444408179 8.156139999999999
2.8558786311183852 7.923539999999999
2.8781845268938557 8.331560000000001
2.9005079311721484 8.72268
2.9228140460410397 8.79861
2.9451376712799635 8.49723
2.967444008632326 9.293389999999999
2.9897678582247247 9.54636
3.0120918213106695 9.893089999999999
3.0343984987899373 10.3335
3.0567226913198637 10.6724
3.079029599759726 11.4026
3.101354025127254 11.8977
3.123678568232338 11.9777
3.145985829517914 12.6833
3.16831061055229 13.2806
3.1906181112775593 13.652000000000001
3.212943133635653 14.4592
3.2352682779763207 14.5446
3.2575761442691227 14.9209
3.2799015350264273 15.1048
3.302209649240067 15.4714
3.3245352898092655 16.1588
3.3468436553365257 16.8454
3.369169549113219 17.1681
3.3914955708171384 18.1052
3.413804319727358 18.1289
3.4361305997334863 18.1573
3.4584396084414553 18.8311
3.4807661501462652 19.3244
3.503092824025881 20.0818
3.5254022288463154 20.1061
3.5477291695206588 20.5545
3.5700388426251948 21.0044
3.5923660534916446 22.1571
3.6146934007816114 23.6444
3.637003482731501 28.176
3.6593311053109985 29.5385
3.681641464033634 26.2268
3.7039693653009733 24.1183
3.726297407241705 24.4749
3.7486081875460804 24.5683
3.7709365132734978 25.0501
3.793247578841633 25.4757
3.8155761917550093 25.8335
3.8378875459837216 26.1768
3.8602164494827234 26.4451
3.882545499606844 27.5299
3.9048572932539183 27.87
3.9271866390645718 28.448
3.9494987298666713 28.8199
3.971828374764527 30.1578
3.9941581705403255 30.15
4.016470713506008 30.5602
4.038800813471445 31.3064
4.061113662089144 31.7695
4.0834440696459176 32.4877
4.105774632334751 32.8895
4.128087945865126 33.2873
4.150418821249301 34.0811
4.172732448931298 35.0209
4.195063640413578 35.6158
4.2173775856475215 36.5288
4.239709096631102 39.9498
4.262040768704612 54.7578
4.284355196706267 64.6609
4.306687193387355 55.3242
4.329001947444346 44.4257
4.35133427213731 41.5486
4.373666762177566 41.9308
4.395982011761091 42.7393
4.418314834921175 43.4812
4.44063041906622 45.7679
4.4629635787515625 47.1891
4.4852969080429785 48.5267
4.5076130004776225 50.4198
4.529946671403969 53.9359
4.552263106909177 58.1243
4.574597122877047 55.9304
4.596931312711224 53.8184
4.619248269273446 53.2466
4.6415828092605835 54.0894
4.663900117405352 55.4904
4.686235010953232 56.6058
4.708552674085913 58.1017
4.730887924602802 59.4495
4.753223354952695 61.7834
4.775541557023902 64.4213
4.797877349456786 66.9609
4.820195915032126 67.7643
4.842532072957498 68.1501
4.864868414979744 70.3157
4.88718753227192 75.1072
4.909524244902505 77.7323
4.931843734218147 76.8736
4.954180820867835 77.8982
4.976518095879839 81.7994
4.998838149695359 84.471
5.021175803844231 86.7932
5.043496238205739 90.6152
5.065834274903528 94.5209
5.088172504230693 98.7938
5.1104935158799565 104.78299999999999
5.132832132875765 117.39299999999999
5.155153533596801 136.861
5.1774925416746225 176.46400000000003
5.199814334878411 376.348
5.2221537374521505 1008.16
5.244493338631803 2844.8
5.266815727034316 8096.94
5.289155727832427 13917.5
5.311478517248165 8465.65
5.333818921080011 2278.8
5.356159527788849 426.97
5.3784829252032536 179.977
5.400823940070432 144.467
5.423147747031976 125.76799999999999
5.445489173474152 118.024
5.467830807066149 117.58
5.490155234831516 117.493
5.512497285125229 111.336
5.534822130975162 105.484
5.557164601388673 101.814
5.579489868738879 98.4999
5.601832762690846 97.3914
5.6241758697774475 96.0908
5.646501775867269 95.5416
5.668845311622074 94.8526
5.691171647754637 94.4412
5.713515615597765 93.4033
5.735859800852677 92.8645
5.758186788542988 94.3395
5.780531411018185 97.0223
5.802858837297399 96.4695
5.825203900414495 96.3652
5.8475491852224 98.3066
5.869877275883075 97.9896
5.892223006467101 95.609
5.914551544266608 94.429
5.936897724049891 96.9858
5.959244129804903 104.426
5.981573344815301 132.759
6.0039202049061 243.287
6.026249875609095 476.98400000000004
6.04859719346037 982.174
6.070927323278297 2325.35
6.093275102315365 4843.56
6.115623113320588 5596.13
6.137953938319995 2884.41
6.160302415650845 797.041
6.182633708324452 190.946
6.2049826554078376 101.956
6.227331838745022 86.7832
6.249663839443684 81.8161
6.27201349767565 78.1321
6.294345974611799 77.0001
6.316696111167083 75.8544
6.339046488263839 74.0781
6.361379686074702 71.056
6.383730546639482 69.8291
6.406064229255215 69.0815
6.428415576718203 69.6344
6.450749747566656 68.4244
6.47310158535871 66.361
6.495453669698332 64.4517
6.517788579421056 63.6885
6.540141159237969 62.7487
6.562476565766648 62.0274
6.5848296444934045 62.2105
6.607182974060425 62.172
6.6295191323281015 61.9901
6.651872965955752 60.9712
6.6742096296068985 61.3727
6.6965639707294615 65.7351
6.71891856698715 66.0514
6.741255995248479 61.763000000000005
6.763611104154477 58.8656
6.785949046381137 57.9017
6.808304671371482 58.3294
6.8306605557940046 59.513000000000005
6.852999275508618 58.9844
6.875355681171544 57.471000000000004
6.897694923437771 56.0393
6.92005185377892 55.4822
6.9423916220322655 55.3252
6.964749080490181 54.8606
6.987106804399774 55.0334
7.009447368180821 55.5337
7.031805625367033 54.9681
7.054146723727803 54.7525
7.076505517631004 54.0808
7.098864581288365 54.3904
7.121206488070854 54.1513
7.143566093607822 54.1976
7.165908543567245 54.981
7.188268694426048 55.1008
7.2106291193438095 54.2418
7.232972390625943 53.623999999999995
7.255333366030969 54.305
7.277677189091925 58.7353
7.300038718428332 64.0572
7.322400526130865 61.9932
7.344745183422596 57.0228
7.367107550224791 54.0558
7.389452767901992 53.6804
7.411815697249891 53.6877
7.434161478756298 52.9632
7.456524974096713 52.8302
7.478888753837185 53.0033
7.501235387657368 53.5521
7.523599738562711 54.4562
7.545946944825532 55.4448
7.568311870344528 56.1291
7.5906770845765665 55.2996
7.613025156078678 54.692
7.635390950099687 54.8012
7.657739602662809 54.6101
7.680105979923558 55.2699
7.702472650212829 56.6326
7.724822180948224 56.1585
7.747189439655568 55.8684
7.769539560075357 55.6455
7.791907410653562 55.7543
7.81425812420825 55.9112
7.836626570110925 56.438
7.858995315087906 56.8307
7.881346924933401 57.3041
7.903716270417482 57.6956
7.926068482028405 57.9799
7.948438431475253 58.7905
7.9708086843180235 59.2777
7.993161805171116 59.8687
8.015532667162402 60.5845
8.037886398416653 61.903999999999996
8.060257873014221 62.2346
8.082629655331942 63.0075
8.104984308787587 63.4708
8.127356708900503 64.5558
8.149711981398308 68.1397
8.172085002766314 69.1993
8.194458336181368 68.8843
8.216814543847752 68.158
8.23918850371002 69.1625
8.26154533906492 69.7825
8.283919928836452 71.642
8.306277395339652 72.9407
8.328652618483376 73.8764
8.351028159736202 76.0457
8.373386579575245 78.0637
8.395762759396959 80.0087
8.418121819038275 82.5095
8.440498640894003 87.5073
8.462875785192262 97.12700000000001
8.485235811156207 124.155
8.507613602688501 179.112
8.529974277114228 270.469
8.552352719347912 407.728
8.574731488360351 676.5360000000001
8.59709314210385 1271.06
8.619472567021075 2070.33
8.64183487789147 2361.89
8.664214962183097 1766.34
8.686577933647762 799.028
8.708958680784317 293.143
8.731339760774953 137.886
8.753703729764451 104.084
8.77608547780821 95.9658
8.798450116065078 93.5878
8.820832535634787 91.4973
8.843215292401656 91.7718
8.865580941199045 91.3266
8.887964374703538 90.9225
8.910330701447199 90.3522
8.932714815164482 89.9919
8.955099270424924 86.999
8.977466620733543 85.1881
8.999851761421976 84.851
9.022219798361645 83.7838
9.04460562795561 83.9076
9.066991803441677 83.8041
9.089360876979615 84.3162
9.111747746589993 84.3142
9.13411751544971 83.1376
9.156505082664324 82.5784
9.178875550323522 81.9484
9.20126381862328 82.3651
9.223652438908596 83.3481
9.246023961427412 84.7708
9.26841328802173 84.912
9.290785518039224 84.5072
9.313175554425882 85.035
9.335565947154315 86.1616
9.357939245086508 86.6412
9.380330352834827 85.279
9.40270436697103 85.0574
9.425096193225055 84.5955
9.447488380180165 84.4994
9.469863475295412 84.3079
9.492256385987508 84.7135
9.514632206018318 85.234
9.537025843935714 85.665
9.559402392368193 86.9287
9.581796761000229 89.2614
9.604191496441521 90.5609
9.626569144158516 92.5348
9.648964615551032 93.2664
9.671343000390081 92.3703
9.693739211225699 92.1874
9.716135793237463 92.0238
9.738515290448102 92.8547
9.760912617143402 94.6187
9.783292860202891 96.6905
9.805690935076182 98.3655
9.828089385495742 99.1624
9.850470754023561 100.90299999999999
9.872869957865444 102.635
9.89525208097539 105.65700000000001
9.917652041736662 111.39200000000001
9.940052382417589 122.27600000000001
9.962435644102392 151.312
9.984836746950979 194.421
10.007220771957746 260.847
10.029622640473708 370.00199999999995
10.052007432299963 555.069
10.074410069984072 865.337
10.096813093716005 1375.66
10.119199042482517 1918.27
10.141602840636468 2028.41
10.163989564971628 1459.1
10.186394141051062 724.561
10.208799107559706 305.89599999999996
10.231187001965623 159.851
10.253592751657669 117.87
10.275981430388155 109.236
10.298387966769793 106.352
10.320794897965431 105.48100000000001
10.343184759907361 104.632
10.36559248305461 103.523
10.387983138083852 104.914
10.410391656691655 112.088
10.432800574501677 123.999
10.455192425893369 140.955
10.47760214443012 168.327
10.499994797678786 214.831
10.522405320453982 300.744
10.54479877906917 423.82
10.567210109595656 558.867
10.5896218454736 594.99
10.612016518879773 467.82
10.634429067781074 287.954
10.656824555333241 166.468
10.679237920773568 110.89299999999999
10.701651695961992 93.1729
10.724048411481384 88.4725
10.746463008485165 85.3769
10.768860546937125 83.9741
10.791275969274796 82.5532
10.81369180576079 81.8861
10.836090585366925 80.5908
10.858507252467449 79.3073
10.88090686379991 78.315
10.903324365036394 77.9304
10.925724811614439 76.8823
10.948143150509463 77.1886
10.970561909719066 76.7618
10.992963615930844 76.1797
11.015383218085756 74.6461
11.037785768347074 73.1564
11.06020621697282 72.414
11.082627090322113 71.5308
11.105030913430326 71.0034
11.12745263854165 70.311
11.149857314510728 70.1424
11.172279894912576 70.6689
11.194702904450653 69.6294
11.217108866490921 68.7971
11.239532736615194 68.0131
11.26193956033512 67.4246
11.284364294577085 67.3703
11.306789462371718 66.6455
11.329197585398376 66.4578
11.351623622610898 66.508
11.37403261614354 65.6416
11.396459526308487 65.4964
11.418869393879497 65.0472
11.441297180532617 64.7407
11.463725406927658 64.1645
11.486136592353875 64.0368
11.508565700543707 63.8572
11.530977768845315 63.9492
11.553407762368774 63.8451
11.575838200059769 63.7398
11.598251599479612 63.2229
11.620682927815501 62.8832
11.64309721895548 63.1036
11.665529441478206 62.5852
11.687962112597958 62.5589
11.710377748130886 62.6472
11.732811318753434 62.5589
11.755227854859067 62.075
11.777662328529495 62.0553
11.800079768750786 62.1362
11.822515149015453 62.3669
11.844950984084935 62.607
11.867369787303163 62.0226
11.889806534289491 62.1613
11.912226250487029 62.6534
11.934663912939751 63.1246
11.9571020346363 63.5743
11.979523127133968 63.9167
12.001962169624331 64.5687
12.024384183972964 66.0409
12.046824150809913 69.3062
12.069264581333726 74.0141
12.091687985297767 80.1741
12.11412934550045 90.1041
12.136553680195208 106.314
12.158995973632788 129.572
12.181438735204349 161.218
12.20386447284199 194.388
12.226308172985636 209.095
12.24873485024193 192.08700000000002
12.271179492516982 150.202
12.293607112949127 108.68799999999999
12.316052700916226 81.934
12.338498763250042 68.9599
12.360927805303868 64.2845
12.383374818673879 63.7312
12.405804812803074 63.6088
12.428252780773262 63.4312
12.45070122756722 63.6459
12.473132656675375 63.7253
12.49558206341869 64.4413
12.518014453510101 64.5811
12.540464823770117 64.6438
12.562915677315177 64.6968
12.58534951575545 64.6656
12.607801338171472 64.437
12.630236146511358 65.3174
12.652688941369085 66.1226
12.675124723177234 66.6887
12.697578494048786 66.942
12.720032754458185 66.4083
12.742470003354093 66.6436
12.764925245138771 67.074
12.787363476431278 67.7672
12.809819703166806 68.0057
12.83227642391173 68.798
12.854716135692716 69.6274
12.877173846755147 70.7204
12.899614549869717 71.2313
12.9220732548287 72.337
12.94453245827299 72.8689
12.966974655289818 73.7419
12.989434858002571 74.1435
13.011878055298721 75.0773
13.034339260862497 76.0637
13.056800969391883 77.6038
13.079245674017244 80.6222
13.101708390774869 85.1482
13.12415410463411 93.402
13.146617833206086 103.444
13.169064559883248 114.554
13.191529303857127 129.993
13.213994557076367 153.95600000000002
13.236442809902437 192.332
13.258909083908291 253.303
13.28135835851934 329.51800000000003
13.30382565690295 404.15
13.326293469022952 450.963
13.348744283242008 417.17699999999996
13.371213125129904 320.474
13.39366497011003 217.486
13.416134845360597 146.586
13.438605238843131 112.884
13.46105863690397 104.604
13.483530069144786 107.09
13.505984506951902 113.20299999999999
13.528456981549432 124.228
13.550929978879088 140.24
13.573385983253365 165.437
13.595860028340867 204.995
13.618317081455832 261.02099999999996
13.64079217790333 331.409
13.663250283359057 382.356
13.685726434770173 389.335
13.708203115221277 324.819
13.730662806148091 239.549
13.75314054697177 162.31799999999998
13.775601299246777 113.184
13.798080104050406 91.4117
13.820559442405358 83.2296
13.843021793671388 80.7966
13.865502201420897 79.4606
13.887965623051947 78.9636
13.910447103807167 77.9208
13.932929122629764 76.8493
13.955394156785959 76.5108
13.977877254034569 75.5532
14.000343367582113 74.7217
14.022827546871707 73.9904
14.045294743423524 73.2606
14.06778000837062 72.837
14.090265817715476 72.8302
14.112734645763819 72.1629
14.13522154619454 71.9183
14.157691466286913 71.7921
14.180179461423874 71.6993
14.202668005486178 71.028
14.22513957064374 70.6266
14.247629214846473 70.0107
14.270101881097517 69.5078
14.29259262906496 69.2392
14.315083930490205 69.4473
14.337558255389705 69.2201
14.360050666019726 69.2417
14.382526101071944 68.9302
14.405019624534942 68.6592
14.427513705993134 68.4865
14.449990813291825 68.7631
14.47248601302899 68.3053
14.49496423954951 68.4438
14.517460561197822 68.6117
14.539939910570322 68.1821
14.562437357763558 68.3975
14.58493536931253 68.7804
14.607416409993311 69.071
14.62991555254159 69.5761
14.652397725157423 69.3651
14.674898002342799 69.8735
14.697398848433282 70.1642
14.719882725991326 71.6975
14.74238471217934 73.6926
14.764869730765593 76.8996
14.787372860692983 80.2539
14.809876564079925 85.0645
14.83236330125751 91.4967
14.854868153850365 100.69200000000001
14.877356041159485 115.645
14.899862046604186 134.161
14.922351087688757 162.615
14.944858249632887 197.16299999999998
14.967365991421232 224.128
14.989856770231246 232.524
15.012365673994204 214.528
15.03485761569738 176.273
15.05736768508665 132.36700000000002
15.07987833888692 101.71600000000001
15.102372032001655 83.3054
15.124883856909658 73.7923
15.14737872204565 71.0663
15.169891721717274 70.0725
15.192405310371893 69.3851
15.214901940621196 68.8876
15.237416709527137 68.3471
15.259914520936249 68.1475
15.282430473753607 67.5306
15.304947020131227 66.9473
15.327446610371178 66.7308
15.349964346154254 66.4751
15.372465126703139 66.3386
15.394984055556009 66.0923
15.417486030076159 65.9736
15.44000615566487 65.5565
15.462526881230803 65.4724
15.485030653812652 65.2673
15.507552581617434 65.0223
15.530057557334603 65.4041
15.55258069104857 65.6499
15.575104429329837 65.7931
15.597611216864632 65.7437
15.620136166564563 66.3847
15.6426441664095 68.1101
15.665170331202765 70.637
15.687697105158826 73.632
15.710206930593545 76.9255
15.732734925158933 81.6685
15.755245972089478 88.4874
15.77777519094324 97.7414
15.800287463046663 111.198
15.822817909869592 131.394
15.84534897229804 154.60399999999998
15.867863089299354 182.236
15.890395385222186 199.805
15.912910736597423 197.912
15.935444269699861 175.582
15.957978423016485 140.641
15.980495633101265 108.595
16.003031029129367 85.111
16.02554948280019 70.7968
16.048086125229432 64.8736
16.070623392487107 62.9443
16.09314371869582 61.896
16.11568223789321 61.0072
16.13820381691126 60.4424
16.160743591742527 59.9354
16.183283996022084 59.376999999999995
16.205807461423195 58.7425
16.228349126881973 58.2858
16.25087385432698 58.1013
16.27341678466365 57.5503
16.29594277784926 57.2525
16.31848697676433 57.0285
16.341031811604868 56.6395
16.36355971058487 56.706
16.3861058195587 56.3424
16.40863499352978 55.8165
16.431182380342005 55.4998
16.453730407713202 55.2639
16.476261501364792 55.2502
16.498810812136167 54.9162
16.52134319004079 54.9772
16.54389378792203 54.8426
16.566445031001553 54.8411
16.588979342490088 54.6546
16.61153187824822 54.4616
16.634067483263312 54.3611
16.656621315414416 54.1987
16.679175797408888 53.961000000000006
16.701713349928728 54.0087
16.72426913389191 54.2083
16.74680798922351 54.2295
16.76936507887444 54.2164
16.791905240734874 54.2625
16.814463639794468 54.2022
16.837022695210294 54.2304
16.859564824093756 54.3253
16.882125194503903 54.3188
16.904668639217885 54.4588
16.927230328348003 54.629
16.949792678493612 54.7749
16.972338104193863 54.8441
16.994901778652235 54.7985
17.017448529496576 55.3302
17.040013531998152 55.5821
17.06257920018044 56.3068
17.0851279459922 56.9582
17.107694947817667 57.9411
17.130245028099072 58.6409
17.15281336730298 59.8589
17.17536478578733 61.6148
17.19793446610687 63.9941
17.220504818648422 67.2773
17.243058251703697 70.5653
17.265629950971032 75.7397
17.288184731571736 81.0182
17.310757781306908 83.9408
17.33333150794385 83.7351
17.355888317140174 79.9364
17.37846339986244 73.2868
17.401021565958885 67.3591
17.42359800851343 63.07
17.44617513265564 60.6277
17.468735341390783 59.286
17.491261035594565 58.7129
17.51396340099364 58.5647
17.536490463869136 58.6843
17.559018209820174 58.5836
17.58154663977963 58.7612
17.604251766089718 59.0472
17.626781572227713 59.1198
17.64931206518155 59.3191
17.671843245885103 59.926
17.69455114821572 59.9622
17.717083712612634 60.2317
17.739616967569667 60.6148
17.762150914021706 61.1227
17.78486160749854 61.2284
17.807396945166804 62.4301
17.829932977143503 63.7816
17.85246970436452 65.2732
17.875183204129467 66.8807
17.897721330097664 68.7575
17.920260154126645 71.257
17.942799677153296 74.4764
17.9655159983646 78.5692
17.988056927677544 84.4994
18.010598558807683 92.3301
18.033140892692916 103.075
18.05586005052525 115.78200000000001
18.07840379824407 129.572
18.10094825154059 139.534
18.12366954819864 143.442
18.146215420998306 137.58
18.16876200220057 124.586
18.191309292745153 109.193
18.214033452627167 95.6234
18.236582170236648 87.1208
18.259131600016456 84.3891
18.281681742907335 85.8958
18.304408781233683 91.4691
18.32696035875955 98.1899
18.349512652227624 102.773
18.372065662579683 107.259
18.394795594587553 105.64200000000001
18.41735004715306 98.5116
18.43990521943684 89.9608
18.46246111238171 81.0635
18.485193953325208 71.9674
18.507751296070428 66.6105
18.530309362314178 63.9564
18.552868153000343 62.4979
18.57560391815056 61.3906
18.59816416623245 61.1385
18.620725141597372 60.8349
18.643286845190268 60.2785
18.666025549835414 59.8407
18.688588718427933 59.2998
18.711152618092243 59.1065
18.73389353884365 58.8608
18.75645890921984 58.3466
18.77902501351406 58.2775
18.801591852673102 58.2542
18.824335739722738 57.5758
18.846904057212626 57.5687
18.8694731124168 57.278999999999996
18.89204290628315 57.2906
18.914789774966803 56.8732
18.937361054791623 56.701
18.959933076131318 56.4787
18.982505839934877 56.5215
19.00525570560582 56.3328
19.027829963004184 56.3493
19.05040496572238 56.6348
19.072980714710468 56.6085
19.095733592739563 56.7636
19.11831084296757 56.7456
19.140888842324735 57.1693
19.16346759176222 57.4874
19.18622349753803 57.8971
19.208803755869358 59.2543
19.231384767143577 60.4405
19.253966532312948 61.8318
19.276725481241822 64.3062
19.29930876296784 66.8542
19.3218928014549 69.9656
19.34465404436217 73.0764
19.36723960516257 75.2772
19.389825925592426 75.4959
19.412413006605938 73.2663
19.43517731967805 68.8481
19.457765930683355 64.2167
19.48035530514408 60.1547
19.50294544401556 57.0868
19.525712842708348 55.2213
19.54830451925909 54.3486
19.570896963095727 53.7483
19.593490175174704 53.4025
19.616260674962184 53.4231
19.638855432416964 53.1693
19.661450960992624 53.4649
19.68404726164677 53.107
19.706820878021247 52.8512
19.729418731756834 53.0887
19.752017360452857 52.7464
19.77461676506804 53.1819
19.797393513540218 53.2267
19.819994478951667 53.476000000000006
19.84259622316767 54.0731
19.8651987471481 54.5076
19.887978643247177 54.7973
19.91058273574792 55.2664
19.933187610901943 56.1588
19.955969879466828 57.4173
19.97857632894404 58.9061
20.00118356396599 60.7845
20.023791585494575 63.1708
20.046577028914875 66.347
20.069186632506966 68.5218
20.091797025500632 70.4495
20.114408208858933 70.3162
20.137196842715273 69.2619
20.159809615886765 66.9496
20.18242318232135 63.8799
20.20503754298326 61.6884
20.227829382875154 61.3214
20.250445341109344 61.7866
20.27306209647285 62.9539
20.29567964993108 64.4808
20.31847471147704 65.475
20.34109387027612 65.8884
20.363713830075454 64.7133
20.386334591841646 62.2351
20.409132890679302 59.0339
20.431755265564437 56.1867
20.454378445325528 53.6426
20.477002430930366 52.1658
20.499803982716553 51.1526
20.522429589228004 50.3191
20.54505600449589 50.1407
20.567683229489194 50.1603
20.590488049900088 49.8559
20.61311690359731 49.7773
20.63574656993626 49.5304
20.658553853717297 49.2083
20.681185154618298 49.0788
20.703817271080066 48.9199
20.72645020407368 48.6141
20.749260783967177 48.5378
20.771895359337133 48.4793
20.794530754161617 48.6334
20.817166969412938 48.6671
20.83998086114876 48.3831
20.86261872660049 48.4803
20.885257415405402 48.317
20.90789692853701 48.4637
20.930714147864748 48.0696
20.953355319030678 48.2607
20.97599731745334 48.2413
20.99864014410749 48.15
21.021460706796564 48.1301
21.044105199328826 48.4315
21.06675052302631 48.5972
21.089396678865015 48.8932
21.112220600704806 49.2513
21.134868430275347 49.397
21.15751709492456 49.8163
21.180166595629693 50.1025
21.202993892429635 50.8116
21.22564507473034 51.2492
21.24829709602816 51.3555
21.27112693608965 51.1064
21.293780644891275 50.7597
21.316435195634053 50.0786
21.339090589297417 49.1156
21.361923832041875 48.7512
21.384580921090404 48.2677
21.407238856007325 48.0931
21.429897637773326 47.8702
21.45273429906592 47.9594
21.475394784108598 48.1208
21.498056118951983 48.1693
21.520718304578022 48.4618
21.543558400304388 48.4046
21.566222297108816 48.5229
21.58888704765135 48.8415
21.61155265291521 49.2317
21.63439619898156 49.4451
21.657063523335786 49.8027
21.67973170537063 50.3253
21.7024007460706 50.8198
21.72524775840385 51.4365
21.747918526116475 52.6442
21.770590155457388 53.891000000000005
21.79326264741238 55.5384
21.816113141960237 57.4108
21.838787368860547 59.5998
21.861462461341976 61.863
21.884315579735777 63.7977
21.90699241312273 64.6274
21.92967011506078 64.5346
21.95234868653799 63.0778
21.9752053151131 61.4067
21.997885635446785 59.0704
22.020566828293532 57.2855
22.04324889464272 56.051
22.066109049404666 55.4928
22.088792872571794 55.6221
22.111477572219204 56.0503
22.1341631493376 55.9194
22.157026846313123 55.1898
22.179714188221507 54.1872
22.202402410582668 53.0165
22.22509151438863 51.5618
22.24795876962584 50.38
22.270649646204486 49.5789
22.293341407213727 48.9455
22.316034053646906 48.7253
22.338904883215342 48.4541
22.36159931041458 48.4773
22.38429462602756 48.2598
22.40699083104897 48.17100000000001
22.429865251039757 48.056999999999995
22.452563244831367 48.0351
22.47526213102522 48.159
22.49813925616515 48.281000000000006
22.520839937143307 48.1457
22.543541513520587 48.299
22.56624398629403 48.1606
22.589124730075895 48.2428
22.611829005656723 48.5427
22.63453418063466 48.4653
22.657240256008077 48.5332
22.680124634582935 48.7103
22.70283252079775 48.9222
22.725541310413075 49.2859
22.74825100442868 49.7717
22.771139033969575 50.1344
22.79385054687155 50.2728
22.81656296718292 51.0016
22.83927629590484 51.798
22.862167992606945 52.9211
22.88488314827121 54.1918
22.907599215359284 55.4035
22.93031619487366 56.4452
22.953211574954405 57.3991
22.975930389478226 57.7965
22.998650119445763 57.4939
23.02137076586092 56.2548
23.044269845560063 54.4462
23.06699233506288 52.8075
23.089715744034912 51.2182
23.112617610931565 49.9328
23.135342869061212 49.0274
23.158069049684816 48.3956
23.1807961538087 48.3499
23.20370174880544 48.2644
23.226430710184808 48.5077
23.249160598093425 48.5175
23.271891413539002 48.4177
23.294800752937697 48.543
23.31753343374794 48.7877
23.340267045128353 48.928000000000004
23.36300158808808 49.2805
23.38591468821339 49.5105
23.408651104658304 50.0276
23.431388455719986 50.7793
23.454126742409 51.4617
23.4770436196085 52.7269
23.499783787914662 54.0262
23.522524894889884 55.2825
23.54526694154616 56.4767
23.56818761219047 57.6961
23.59093154860734 57.8171
23.613676427751283 57.4445
23.636422250635754 56.0969
23.659346731118656 54.1076
23.68209445191868 52.1216
23.704843119509587 49.9432
23.72759273490623 48.2798
23.750521041644767 47.2425
23.77327256312355 46.4257
23.796025035462787 46.0453
23.818956224555475 45.5471
23.841710609113413 45.4319
23.86446594758979 45.3201
23.887222241002014 45.1434
23.910157285144578 44.8292
23.932915498962537 44.8206
23.955674670778713 44.7778
23.978434801611975 44.5514
24.001373717286125 44.38
24.024135776723917 44.3063
24.046898798245582 44.1727
24.06966278287146 44.0046
24.092605586582614 43.7346
24.115371508023642 43.7187
24.1381383956401 43.5921
24.16090625045381 43.6361
24.183852958731244 43.5289
24.206622758582608 43.3573
24.229393528706886 43.196000000000005
24.252165270127392 43.253
24.27511589952438 43.2183
24.297889594216997 42.9929
24.32066426328598 42.8564
24.34343990775613 42.7535
24.36639447485003 42.7817
24.38917208083877 42.7401
24.41195066531332 42.6625
24.43490819850244 42.6523
24.457688750692377 42.6662
24.48047028445616 42.6643
24.503252800821233 42.6947
24.526214300784112 42.873999999999995
24.548998793132213 42.7966
24.57178427117417 42.6681
24.59457073593893 42.4896
24.617536219319863 42.4363
24.64032466834748 42.5065
24.663114107195035 42.2225
24.685904536893013 42.0113
24.708874020360852 42.0093
24.731666442613744 41.9963
24.754459858818787 41.9454
24.777254270007962 41.7919
24.80022777025625 41.8313
24.82302418230472 41.7573
24.845821592443674 41.8304
24.86862000170663 41.8745
24.891597535453727 41.6422
24.914397953892728 41.9132
24.93719937456671 41.9568
24.96000179851076 42.2337
24.98298338249997 42.2149
25.00578782394922 42.4686
25.028593271784167 42.6276
25.05157790644186 42.9727
25.07438537804115 43.031000000000006
25.097193859145293 43.4122
25.120003350792075 43.6532
25.142992065061257 43.9789
25.165803588823465 44.1653
25.18861612625217 44.2292
25.211429678386736 44.2632
25.234422489079968 44.2543
25.257238081693636 44.3832
25.280054692141732 44.4145
25.3028723214652 44.5108
25.325869245420463 44.6068
25.348688923599397 44.6859
25.371509623787006 44.5783
25.394331347025812 44.0095
25.41733240110666 43.3001
25.440156181590016 42.6497
25.46298098826268 42.1653
25.48580682216873 41.7683
25.50881202326435 41.2702
25.53163992281684 40.9431
25.55446885274561 40.751999999999995
25.577298814096377 40.5625
25.600308179121807 40.6023
25.623140214533745 40.6184
25.64597328451537 40.3808
25.66898578564376 40.1374
25.691820936010206 40.2702
25.714657124097695 40.2242
25.737494350954734 40.1745
25.760511045684957 40.0297
25.783350361364224 40.1099
25.806190718969255 40.1233
25.82903211955018 40.2114
25.852053024868923 40.3311
25.874896522722523 40.208
25.897741066713106 40.0924
25.920586657892454 40.4143
25.943611790812668 40.5049
25.966459487728237 40.5784
25.989308234998564 40.6767
26.01215803367705 40.9836
26.03518741123814 41.2636
26.05803932412957 41.4016
26.080892291600094 41.3262
26.10374631470478 41.4215
26.12677995397268 41.5301
26.14963609978026 41.2811
26.172493304397875 40.694
26.19535156888223 40.6142
26.218389486949604 40.2649
26.241249882640123 40.1584
26.26411134137826 39.9638
26.28715248187403 39.8826
26.31001607820869 39.6354
26.3328807407756 39.4312
26.35574647063438 39.6744
26.37879191991473 39.8099
26.401659795896734 39.6917
26.424528742360263 39.9901
26.447398760366614 40.133
26.470448535598294 40.1996
26.49332070826805 40.4645
26.516193955675355 40.7863
26.53906827888316 40.9609
26.562122397260108 41.1475
26.584998883685063 41.5227
26.607876449110325 41.8573
26.63075509460056 41.9711
26.65381357334404 42.016999999999996
26.67669439061878 41.9573
26.699576291163382 41.6858
26.722459276044212 41.5335
26.745522132402975 41.1248
26.768407297649354 40.9615
26.791293550442003 40.6766
26.814180891848974 40.3532
26.837248143099337 40.0801
26.860137673466657 40.1436
26.88302829566349 39.8362
26.90592001075963 39.5662
26.92899167420566 39.3268
26.951885586870763 38.9644
26.974780595655517 38.8636
26.99785558178161 38.7418
27.020752794605112 38.6231
27.043651106772522 38.4906
27.06655051935668 38.5378
27.089629948036183 38.4343
27.112531573292053 38.3512
27.135434302194138 38.451
27.158338135817015 38.1316
27.181422024430987 38.1796
27.204328079372566 38.1727
27.22723524226965 38.2861
27.250143514198573 38.2727
27.273231880156334 38.2563
27.296142382065014 38.008
27.319053996245536 38.0463
27.341966723775965 38.0639
27.365059584515222 38.2001
27.38797455070062 38.0428
27.410890633481237 37.900999999999996
27.433807833936918 38.1682
27.456905206923906 38.3651
27.47982465472398 38.3017
27.502745223449743 38.2093
27.525666914182825 38.3456
27.548768816912457 38.2989
27.571692763693633 38.13
27.59461783573812 38.150999999999996
27.617723149491244 37.8453
27.640650484125285 37.7736
27.66357894728264 37.7367
27.686508540048052 37.705999999999996
27.709618414237887 37.6376
27.732550278321757 37.4529
27.755483275279115 37.5021
27.778417406196485 37.5792
27.801531858397514 37.5867
27.824468269376716 37.5547
27.847405817586786 37.5283
27.870344504116094 37.6762
27.893463551932008 37.8523
27.916404527281053 38.0541
27.93934664422563 38.1929
27.962289903855886 38.1531
27.98541356491974 38.5756
28.00835912214229 38.6562
28.03130582533231 38.9047
28.054253675581805 38.9303
28.077381967556104 38.8007
28.100332124185126 38.703
28.123283431160893 38.5166
28.146235889577238 38.3874
28.169368830154156 38.2458
28.192323603752033 38.0545
28.215279532083304 37.7181
28.238415973016764 37.5915
28.261374223145094 37.562
28.284333631303806 37.2303
28.307294198589954 37.0237
28.330435319167677 36.7673
28.353398217078915 36.5214
28.376362277420153 36.1711
28.39932750129032 36.1889
28.422473319286713 35.8991
28.44544088262495 36.0749
28.468409612800283 35.8477
28.491379510913497 35.6955
28.51453004413313 35.6778
28.53750229057244 35.6219
28.56047570826344 35.5999
28.583450298308804 35.6038
28.606605564586562 35.3314
28.629582511831156 35.363
28.65256063474956 35.1869
28.675539934446338 35.2279
28.698699951647605 35.244
28.72168161743193 35.1121
28.74466446331978 35.126
28.767648490417624 35.1639
28.790813276438353 35.2835
28.813799678527303 35.1978
28.836787265157085 35.2368
28.859955641890075 35.2335
28.882945610203045 35.0945
28.905936766392035 35.1009
28.928929111566863 35.0425
28.952102288520145 34.9705
28.975097024308607 34.7101
28.998092952423807 34.708
29.021090073977508 34.6633
29.04426806913204 34.4529
29.067267590245258 34.3429
29.090268308143695 34.2678
29.11327022394099 34.2301
29.13645305530891 34.125
29.159457379627167 34.1566
29.18246290519685 33.9304
29.20546963313352 33.9967
29.22865731875826 34.0855
29.25166646419296 34.0567
29.27467681535305 33.8344
29.29768837335608 33.9813
29.320880931312562 33.9287
29.34389491580634 34.0026
29.366910110507334 33.9641
29.38992651653503 34.0772
29.41312396492981 33.9338
29.436142806456754 33.7773
29.45916286268059 33.7508
29.48236399319994 33.641999999999996
29.50538649169417 33.5359
29.528410208259935 33.3057
29.55143514402014 33.2006
29.574641196749695 33.1082
29.597668583816574 33.0786
29.6206971934585 32.7232
29.64372702680042 32.8786
29.666938019934474 32.9273
29.689970313635285 32.7558
29.713003834422636 32.7725
29.73603858342347 32.6586
29.759254535188578 32.6446
29.78229175361658 32.5289
29.80533020365064 32.623000000000005
29.82836988641968 32.5292
29.85159081507472 32.4974
29.874632976355343 32.4941
29.89767637376955 32.5108
29.920721008448314 32.2809
29.9439469322847 32.3796
29.96699405457564 32.3269
29.9900424175358 32.2499
30.013092022298157 32.3522
30.03632295963995 32.2228
30.059375061131373 32.2191
30.08242840783577 32.2382
30.105483000888153 32.2088
30.128718970092244 32.1123
30.151776069006917 32.1316
30.17483441768648 32.115
30.198074175317235 32.1223
30.221135036724256 32.0787
30.24419715131772 32.0478
30.267260520236203 31.936
30.290505341942243 31.9861
30.313571232750228 32.1466
30.336638381310948 32.0085
30.35970678876503 31.9993
30.38295669299435 31.8934
30.40602763151657 31.8753
30.429099832366074 31.8522
30.452173296685572 31.8165
30.47542830191959 31.8189
30.498504306502497 31.7661
30.521581577995562 31.755
30.544660117543582 31.9792
30.56792024229725 31.9339
30.59100133132069 31.8321
30.614083691845494 31.8946
30.637167325018545 32.0048
30.660432587840603 32.0011
30.683518779717886 31.8448
30.70660624769615 31.9709
30.729694992924372 31.9358
30.75296541239743 31.9
30.77605672557558 31.8078
30.799149319462742 31.7786
30.8224236211637 31.6945
30.845518789950724 31.6321
30.868615242910597 31.5063
30.891712981195973 31.3876
30.91499247215866 31.2584
30.938092794619365 31.2104
30.96119440587579 31.1393
30.984297307082752 31.0281
31.00758200598383 31.0275
31.030687500658694 30.9483
31.053794288760695 30.9485
31.076902371446767 30.8548
31.100192296997445 30.8936
31.12330298246119 30.7969
31.14641496599209 30.6791
31.169528248749216 30.6526
31.19282341969534 30.6446
31.215939314557186 30.7463
31.239056512134788 30.6756
31.262175013589378 30.6381
31.28547544871168 30.5945
31.30859657161541 30.546999999999997
31.331719001892175 30.6087
31.35484274070538 30.7754
31.378148458819545 30.7992
31.401274828443725 30.8035
31.424402510106933 30.6683
31.447712205419993 30.7812
31.470842524931633 30.5904
31.493974159989783 30.5851
31.51710711176168 30.6244
31.54042212308802 30.5758
31.563557722100917 30.4145
31.586694641341655 30.3433
31.609832881979628 30.1913
31.63315322823208 30.1136
31.656294125521327 30.093000000000004
31.679436347728515 29.9628
31.70257989602529 29.9863
31.725905596152327 29.9105
31.74905181052835 29.8695
31.772199354521323 29.9879
31.79534822930507 29.9237
31.818679302290967 29.8991
31.84183085259981 29.9258
31.864983737233473 29.8663
31.88813795736804 29.9323
31.911474422233013 29.7987
31.934631327356435 29.9019
31.9577895715215 29.8403
31.980949155906522 29.7504
32.004291031706956 29.7037
32.027453310562606 29.6487
32.05061693318573 29.4413
32.07396288236386 29.474
32.09712920658542 29.4698
32.12029687812702 29.3376
32.14346589817093 29.2901
32.166817291729984 29.1786
32.18998902288583 29.1319
32.21316210610336 29.03
32.23633654256711 28.9724
32.259693399663725 28.9475
32.282870556771144 28.8817
32.30604907069099 28.8727
32.329228942610065 28.7714
32.35259128243769 28.7164
32.375773884550505 28.682
32.398957848235646 28.6996
32.422143174682176 28.7119
32.445511016471215 28.4808
32.468699082679954 28.4394
32.49188851523011 28.4239
32.51507931531304 28.3634
32.538452678331 28.346
32.56164622776311 28.3239
32.58484114831493 28.2839
32.60803744118015 28.3033
32.631416344731896 28.2829
32.654615396551876 28.2044
32.67781582427913 28.2076
32.701198898634416 28.2328
32.72440209253756 28.1289
32.747606665947124 28.0683
32.77081262006088 27.906
32.79420126883317 27.9922
32.81740999876112 27.8736
32.840620112999424 27.8273
32.86383161274818 27.8018
32.88722585534586 27.9104
32.91044014056596 27.8746
32.933655814909734 27.7324
32.95687287957963 27.6597
32.98027273544904 27.663
33.00349259526636 27.6684
33.026713849030116 27.6877
33.04993649794511 27.5682
33.073341986570746 27.57
33.09656744032826 27.5097
33.11979429286444 27.5471
33.14302254538647 27.5586
33.166433686291185 27.4471
33.18966475336992 27.4849
33.212897224069096 27.3637
33.23613109959831 27.3789
33.259547912343415 27.3483
33.2827846121627 27.3946
33.306022720453775 27.2298
33.32926223842861 27.1803
33.352684742614166 27.2073
33.37592709463173 27.1089
33.399170859982064 27.0784
33.422597648419426 27.0224
33.44584425514446 26.8437
33.46909227885668 26.8115
33.4923417207723 26.6513
33.51577423505344 26.8248
33.539026528130385 26.725
33.56228024307245 26.6742
33.585535381098246 26.5467
33.60897364093058 26.5316
33.63223163992385 26.4965
33.6554910656699 26.4457
33.678751919389796 26.3974
33.702195944520106 26.2975
33.72545966903325 26.3912
33.74872482519663 26.2696
33.771991414233746 26.2903
33.79544122444841 26.2463
33.81871069412428 26.1816
33.84198160035767 26.1233
33.86525394437455 26.2898
33.88870955949969 26.1327
33.911984794020626 26.0984
33.93526147001624 26.0214
33.958539588715006 25.9866
33.98200102861669 25.9704
34.0052820477047 25.8517
34.02856451319451 25.8215
34.05203033759056 25.747
34.07531571090147 25.6735
34.09860253431845 25.6543
34.121890809074316 25.6469
34.145362493118924 25.6381
34.16865368561615 25.5893
34.191946333164054 25.5497
34.21524043699793 25.5003
34.23871800066799 25.5841
34.26201503218366 25.3781
34.28531352370466 25.4333
34.30861347646881 25.353
34.33209693978188 25.3017
34.3553998301885 25.2618
34.378704185565205 25.2662
34.402010007152356 25.1778
34.42549939016683 25.1431
34.44880815937748 25.0898
34.472118398533134 25.0788
34.49543010887669 25.0047
34.51892543169198 24.8626
34.54224009966052 24.9882
34.56555624255917 24.9277
34.58887386163339 24.8054
34.61237514439016 24.717
34.6356957311114 24.6565
34.65901779775809 24.735
34.68252356662995 24.7152
34.705848608458616 24.6953
34.72917513396849 24.7071
34.75250314440949 24.6344
34.77601490857862 24.5534
34.799345904259795 24.5325
34.82267838863559 24.4618
34.846012362958525 24.4559
34.869530142679984 24.3542
34.89286711232212 24.4486
34.91620557568269 24.4321
34.93954553401677 24.3508
34.9630693495876 24.2255
34.986412313340814 24.33
35.00975677584668 24.2999
35.033102738362956 24.2518
35.05663261012228 24.1664
35.0799815881786 24.1355
35.10333207003229 24.0295
35.12668405694369 24.0472
35.150220005273056 24.0002
35.17357501786656 24.0525
35.19693153931268 23.9935
35.220289570874385 23.9134
35.24383161619786 23.846
35.267192683604904 23.9349
35.290555264930376 23.9125
35.314101899412165 23.9212
35.33746752422433 23.8364
35.36083466676374 23.845
35.38420332829803 23.813000000000002
35.407756095629054 23.8558
35.43112781085063 23.814
35.45450104888391 23.7864
35.477875810999194 23.7316
35.50143473172161 23.628
35.52481255774625 23.6663
35.54819191167777 23.6002
35.57157279478914 23.4974
35.595137889488406 23.5586
35.61852184675279 23.4857
35.641907337029984 23.3988
35.665294361595684 23.4601
35.68886565090076 23.3289
35.7122557598848 23.3006
35.73564740699838 23.3424
35.759040593519934 23.2202
35.78261809810353 23.2148
35.80601437933051 23.1386
35.829412203814705 23.1308
35.85281157283719 23.0279
35.876395313415884 23.1334
35.8997977874528 23.0026
35.92320180988546 23.0454
35.946790244133936 22.9325
35.97019737933222 22.8976
35.993606066789866 22.9022
36.01701630779276 22.8966
36.04061101440684 22.8227
36.06402437852291 22.7677
36.08743930005611 22.7726
36.1108557802951 22.7552
36.13445678011326 22.7214
36.15787639383515 22.7314
36.18129757014299 22.5796
36.20472031032821 22.5781
36.22832762423364 22.4534
36.25175350829375 22.4659
36.275180960119776 22.4149
36.298609981005924 22.4902
36.32222362992669 22.4113
36.34565580510207 22.4262
36.36908955323448 22.3187
36.39252487562093 22.2117
36.416144880530226 22.1969
36.43958336764275 22.1883
36.463023432914625 22.2017
36.486465077645676 22.2166
36.51009145956204 22.2204
36.53353627947859 22.1833
36.55698268276811 22.2238
36.58043067073321 22.1373
36.60406345072071 21.9955
36.62751462435344 21.9615
36.65096738658405 21.9743
36.67460498210655 21.8934
36.69806093788647 21.8879
36.72151848619297 21.8291
36.744977628333636 21.8665
36.76862165890998 21.7679
36.79208400512205 21.7849
36.81554794910557 21.7327
36.83901349217101 21.7205
36.862663978991606 21.6168
36.88613273667352 21.6161
36.90960309738324 21.6634
36.933075062434064 21.5788
36.95673202673572 21.5445
36.98020721697122 21.4566
37.003684015502365 21.3901
37.027162423645365 21.406
37.050825886711465 21.3589
37.07430753063053 21.2556
37.09779078812467 21.3195
37.121275660513014 21.2648
37.144945643673694 21.2479
37.16843376245278 21.1815
37.19192350009803 21.1948
37.215414857931435 21.1976
37.239091382563885 21.099
37.262585997426164 21.068
37.28608223645736 21.0432
37.309763684451696 20.9513
37.33326318851098 20.949
37.356764320726555 20.8736
37.380267082425526 21.0188
37.40395510942588 20.9407
37.42746114683234 20.8796
37.45096881771841 20.8098
37.474478123414166 20.7826
37.49817275092816 20.7705
37.52168534303452 20.697
37.54519957395567 20.7187
37.568715445024665 20.697
37.592416694607714 20.6628
37.61593586281424 20.6766
37.63945667518264 20.695999999999998
37.66297913304891 20.5301
37.68668702630454 20.5485
37.710212792059274 20.4146
37.733740207334854 20.4308
37.757269273470364 20.4045
37.780983832050374 20.3812
37.80451621684926 20.3795
37.82805025654007 20.2555
37.851585952464795 20.2255
37.8753071980695 20.1482
37.89884622345676 20.1718
37.92238690911902 20.1445
37.94611318753442 20.1002
37.969657210779765 20.105999999999998
37.99320289834801 20.0761
38.016750251586465 20.0658
38.04048325513017 20.0162
38.06403395679343 20.0096
38.087586328183946 19.9524
38.11114037065203 19.9554
38.13488012115898 19.8564
38.1584375229181 19.8076
38.181996599821 19.7844
38.205557353221124 19.8206
38.229303872575656 19.8081
38.2528679961576 19.772000000000002
38.27643380031219 19.7484
38.30000128639589 19.7213
38.32375459653193 19.6888
38.34732546371299 19.6581
38.37089801690786 19.5721
38.39447225747609 19.4669
38.418232380377425 19.451
38.441810012983396 19.4432
38.46538933705673 19.4399
38.488970353960084 19.424
38.51273731166058 19.3267
38.536321731567014 19.3503
38.55990784840681 19.3343
38.58367995004091 19.2587
38.60726947812959 19.1381
38.63086070726198 19.1827
38.654453638806274 19.2142
38.678232613930824 19.1457
38.70182896773327 19.0589
38.72542702806741 19.0536
38.7490267963045 19.0974
38.77281266709232 19.0163
38.79641586862214 19.0483
38.8200207821842 18.9366
38.843627409152944 18.9407
38.86742019782782 18.906
38.891030269149255 18.8666
38.914642058016156 18.8447
38.938255565806124 18.8536
38.96205529464307 18.8047
38.98567225787121 18.7825
39.00929094417078 18.8149
39.03291135492255 18.7085
39.05671804624804 18.7173
39.080341923549106 18.5655
39.103967529460334 18.5999
39.127594865365744 18.5867
39.15140854155791 18.5445
39.17503935514948 18.5519
39.19867190290282 18.5236
39.22249083587951 18.5432
39.24612686969409 18.4807
39.269764641845306 18.3773
39.293404153722804 18.3279
39.317230110864074 18.3478
39.34087311998506 18.3136
39.36451787301696 18.2943
39.388164371352595 18.2169
39.41199737518003 18.2201
39.43564738196752 18.2457
39.45929913825317 18.1718
39.48295264543308 18.1622
39.506792718520884 18.062
39.530449745387216 18.0401
39.55410852735203 18.0088
39.57776906581474 18.031
39.60161623079 18.0623
39.625280300200025 18.0343
39.64894613032202 17.9371
39.67261372255866 17.9483
39.6964680021016 17.8739
39.72013913657293 17.8576
39.74381203738292 17.9125
39.76748670593756 17.8198
39.79134812278169 17.7686
39.81502634488497 17.7605
39.83870633896685 17.7099
39.862388106436654 17.714000000000002
39.88625668336918 17.6343
39.90994201572829 17.6742
39.933629125719285 17.6154
39.957503091207826 17.55
39.9811937746168 17.5904
40.00488623990914 17.561
40.02858048850006 17.4947
40.05246165409549 17.4755
40.076159487492085 17.3608
40.099859108448875 17.4001
40.123560518384345 17.38
40.1474489070226 17.3614
40.171153913178564 17.3921
40.194860712584955 17.352999999999998
40.2185693066637 17.3129
40.242464941335314 17.2314
40.26617714307655 17.2375
40.289891143772046 17.2162
40.3136069448471 17.2251
40.33750984859743 17.1645
40.3612292688043 17.1263
40.3849504936829 17.06
40.40867352466194 17.1024
40.43258372059144 17.034000000000002
40.45631038219906 17.0377
40.48003885420956 16.9482
40.503769138055105 16.9643
40.52768664931955 16.9293
40.55142057531802 16.9405
40.57515631746428 16.8657
40.599079334038514 16.8551
40.62281872700477 16.804000000000002
40.64655994043941 16.7392
40.67030297578061 16.7299
40.69423334835778 16.7072
40.71798004609188 16.7315
40.74172857006355 16.7223
40.76547892171441 16.6903
40.7894166736039 16.6386
40.813170699248566 16.5568
40.83692655691388 16.5645
40.86068424804498 16.5837
40.884629402612525 16.5669
40.908390779366385 16.5501
40.932153993938 16.4565
40.95591904777605 16.4471
40.979871628443995 16.4124
41.003640379561936 16.4182
41.02741097430883 16.4158
41.05118341413683 16.323
41.075143444384416 16.2886
41.098919593177826 16.2813
41.1226975914255 16.3181
41.14647744058318 16.2203
41.170444943946755 16.2249
41.19422851378379 16.2226
41.218013938914645 16.1839
41.24198706625173 16.1265
41.26577622087193 16.1335
41.289567235177785 16.0591
41.31336011063129 16.0815
41.337340752422875 15.9702
41.361137369129835 16.0087
41.38493585138705 16.0086
41.40873620066004 15.9415
41.43272438060107 15.8864
41.45652848292052 15.8765
41.48033445666918 15.8548
41.50414230331616 15.8538
41.528138045159764 15.7914
41.551949656675205 15.7263
41.575763145513235 15.7384
41.59957851314666 15.7521
41.62358184070442 15.6588
41.64740098505737 15.6515
41.6712220126409 15.5905
41.69504492493139 15.5828
41.71905586207357 15.5658
41.74288256296395 15.5617
41.766711153007456 15.5039
41.79054163368412 15.4798
41.814560204340054 15.47
41.838394485526365 15.5279
41.86223066180303 15.4788
41.88625497706819 15.3713
41.910094962812 15.4511
41.93393684811168 15.4127
41.95778063445365 15.2945
41.981812625263366 15.3146
42.00566023303407 15.3299
42.029509746323676 15.2816
42.05336116662236 15.2428
42.077400857069705 15.255999999999998
42.10125611078846 15.1969
42.12511327600405 15.1494
42.14897235421036 15.1272
42.173019768448455 15.1205
42.19688269209613 15.0856
42.22074753323349 15.0489
42.24461429335818 15.0301
42.268669455600495 14.9942
42.292540073217886 15.0079
42.31641261433284 14.9556
42.34028708044675 14.9206
42.36435001496739 14.9098
42.38822835065557 14.8587
42.41210861586426 14.8608
42.4359908120986 14.8155
42.46006154323262 14.7767
42.48394762115317 14.7282
42.507835634632315 14.7732
42.531912233047436 14.7431
42.55580413732265 14.690999999999999
42.579697981698 14.6858
42.60359376768525 14.6171
42.62767820545945 14.6243
42.65157789440821 14.61
42.67547952952185 14.5854
42.699383112316 14.5774
42.72347541395347 14.5109
42.74738291190531 14.4889
42.771292362102166 14.5076
42.795203766063516 14.4482
42.819303956130405 14.4495
42.843219287476536 14.4061
42.86713657716324 14.3747
42.89105582671383 14.4057
42.91516392983864 14.3253
42.939087119032166 14.2744
42.963012272677304 14.3093
42.98693939230129 14.2485
43.01105543317513 14.2099
43.034986504731386 14.2024
43.05891954686589 14.199000000000002
43.08285456110972 14.1805
43.10697856448665 14.1298
43.130917542983475 14.1206
43.15485849820081 14.1178
43.17880143167367 14.1001
43.20293342237094 13.9987
43.226880332449 14.0192
43.25082922540554 14.0217
43.27496722682525 13.9287
43.29892010567796 13.9273
43.32287497204102 13.9099
43.34683182745632 13.8761
43.370977859791836 13.8617
43.39493871351105 13.8742
43.41890156092628 13.8489
43.44286640358341 13.8127
43.46702049182749 13.7855
43.49098934522816 13.7518
43.51496019852649 13.7561
43.5389330532723 13.709000000000001
43.56309522248204 13.7167
43.58707210044314 13.6708
43.61105098451946 13.6284
43.63503187626491 13.5829
43.659202151562134 13.5681
43.68318707902681 13.5416
43.70717401884041 13.5538
43.731162972560874 13.519
43.75534137913236 13.447000000000001
43.779334381108384 13.4746
43.803329401683186 13.4606
43.82732644241872 13.4221
43.8515130055166 13.3913
43.87551410707659 13.4078
43.89951723350145 13.404000000000002
43.923709934595614 13.3691
43.94771713129917 13.3449
43.97172635758096 13.2636
43.99573761501002 13.2552
44.0199385169922 13.2551
44.04395385732619 13.2747
44.067971233533086 13.2038
44.09199064718605 13.175999999999998
44.11619977548961 13.1537
44.14022328470671 13.1088
44.16424883610785 13.1489
44.18827643127035 13.0601
44.21249381139513 13.0683
44.236525514814076 13.0439
44.26055926674478 12.9984
44.28459506876863 13.0207
44.3088207262813 12.9623
44.33286064928722 12.9455
44.35690262714919 12.9091
44.38094666145278 12.8647
44.4051806219871 12.9076
44.42922879003185 12.8387
44.45327901929361 12.8156
44.477331311362136 12.8255
44.501573600619416 12.7695
44.525630039221795 12.7398
44.54968854541895 12.744000000000002
44.573937102200176 12.7576
44.5979997645541 12.6898
44.622064499300315 12.6618
44.64613130803592 12.6513
44.67038823869318 12.6408
44.69445921643748 12.575999999999999
44.718532272981385 12.5321
44.742607409926194 12.5916
44.76687274034801 12.5265
44.79095205918753 12.4721
44.81503346325094 12.4759
44.839116954143876 12.5141
44.86339071028742 12.4642
44.88747839599524 12.3959
44.91156817336837 12.3547
44.93566004401666 12.4014
44.959942251908146 12.3991
44.984038330325966 12.3251
45.00813650686762 12.3254
45.03223678314731 12.3254
45.05652746888232 12.2436
45.08063196592069 12.1913
45.104738567558705 12.1762
45.128847275414856 12.2093
45.15314646515866 12.1339
45.17725940679741 12.1324
45.20137445952892 12.1149
45.22568004865265 12.1093
45.24979934496396 12.0853
45.27392075725247 12.094000000000001
45.29804428714431 12.0659
45.322358426247604 12.0781
45.346486212804315 12.0237
45.370616121861914 12.042
45.39474815505086 11.992
45.41907087049246 11.9618
45.4432071734666 11.9612
45.46734560548283 11.9321
45.49148616817604 11.9094
45.51581748638564 11.8432
45.5399623320197 11.8516
45.56410931325473 11.7924
45.58825843173002 11.8404
45.61259837920865 11.8058
45.636751793816 11.7631
45.66090735060093 11.7119
45.68506505120716 11.6854
45.7094136545275 11.6327
45.73357566449271 11.6681
45.75773982322992 11.6869
45.78190613238733 11.665
45.806263418194064 11.595
45.83043404997326 11.6126
45.85460683713677 11.5925
45.87897065658495 11.5718
45.90314777634752 11.5183
45.92732705646868 11.470999999999998
45.9515084986045 11.4864
45.97588104735473 11.5211
46.00006683541565 11.4406
46.02425479047904 11.3837
46.04844491420549 11.4099
46.0728262191024 11.3831
46.09702070211635 11.390999999999998
46.12121735879483 11.3476
46.14541619080294 11.3219
46.169806278764455 11.3135
46.194009483459034 11.3273
46.21821486849841 11.2849
46.24242243555223 11.2714
46.266821333570014 11.2203
46.29103328674601 11.1932
46.31524742696538 11.2364
46.33946375590237 11.2234
46.36387149104216 11.1608
46.38809221957392 11.0966
46.41231514186606 11.1118
46.436540259597464 11.0735
46.460956858999374 11.0579
46.48518638983522 11.0477
46.509418121166966 11.0273
46.533652054678114 10.9817
46.55807754555709 10.9754
46.58231590571962 10.9365
46.60655647313217 10.9432
46.630988654873654 10.8934
46.655233659129024 10.875
46.67948087571551 10.8742
46.70373030632484 10.8829
46.72817142736393 10.843
46.752425308428684 10.8279
46.77668140861147 10.8429
46.80093972960865 10.7917
46.82538981736788 10.7263
46.849652602470904 10.7737
46.87391761349769 10.7182
46.8981848521493 10.7179
46.9226439341274 10.7101
46.946915650573224 10.6358
46.97118959976749 10.5882
46.99546578341598 10.5646
47.019933887188216 10.5892
47.04421456235744 10.5523
47.06849747711879 10.5567
47.09278263318286 10.5592
47.11725978640143 10.5137
47.14154944775105 10.5114
47.165841355555656 10.4537
47.1901355115306 10.4246
47.214621741924994 10.439
47.23892041698887 10.4395
47.26322134538975 10.3793
47.28771440635075 10.3904
47.31201986422527 10.3774
47.33632758061436 10.372
47.360637557241866 10.3563
47.38513974410611 10.3072
47.40945426407847 10.3095
47.43377104948137 10.2692
47.45809010204344 10.274000000000001
47.48260144275502 10.2138
47.506925052572285 10.1918
47.53125093475548 10.1966
47.55557909103813 10.1701
47.58009961361992 10.1201
47.60443234110732 10.1298
47.62876734791564 10.09
47.65310463578333 10.103
47.6776343683373 10.0754
47.7019762413987 10.0654
47.72632040075572 10.0556
47.75066684815169 10.0637
47.77520581885936 10.0115
47.799556865477655 9.99275
47.823910205386 10.004
47.84826584033272 9.9733
47.87281407745551 9.90192
47.89717432569297 9.93427
47.92153687423484 9.930660000000001
47.94609208429692 9.89873
47.97045925671401 9.8536
47.99482873471275 9.845089999999999
48.01920052005013 9.85172
48.04376504619224 9.82965
48.068141469543484 9.80912
48.09252020552573 9.77917
48.11690125590099 9.75178
48.1414751266064 9.75885
48.16586082917454 9.72846
48.19024885144316 9.67648
48.2146391951793 9.68229
48.239222439012764 9.66437
48.26361744916137 9.62611
48.28801478610016 9.63213
48.31241445160131 9.65592
48.337007097209366 9.606589999999999
48.36141144338331 9.587480000000001
48.38581812345755 9.570139999999999
48.41022713920929 9.56209
48.434829215320704 9.51636
48.45924292604658 9.48793
48.48365897780325 9.51543
48.50807737237308 9.48911
48.532688907799276 9.46331
48.55711201168574 9.460230000000001
48.581537463754074 9.4453
48.60615611725119 9.45859
48.63058628942721 9.43571
48.65501881516546 9.38556
48.6794536962573 9.4092
48.70408185970339 9.34768
48.72852147531801 9.30006
48.75296345168211 9.27949
48.77740779059232 9.29092
48.80204549302823 9.32175
48.82649458091802 9.279710000000001
48.85094603676547 9.27431
48.87539986237231 9.218
48.90004713292306 9.20968
48.92450572200832 9.20128
48.94896668628025 9.20082
48.97343002754588 9.16056
48.99808689542115 9.14047
49.02255501470614 9.13842
49.04702551642794 9.11979
49.0714984023988 9.07185
49.096164896893235 9.05494
49.120642575466796 9.051210000000001
49.145122643748394 9.0318
49.16960510355558 8.98387
49.19428125404938 8.98575
49.2187685210852 8.98323
49.243258185121555 8.9609
49.26794160167084 8.9476
49.2924360839405 8.88655
49.31693296869764 8.93147
49.34143225776915 8.874989999999999
49.36612538195438 8.87085
49.39062950396021 8.87929
49.41513603578346 8.86022
49.4396449792564 8.81303
49.46434784069503 8.79691
49.488861631846454 8.78271
49.513377840166804 8.73964
49.537896467493745 8.74281
49.56260909589029 8.7334
49.587132585683285 8.718639999999999
49.611658500018365 8.747910000000001
49.636186840738596 8.68361
49.66090926588511 8.71359
49.685442483902584 8.67917
49.70997813385706 8.62995
49.734516217597076 8.65697
49.75924846937352 8.60985
49.7837914452858 8.59405
49.80833686055187 8.53127
49.83288471702571 8.55363
49.85762682540054 8.55027
49.882179588965734 8.563180000000001
49.9067347993235 8.52519
49.93129245833333 8.491010000000001
49.95604445336378 8.49956
49.98060703442832 8.45692
50.005172069746266 8.45645
50.02993150438364 8.43829
50.05450147301533 8.4361
50.07907390151433 8.39811
50.10364879174981 8.37549
50.12841816587289 8.3231
50.1529980044635 8.37907
50.17758031042124 8.33398
50.20216508562089 8.275260000000001
50.22694442953363 8.26496
50.25153416817468 8.280569999999999
50.27612638170508 8.2441
50.300721072005196 8.23855
50.325510416102105 8.2373
50.350110084975064 8.24061
50.37471223628208 8.22228
50.39931687190919 8.19413
50.424116246675766 8.166139999999999
50.44872587605249 8.14706
50.47333799543065 8.18262
50.49795260670191 8.14228
50.52276204271512 8.11248
50.54738166295838 8.0941
50.57200378079314 8.07625
50.596628398116835 8.03895
50.62144792604559 8.04428
50.646077567609396 8.01566
50.670709714377715 8.008469999999999
50.69553683636198 8.018930000000001
50.72017401885922 8.00695
50.7448137122895 7.965310000000001
50.76945591856022 7.96325
50.79429318636823 7.950019999999999
50.818940443716784 7.93071
50.84359021965163 7.92087
50.868242516085964 7.91259
50.893089960641895 7.86309
50.917747323549435 7.8422
50.94240721271973 7.839860000000001
50.96706963007175 7.804869999999999
50.99192728239342 7.83115
51.01659478166073 7.82918
51.04126481489051 7.81623
51.06593738400761 7.8129
51.090805275207074 7.76932
51.11548294172845 7.71283
51.14016314993547 7.7558300000000004
51.164845901758845 7.72288
51.18972406304274 7.67776
51.21441192780656 7.660080000000001
51.23910234200271 7.644080000000001
51.2637953075678 7.6399300000000006
51.288683770237945 7.66325
51.31338186432707 7.63607
51.33808251561888 7.588260000000001
51.362978729967345 7.546810000000001
51.387684521509755 7.558339999999999
51.41239287610203 7.55875
51.437103795691165 7.541710000000001
51.46201036644977 7.49108
51.486726441956634 7.53298
51.51144508832545 7.49626
51.536166307509156 7.45573
51.56108326624387 7.469460000000001
51.58580965706056 7.437539999999999
51.61053862657523 7.434060000000001
51.635270176746864 7.41078
51.66019755512065 7.43354
51.68493429268881 7.401619999999999
51.70967361681515 7.36787
51.73441552946465 7.326110000000001
51.759353359237934 7.330610000000001
51.7841004750961 7.3406899999999995
51.80885018539685 7.32154
51.833602492111254 7.2776
51.8585508051424 7.25695
51.883308330926425 7.27677
51.90806845906181 7.240819999999999
51.932831191525715 7.21062
51.95779001977161 7.18002
51.98255798721516 7.22655
52.00732856494335 7.17743
52.03229530577543 7.17583
52.057071130455945 7.152939999999999
52.081849571391054 7.12246
52.106630630568695 7.1559
52.13160794279417 7.1322600000000005
52.15639426492067 7.06088
52.18118321127822 7.1329199999999995
52.205974783860896 7.07579
52.23096269971011 7.049180000000001
52.255759551287994 7.05812
52.280559035098186 7.0562
52.30536115314103 7.004160000000001
52.33035970494467 6.97733
52.35516711807904 7.006539999999999
52.37997717147198 6.9246
52.40478986713005 6.94533
52.42979908731974 6.94753
52.454617094216 6.909339999999999
52.47943774942214 6.91073
52.50426105495102 6.881289999999999
52.529280976059844 6.85745
52.554109609024096 6.835039999999999
52.57894089837482 6.87569
52.60377484613117 6.87082
52.62880550079408 6.84892
52.65364479223379 6.821510000000001
52.67848674816189 6.79749
52.70352547971946 6.74942
52.72837279155837 6.772589999999999
52.753222773982785 6.753710000000001
52.778075429022984 6.73623
52.80312495150885 6.758210000000001
52.827982978797436 6.6996199999999995
52.85284368481815 6.71276
52.87770707160767 6.680510000000001
52.90276741793998 6.71575
52.92763619336701 6.67575
52.952507655698504 6.64187
52.977381806977576 6.63117
53.00245301017842 6.61292
53.02733256653592 6.6259
53.052214817996074 6.58598
53.077099766608484 6.57123
53.102181859804446 6.5653
53.127072229988265 6.54174
53.15196530349892 6.50828
53.17686108239249 6.5114
53.20195409881522 6.53207
53.22685531582556 6.49086
53.25175924441303 6.479
53.27666588664027 6.48763
53.30176985962693 6.4454199999999995
53.3266819565689 6.43666
53.35159677336455 6.4070599999999995
53.376514312083096 6.38475
53.40162927507703 6.40181
53.42655228516116 6.40562
53.45147802340193 6.36609
53.47660125628886 6.3514
53.50153247842639 6.35281
53.52646643496923 6.33081
53.55140312799818 6.2987400000000004
53.576537409691696 6.31338
53.60147960336152 6.2861400000000005
53.626424539786164 6.257680000000001
53.65137222105307 6.252680000000001
53.67651758529126 6.24947
53.70147078399681 6.22675
53.72642673383343 6.1873
53.75138543689533 6.22767
53.776541917524526 6.20858
53.801506154876755 6.17572
53.826473151763246 6.13023
53.851442910284916 6.147880000000001
53.87661054126026 6.13253
53.9015858509782 6.13882
53.92656392866066 6.1288
53.95154477641532 6.08814
53.976723591801296 6.02135
54.00171000771266 6.06346
54.02669920004598 6.05773
54.051691170915745 6.01783
54.076881204886796 6.0328800000000005
54.101878760928514 6.02942
54.12687910187696 5.97771
54.152077577768296 5.98974
54.1770835166946 5.9604800000000004
54.20209224691339 5.99615
54.22710377055121 5.92241
54.25231352511594 5.8887
54.27733066384342 5.88826
54.30235060239643 5.87426
54.32737334290836 5.90545
54.35259441062629 5.85583
54.377622783395324 5.833880000000001
54.40265396455061 5.855980000000001
54.42768795623251 5.83378
54.45292037169559 5.80638
54.477960012857906 5.77083
54.50300247099511 5.76234
54.52804774825457 5.73701
54.55329154616743 5.7113
54.57834249018678 5.74176
54.6033962597977 5.6916
54.6284528571545 5.65329
54.653708072335164 5.58746
54.67877035378786 5.62777
54.70383546947698 5.62814
54.72890342156389 5.59765
54.7541700889442 5.4900400000000005
54.77924374251975 5.52723
54.8043202390049 5.460369999999999
54.82959552413022 5.4825800000000005
54.8546777351945 5.5381
54.87976279569621 5.48021
54.90485070780914 5.4898
54.930137506558005 5.41355
54.95523115074295 5.39248
54.98032765308844 5.39874
55.005427015775496 5.4046199999999995
55.03072536339621 5.4078599999999994
55.05583047570572 5.3312800000000005
55.080938454927676 5.33988
55.10604930325027 5.31506
55.131359235107396 5.3037
55.15647585066083 5.24065
55.181595341907496 5.18696
55.20671771104285 5.15954
55.232039262617704 5.15177
55.25716741665048 5.17542
55.28229845518636 5.1224300000000005
55.30743238042802 5.06752
55.33276558731939 5.07995
55.357905315183636 5.07335
55.383047936390035 5.05626
55.40819345314859 5.04157
55.433538351073295 5.03399
55.458689688238415 4.9977800000000006
55.483843927614096 4.9576400000000005
55.509197623043605 4.94987
55.53435769621134 4.9189
55.55952067826466 4.87287
55.5846865714265 4.90418
55.61005202069737 4.89083
55.63522376553902 4.8593
55.66039842818645 4.79404
55.68557601087004 4.78605
55.7109532500271 4.75737
55.73613670233794 4.77514
