TT I
1.2716486653135266 6.68573
1.2939594142134223 7.50899
1.3162702121660406 7.182239999999999
1.3385810600174564 7.03112
1.3608919586137629 6.47579
1.383202908801069 6.29062
1.405513911425503 5.699269999999999
1.4278249673332093 6.3735599999999994
1.4501343378461518 6.38667
1.4724455028545926 5.9711300000000005
1.4947567236847858 5.73399
1.517068001182951 6.06123
1.5393793361953272 6.57004
1.5616907295681737 5.6067599999999995
1.5840021821477681 5.70619
1.60631369478041 5.54892
1.6286252683124185 5.44004
1.6509369035901333 4.88946
1.6732468618895553 5.11596
1.695558623192809 4.94369
1.7178704487808514 5.72166
1.7401823395001077 5.43729
1.7625012545597203 5.01731
1.7848028405262486 4.98369
1.8071218901122095 5.05261
1.8294236121921872 4.29939
1.8517427996910911 4.86745
1.8740620574440425 4.69604
1.8963639900671978 4.2329300000000005
1.9186833908139995 4.71206
1.9409854680117449 5.21513
1.9633050151394713 5.18341
1.9856246367570705 5.42794
2.0079269371922672 5.2502699999999995
2.03024671027244 4.9397199999999994
2.0525491637446027 5.04966
2.074869091674931 4.39285
2.097171701569106 4.58096
2.1194917877373847 5.05971
2.141811954326636 4.97208
2.164114805233074 5.07396
2.186435135143035 6.68071
2.208738150935709 14.9436
2.231058647554722 33.6244
2.2533792288321184 25.8843
2.275682498336085 11.425999999999998
2.298003251406138 5.70043
2.3203066942619714 5.38125
2.3426276225136022 5.87791
2.3649486396617507 6.03782
2.387252348930071 5.39007
2.4095735463442893 5.85573
2.4318774374315884 6.2958099999999995
2.4541988185014043 6.49142
2.476502894794693 6.13183
2.498824462909887 6.76965
2.521146125856138 7.03397
2.5434504863470337 7.00891
2.5657723414244717 7.50798
2.588076895590662 7.9413
2.610398946189713 7.83767
2.6327210958598384 7.577839999999999
2.6550259469304716 7.92557
2.6773482972090137 7.83017
2.6996533504259 8.12096
2.7219759047039602 8.2051
2.744298562293959 7.89848
2.7666039251246595 7.86141
2.7889267918020164 7.98796
2.8112323652516555 8.77588
2.833555444408179 8.03065
2.8558786311183852 7.89336
2.8781845268938557 8.26503
2.9005079311721484 8.32191
2.9228140460410397 9.21492
2.9451376712799635 9.438260000000001
2.967444008632326 9.86859
2.9897678582247247 9.7089
3.0120918213106695 10.1207
3.0343984987899373 10.2987
3.0567226913198637 10.7454
3.079029599759726 11.7254
3.101354025127254 12.1017
3.123678568232338 12.9285
3.145985829517914 13.0603
3.16831061055229 13.5913
3.1906181112775593 13.7005
3.212943133635653 14.5798
3.2352682779763207 14.9408
3.2575761442691227 15.3206
3.2799015350264273 15.8645
3.302209649240067 16.2149
3.3245352898092655 16.7037
3.3468436553365257 17.6336
3.369169549113219 17.8369
3.3914955708171384 18.8676
3.413804319727358 18.9005
3.4361305997334863 18.7756
3.4584396084414553 19.7455
3.4807661501462652 20.3718
3.503092824025881 20.7953
3.5254022288463154 21.3276
3.5477291695206588 22.1109
3.5700388426251948 22.8879
3.5923660534916446 24.4794
3.6146934007816114 42.3527
3.637003482731501 102.691
3.6593311053109985 116.662
3.681641464033634 64.6028
3.7039693653009733 32.2018
3.726297407241705 26.7638
3.7486081875460804 25.8237
3.7709365132734978 26.4151
3.793247578841633 27.0294
3.8155761917550093 26.9333
3.8378875459837216 27.4363
3.8602164494827234 28.011
3.882545499606844 28.8894
3.9048572932539183 29.1148
3.9271866390645718 29.6924
3.9494987298666713 30.3373
3.971828374764527 30.9389
3.9941581705403255 31.2237
4.016470713506008 31.491999999999997
4.038800813471445 32.6023
4.061113662089144 33.0592
4.0834440696459176 33.6924
4.105774632334751 34.1318
4.128087945865126 35.0123
4.150418821249301 35.75
4.172732448931298 37.2637
4.195063640413578 39.1638
4.2173775856475215 44.1491
4.239709096631102 81.4854
4.262040768704612 277.756
4.284355196706267 382.18300000000005
4.306687193387355 243.454
4.329001947444346 90.1434
4.35133427213731 49.788000000000004
4.373666762177566 45.7703
4.395982011761091 44.7921
4.418314834921175 45.9603
4.44063041906622 55.8185
4.4629635787515625 68.513
4.4852969080429785 68.5502
4.5076130004776225 55.8745
4.529946671403969 50.6037
4.552263106909177 49.7542
4.574597122877047 51.1814
4.596931312711224 52.1518
4.619248269273446 53.2858
4.6415828092605835 54.5818
4.663900117405352 55.6833
4.686235010953232 56.9243
4.708552674085913 58.2717
4.730887924602802 59.4933
4.753223354952695 61.3666
4.775541557023902 62.7764
4.797877349456786 63.6998
4.820195915032126 65.6946
4.842532072957498 67.3438
4.864868414979744 69.0383
4.88718753227192 71.0205
4.909524244902505 73.0541
4.931843734218147 74.72800000000001
4.954180820867835 77.4241
4.976518095879839 80.2415
4.998838149695359 83.4376
5.021175803844231 86.9156
5.043496238205739 89.8085
5.065834274903528 93.8773
5.088172504230693 98.8249
5.1104935158799565 105.49799999999999
5.132832132875765 129.474
5.155153533596801 179.688
5.1774925416746225 213.808
5.199814334878411 340.57300000000004
5.2221537374521505 940.927
5.244493338631803 2720.05
5.266815727034316 7294.74
5.289155727832427 12443.2
5.311478517248165 9001.03
5.333818921080011 3014.22
5.356159527788849 604.414
5.3784829252032536 195.088
5.400823940070432 147.39600000000002
5.423147747031976 130.532
5.445489173474152 120.30799999999999
5.467830807066149 114.22399999999999
5.490155234831516 109.553
5.512497285125229 106.344
5.534822130975162 104.27600000000001
5.557164601388673 102.084
5.579489868738879 99.3518
5.601832762690846 98.6408
5.6241758697774475 98.0241
5.646501775867269 96.9625
5.668845311622074 95.1064
5.691171647754637 94.321
5.713515615597765 93.3032
5.735859800852677 92.4548
5.758186788542988 91.5458
5.780531411018185 91.4738
5.802858837297399 90.9701
5.825203900414495 90.7321
5.8475491852224 91.052
5.869877275883075 91.5777
5.892223006467101 92.2957
5.914551544266608 93.7737
5.936897724049891 96.0485
5.959244129804903 101.041
5.981573344815301 116.75399999999999
6.0039202049061 197.41
6.026249875609095 427.045
6.04859719346037 943.378
6.070927323278297 2093.88
6.093275102315365 4391.26
6.115623113320588 5323.04
6.137953938319995 3527.68
6.160302415650845 1120.54
6.182633708324452 261.611
6.2049826554078376 119.014
6.227331838745022 94.5777
6.249663839443684 86.8465
6.27201349767565 84.0792
6.294345974611799 91.4538
6.316696111167083 106.412
6.339046488263839 100.2
6.361379686074702 82.8673
6.383730546639482 73.0228
6.406064229255215 69.2801
6.428415576718203 68.5659
6.450749747566656 67.6396
6.47310158535871 66.319
6.495453669698332 65.7885
6.517788579421056 65.5673
6.540141159237969 64.0529
6.562476565766648 63.6965
6.5848296444934045 63.2893
6.607182974060425 63.1054
6.6295191323281015 63.2943
6.651872965955752 66.9209
6.6742096296068985 99.1228
6.6965639707294615 155.839
6.71891856698715 157.42700000000002
6.741255995248479 103.10600000000001
6.763611104154477 70.882
6.785949046381137 61.321000000000005
6.808304671371482 58.8239
6.8306605557940046 58.6474
6.852999275508618 57.6542
6.875355681171544 57.1182
6.897694923437771 57.1735
6.92005185377892 57.4148
6.9423916220322655 56.8337
6.964749080490181 56.1329
6.987106804399774 56.2292
7.009447368180821 56.1449
7.031805625367033 55.8877
7.054146723727803 55.9963
7.076505517631004 55.8111
7.098864581288365 55.619
7.121206488070854 55.4074
7.143566093607822 55.3296
7.165908543567245 55.6384
7.188268694426048 56.1024
7.2106291193438095 56.3211
7.232972390625943 57.6374
7.255333366030969 72.9887
7.277677189091925 139.28
7.300038718428332 199.31900000000002
7.322400526130865 167.565
7.344745183422596 97.9754
7.367107550224791 64.0355
7.389452767901992 57.33
7.411815697249891 55.9369
7.434161478756298 54.9288
7.456524974096713 55.0199
7.478888753837185 54.6863
7.501235387657368 54.9289
7.523599738562711 55.1137
7.545946944825532 55.4014
7.568311870344528 55.7622
7.5906770845765665 56.2024
7.613025156078678 57.9138
7.635390950099687 59.0086
7.657739602662809 57.8489
7.680105979923558 56.7103
7.702472650212829 56.3042
7.724822180948224 55.8734
7.747189439655568 56.3989
7.769539560075357 56.595
7.791907410653562 56.824
7.81425812420825 56.683
7.836626570110925 57.1928
7.858995315087906 58.0594
7.881346924933401 58.3087
7.903716270417482 58.6086
7.926068482028405 58.9946
7.948438431475253 59.7482
7.9708086843180235 60.3354
7.993161805171116 60.8301
8.015532667162402 61.3537
8.037886398416653 62.228
8.060257873014221 62.6515
8.082629655331942 62.7574
8.104984308787587 64.0587
8.127356708900503 67.7607
8.149711981398308 74.2995
8.172085002766314 77.4016
8.194458336181368 73.2232
8.216814543847752 69.7835
8.23918850371002 69.3534
8.26154533906492 70.5027
8.283919928836452 72.1015
8.306277395339652 72.7948
8.328652618483376 74.1128
8.351028159736202 75.9077
8.373386579575245 78.305
8.395762759396959 80.4714
8.418121819038275 85.7135
8.440498640894003 101.22399999999999
8.462875785192262 116.93799999999999
8.485235811156207 125.596
8.507613602688501 157.816
8.529974277114228 237.729
8.552352719347912 369.435
8.574731488360351 623.4169999999999
8.59709314210385 1131.75
8.619472567021075 1778.6
8.64183487789147 2193.76
8.664214962183097 1897.35
8.686577933647762 1029.75
8.708958680784317 400.94300000000004
8.731339760774953 174.34599999999998
8.753703729764451 114.06
8.77608547780821 100.391
8.798450116065078 96.1211
8.820832535634787 93.0793
8.843215292401656 91.4388
8.865580941199045 89.85799999999999
8.887964374703538 88.6994
8.910330701447199 90.289
8.932714815164482 93.413
8.955099270424924 92.7744
8.977466620733543 89.116
8.999851761421976 85.7222
9.022219798361645 83.9036
9.04460562795561 83.4084
9.066991803441677 83.0929
9.089360876979615 82.895
9.111747746589993 82.7508
9.13411751544971 82.0466
9.156505082664324 81.5452
9.178875550323522 82.21600000000001
9.20126381862328 82.7456
9.223652438908596 83.6685
9.246023961427412 82.8906
9.26841328802173 82.1442
9.290785518039224 82.1913
9.313175554425882 82.3112
9.335565947154315 82.4
9.357939245086508 82.6117
9.380330352834827 82.9838
9.40270436697103 83.5635
9.425096193225055 83.1414
9.447488380180165 84.2023
9.469863475295412 84.406
9.492256385987508 84.5619
9.514632206018318 85.3439
9.537025843935714 85.5725
9.559402392368193 86.3416
9.581796761000229 87.2425
9.604191496441521 88.3725
9.626569144158516 92.6333
9.648964615551032 97.7637
9.671343000390081 99.9487
9.693739211225699 97.1632
9.716135793237463 94.2963
9.738515290448102 93.2958
9.760912617143402 94.2173
9.783292860202891 95.1074
9.805690935076182 96.2169
9.828089385495742 97.6347
9.850470754023561 99.8881
9.872869957865444 109.007
9.89525208097539 126.604
9.917652041736662 141.707
9.940052382417589 139.485
9.962435644102392 140.298
9.984836746950979 169.86
10.007220771957746 230.021
10.029622640473708 328.851
10.052007432299963 498.48400000000004
10.074410069984072 783.3960000000001
10.096813093716005 1206.02
10.119199042482517 1707.67
10.141602840636468 1936.73
10.163989564971628 1647.28
10.186394141051062 965.9689999999999
10.208799107559706 430.88300000000004
10.231187001965623 201.722
10.253592751657669 130.22899999999998
10.275981430388155 115.07600000000001
10.298387966769793 115.164
10.320794897965431 118.11200000000001
10.343184759907361 117.01700000000001
10.36559248305461 110.37200000000001
10.387983138083852 105.06299999999999
10.410391656691655 106.541
10.432800574501677 116.26100000000001
10.455192425893369 131.93200000000002
10.47760214443012 155.709
10.499994797678786 197.515
10.522405320453982 271.052
10.54479877906917 383.57
10.567210109595656 501.42699999999996
10.5896218454736 576.72
10.612016518879773 516.26
10.634429067781074 361.445
10.656824555333241 214.227
10.679237920773568 132.83700000000002
10.701651695961992 98.7725
10.724048411481384 90.0734
10.746463008485165 87.3078
10.768860546937125 85.2889
10.791275969274796 83.189
10.81369180576079 82.3254
10.836090585366925 81.4961
10.858507252467449 80.2371
10.88090686379991 79.204
10.903324365036394 78.7161
10.925724811614439 78.6922
10.948143150509463 80.2562
10.970561909719066 79.5956
10.992963615930844 77.6826
11.015383218085756 75.3067
11.037785768347074 73.6452
11.06020621697282 73.3016
11.082627090322113 72.8788
11.105030913430326 72.3678
11.12745263854165 73.1146
11.149857314510728 77.374
11.172279894912576 84.8083
11.194702904450653 86.1402
11.217108866490921 81.0539
11.239532736615194 75.4173
11.26193956033512 73.0928
11.284364294577085 71.1346
11.306789462371718 68.711
11.329197585398376 67.419
11.351623622610898 67.3351
11.37403261614354 66.2954
11.396459526308487 66.1704
11.418869393879497 65.973
11.441297180532617 65.5911
11.463725406927658 65.3321
11.486136592353875 65.0474
11.508565700543707 65.9351
11.530977768845315 68.3335
11.553407762368774 69.3447
11.575838200059769 68.6322
11.598251599479612 65.9754
11.620682927815501 64.4345
11.64309721895548 64.3507
11.665529441478206 63.5762
11.687962112597958 63.4211
11.710377748130886 63.49100000000001
11.732811318753434 63.2302
11.755227854859067 63.2609
11.777662328529495 63.0837
11.800079768750786 62.9388
11.822515149015453 62.6186
11.844950984084935 62.7833
11.867369787303163 62.6594
11.889806534289491 62.4499
11.912226250487029 62.8969
11.934663912939751 63.1426
11.9571020346363 62.8456
11.979523127133968 63.1088
12.001962169624331 63.6185
12.024384183972964 64.4805
12.046824150809913 67.3566
12.069264581333726 72.3896
12.091687985297767 78.4546
12.11412934550045 87.0958
12.136553680195208 101.458
12.158995973632788 122.07600000000001
12.181438735204349 148.816
12.20386447284199 177.27599999999998
12.226308172985636 202.967
12.24873485024193 202.827
12.271179492516982 171.292
12.293607112949127 135.118
12.316052700916226 101.381
12.338498763250042 81.9852
12.360927805303868 72.0679
12.383374818673879 67.4856
12.405804812803074 65.2113
12.428252780773262 64.7981
12.45070122756722 64.5699
12.473132656675375 64.2335
12.49558206341869 64.5228
12.518014453510101 64.7127
12.540464823770117 64.8473
12.562915677315177 65.2223
12.58534951575545 65.9069
12.607801338171472 67.9619
12.630236146511358 74.7239
12.652688941369085 80.5856
12.675124723177234 80.9142
12.697578494048786 76.4453
12.720032754458185 70.7997
12.742470003354093 68.3989
12.764925245138771 67.9584
12.787363476431278 68.1922
12.809819703166806 68.5007
12.83227642391173 69.6215
12.854716135692716 69.66
12.877173846755147 70.7659
12.899614549869717 71.1687
12.9220732548287 71.8299
12.94453245827299 72.3516
12.966974655289818 73.1203
12.989434858002571 74.0196
13.011878055298721 74.7799
13.034339260862497 75.7605
13.056800969391883 76.9013
13.079245674017244 78.8007
13.101708390774869 80.6166
13.12415410463411 86.8204
13.146617833206086 98.0022
13.169064559883248 109.655
13.191529303857127 124.635
13.213994557076367 145.841
13.236442809902437 179.74
13.258909083908291 232.422
13.28135835851934 294.009
13.30382565690295 361.564
13.326293469022952 413.719
13.348744283242008 429.13800000000003
13.371213125129904 368.963
13.39366497011003 274.406
13.416134845360597 183.894
13.438605238843131 127.68
13.46105863690397 106.51700000000001
13.483530069144786 105.11399999999999
13.505984506951902 109.581
13.528456981549432 118.81200000000001
13.550929978879088 133.00799999999998
13.573385983253365 155.674
13.595860028340867 192.29
13.618317081455832 242.13299999999998
13.64079217790333 293.996
13.663250283359057 345.455
13.685726434770173 374.464
13.708203115221277 344.01599999999996
13.730662806148091 272.832
13.75314054697177 196.257
13.775601299246777 134.32399999999998
13.798080104050406 100.568
13.820559442405358 86.3442
13.843021793671388 82.3563
13.865502201420897 80.7705
13.887965623051947 79.8983
13.910447103807167 78.9247
13.932929122629764 77.2224
13.955394156785959 77.0009
13.977877254034569 76.0649
14.000343367582113 75.2862
14.022827546871707 74.4289
14.045294743423524 73.8109
14.06778000837062 73.1442
14.090265817715476 72.9022
14.112734645763819 72.7464
14.13522154619454 72.6358
14.157691466286913 72.7402
14.180179461423874 72.6803
14.202668005486178 71.8065
14.22513957064374 71.0133
14.247629214846473 70.4706
14.270101881097517 70.2139
14.29259262906496 71.1201
14.315083930490205 71.8032
14.337558255389705 72.1041
14.360050666019726 71.794
14.382526101071944 70.7853
14.405019624534942 69.5012
14.427513705993134 68.7649
14.449990813291825 69.0496
14.47248601302899 68.7721
14.49496423954951 68.7233
14.517460561197822 68.837
14.539939910570322 68.5795
14.562437357763558 69.2113
14.58493536931253 70.68
14.607416409993311 71.6401
14.62991555254159 72.3684
14.652397725157423 72.2327
14.674898002342799 71.4897
14.697398848433282 70.5327
14.719882725991326 70.7679
14.74238471217934 71.6671
14.764869730765593 74.2327
14.787372860692983 77.9126
14.809876564079925 82.2325
14.83236330125751 87.8308
14.854868153850365 95.9216
14.877356041159485 108.764
14.899862046604186 126.26799999999999
14.922351087688757 150.80100000000002
14.944858249632887 177.21599999999998
14.967365991421232 203.387
14.989856770231246 219.261
15.012365673994204 218.321
15.03485761569738 190.734
15.05736768508665 152.591
15.07987833888692 118.914
15.102372032001655 93.1636
15.124883856909658 78.2432
15.14737872204565 72.8534
15.169891721717274 70.859
15.192405310371893 71.1277
15.214901940621196 71.5438
15.237416709527137 71.6593
15.259914520936249 71.8859
15.282430473753607 70.9544
15.304947020131227 69.7192
15.327446610371178 68.5762
15.349964346154254 67.4551
15.372465126703139 67.0912
15.394984055556009 66.7952
15.417486030076159 66.5416
15.44000615566487 66.3243
15.462526881230803 66.2621
15.485030653812652 66.5178
15.507552581617434 66.4608
15.530057557334603 66.7455
15.55258069104857 66.6628
15.575104429329837 66.5042
15.597611216864632 65.9988
15.620136166564563 65.9021
15.6426441664095 66.7063
15.665170331202765 68.5402
15.687697105158826 71.4041
15.710206930593545 74.9426
15.732734925158933 78.8472
15.755245972089478 84.7083
15.77777519094324 93.8304
15.800287463046663 106.353
15.822817909869592 123.787
15.84534897229804 143.359
15.867863089299354 165.422
15.890395385222186 183.44799999999998
15.912910736597423 193.523
15.935444269699861 184.546
15.957978423016485 158.89600000000002
15.980495633101265 129.333
16.003031029129367 100.492
16.02554948280019 79.5921
16.048086125229432 69.3564
16.070623392487107 66.4903
16.09314371869582 65.2572
16.11568223789321 64.4828
16.13820381691126 63.2507
16.160743591742527 62.23
16.183283996022084 61.3781
16.205807461423195 59.9867
16.228349126881973 59.3357
16.25087385432698 59.1084
16.27341678466365 58.6501
16.29594277784926 58.6752
16.31848697676433 59.2695
16.341031811604868 59.4559
16.36355971058487 59.9976
16.3861058195587 59.6236
16.40863499352978 58.3402
16.431182380342005 57.1783
16.453730407713202 56.6986
16.476261501364792 56.03
16.498810812136167 55.5795
16.52134319004079 55.7583
16.54389378792203 55.7012
16.566445031001553 55.6357
16.588979342490088 55.5135
16.61153187824822 55.2743
16.634067483263312 55.0318
16.656621315414416 55.0093
16.679175797408888 54.7011
16.701713349928728 54.9616
16.72426913389191 55.23
16.74680798922351 55.2477
16.76936507887444 55.2388
16.791905240734874 55.2515
16.814463639794468 55.132
16.837022695210294 54.9844
16.859564824093756 55.5005
16.882125194503903 56.3273
16.904668639217885 57.3747
16.927230328348003 57.3777
16.949792678493612 57.4664
16.972338104193863 56.7053
16.994901778652235 56.0167
17.017448529496576 55.6317
17.040013531998152 56.0096
17.06257920018044 56.3184
17.0851279459922 57.0814
17.107694947817667 57.9146
17.130245028099072 58.643
17.15281336730298 60.0753
17.17536478578733 61.7717
17.19793446610687 63.6439
17.220504818648422 66.4258
17.243058251703697 69.3041
17.265629950971032 73.8251
17.288184731571736 78.578
17.310757781306908 82.3813
17.33333150794385 83.8015
17.355888317140174 82.85700000000001
17.37846339986244 78.1905
17.401021565958885 72.2634
17.42359800851343 67.0302
17.44617513265564 62.6706
17.468735341390783 60.6166
17.491261035594565 59.3906
17.51396340099364 59.1379
17.536490463869136 59.3669
17.559018209820174 59.4671
17.58154663977963 59.3868
17.604251766089718 59.4097
17.626781572227713 59.8826
17.64931206518155 60.1244
17.671843245885103 60.588
17.69455114821572 60.9506
17.717083712612634 61.2477
17.739616967569667 61.1654
17.762150914021706 61.3811
17.78486160749854 61.3781
17.807396945166804 62.0732
17.829932977143503 62.6405
17.85246970436452 63.836000000000006
17.875183204129467 65.7053
17.897721330097664 67.9111
17.920260154126645 70.2956
17.942799677153296 73.1843
17.9655159983646 76.8581
17.988056927677544 81.7613
18.010598558807683 88.8847
18.033140892692916 98.5589
18.05586005052525 108.795
18.07840379824407 120.274
18.10094825154059 131.607
18.12366954819864 139.322
18.146215420998306 140.666
18.16876200220057 132.515
18.191309292745153 119.706
18.214033452627167 105.406
18.236582170236648 93.5257
18.259131600016456 86.9125
18.281681742907335 86.5194
18.304408781233683 90.1487
18.32696035875955 94.931
18.349512652227624 99.7469
18.372065662579683 103.738
18.394795594587553 105.545
18.41735004715306 103.37100000000001
18.43990521943684 97.7583
18.46246111238171 88.9546
18.485193953325208 79.5013
18.507751296070428 71.449
18.530309362314178 66.8749
18.552868153000343 64.1062
18.57560391815056 62.5903
18.59816416623245 62.0244
18.620725141597372 61.4415
18.643286845190268 61.0298
18.666025549835414 60.5757
18.688588718427933 60.0776
18.711152618092243 59.8758
18.73389353884365 59.6485
18.75645890921984 59.3626
18.77902501351406 58.8453
18.801591852673102 58.7606
18.824335739722738 58.4241
18.846904057212626 58.2675
18.8694731124168 57.9606
18.89204290628315 57.9254
18.914789774966803 57.8003
18.937361054791623 57.4194
18.959933076131318 57.17
18.982505839934877 57.321000000000005
19.00525570560582 57.4273
19.027829963004184 57.0654
19.05040496572238 57.0507
19.072980714710468 57.1006
19.095733592739563 57.3843
19.11831084296757 57.4504
19.140888842324735 58.0622
19.16346759176222 58.5565
19.18622349753803 58.7966
19.208803755869358 59.9197
19.231384767143577 60.8388
19.253966532312948 62.0943
19.276725481241822 64.027
19.29930876296784 66.6232
19.3218928014549 69.6477
19.34465404436217 72.7782
19.36723960516257 75.6312
19.389825925592426 76.6903
19.412413006605938 75.9472
19.43517731967805 72.8174
19.457765930683355 68.5364
19.48035530514408 64.063
19.50294544401556 60.4356
19.525712842708348 57.4664
19.54830451925909 55.7608
19.570896963095727 54.621
19.593490175174704 54.107
19.616260674962184 54.0167
19.638855432416964 53.8093
19.661450960992624 53.8374
19.68404726164677 53.8696
19.706820878021247 53.7278
19.729418731756834 53.8464
19.752017360452857 53.5319
19.77461676506804 53.7824
19.797393513540218 53.659
19.819994478951667 53.8627
19.84259622316767 54.7566
19.8651987471481 54.9897
19.887978643247177 55.0339
19.91058273574792 55.4637
19.933187610901943 56.1093
19.955969879466828 57.2999
19.97857632894404 58.761
20.00118356396599 60.1186
20.023791585494575 62.0803
20.046577028914875 64.6248
20.069186632506966 66.9374
20.091797025500632 68.8191
20.114408208858933 69.7224
20.137196842715273 69.7135
20.159809615886765 68.5101
20.18242318232135 66.0194
20.20503754298326 63.7608
20.227829382875154 62.3609
20.250445341109344 62.2723
20.27306209647285 62.747
20.29567964993108 63.9263
20.31847471147704 65.0287
20.34109387027612 65.6411
20.363713830075454 65.4778
20.386334591841646 64.5832
20.409132890679302 62.1321
20.431755265564437 59.1663
20.454378445325528 56.2044
20.477002430930366 54.1841
20.499803982716553 52.8434
20.522429589228004 52.0823
20.54505600449589 51.4945
20.567683229489194 51.2943
20.590488049900088 50.7664
20.61311690359731 50.504
20.63574656993626 50.2392
20.658553853717297 49.8403
20.681185154618298 49.8992
20.703817271080066 49.8728
20.72645020407368 49.1584
20.749260783967177 49.2091
20.771895359337133 49.1886
20.794530754161617 49.1451
20.817166969412938 49.1303
20.83998086114876 49.0839
20.86261872660049 48.9201
20.885257415405402 48.881
20.90789692853701 48.6806
20.930714147864748 48.6557
20.953355319030678 48.5709
20.97599731745334 48.7573
20.99864014410749 48.6783
21.021460706796564 48.7912
21.044105199328826 49.0065
21.06675052302631 49.0743
21.089396678865015 49.1815
21.112220600704806 49.5698
21.134868430275347 50.0094
21.15751709492456 50.2718
21.180166595629693 50.4008
21.202993892429635 50.7985
21.22564507473034 51.2761
21.24829709602816 51.5092
21.27112693608965 51.521
21.293780644891275 51.5586
21.316435195634053 50.9412
21.339090589297417 50.2014
21.361923832041875 49.8516
21.384580921090404 49.0921
21.407238856007325 48.8084
21.429897637773326 48.5787
21.45273429906592 48.4845
21.475394784108598 48.6074
21.498056118951983 48.5724
21.520718304578022 48.6878
21.543558400304388 48.7135
21.566222297108816 48.7794
21.58888704765135 48.9963
21.61155265291521 49.1636
21.63439619898156 49.6883
21.657063523335786 49.7988
21.67973170537063 50.3772
21.7024007460706 50.9835
21.72524775840385 51.6354
21.747918526116475 52.4626
21.770590155457388 53.516000000000005
21.79326264741238 55.1689
21.816113141960237 56.8892
21.838787368860547 58.5733
21.861462461341976 60.4705
21.884315579735777 62.4193
21.90699241312273 63.736999999999995
21.92967011506078 64.5565
21.95234868653799 64.6785
21.9752053151131 63.6412
21.997885635446785 61.8713
22.020566828293532 60.1055
22.04324889464272 58.233000000000004
22.066109049404666 56.8402
22.088792872571794 56.2534
22.111477572219204 56.36600000000001
22.1341631493376 56.2957
22.157026846313123 56.3839
22.179714188221507 55.5521
22.202402410582668 54.534
22.22509151438863 53.0709
22.24795876962584 51.8466
22.270649646204486 50.8118
22.293341407213727 50.0722
22.316034053646906 49.4631
22.338904883215342 49.1814
22.36159931041458 49.3118
22.38429462602756 49.1886
22.40699083104897 49.1422
22.429865251039757 49.271
22.452563244831367 49.0889
22.47526213102522 49.0752
22.49813925616515 49.0815
22.520839937143307 48.7102
22.543541513520587 48.9264
22.56624398629403 48.6355
22.589124730075895 48.6348
22.611829005656723 48.7764
22.63453418063466 48.8683
22.657240256008077 49.0464
22.680124634582935 49.0295
22.70283252079775 49.3777
22.725541310413075 49.6798
22.74825100442868 49.827
22.771139033969575 50.108000000000004
22.79385054687155 50.3267
22.81656296718292 51.1392
22.83927629590484 51.7722
22.862167992606945 52.8191
22.88488314827121 53.9186
22.907599215359284 54.8608
22.93031619487366 56.0727
22.953211574954405 56.7194
22.975930389478226 58.0275
22.998650119445763 58.3043
23.02137076586092 57.6758
23.044269845560063 56.473
23.06699233506288 54.9943
23.089715744034912 53.2678
23.112617610931565 51.518
23.135342869061212 50.3539
23.158069049684816 49.5424
23.1807961538087 49.076
23.20370174880544 49.0506
23.226430710184808 48.9035
23.249160598093425 48.9875
23.271891413539002 48.9774
23.294800752937697 48.9661
23.31753343374794 49.2373
23.340267045128353 49.1754
23.36300158808808 49.5579
23.38591468821339 49.9123
23.408651104658304 50.3187
23.431388455719986 50.9079
23.454126742409 51.6001
23.4770436196085 52.701
23.499783787914662 53.8888
23.522524894889884 54.7328
23.54526694154616 55.7246
23.56818761219047 56.8129
23.59093154860734 57.4502
23.613676427751283 58.1685
23.636422250635754 57.3738
23.659346731118656 56.0663
23.68209445191868 54.2895
23.704843119509587 52.0856
23.72759273490623 50.2306
23.750521041644767 48.6668
23.77327256312355 47.3742
23.796025035462787 46.7922
23.818956224555475 46.4942
23.841710609113413 46.2053
23.86446594758979 45.9883
23.887222241002014 45.818000000000005
23.910157285144578 45.383
23.932915498962537 45.2906
23.955674670778713 45.2472
23.978434801611975 45.019
24.001373717286125 44.828
24.024135776723917 44.6696
24.046898798245582 44.8284
24.06966278287146 44.7483
24.092605586582614 44.3753
24.115371508023642 44.1975
24.1381383956401 44.2721
24.16090625045381 44.3212
24.183852958731244 44.2851
24.206622758582608 44.1201
24.229393528706886 43.7804
24.252165270127392 43.9162
24.27511589952438 43.9094
24.297889594216997 43.5957
24.32066426328598 43.5967
24.34343990775613 43.4814
24.36639447485003 43.4358
24.38917208083877 43.3562
24.41195066531332 43.3359
24.43490819850244 43.272
24.457688750692377 43.136
24.48047028445616 42.9729
24.503252800821233 43.1153
24.526214300784112 43.2026
24.548998793132213 43.2206
24.57178427117417 43.0304
24.59457073593893 43.1568
24.617536219319863 43.1222
24.64032466834748 43.0915
24.663114107195035 43.0258
24.685904536893013 42.7113
24.708874020360852 42.6369
24.731666442613744 42.5907
24.754459858818787 42.6737
24.777254270007962 42.541000000000004
24.80022777025625 42.41
24.82302418230472 42.343999999999994
24.845821592443674 42.2745
24.86862000170663 42.3975
24.891597535453727 42.1385
24.914397953892728 42.4118
24.93719937456671 42.3045
24.96000179851076 42.5881
24.98298338249997 42.559
25.00578782394922 42.7017
25.028593271784167 43.1002
25.05157790644186 43.3964
25.07438537804115 43.3305
25.097193859145293 43.6014
25.120003350792075 43.7687
25.142992065061257 44.2556
25.165803588823465 44.4272
25.18861612625217 44.6285
25.211429678386736 44.7651
25.234422489079968 44.9613
25.257238081693636 44.8863
25.280054692141732 45.0647
25.3028723214652 44.8663
25.325869245420463 45.02
25.348688923599397 45.0359
25.371509623787006 45.0658
25.394331347025812 44.7432
25.41733240110666 44.4621
25.440156181590016 43.7987
25.46298098826268 43.3117
25.48580682216873 42.7029
25.50881202326435 42.2712
25.53163992281684 41.7722
25.55446885274561 41.4526
25.577298814096377 41.1269
25.600308179121807 41.0536
25.623140214533745 41.047
25.64597328451537 40.9332
25.66898578564376 40.725
25.691820936010206 40.6802
25.714657124097695 40.6641
25.737494350954734 40.7188
25.760511045684957 40.6219
25.783350361364224 40.567
25.806190718969255 40.6568
25.82903211955018 40.803000000000004
25.852053024868923 40.8597
25.874896522722523 40.8999
25.897741066713106 40.7159
25.920586657892454 40.8789
25.943611790812668 41.0487
25.966459487728237 41.1299
25.989308234998564 41.1529
26.01215803367705 41.4882
26.03518741123814 41.6146
26.05803932412957 41.6104
26.080892291600094 41.6714
26.10374631470478 41.9478
26.12677995397268 41.9356
26.14963609978026 41.817
26.172493304397875 41.5493
26.19535156888223 41.3359
26.218389486949604 40.9778
26.241249882640123 40.8091
26.26411134137826 40.4867
26.28715248187403 40.3835
26.31001607820869 40.2051
26.3328807407756 40.1884
26.35574647063438 40.308
26.37879191991473 40.2454
26.401659795896734 40.2415
26.424528742360263 40.3763
26.447398760366614 40.5937
26.470448535598294 40.7
26.49332070826805 40.872
26.516193955675355 41.0683
26.53906827888316 41.37
26.562122397260108 41.5369
26.584998883685063 41.8572
26.607876449110325 42.043
26.63075509460056 42.2066
26.65381357334404 42.3161
26.67669439061878 42.3835
26.699576291163382 42.3729
26.722459276044212 42.2222
26.745522132402975 41.9387
26.768407297649354 41.6643
26.791293550442003 41.2621
26.814180891848974 40.9339
26.837248143099337 40.6599
26.860137673466657 40.6796
26.88302829566349 40.3948
26.90592001075963 40.1541
26.92899167420566 40.0072
26.951885586870763 39.5568
26.974780595655517 39.4181
26.99785558178161 39.4326
27.020752794605112 39.2349
27.043651106772522 39.0267
27.06655051935668 38.9796
27.089629948036183 38.8481
27.112531573292053 38.7524
27.135434302194138 38.835
27.158338135817015 38.8324
27.181422024430987 38.762
27.204328079372566 38.6283
27.22723524226965 38.8028
27.250143514198573 38.8341
27.273231880156334 38.6215
27.296142382065014 38.5747
27.319053996245536 38.499
27.341966723775965 38.6005
27.365059584515222 38.5493
27.38797455070062 38.6703
27.410890633481237 38.5807
27.433807833936918 38.5315
27.456905206923906 38.5905
27.47982465472398 38.6992
27.502745223449743 38.6668
27.525666914182825 38.7697
27.548768816912457 38.6939
27.571692763693633 38.7196
27.59461783573812 38.4964
27.617723149491244 38.391
27.640650484125285 38.4652
27.66357894728264 38.2742
27.686508540048052 38.2694
27.709618414237887 38.0856
27.732550278321757 37.9745
27.755483275279115 37.8499
27.778417406196485 37.9653
27.801531858397514 38.0525
27.824468269376716 37.9143
27.847405817586786 37.9444
27.870344504116094 38.1006
27.893463551932008 38.1847
27.916404527281053 38.3797
27.93934664422563 38.391999999999996
27.962289903855886 38.6328
27.98541356491974 38.868
28.00835912214229 38.9702
28.03130582533231 39.1494
28.054253675581805 39.2191
28.077381967556104 39.1284
28.100332124185126 39.0328
28.123283431160893 39.1256
28.146235889577238 38.9075
28.169368830154156 38.7894
28.192323603752033 38.6828
28.215279532083304 38.4358
28.238415973016764 38.1529
28.261374223145094 38.0109
28.284333631303806 37.8585
28.307294198589954 37.7104
28.330435319167677 37.4324
28.353398217078915 37.1784
28.376362277420153 36.9051
28.39932750129032 36.7768
28.422473319286713 36.516999999999996
28.44544088262495 36.4663
28.468409612800283 36.4267
28.491379510913497 36.1151
28.51453004413313 36.0887
28.53750229057244 36.0996
28.56047570826344 36.0919
28.583450298308804 36.1105
28.606605564586562 35.7747
28.629582511831156 35.9195
28.65256063474956 35.7259
28.675539934446338 35.6442
28.698699951647605 35.7926
28.72168161743193 35.6204
28.74466446331978 35.6821
28.767648490417624 35.6527
28.790813276438353 35.5251
28.813799678527303 35.4363
28.836787265157085 35.6447
28.859955641890075 35.6487
28.882945610203045 35.5027
28.905936766392035 35.3754
28.928929111566863 35.4927
28.952102288520145 35.3757
28.975097024308607 35.3372
28.998092952423807 35.2728
29.021090073977508 35.0845
29.04426806913204 35.0104
29.067267590245258 34.8877
29.090268308143695 34.6528
29.11327022394099 34.7559
29.13645305530891 34.6481
29.159457379627167 34.6623
29.18246290519685 34.4979
29.20546963313352 34.5157
29.22865731875826 34.4375
29.25166646419296 34.5064
29.27467681535305 34.3714
29.29768837335608 34.4696
29.320880931312562 34.4899
29.34389491580634 34.4251
29.366910110507334 34.4201
29.38992651653503 34.4166
29.41312396492981 34.3208
29.436142806456754 34.3137
29.45916286268059 34.248000000000005
29.48236399319994 34.1678
29.50538649169417 34.0416
29.528410208259935 33.8993
29.55143514402014 33.6842
29.574641196749695 33.6016
29.597668583816574 33.4846
29.6206971934585 33.2708
29.64372702680042 33.4548
29.666938019934474 33.3009
29.689970313635285 33.2452
29.713003834422636 33.1114
29.73603858342347 33.1634
29.759254535188578 32.9975
29.78229175361658 32.9164
29.80533020365064 33.0586
29.82836988641968 33.0744
29.85159081507472 32.9752
29.874632976355343 32.8813
29.89767637376955 32.9424
29.920721008448314 32.9074
29.9439469322847 32.7658
29.96699405457564 32.6887
29.9900424175358 32.8046
30.013092022298157 32.6299
30.03632295963995 32.5868
30.059375061131373 32.6317
30.08242840783577 32.6194
30.105483000888153 32.639
30.128718970092244 32.5451
30.151776069006917 32.5492
30.17483441768648 32.5643
30.198074175317235 32.5434
30.221135036724256 32.5521
30.24419715131772 32.5657
30.267260520236203 32.3537
30.290505341942243 32.4552
30.313571232750228 32.4604
30.336638381310948 32.4694
30.35970678876503 32.3479
30.38295669299435 32.2492
30.40602763151657 32.3246
30.429099832366074 32.3153
30.452173296685572 32.2691
30.47542830191959 32.1543
30.498504306502497 32.1187
30.521581577995562 32.2067
30.544660117543582 32.1921
30.56792024229725 32.2824
30.59100133132069 32.2206
30.614083691845494 32.2019
30.637167325018545 32.3175
30.660432587840603 32.305
30.683518779717886 32.3176
30.70660624769615 32.4181
30.729694992924372 32.3369
30.75296541239743 32.3609
30.77605672557558 32.2873
30.799149319462742 32.2606
30.8224236211637 32.14
30.845518789950724 31.9962
30.868615242910597 31.965
30.891712981195973 31.7772
30.91499247215866 31.7194
30.938092794619365 31.7237
30.96119440587579 31.6106
30.984297307082752 31.5276
31.00758200598383 31.3537
31.030687500658694 31.3185
31.053794288760695 31.3701
31.076902371446767 31.2073
31.100192296997445 31.3431
31.12330298246119 31.2573
31.14641496599209 31.0726
31.169528248749216 31.0999
31.19282341969534 31.1787
31.215939314557186 31.1782
31.239056512134788 31.1825
31.262175013589378 31.0675
31.28547544871168 31.1087
31.30859657161541 31.025
31.331719001892175 30.95
31.35484274070538 31.0635
31.378148458819545 31.1011
31.401274828443725 30.9827
31.424402510106933 31.0479
31.447712205419993 31.054000000000002
31.470842524931633 30.8899
31.493974159989783 30.9144
31.51710711176168 30.8438
31.54042212308802 30.8703
31.563557722100917 30.8971
31.586694641341655 30.7738
31.609832881979628 30.6562
31.63315322823208 30.5716
31.656294125521327 30.4681
31.679436347728515 30.5157
31.70257989602529 30.3548
31.725905596152327 30.3329
31.74905181052835 30.2511
31.772199354521323 30.3727
31.79534822930507 30.3515
31.818679302290967 30.2774
31.84183085259981 30.1787
31.864983737233473 30.2112
31.88813795736804 30.2508
31.911474422233013 30.131
31.934631327356435 30.1798
31.9577895715215 30.1193
31.980949155906522 30.1716
32.004291031706956 30.1674
32.027453310562606 30.0277
32.05061693318573 29.943
32.07396288236386 29.9447
32.09712920658542 29.976999999999997
32.12029687812702 29.7539
32.14346589817093 29.6225
32.166817291729984 29.6205
32.18998902288583 29.638
32.21316210610336 29.5268
32.23633654256711 29.2994
32.259693399663725 29.4422
32.282870556771144 29.3385
32.30604907069099 29.3391
32.329228942610065 29.3091
32.35259128243769 29.1464
32.375773884550505 29.0302
32.398957848235646 29.0813
32.422143174682176 28.8982
32.445511016471215 28.862
32.468699082679954 28.9525
32.49188851523011 28.8101
32.51507931531304 28.7833
32.538452678331 28.7938
32.56164622776311 28.732
32.58484114831493 28.6669
32.60803744118015 28.706
32.631416344731896 28.6575
32.654615396551876 28.7041
32.67781582427913 28.5505
32.701198898634416 28.4415
32.72440209253756 28.3634
32.747606665947124 28.3748
32.77081262006088 28.2975
32.79420126883317 28.2188
32.81740999876112 28.2317
32.840620112999424 28.1715
32.86383161274818 28.1312
32.88722585534586 28.1641
32.91044014056596 28.2593
32.933655814909734 28.1183
32.95687287957963 28.0877
32.98027273544904 27.9888
33.00349259526636 27.88
33.026713849030116 28.0251
33.04993649794511 28.0799
33.073341986570746 27.9097
33.09656744032826 27.7983
33.11979429286444 27.8438
33.14302254538647 27.8473
33.166433686291185 27.8807
33.18966475336992 27.8205
33.212897224069096 27.7572
33.23613109959831 27.7368
33.259547912343415 27.6766
33.2827846121627 27.6698
33.306022720453775 27.5797
33.32926223842861 27.5364
33.352684742614166 27.5375
33.37592709463173 27.4832
33.399170859982064 27.4205
33.422597648419426 27.3857
33.44584425514446 27.2333
33.46909227885668 27.1953
33.4923417207723 27.101999999999997
33.51577423505344 27.1431
33.539026528130385 27.0398
33.56228024307245 27.0442
33.585535381098246 26.8947
33.60897364093058 26.8338
33.63223163992385 26.8974
33.6554910656699 26.8419
33.678751919389796 26.7873
33.702195944520106 26.6126
33.72545966903325 26.6503
33.74872482519663 26.5692
33.771991414233746 26.6852
33.79544122444841 26.7108
33.81871069412428 26.5284
33.84198160035767 26.4387
33.86525394437455 26.5275
33.88870955949969 26.3958
33.911984794020626 26.4166
33.93526147001624 26.2635
33.958539588715006 26.3385
33.98200102861669 26.3204
34.0052820477047 26.1473
34.02856451319451 26.133000000000003
34.05203033759056 26.1047
34.07531571090147 26.124000000000002
34.09860253431845 26.1175
34.121890809074316 26.0166
34.145362493118924 26.0451
34.16865368561615 25.9315
34.191946333164054 25.9644
34.21524043699793 25.8692
34.23871800066799 25.9455
34.26201503218366 25.7998
34.28531352370466 25.7959
34.30861347646881 25.6742
34.33209693978188 25.6486
34.3553998301885 25.7113
34.378704185565205 25.6152
34.402010007152356 25.5252
34.42549939016683 25.5577
34.44880815937748 25.4365
34.472118398533134 25.3168
34.49543010887669 25.4005
34.51892543169198 25.2691
34.54224009966052 25.3006
34.56555624255917 25.235
34.58887386163339 25.1835
34.61237514439016 25.1133
34.6356957311114 25.0163
34.65901779775809 25.031
34.68252356662995 25.0034
34.705848608458616 25.0355
34.72917513396849 24.9759
34.75250314440949 24.9182
34.77601490857862 24.8745
34.799345904259795 24.8384
34.82267838863559 24.8158
34.846012362958525 24.7823
34.869530142679984 24.7574
34.89286711232212 24.7816
34.91620557568269 24.6755
34.93954553401677 24.7112
34.9630693495876 24.6133
34.986412313340814 24.5988
35.00975677584668 24.6754
35.033102738362956 24.5263
35.05663261012228 24.4134
35.0799815881786 24.4787
35.10333207003229 24.4146
35.12668405694369 24.3741
35.150220005273056 24.4098
35.17357501786656 24.4386
35.19693153931268 24.3103
35.220289570874385 24.2067
35.24383161619786 24.2445
35.267192683604904 24.2397
35.290555264930376 24.2415
35.314101899412165 24.2364
35.33746752422433 24.1165
35.36083466676374 24.1536
35.38420332829803 24.0946
35.407756095629054 24.0863
35.43112781085063 24.0401
35.45450104888391 24.0129
35.477875810999194 24.0985
35.50143473172161 24.0105
35.52481255774625 24.0922
35.54819191167777 23.9046
35.57157279478914 23.9401
35.595137889488406 23.8136
35.61852184675279 23.7888
35.641907337029984 23.7383
35.665294361595684 23.6901
35.68886565090076 23.6644
35.7122557598848 23.6486
35.73564740699838 23.5488
35.759040593519934 23.6089
35.78261809810353 23.5526
35.80601437933051 23.5144
35.829412203814705 23.4291
35.85281157283719 23.2978
35.876395313415884 23.3635
35.8997977874528 23.2554
35.92320180988546 23.3105
35.946790244133936 23.2662
35.97019737933222 23.2506
35.993606066789866 23.2049
36.01701630779276 23.1899
36.04061101440684 23.1137
36.06402437852291 23.156999999999996
36.08743930005611 23.078000000000003
36.1108557802951 22.9285
36.13445678011326 22.9516
36.15787639383515 22.8651
36.18129757014299 22.8776
36.20472031032821 22.8858
36.22832762423364 22.8073
36.25175350829375 22.8178
36.275180960119776 22.7821
36.298609981005924 22.7756
36.32222362992669 22.7498
36.34565580510207 22.6755
36.36908955323448 22.7487
36.39252487562093 22.5805
36.416144880530226 22.4992
36.43958336764275 22.5679
36.463023432914625 22.5724
36.486465077645676 22.4963
36.51009145956204 22.5831
36.53353627947859 22.5061
36.55698268276811 22.4852
36.58043067073321 22.3911
36.60406345072071 22.2955
36.62751462435344 22.2548
36.65096738658405 22.3904
36.67460498210655 22.2924
36.69806093788647 22.2072
36.72151848619297 22.1712
36.744977628333636 22.1987
36.76862165890998 22.1312
36.79208400512205 22.0442
36.81554794910557 22.061999999999998
36.83901349217101 22.0031
36.862663978991606 22.0111
36.88613273667352 21.9579
36.90960309738324 21.9734
36.933075062434064 21.8806
36.95673202673572 21.8689
36.98020721697122 21.8001
37.003684015502365 21.8114
37.027162423645365 21.7187
37.050825886711465 21.6268
37.07430753063053 21.5802
37.09779078812467 21.5072
37.121275660513014 21.5428
37.144945643673694 21.5199
37.16843376245278 21.5422
37.19192350009803 21.5488
37.215414857931435 21.4156
37.239091382563885 21.3715
37.262585997426164 21.3628
37.28608223645736 21.4051
37.309763684451696 21.308000000000003
37.33326318851098 21.2847
37.356764320726555 21.2143
37.380267082425526 21.2117
37.40395510942588 21.2287
37.42746114683234 21.1303
37.45096881771841 21.0727
37.474478123414166 21.0761
37.49817275092816 21.0708
37.52168534303452 21.0187
37.54519957395567 21.0629
37.568715445024665 20.9915
37.592416694607714 20.8829
37.61593586281424 20.9468
37.63945667518264 20.9704
37.66297913304891 20.7816
37.68668702630454 20.7177
37.710212792059274 20.7253
37.733740207334854 20.679000000000002
37.757269273470364 20.6316
37.780983832050374 20.5894
37.80451621684926 20.5772
37.82805025654007 20.5229
37.851585952464795 20.601999999999997
37.8753071980695 20.488000000000003
37.89884622345676 20.4591
37.92238690911902 20.4342
37.94611318753442 20.3058
37.969657210779765 20.4351
37.99320289834801 20.3601
38.016750251586465 20.2603
38.04048325513017 20.2456
38.06403395679343 20.1797
38.087586328183946 20.2448
38.11114037065203 20.2274
38.13488012115898 20.2851
38.1584375229181 20.1252
38.181996599821 20.0947
38.205557353221124 20.0581
38.229303872575656 20.0427
38.2528679961576 20.0417
38.27643380031219 20.0545
38.30000128639589 19.9028
38.32375459653193 19.9431
38.34732546371299 19.8965
38.37089801690786 19.7898
38.39447225747609 19.7855
38.418232380377425 19.8146
38.441810012983396 19.782
38.46538933705673 19.7289
38.488970353960084 19.6929
38.51273731166058 19.613
38.536321731567014 19.5019
38.55990784840681 19.6206
38.58367995004091 19.5009
38.60726947812959 19.4915
38.63086070726198 19.5126
38.654453638806274 19.4991
38.678232613930824 19.4434
38.70182896773327 19.3906
38.72542702806741 19.4492
38.7490267963045 19.387999999999998
38.77281266709232 19.3124
38.79641586862214 19.2625
38.8200207821842 19.2468
38.843627409152944 19.1542
38.86742019782782 19.1999
38.891030269149255 19.1357
38.914642058016156 19.1364
38.938255565806124 19.1421
38.96205529464307 19.086
38.98567225787121 19.0689
39.00929094417078 19.0551
39.03291135492255 19.0259
39.05671804624804 18.9275
39.080341923549106 18.9095
39.103967529460334 18.8647
39.127594865365744 18.8101
39.15140854155791 18.7684
39.17503935514948 18.7983
39.19867190290282 18.7776
39.22249083587951 18.718
39.24612686969409 18.7173
39.269764641845306 18.6477
39.293404153722804 18.6685
39.317230110864074 18.5931
39.34087311998506 18.574
39.36451787301696 18.5824
39.388164371352595 18.4617
39.41199737518003 18.4407
39.43564738196752 18.43
39.45929913825317 18.4076
39.48295264543308 18.3468
39.506792718520884 18.3863
39.530449745387216 18.3579
39.55410852735203 18.3213
39.57776906581474 18.3105
39.60161623079 18.3061
39.625280300200025 18.282
39.64894613032202 18.226
39.67261372255866 18.2122
39.6964680021016 18.1939
39.72013913657293 18.1811
39.74381203738292 18.1271
39.76748670593756 18.1228
39.79134812278169 18.0379
39.81502634488497 18.0688
39.83870633896685 18.0113
39.862388106436654 17.9556
39.88625668336918 17.8946
39.90994201572829 17.8919
39.933629125719285 17.8361
39.957503091207826 17.8159
39.9811937746168 17.839000000000002
40.00488623990914 17.7951
40.02858048850006 17.7979
40.05246165409549 17.7168
40.076159487492085 17.6583
40.099859108448875 17.676
40.123560518384345 17.6827
40.1474489070226 17.6527
40.171153913178564 17.5897
40.194860712584955 17.5504
40.2185693066637 17.6023
40.242464941335314 17.474
40.26617714307655 17.4682
40.289891143772046 17.4232
40.3136069448471 17.3816
40.33750984859743 17.3865
40.3612292688043 17.3229
40.3849504936829 17.3437
40.40867352466194 17.3598
40.43258372059144 17.2265
40.45631038219906 17.2291
40.48003885420956 17.136
40.503769138055105 17.2132
40.52768664931955 17.1933
40.55142057531802 17.1349
40.57515631746428 17.0625
40.599079334038514 17.0913
40.62281872700477 17.0364
40.64655994043941 17.0557
40.67030297578061 17.0447
40.69423334835778 16.9963
40.71798004609188 16.9353
40.74172857006355 16.8851
40.76547892171441 16.9186
40.7894166736039 16.933
40.813170699248566 16.887
40.83692655691388 16.8437
40.86068424804498 16.8358
40.884629402612525 16.7774
40.908390779366385 16.7324
40.932153993938 16.7118
40.95591904777605 16.647000000000002
40.979871628443995 16.6847
41.003640379561936 16.6304
41.02741097430883 16.5955
41.05118341413683 16.5858
41.075143444384416 16.5409
41.098919593177826 16.5304
41.1226975914255 16.4898
41.14647744058318 16.4579
41.170444943946755 16.3688
41.19422851378379 16.4043
41.218013938914645 16.3749
41.24198706625173 16.3324
41.26577622087193 16.3606
41.289567235177785 16.2975
41.31336011063129 16.3106
41.337340752422875 16.3093
41.361137369129835 16.2802
41.38493585138705 16.2195
41.40873620066004 16.1224
41.43272438060107 16.1196
41.45652848292052 16.1083
41.48033445666918 16.0037
41.50414230331616 16.0167
41.528138045159764 16.0304
41.551949656675205 15.9669
41.575763145513235 15.9668
41.59957851314666 15.9074
41.62358184070442 15.8984
41.64740098505737 15.8636
41.6712220126409 15.827
41.69504492493139 15.8563
41.71905586207357 15.8755
41.74288256296395 15.8047
41.766711153007456 15.720999999999998
41.79054163368412 15.6756
41.814560204340054 15.7022
41.838394485526365 15.6976
41.86223066180303 15.6245
41.88625497706819 15.6621
41.910094962812 15.6027
41.93393684811168 15.6379
41.95778063445365 15.5182
41.981812625263366 15.5254
42.00566023303407 15.5147
42.029509746323676 15.4678
42.05336116662236 15.4768
42.077400857069705 15.4292
42.10125611078846 15.424000000000001
42.12511327600405 15.3687
42.14897235421036 15.3059
42.173019768448455 15.2639
42.19688269209613 15.280999999999999
42.22074753323349 15.243
42.24461429335818 15.2591
42.268669455600495 15.2271
42.292540073217886 15.2245
42.31641261433284 15.1881
42.34028708044675 15.1593
42.36435001496739 15.1311
42.38822835065557 15.091
42.41210861586426 15.0674
42.4359908120986 15.1186
42.46006154323262 15.0301
42.48394762115317 14.9533
42.507835634632315 14.9902
42.531912233047436 14.9425
42.55580413732265 14.9562
42.579697981698 14.9046
42.60359376768525 14.8325
42.62767820545945 14.8382
42.65157789440821 14.8511
42.67547952952185 14.7952
42.699383112316 14.7835
42.72347541395347 14.713
42.74738291190531 14.7111
42.771292362102166 14.7563
42.795203766063516 14.700999999999999
42.819303956130405 14.6498
42.843219287476536 14.6294
42.86713657716324 14.5863
42.89105582671383 14.5827
42.91516392983864 14.5354
42.939087119032166 14.4639
42.963012272677304 14.4842
42.98693939230129 14.4763
43.01105543317513 14.4264
43.034986504731386 14.3983
43.05891954686589 14.3712
43.08285456110972 14.3753
43.10697856448665 14.3659
43.130917542983475 14.3044
43.15485849820081 14.3108
43.17880143167367 14.2418
43.20293342237094 14.2121
43.226880332449 14.2306
43.25082922540554 14.2059
43.27496722682525 14.1798
43.29892010567796 14.1877
43.32287497204102 14.119000000000002
43.34683182745632 14.0965
43.370977859791836 14.0813
43.39493871351105 14.0476
43.41890156092628 14.0936
43.44286640358341 14.0049
43.46702049182749 13.9629
43.49098934522816 13.9248
43.51496019852649 13.8734
43.5389330532723 13.9232
43.56309522248204 13.9079
43.58707210044314 13.8715
43.61105098451946 13.8509
43.63503187626491 13.8248
43.659202151562134 13.8025
43.68318707902681 13.7562
43.70717401884041 13.7317
43.731162972560874 13.7457
43.75534137913236 13.6606
43.779334381108384 13.6936
43.803329401683186 13.6535
43.82732644241872 13.6173
43.8515130055166 13.5806
43.87551410707659 13.5697
43.89951723350145 13.5389
43.923709934595614 13.5069
43.94771713129917 13.5244
43.97172635758096 13.4465
43.99573761501002 13.4747
44.0199385169922 13.4704
44.04395385732619 13.3764
44.067971233533086 13.3995
44.09199064718605 13.3637
44.11619977548961 13.356
44.14022328470671 13.3306
44.16424883610785 13.2975
44.18827643127035 13.2885
44.21249381139513 13.2624
44.236525514814076 13.2188
44.26055926674478 13.219000000000001
44.28459506876863 13.2256
44.3088207262813 13.1052
44.33286064928722 13.1076
44.35690262714919 13.1016
44.38094666145278 13.0455
44.4051806219871 13.114
44.42922879003185 13.0354
44.45327901929361 13.0264
44.477331311362136 13.0273
44.501573600619416 12.9681
44.525630039221795 12.9831
44.54968854541895 12.982000000000001
44.573937102200176 12.9682
44.5979997645541 12.8795
44.622064499300315 12.8271
44.64613130803592 12.8191
44.67038823869318 12.8381
44.69445921643748 12.7495
44.718532272981385 12.7614
44.742607409926194 12.7629
44.76687274034801 12.7065
44.79095205918753 12.6893
44.81503346325094 12.6867
44.839116954143876 12.6559
44.86339071028742 12.6335
44.88747839599524 12.6162
44.91156817336837 12.5853
44.93566004401666 12.5949
44.959942251908146 12.5546
44.984038330325966 12.5327
45.00813650686762 12.5018
45.03223678314731 12.502
45.05652746888232 12.4651
45.08063196592069 12.4632
45.104738567558705 12.415999999999999
45.128847275414856 12.3619
45.15314646515866 12.3537
45.17725940679741 12.3347
45.20137445952892 12.3667
45.22568004865265 12.3213
45.24979934496396 12.2776
45.27392075725247 12.244000000000002
45.29804428714431 12.2743
45.322358426247604 12.1594
45.346486212804315 12.1801
45.370616121861914 12.1986
45.39474815505086 12.1938
45.41907087049246 12.1129
45.4432071734666 12.1111
45.46734560548283 12.1113
45.49148616817604 12.0673
45.51581748638564 12.0351
45.5399623320197 11.9999
45.56410931325473 11.972999999999999
45.58825843173002 11.9808
45.61259837920865 11.9407
45.636751793816 11.9737
45.66090735060093 11.9292
45.68506505120716 11.9135
45.7094136545275 11.8625
45.73357566449271 11.8417
45.75773982322992 11.8465
45.78190613238733 11.8107
45.806263418194064 11.7777
45.83043404997326 11.7436
45.85460683713677 11.7492
45.87897065658495 11.7459
45.90314777634752 11.6959
45.92732705646868 11.7077
45.9515084986045 11.649000000000001
45.97588104735473 11.6275
46.00006683541565 11.5922
46.02425479047904 11.5662
46.04844491420549 11.5759
46.0728262191024 11.5528
46.09702070211635 11.5831
46.12121735879483 11.5605
46.14541619080294 11.5127
46.169806278764455 11.475999999999999
46.194009483459034 11.4701
46.21821486849841 11.4867
46.24242243555223 11.4302
46.266821333570014 11.4119
46.29103328674601 11.3578
46.31524742696538 11.4029
46.33946375590237 11.3513
46.36387149104216 11.2843
46.38809221957392 11.2905
46.41231514186606 11.2885
46.436540259597464 11.2408
46.460956858999374 11.2361
46.48518638983522 11.2183
46.509418121166966 11.2174
46.533652054678114 11.1798
46.55807754555709 11.1576
46.58231590571962 11.1912
46.60655647313217 11.1311
46.630988654873654 11.0909
46.655233659129024 11.0637
46.67948087571551 11.0705
46.70373030632484 11.0437
46.72817142736393 10.9911
46.752425308428684 10.9861
46.77668140861147 10.9792
46.80093972960865 10.9338
46.82538981736788 10.9339
46.849652602470904 10.927
46.87391761349769 10.9021
46.8981848521493 10.8819
46.9226439341274 10.8356
46.946915650573224 10.788
46.97118959976749 10.7759
46.99546578341598 10.7781
47.019933887188216 10.7623
47.04421456235744 10.7618
47.06849747711879 10.7367
47.09278263318286 10.6969
47.11725978640143 10.6672
47.14154944775105 10.6494
47.165841355555656 10.6269
47.1901355115306 10.6333
47.214621741924994 10.6367
47.23892041698887 10.5774
47.26322134538975 10.5419
47.28771440635075 10.5099
47.31201986422527 10.4948
47.33632758061436 10.5201
47.360637557241866 10.4844
47.38513974410611 10.4551
47.40945426407847 10.4608
47.43377104948137 10.4921
47.45809010204344 10.4365
47.48260144275502 10.4043
47.506925052572285 10.4109
47.53125093475548 10.3647
47.55557909103813 10.3211
47.58009961361992 10.3717
47.60443234110732 10.3001
47.62876734791564 10.2651
47.65310463578333 10.2135
47.6776343683373 10.2431
47.7019762413987 10.1886
47.72632040075572 10.1826
47.75066684815169 10.1758
47.77520581885936 10.1221
47.799556865477655 10.1076
47.823910205386 10.1778
47.84826584033272 10.1171
47.87281407745551 10.0893
47.89717432569297 10.106
47.92153687423484 10.0458
47.94609208429692 10.0338
47.97045925671401 10.0348
47.99482873471275 9.99964
48.01920052005013 9.99955
48.04376504619224 9.99424
48.068141469543484 9.95485
48.09252020552573 9.94469
48.11690125590099 9.89688
48.1414751266064 9.90563
48.16586082917454 9.90245
48.19024885144316 9.84557
48.2146391951793 9.82878
48.239222439012764 9.8248
48.26361744916137 9.813239999999999
48.28801478610016 9.807080000000001
48.31241445160131 9.77876
48.337007097209366 9.76794
48.36141144338331 9.72063
48.38581812345755 9.68237
48.41022713920929 9.71009
48.434829215320704 9.651019999999999
48.45924292604658 9.64568
48.48365897780325 9.6523
48.50807737237308 9.617569999999999
48.532688907799276 9.64984
48.55711201168574 9.62036
48.581537463754074 9.604280000000001
48.60615611725119 9.60339
48.63058628942721 9.57236
48.65501881516546 9.57
48.6794536962573 9.52582
48.70408185970339 9.46598
48.72852147531801 9.44421
48.75296345168211 9.438989999999999
48.77740779059232 9.41657
48.80204549302823 9.47822
48.82649458091802 9.43961
48.85094603676547 9.37248
48.87539986237231 9.35108
48.90004713292306 9.35011
48.92450572200832 9.32066
48.94896668628025 9.332410000000001
48.97343002754588 9.28836
48.99808689542115 9.27622
49.02255501470614 9.30312
49.04702551642794 9.261569999999999
49.0714984023988 9.196539999999999
49.096164896893235 9.247639999999999
49.120642575466796 9.20588
49.145122643748394 9.17324
49.16960510355558 9.11895
49.19428125404938 9.111260000000001
49.2187685210852 9.101460000000001
49.243258185121555 9.09865
49.26794160167084 9.0988
49.2924360839405 9.06695
49.31693296869764 9.05636
49.34143225776915 9.015089999999999
49.36612538195438 8.99793
49.39062950396021 9.00488
49.41513603578346 8.954360000000001
49.4396449792564 8.94364
49.46434784069503 8.9522
49.488861631846454 8.88619
49.513377840166804 8.85449
49.537896467493745 8.897260000000001
49.56260909589029 8.91508
49.587132585683285 8.84826
49.611658500018365 8.84025
49.636186840738596 8.861410000000001
49.66090926588511 8.83724
49.685442483902584 8.76068
49.70997813385706 8.76636
49.734516217597076 8.743960000000001
49.75924846937352 8.72344
49.7837914452858 8.70987
49.80833686055187 8.68962
49.83288471702571 8.67869
49.85762682540054 8.69546
49.882179588965734 8.64609
49.9067347993235 8.60851
49.93129245833333 8.59332
49.95604445336378 8.64285
49.98060703442832 8.59792
50.005172069746266 8.57971
50.02993150438364 8.53365
50.05450147301533 8.52497
50.07907390151433 8.48678
50.10364879174981 8.50055
50.12841816587289 8.511239999999999
50.1529980044635 8.48359
50.17758031042124 8.43873
50.20216508562089 8.42453
50.22694442953363 8.42554
50.25153416817468 8.43324
50.27612638170508 8.3951
50.300721072005196 8.35743
50.325510416102105 8.36171
50.350110084975064 8.32201
50.37471223628208 8.34914
50.39931687190919 8.32475
50.424116246675766 8.266960000000001
50.44872587605249 8.28399
50.47333799543065 8.24799
50.49795260670191 8.2251
50.52276204271512 8.24072
50.54738166295838 8.18843
50.57200378079314 8.17867
50.596628398116835 8.18564
50.62144792604559 8.19341
50.646077567609396 8.20617
50.670709714377715 8.164660000000001
50.69553683636198 8.16424
50.72017401885922 8.113660000000001
50.7448137122895 8.12075
50.76945591856022 8.11132
50.79429318636823 8.078710000000001
50.818940443716784 8.034510000000001
50.84359021965163 7.9952
50.868242516085964 8.00875
50.893089960641895 8.00923
50.917747323549435 7.98186
50.94240721271973 7.98583
50.96706963007175 7.965319999999999
50.99192728239342 7.93315
51.01659478166073 7.9634100000000005
51.04126481489051 7.9379
51.06593738400761 7.901660000000001
51.090805275207074 7.86525
51.11548294172845 7.841060000000001
51.14016314993547 7.85112
51.164845901758845 7.803380000000001
51.18972406304274 7.8018600000000005
51.21441192780656 7.795710000000001
51.23910234200271 7.785069999999999
51.2637953075678 7.78235
51.288683770237945 7.766789999999999
51.31338186432707 7.736039999999999
51.33808251561888 7.70326
51.362978729967345 7.70229
51.387684521509755 7.67691
51.41239287610203 7.67258
51.437103795691165 7.62918
51.46201036644977 7.652189999999999
51.486726441956634 7.64624
51.51144508832545 7.64078
51.536166307509156 7.56942
51.56108326624387 7.5796
51.58580965706056 7.565060000000001
51.61053862657523 7.55168
51.635270176746864 7.50333
51.66019755512065 7.530539999999999
51.68493429268881 7.5076600000000004
51.70967361681515 7.50506
51.73441552946465 7.496239999999999
51.759353359237934 7.482639999999999
51.7841004750961 7.43853
51.80885018539685 7.397710000000001
51.833602492111254 7.434989999999999
51.8585508051424 7.388669999999999
51.883308330926425 7.362010000000001
51.90806845906181 7.37675
51.932831191525715 7.34785
51.95779001977161 7.35197
51.98255798721516 7.31015
52.00732856494335 7.25407
52.03229530577543 7.27457
52.057071130455945 7.27035
52.081849571391054 7.239260000000001
52.106630630568695 7.25445
52.13160794279417 7.20752
52.15639426492067 7.24083
52.18118321127822 7.226189999999999
52.205974783860896 7.188510000000001
52.23096269971011 7.154389999999999
52.255759551287994 7.115310000000001
52.280559035098186 7.11935
52.30536115314103 7.067130000000001
52.33035970494467 7.07908
52.35516711807904 7.110710000000001
52.37997717147198 7.051989999999999
52.40478986713005 7.041939999999999
52.42979908731974 7.03037
52.454617094216 7.02952
52.47943774942214 6.99759
52.50426105495102 7.006469999999999
52.529280976059844 6.97865
52.554109609024096 6.9671899999999996
52.57894089837482 6.939010000000001
52.60377484613117 6.936089999999999
52.62880550079408 6.89831
52.65364479223379 6.88996
52.67848674816189 6.907430000000001
52.70352547971946 6.85699
52.72837279155837 6.88046
52.753222773982785 6.84421
52.778075429022984 6.873810000000001
52.80312495150885 6.83052
52.827982978797436 6.83162
52.85284368481815 6.792110000000001
52.87770707160767 6.7843800000000005
52.90276741793998 6.75088
52.92763619336701 6.75972
52.952507655698504 6.75425
52.977381806977576 6.763730000000001
53.00245301017842 6.719639999999999
53.02733256653592 6.72513
53.052214817996074 6.69972
53.077099766608484 6.654039999999999
53.102181859804446 6.64165
53.127072229988265 6.660069999999999
53.15196530349892 6.64681
53.17686108239249 6.603
53.20195409881522 6.595389999999999
53.22685531582556 6.597189999999999
53.25175924441303 6.56495
53.27666588664027 6.57804
53.30176985962693 6.52255
53.3266819565689 6.5286599999999995
53.35159677336455 6.5509
53.376514312083096 6.534619999999999
53.40162927507703 6.4829300000000005
53.42655228516116 6.4591
53.45147802340193 6.44998
53.47660125628886 6.43277
53.50153247842639 6.42282
53.52646643496923 6.37673
53.55140312799818 6.36849
53.576537409691696 6.38692
53.60147960336152 6.37695
53.626424539786164 6.364269999999999
53.65137222105307 6.34929
53.67651758529126 6.3443
53.70147078399681 6.3674800000000005
53.72642673383343 6.30401
53.75138543689533 6.33148
53.776541917524526 6.30875
53.801506154876755 6.26109
53.826473151763246 6.2157
53.851442910284916 6.19677
53.87661054126026 6.23337
53.9015858509782 6.18466
53.92656392866066 6.19591
53.95154477641532 6.19175
53.976723591801296 6.16175
54.00171000771266 6.16487
54.02669920004598 6.1727300000000005
54.051691170915745 6.17004
54.076881204886796 6.1117099999999995
54.101878760928514 6.1188199999999995
54.12687910187696 6.08595
54.152077577768296 6.0683
54.1770835166946 6.04424
54.20209224691339 6.04622
54.22710377055121 6.00232
54.25231352511594 6.01657
54.27733066384342 6.0265
54.30235060239643 5.99074
54.32737334290836 5.98635
54.35259441062629 5.95874
54.377622783395324 5.9423900000000005
54.40265396455061 5.9554
54.42768795623251 5.89211
54.45292037169559 5.85175
54.477960012857906 5.87104
54.50300247099511 5.85452
54.52804774825457 5.863519999999999
54.55329154616743 5.798109999999999
54.57834249018678 5.79705
54.6033962597977 5.76543
54.6284528571545 5.71451
54.653708072335164 5.71592
54.67877035378786 5.69451
54.70383546947698 5.66852
54.72890342156389 5.67919
54.7541700889442 5.63311
54.77924374251975 5.63825
54.8043202390049 5.56952
54.82959552413022 5.5704199999999995
54.8546777351945 5.60422
54.87976279569621 5.53545
54.90485070780914 5.58869
54.930137506558005 5.54914
54.95523115074295 5.52465
54.98032765308844 5.47611
55.005427015775496 5.42282
55.03072536339621 5.44442
55.05583047570572 5.4006
55.080938454927676 5.36226
55.10604930325027 5.434019999999999
55.131359235107396 5.393759999999999
55.15647585066083 5.34932
55.181595341907496 5.29625
55.20671771104285 5.303780000000001
55.232039262617704 5.25745
55.25716741665048 5.226719999999999
55.28229845518636 5.22745
55.30743238042802 5.220280000000001
55.33276558731939 5.18844
55.357905315183636 5.1513599999999995
55.383047936390035 5.137490000000001
55.40819345314859 5.10722
55.433538351073295 5.092569999999999
55.458689688238415 5.10516
55.483843927614096 5.04671
55.509197623043605 5.0465800000000005
55.53435769621134 5.06789
55.55952067826466 4.97633
55.5846865714265 4.97053
55.61005202069737 4.90843
55.63522376553902 4.94949
55.66039842818645 4.88208
55.68557601087004 4.86745
55.7109532500271 4.79772
55.73613670233794 4.85574
