TT I
1.2716486653135266 7.3189
1.2939594142134223 6.93538
1.3162702121660406 6.75785
1.3385810600174564 6.51384
1.3608919586137629 6.53897
1.383202908801069 6.124569999999999
1.405513911425503 5.84888
1.4278249673332093 5.89647
1.4501343378461518 6.13286
1.4724455028545926 5.7192
1.4947567236847858 6.08793
1.517068001182951 5.70028
1.5393793361953272 5.48299
1.5616907295681737 5.377669999999999
1.5840021821477681 5.17632
1.60631369478041 5.82284
1.6286252683124185 5.11209
1.6509369035901333 5.1285300000000005
1.6732468618895553 5.23436
1.695558623192809 4.47344
1.7178704487808514 5.06148
1.7401823395001077 4.77803
1.7625012545597203 4.36735
1.7848028405262486 4.89555
1.8071218901122095 4.7699300000000004
1.8294236121921872 4.45195
1.8517427996910911 4.62725
1.8740620574440425 4.90603
1.8963639900671978 4.75284
1.9186833908139995 4.45782
1.9409854680117449 5.079680000000001
1.9633050151394713 5.06398
1.9856246367570705 4.39623
2.0079269371922672 4.4765
2.03024671027244 4.4694400000000005
2.0525491637446027 4.065519999999999
2.074869091674931 4.30394
2.097171701569106 4.50022
2.1194917877373847 4.70449
2.141811954326636 4.8922
2.164114805233074 4.88319
2.186435135143035 5.54819
2.208738150935709 12.592
2.231058647554722 24.4778
2.2533792288321184 19.0104
2.275682498336085 8.667010000000001
2.298003251406138 5.77391
2.3203066942619714 5.73594
2.3426276225136022 5.44075
2.3649486396617507 5.67534
2.387252348930071 6.614660000000001
2.4095735463442893 6.14665
2.4318774374315884 6.05042
2.4541988185014043 6.935239999999999
2.476502894794693 7.10165
2.498824462909887 7.4123
2.521146125856138 7.14653
2.5434504863470337 7.7151
2.5657723414244717 7.987760000000001
2.588076895590662 8.06531
2.610398946189713 7.99027
2.6327210958598384 8.29124
2.6550259469304716 8.68543
2.6773482972090137 8.365839999999999
2.6996533504259 8.25388
2.7219759047039602 8.32116
2.744298562293959 8.09731
2.7666039251246595 8.24954
2.7889267918020164 8.18337
2.8112323652516555 8.316360000000001
2.833555444408179 8.671389999999999
2.8558786311183852 8.21081
2.8781845268938557 9.07432
2.9005079311721484 8.9558
2.9228140460410397 8.91992
2.9451376712799635 9.153260000000001
2.967444008632326 9.46273
2.9897678582247247 9.99629
3.0120918213106695 10.0976
3.0343984987899373 10.6654
3.0567226913198637 11.4508
3.079029599759726 11.4428
3.101354025127254 12.0222
3.123678568232338 12.7915
3.145985829517914 13.3927
3.16831061055229 13.6225
3.1906181112775593 15.0993
3.212943133635653 14.5685
3.2352682779763207 15.3759
3.2575761442691227 15.4114
3.2799015350264273 15.7896
3.302209649240067 16.2944
3.3245352898092655 16.4168
3.3468436553365257 17.58
3.369169549113219 18.0034
3.3914955708171384 18.6154
3.413804319727358 19.2342
3.4361305997334863 18.8809
3.4584396084414553 19.5183
3.4807661501462652 20.2908
3.503092824025881 20.8098
3.5254022288463154 21.2907
3.5477291695206588 21.3633
3.5700388426251948 22.0398
3.5923660534916446 23.563000000000002
3.6146934007816114 36.5899
3.637003482731501 77.5193
3.6593311053109985 85.2969
3.681641464033634 51.4885
3.7039693653009733 29.6118
3.726297407241705 26.0407
3.7486081875460804 25.3873
3.7709365132734978 25.8636
3.793247578841633 26.491999999999997
3.8155761917550093 26.3945
3.8378875459837216 27.0458
3.8602164494827234 27.4252
3.882545499606844 28.238000000000003
3.9048572932539183 28.9909
3.9271866390645718 28.954
3.9494987298666713 29.6475
3.971828374764527 29.9471
3.9941581705403255 30.8896
4.016470713506008 31.168000000000003
4.038800813471445 31.8587
4.061113662089144 32.4771
4.0834440696459176 33.2591
4.105774632334751 33.772
4.128087945865126 34.171
4.150418821249301 35.3206
4.172732448931298 36.5526
4.195063640413578 38.2694
4.2173775856475215 41.9379
4.239709096631102 69.6713
4.262040768704612 206.64700000000002
4.284355196706267 274.362
4.306687193387355 178.27200000000002
4.329001947444346 74.3972
4.35133427213731 47.2224
4.373666762177566 44.4932
4.395982011761091 43.9351
4.418314834921175 45.2741
4.44063041906622 52.0706
4.4629635787515625 61.6179
4.4852969080429785 61.3883
4.5076130004776225 52.9904
4.529946671403969 50.3197
4.552263106909177 50.7493
4.574597122877047 51.7263
4.596931312711224 52.4667
4.619248269273446 53.2381
4.6415828092605835 53.6198
4.663900117405352 54.9554
4.686235010953232 56.0073
4.708552674085913 57.4627
4.730887924602802 59.1031
4.753223354952695 60.4866
4.775541557023902 62.0954
4.797877349456786 63.5589
4.820195915032126 65.9752
4.842532072957498 66.3819
4.864868414979744 68.2451
4.88718753227192 71.0337
4.909524244902505 73.0032
4.931843734218147 74.1499
4.954180820867835 76.4236
4.976518095879839 79.8438
4.998838149695359 82.3849
5.021175803844231 85.6734
5.043496238205739 88.904
5.065834274903528 92.7287
5.088172504230693 97.3537
5.1104935158799565 103.64399999999999
5.132832132875765 123.913
5.155153533596801 158.965
5.1774925416746225 188.622
5.199814334878411 316.684
5.2221537374521505 855.8480000000001
5.244493338631803 2654.6
5.266815727034316 7779.44
5.289155727832427 12395.2
5.311478517248165 8675.01
5.333818921080011 2685.77
5.356159527788849 505.227
5.3784829252032536 178.253
5.400823940070432 140.40200000000002
5.423147747031976 125.691
5.445489173474152 116.846
5.467830807066149 112.14
5.490155234831516 108.755
5.512497285125229 105.538
5.534822130975162 103.26799999999999
5.557164601388673 100.67
5.579489868738879 97.8047
5.601832762690846 96.9696
5.6241758697774475 96.2669
5.646501775867269 95.616
5.668845311622074 93.4841
5.691171647754637 92.7272
5.713515615597765 91.6662
5.735859800852677 90.8681
5.758186788542988 90.3812
5.780531411018185 90.8473
5.802858837297399 90.6147
5.825203900414495 89.9448
5.8475491852224 90.6378
5.869877275883075 91.3661
5.892223006467101 91.5027
5.914551544266608 92.1845
5.936897724049891 94.3266
5.959244129804903 98.8208
5.981573344815301 113.465
6.0039202049061 189.21900000000002
6.026249875609095 407.407
6.04859719346037 903.048
6.070927323278297 2140.98
6.093275102315365 4386.37
6.115623113320588 5233.07
6.137953938319995 3110.78
6.160302415650845 929.06
6.182633708324452 224.359
6.2049826554078376 109.601
6.227331838745022 90.1679
6.249663839443684 83.6917
6.27201349767565 81.1201
6.294345974611799 86.4578
6.316696111167083 95.1959
6.339046488263839 90.5756
6.361379686074702 77.5631
6.383730546639482 70.6334
6.406064229255215 68.2591
6.428415576718203 67.5582
6.450749747566656 66.8219
6.47310158535871 65.5855
6.495453669698332 64.3987
6.517788579421056 63.7953
6.540141159237969 63.1699
6.562476565766648 62.4758
6.5848296444934045 62.3441
6.607182974060425 62.0407
6.6295191323281015 62.1675
6.651872965955752 65.4291
6.6742096296068985 87.4778
6.6965639707294615 124.947
6.71891856698715 123.25299999999999
6.741255995248479 87.9584
6.763611104154477 65.6201
6.785949046381137 59.4369
6.808304671371482 57.9118
6.8306605557940046 57.8886
6.852999275508618 56.8553
6.875355681171544 56.8001
6.897694923437771 56.1962
6.92005185377892 55.956
6.9423916220322655 56.14
6.964749080490181 55.3561
6.987106804399774 55.3935
7.009447368180821 55.2321
7.031805625367033 55.1588
7.054146723727803 54.8335
7.076505517631004 54.5677
7.098864581288365 54.4195
7.121206488070854 54.2302
7.143566093607822 54.3039
7.165908543567245 55.037
7.188268694426048 54.6374
7.2106291193438095 54.8445
7.232972390625943 55.888000000000005
7.255333366030969 67.7382
7.277677189091925 111.65299999999999
7.300038718428332 149.849
7.322400526130865 126.97200000000001
7.344745183422596 82.262
7.367107550224791 60.5396
7.389452767901992 55.7876
7.411815697249891 54.6038
7.434161478756298 53.8043
7.456524974096713 53.6343
7.478888753837185 53.6118
7.501235387657368 53.8941
7.523599738562711 54.1895
7.545946944825532 54.5713
7.568311870344528 54.5016
7.5906770845765665 55.136
7.613025156078678 56.1519
7.635390950099687 57.1083
7.657739602662809 56.3835
7.680105979923558 55.5092
7.702472650212829 55.6263
7.724822180948224 55.501000000000005
7.747189439655568 55.5959
7.769539560075357 55.7777
7.791907410653562 56.0085
7.81425812420825 55.9301
7.836626570110925 56.269
7.858995315087906 56.9646
7.881346924933401 57.1193
7.903716270417482 57.4853
7.926068482028405 57.5892
7.948438431475253 58.4828
7.9708086843180235 59.1376
7.993161805171116 59.3577
8.015532667162402 60.2198
8.037886398416653 60.8812
8.060257873014221 61.3895
8.082629655331942 62.2452
8.104984308787587 63.4813
8.127356708900503 66.3385
8.149711981398308 70.8182
8.172085002766314 73.0832
8.194458336181368 70.3705
8.216814543847752 68.5736
8.23918850371002 68.4655
8.26154533906492 69.4522
8.283919928836452 71.0271
8.306277395339652 71.8764
8.328652618483376 73.2531
8.351028159736202 75.1547
8.373386579575245 77.4357
8.395762759396959 78.9107
8.418121819038275 83.5693
8.440498640894003 94.8433
8.462875785192262 107.071
8.485235811156207 117.454
8.507613602688501 152.27
8.529974277114228 233.455
8.552352719347912 359.25199999999995
8.574731488360351 628.234
8.59709314210385 1169.02
8.619472567021075 1899.18
8.64183487789147 2165.73
8.664214962183097 1785.86
8.686577933647762 935.148
8.708958680784317 358.66
8.731339760774953 160.862
8.753703729764451 108.995
8.77608547780821 97.0624
8.798450116065078 93.7959
8.820832535634787 91.3287
8.843215292401656 89.9543
8.865580941199045 88.4728
8.887964374703538 88.1471
8.910330701447199 88.9258
8.932714815164482 90.7809
8.955099270424924 89.3511
8.977466620733543 86.7667
8.999851761421976 84.8162
9.022219798361645 83.0534
9.04460562795561 82.7001
9.066991803441677 82.2344
9.089360876979615 82.2648
9.111747746589993 81.9434
9.13411751544971 80.749
9.156505082664324 80.7728
9.178875550323522 81.4625
9.20126381862328 81.5006
9.223652438908596 81.6137
9.246023961427412 81.5732
9.26841328802173 81.1873
9.290785518039224 80.9618
9.313175554425882 81.9124
9.335565947154315 81.7802
9.357939245086508 82.03
9.380330352834827 82.4049
9.40270436697103 82.6341
9.425096193225055 82.5083
9.447488380180165 83.1778
9.469863475295412 82.9277
9.492256385987508 83.6536
9.514632206018318 84.2675
9.537025843935714 84.3267
9.559402392368193 85.3697
9.581796761000229 86.4752
9.604191496441521 87.4895
9.626569144158516 90.5591
9.648964615551032 94.7258
9.671343000390081 96.0644
9.693739211225699 94.2065
9.716135793237463 92.381
9.738515290448102 91.8736
9.760912617143402 92.9797
9.783292860202891 94.2894
9.805690935076182 95.4463
9.828089385495742 96.4722
9.850470754023561 98.8393
9.872869957865444 105.85700000000001
9.89525208097539 118.55
9.917652041736662 128.609
9.940052382417589 128.005
9.962435644102392 134.40200000000002
9.984836746950979 164.604
10.007220771957746 224.47099999999998
10.029622640473708 320.71
10.052007432299963 497.85699999999997
10.074410069984072 805.257
10.096813093716005 1288.47
10.119199042482517 1768.01
10.141602840636468 1952.16
10.163989564971628 1552.99
10.186394141051062 886.174
10.208799107559706 404.01099999999997
10.231187001965623 186.273
10.253592751657669 123.959
10.275981430388155 111.319
10.298387966769793 110.819
10.320794897965431 112.521
10.343184759907361 111.177
10.36559248305461 106.476
10.387983138083852 102.635
10.410391656691655 104.85600000000001
10.432800574501677 114.37100000000001
10.455192425893369 130.219
10.47760214443012 155.346
10.499994797678786 201.40400000000002
10.522405320453982 285.371
10.54479877906917 413.42800000000005
10.567210109595656 530.236
10.5896218454736 591.734
10.612016518879773 512.9780000000001
10.634429067781074 347.75
10.656824555333241 200.90599999999998
10.679237920773568 122.494
10.701651695961992 95.7512
10.724048411481384 88.3443
10.746463008485165 85.6292
10.768860546937125 84.0725
10.791275969274796 82.3445
10.81369180576079 81.1067
10.836090585366925 80.3301
10.858507252467449 78.9324
10.88090686379991 78.0263
10.903324365036394 77.4877
10.925724811614439 77.3497
10.948143150509463 78.3435
10.970561909719066 77.3387
10.992963615930844 75.7388
11.015383218085756 73.8339
11.037785768347074 72.473
11.06020621697282 72.1169
11.082627090322113 71.6414
11.105030913430326 71.2707
11.12745263854165 71.5365
11.149857314510728 74.1583
11.172279894912576 79.3197
11.194702904450653 79.3361
11.217108866490921 76.0634
11.239532736615194 72.3854
11.26193956033512 70.622
11.284364294577085 68.9316
11.306789462371718 67.2863
11.329197585398376 66.3206
11.351623622610898 66.2815
11.37403261614354 65.5442
11.396459526308487 65.5372
11.418869393879497 64.8713
11.441297180532617 64.4461
11.463725406927658 64.324
11.486136592353875 64.0307
11.508565700543707 64.3101
11.530977768845315 66.1339
11.553407762368774 66.5259
11.575838200059769 66.0778
11.598251599479612 64.4595
11.620682927815501 63.3181
11.64309721895548 63.0248
11.665529441478206 62.427
11.687962112597958 62.1261
11.710377748130886 62.3167
11.732811318753434 62.3676
11.755227854859067 62.1703
11.777662328529495 62.05
11.800079768750786 61.7465
11.822515149015453 61.7628
11.844950984084935 61.7252
11.867369787303163 61.3964
11.889806534289491 61.5954
11.912226250487029 61.8112
11.934663912939751 62.0494
11.9571020346363 61.8206
11.979523127133968 62.1513
12.001962169624331 62.736000000000004
12.024384183972964 63.4542
12.046824150809913 66.2801
12.069264581333726 70.9446
12.091687985297767 76.5506
12.11412934550045 85.4831
12.136553680195208 101.163
12.158995973632788 124.66799999999999
12.181438735204349 156.863
12.20386447284199 190.157
12.226308172985636 207.403
12.24873485024193 202.648
12.271179492516982 169.291
12.293607112949127 124.111
12.316052700916226 93.9333
12.338498763250042 76.5633
12.360927805303868 68.2775
12.383374818673879 65.1535
12.405804812803074 63.6272
12.428252780773262 63.6706
12.45070122756722 63.4473
12.473132656675375 63.2359
12.49558206341869 63.5741
12.518014453510101 63.57
12.540464823770117 63.5186
12.562915677315177 63.9686
12.58534951575545 64.7131
12.607801338171472 66.6218
12.630236146511358 70.9586
12.652688941369085 74.9676
12.675124723177234 75.2128
12.697578494048786 71.8989
12.720032754458185 68.5154
12.742470003354093 67.0676
12.764925245138771 67.0857
12.787363476431278 67.1332
12.809819703166806 67.4314
12.83227642391173 68.1948
12.854716135692716 68.7048
12.877173846755147 69.8402
12.899614549869717 70.1731
12.9220732548287 70.9262
12.94453245827299 71.5051
12.966974655289818 72.5066
12.989434858002571 73.2976
13.011878055298721 73.8327
13.034339260862497 74.9051
13.056800969391883 75.8744
13.079245674017244 77.9707
13.101708390774869 79.6206
13.12415410463411 85.7018
13.146617833206086 96.1462
13.169064559883248 107.398
13.191529303857127 121.995
13.213994557076367 144.519
13.236442809902437 182.957
13.258909083908291 241.965
13.28135835851934 309.603
13.30382565690295 382.976
13.326293469022952 419.34
13.348744283242008 413.06199999999995
13.371213125129904 347.514
13.39366497011003 253.204
13.416134845360597 168.993
13.438605238843131 121.904
13.46105863690397 103.306
13.483530069144786 102.236
13.505984506951902 107.19200000000001
13.528456981549432 116.63600000000001
13.550929978879088 130.959
13.573385983253365 155.773
13.595860028340867 196.96200000000002
13.618317081455832 251.766
13.64079217790333 311.004
13.663250283359057 352.44599999999997
13.685726434770173 365.212
13.708203115221277 326.866
13.730662806148091 253.294
13.75314054697177 178.265
13.775601299246777 125.324
13.798080104050406 96.1157
13.820559442405358 84.2904
13.843021793671388 80.4266
13.865502201420897 79.078
13.887965623051947 78.51100000000001
13.910447103807167 77.517
13.932929122629764 76.19800000000001
13.955394156785959 75.5213
13.977877254034569 74.7943
14.000343367582113 74.058
14.022827546871707 73.2959
14.045294743423524 72.6226
14.06778000837062 72.2737
14.090265817715476 72.1375
14.112734645763819 71.9189
14.13522154619454 71.4596
14.157691466286913 71.5912
14.180179461423874 71.1013
14.202668005486178 70.5481
14.22513957064374 69.6855
14.247629214846473 69.514
14.270101881097517 69.4154
14.29259262906496 69.6621
14.315083930490205 70.2757
14.337558255389705 70.2906
14.360050666019726 70.0823
14.382526101071944 69.0133
14.405019624534942 68.452
14.427513705993134 67.7141
14.449990813291825 67.9116
14.47248601302899 67.8269
14.49496423954951 68.0207
14.517460561197822 68.0082
14.539939910570322 67.7161
14.562437357763558 68.3009
14.58493536931253 69.3411
14.607416409993311 69.983
14.62991555254159 70.452
14.652397725157423 70.5145
14.674898002342799 69.7536
14.697398848433282 69.3885
14.719882725991326 70.0857
14.74238471217934 70.9399
14.764869730765593 73.7453
14.787372860692983 76.7277
14.809876564079925 80.817
14.83236330125751 86.4242
14.854868153850365 94.8889
14.877356041159485 108.585
14.899862046604186 128.45
14.922351087688757 154.974
14.944858249632887 185.088
14.967365991421232 211.952
14.989856770231246 221.71200000000002
15.012365673994204 215.75099999999998
15.03485761569738 187.135
15.05736768508665 146.247
15.07987833888692 113.275
15.102372032001655 89.8153
15.124883856909658 76.6014
15.14737872204565 71.42399999999999
15.169891721717274 69.3655
15.192405310371893 69.4592
15.214901940621196 69.6389
15.237416709527137 69.6533
15.259914520936249 70.0054
15.282430473753607 68.8908
15.304947020131227 67.8379
15.327446610371178 67.1526
15.349964346154254 66.2664
15.372465126703139 65.9028
15.394984055556009 65.8674
15.417486030076159 65.6534
15.44000615566487 65.236
15.462526881230803 65.1531
15.485030653812652 65.3536
15.507552581617434 65.3214
15.530057557334603 65.4199
15.55258069104857 65.1533
15.575104429329837 65.2917
15.597611216864632 64.8694
15.620136166564563 65.0693
15.6426441664095 65.6852
15.665170331202765 67.5692
15.687697105158826 70.5051
15.710206930593545 73.6987
15.732734925158933 77.6452
15.755245972089478 83.926
15.77777519094324 93.3336
15.800287463046663 107.164
15.822817909869592 126.698
15.84534897229804 149.496
15.867863089299354 172.42700000000002
15.890395385222186 188.146
15.912910736597423 190.024
15.935444269699861 180.31599999999997
15.957978423016485 150.268
15.980495633101265 120.171
16.003031029129367 93.9361
16.02554948280019 75.8358
16.048086125229432 67.0919
16.070623392487107 64.3098
16.09314371869582 63.4197
16.11568223789321 62.5508
16.13820381691126 61.5604
16.160743591742527 60.5233
16.183283996022084 59.5298
16.205807461423195 58.7958
16.228349126881973 58.3999
16.25087385432698 58.1581
16.27341678466365 57.625
16.29594277784926 57.4429
16.31848697676433 57.7131
16.341031811604868 57.8377
16.36355971058487 58.0735
16.3861058195587 57.9138
16.40863499352978 56.8263
16.431182380342005 56.1695
16.453730407713202 55.4945
16.476261501364792 55.2707
16.498810812136167 54.9799
16.52134319004079 55.1011
16.54389378792203 54.7511
16.566445031001553 54.4866
16.588979342490088 54.5255
16.61153187824822 54.4006
16.634067483263312 54.2421
16.656621315414416 54.0156
16.679175797408888 53.8329
16.701713349928728 53.8997
16.72426913389191 54.1787
16.74680798922351 54.4034
16.76936507887444 54.3848
16.791905240734874 54.31399999999999
16.814463639794468 54.0714
16.837022695210294 53.9112
16.859564824093756 54.461000000000006
16.882125194503903 55.1736
16.904668639217885 55.781000000000006
16.927230328348003 55.7672
16.949792678493612 55.6953
16.972338104193863 55.3038
16.994901778652235 54.9128
17.017448529496576 55.0416
17.040013531998152 55.0534
17.06257920018044 55.3442
17.0851279459922 55.9904
17.107694947817667 56.7735
17.130245028099072 57.5895
17.15281336730298 59.0639
17.17536478578733 60.8402
17.19793446610687 63.1062
17.220504818648422 66.2899
17.243058251703697 69.8362
17.265629950971032 74.9932
17.288184731571736 79.6343
17.310757781306908 82.2364
17.33333150794385 83.5146
17.355888317140174 81.0797
17.37846339986244 75.7285
17.401021565958885 69.7628
17.42359800851343 65.0722
17.44617513265564 61.3669
17.468735341390783 59.4452
17.491261035594565 58.4814
17.51396340099364 58.1606
17.536490463869136 58.4295
17.559018209820174 58.4603
17.58154663977963 58.5383
17.604251766089718 58.6014
17.626781572227713 58.8401
17.64931206518155 58.9371
17.671843245885103 59.474
17.69455114821572 59.8919
17.717083712612634 60.196000000000005
17.739616967569667 60.1928
17.762150914021706 60.5784
17.78486160749854 60.4052
17.807396945166804 61.0708
17.829932977143503 61.8198
17.85246970436452 63.1394
17.875183204129467 64.9477
17.897721330097664 66.9956
17.920260154126645 69.1622
17.942799677153296 72.3167
17.9655159983646 76.0374
17.988056927677544 81.5664
18.010598558807683 89.6726
18.033140892692916 100.35799999999999
18.05586005052525 111.546
18.07840379824407 122.639
18.10094825154059 132.151
18.12366954819864 137.638
18.146215420998306 136.106
18.16876200220057 127.345
18.191309292745153 113.70100000000001
18.214033452627167 101.414
18.236582170236648 90.6612
18.259131600016456 85.571
18.281681742907335 86.0476
18.304408781233683 90.9765
18.32696035875955 96.3116
18.349512652227624 100.53399999999999
18.372065662579683 103.802
18.394795594587553 103.575
18.41735004715306 100.215
18.43990521943684 93.134
18.46246111238171 84.5369
18.485193953325208 75.9629
18.507751296070428 69.0169
18.530309362314178 65.13600000000001
18.552868153000343 62.6845
18.57560391815056 61.4389
18.59816416623245 60.7702
18.620725141597372 60.3934
18.643286845190268 60.0811
18.666025549835414 59.6707
18.688588718427933 59.0573
18.711152618092243 58.9916
18.73389353884365 58.7037
18.75645890921984 58.2168
18.77902501351406 57.9908
18.801591852673102 57.7574
18.824335739722738 57.3989
18.846904057212626 57.442
18.8694731124168 57.1078
18.89204290628315 57.2363
18.914789774966803 56.9916
18.937361054791623 56.4385
18.959933076131318 56.1985
18.982505839934877 56.3352
19.00525570560582 56.1601
19.027829963004184 56.2142
19.05040496572238 56.129
19.072980714710468 56.1226
19.095733592739563 56.3415
19.11831084296757 56.5536
19.140888842324735 56.9623
19.16346759176222 57.3724
19.18622349753803 57.8184
19.208803755869358 58.4392
19.231384767143577 59.7798
19.253966532312948 61.4461
19.276725481241822 63.6968
19.29930876296784 66.2816
19.3218928014549 69.3471
19.34465404436217 72.1577
19.36723960516257 74.8319
19.389825925592426 75.6201
19.412413006605938 74.4155
19.43517731967805 70.7204
19.457765930683355 66.7128
19.48035530514408 62.2252
19.50294544401556 58.6194
19.525712842708348 55.9794
19.54830451925909 54.595
19.570896963095727 53.5919
19.593490175174704 53.3597
19.616260674962184 53.3819
19.638855432416964 52.8913
19.661450960992624 52.9486
19.68404726164677 52.7953
19.706820878021247 52.7692
19.729418731756834 52.7605
19.752017360452857 52.4396
19.77461676506804 52.776
19.797393513540218 52.9654
19.819994478951667 53.3247
19.84259622316767 53.8151
19.8651987471481 54.056999999999995
19.887978643247177 54.2174
19.91058273574792 54.8047
19.933187610901943 55.5702
19.955969879466828 56.6735
19.97857632894404 58.2534
20.00118356396599 59.8911
20.023791585494575 62.1829
20.046577028914875 64.8937
20.069186632506966 66.8626
20.091797025500632 68.6076
20.114408208858933 69.1582
20.137196842715273 68.7206
20.159809615886765 67.4608
20.18242318232135 64.8289
20.20503754298326 62.7167
20.227829382875154 61.8323
20.250445341109344 61.9552
20.27306209647285 62.8269
20.29567964993108 63.7055
20.31847471147704 64.5231
20.34109387027612 64.8553
20.363713830075454 64.5473
20.386334591841646 63.1472
20.409132890679302 60.5201
20.431755265564437 57.5496
20.454378445325528 54.931000000000004
20.477002430930366 53.1142
20.499803982716553 51.5954
20.522429589228004 50.9463
20.54505600449589 50.4503
20.567683229489194 50.2931
20.590488049900088 49.9499
20.61311690359731 49.8194
20.63574656993626 49.3932
20.658553853717297 48.9468
20.681185154618298 49.0678
20.703817271080066 48.9855
20.72645020407368 48.6526
20.749260783967177 48.6772
20.771895359337133 48.4614
20.794530754161617 48.595
20.817166969412938 48.343
20.83998086114876 48.1775
20.86261872660049 48.1978
20.885257415405402 48.1831
20.90789692853701 48.1406
20.930714147864748 48.0811
20.953355319030678 48.0434
20.97599731745334 48.2847
20.99864014410749 47.9652
21.021460706796564 48.1226
21.044105199328826 48.2498
21.06675052302631 48.4406
21.089396678865015 48.4936
21.112220600704806 48.8466
21.134868430275347 49.3382
21.15751709492456 49.5239
21.180166595629693 49.8738
21.202993892429635 50.3592
21.22564507473034 50.6805
21.24829709602816 50.8457
21.27112693608965 50.7717
21.293780644891275 50.8682
21.316435195634053 50.2865
21.339090589297417 49.5395
21.361923832041875 49.0548
21.384580921090404 48.3674
21.407238856007325 47.9011
21.429897637773326 47.8998
21.45273429906592 47.9261
21.475394784108598 47.9389
21.498056118951983 47.7535
21.520718304578022 48.1139
21.543558400304388 48.1822
21.566222297108816 48.2096
21.58888704765135 48.3851
21.61155265291521 48.6351
21.63439619898156 48.9709
21.657063523335786 49.163999999999994
21.67973170537063 49.6711
21.7024007460706 50.211999999999996
21.72524775840385 50.9223
21.747918526116475 52.0309
21.770590155457388 53.2294
21.79326264741238 54.8792
21.816113141960237 56.7814
21.838787368860547 58.7328
21.861462461341976 60.3479
21.884315579735777 62.3404
21.90699241312273 63.2132
21.92967011506078 63.5631
21.95234868653799 63.0198
21.9752053151131 61.9108
21.997885635446785 60.102
22.020566828293532 58.6283
22.04324889464272 57.0938
22.066109049404666 56.0514
22.088792872571794 55.4986
22.111477572219204 55.4909
22.1341631493376 55.4774
22.157026846313123 55.1357
22.179714188221507 54.4003
22.202402410582668 53.433
22.22509151438863 51.9233
22.24795876962584 50.8933
22.270649646204486 50.0041
22.293341407213727 49.1844
22.316034053646906 48.7629
22.338904883215342 48.4279
22.36159931041458 48.5426
22.38429462602756 48.5285
22.40699083104897 48.343
22.429865251039757 48.2126
22.452563244831367 48.268
22.47526213102522 48.1716
22.49813925616515 48.113
22.520839937143307 48.0929
22.543541513520587 48.1112
22.56624398629403 47.9156
22.589124730075895 47.9631
22.611829005656723 48.093999999999994
22.63453418063466 48.0309
22.657240256008077 48.1857
22.680124634582935 48.3307
22.70283252079775 48.6597
22.725541310413075 48.8465
22.74825100442868 48.9864
22.771139033969575 49.4644
22.79385054687155 49.7579
22.81656296718292 50.4811
22.83927629590484 51.3974
22.862167992606945 52.4492
22.88488314827121 53.6443
22.907599215359284 54.8478
22.93031619487366 55.8996
22.953211574954405 56.6069
22.975930389478226 57.243
22.998650119445763 57.2189
23.02137076586092 56.403
23.044269845560063 55.0842
23.06699233506288 53.588
23.089715744034912 52.071999999999996
23.112617610931565 50.4334
23.135342869061212 49.3545
23.158069049684816 48.6404
23.1807961538087 48.4164
23.20370174880544 48.2091
23.226430710184808 48.2103
23.249160598093425 48.1628
23.271891413539002 48.1193
23.294800752937697 48.254
23.31753343374794 48.3254
23.340267045128353 48.4045
23.36300158808808 48.8239
23.38591468821339 49.1889
23.408651104658304 49.597
23.431388455719986 50.2314
23.454126742409 51.2299
23.4770436196085 52.3263
23.499783787914662 53.6236
23.522524894889884 54.6431
23.54526694154616 55.7541
23.56818761219047 56.461999999999996
23.59093154860734 56.8552
23.613676427751283 57.0451
23.636422250635754 56.1466
23.659346731118656 54.7417
23.68209445191868 52.7854
23.704843119509587 50.8933
23.72759273490623 49.0806
23.750521041644767 47.7202
23.77327256312355 46.7073
23.796025035462787 46.1365
23.818956224555475 45.5488
23.841710609113413 45.3335
23.86446594758979 45.25899999999999
23.887222241002014 45.058
23.910157285144578 44.6621
23.932915498962537 44.6011
23.955674670778713 44.5419
23.978434801611975 44.2951
24.001373717286125 44.2299
24.024135776723917 44.1119
24.046898798245582 44.015
24.06966278287146 43.9957
24.092605586582614 43.7856
24.115371508023642 43.6486
24.1381383956401 43.6276
24.16090625045381 43.5258
24.183852958731244 43.458
24.206622758582608 43.3825
24.229393528706886 42.9519
24.252165270127392 43.1
24.27511589952438 43.1351
24.297889594216997 42.8985
24.32066426328598 42.7362
24.34343990775613 42.8984
24.36639447485003 42.6736
24.38917208083877 42.6325
24.41195066531332 42.638999999999996
24.43490819850244 42.6118
24.457688750692377 42.5177
24.48047028445616 42.3503
24.503252800821233 42.4883
24.526214300784112 42.7622
24.548998793132213 42.5145
24.57178427117417 42.5245
24.59457073593893 42.6131
24.617536219319863 42.4587
24.64032466834748 42.2755
24.663114107195035 42.3241
24.685904536893013 41.9781
24.708874020360852 41.9501
24.731666442613744 42.0467
24.754459858818787 42.0024
24.777254270007962 41.948
24.80022777025625 41.7764
24.82302418230472 41.8512
24.845821592443674 41.7252
24.86862000170663 41.6868
24.891597535453727 41.4628
24.914397953892728 41.6948
24.93719937456671 41.701
24.96000179851076 41.8355
24.98298338249997 42.0521
25.00578782394922 42.1866
25.028593271784167 42.3565
25.05157790644186 42.5783
25.07438537804115 42.7907
25.097193859145293 43.0492
25.120003350792075 43.2842
25.142992065061257 43.5716
25.165803588823465 43.95399999999999
25.18861612625217 44.1819
25.211429678386736 44.2092
25.234422489079968 44.2695
25.257238081693636 44.4646
25.280054692141732 44.4677
25.3028723214652 44.3201
25.325869245420463 44.5482
25.348688923599397 44.4891
25.371509623787006 44.2703
25.394331347025812 44.0775
25.41733240110666 43.5504
25.440156181590016 42.9996
25.46298098826268 42.5161
25.48580682216873 41.9389
25.50881202326435 41.4792
25.53163992281684 41.0042
25.55446885274561 40.6669
25.577298814096377 40.3882
25.600308179121807 40.319
25.623140214533745 40.4199
25.64597328451537 40.3457
25.66898578564376 40.1209
25.691820936010206 40.1325
25.714657124097695 40.0399
25.737494350954734 40.1354
25.760511045684957 39.9747
25.783350361364224 39.9768
25.806190718969255 39.9088
25.82903211955018 40.162
25.852053024868923 40.0798
25.874896522722523 40.1573
25.897741066713106 40.0556
25.920586657892454 40.22
25.943611790812668 40.4874
25.966459487728237 40.5452
25.989308234998564 40.5344
26.01215803367705 40.9863
26.03518741123814 41.1134
26.05803932412957 41.1128
26.080892291600094 41.0573
26.10374631470478 41.1236
26.12677995397268 41.2524
26.14963609978026 41.0729
26.172493304397875 40.8335
26.19535156888223 40.7954
26.218389486949604 40.3994
26.241249882640123 39.9592
26.26411134137826 39.9023
26.28715248187403 39.8832
26.31001607820869 39.6215
26.3328807407756 39.4757
26.35574647063438 39.5549
26.37879191991473 39.6658
26.401659795896734 39.5402
26.424528742360263 39.6994
26.447398760366614 39.9408
26.470448535598294 39.9727
26.49332070826805 40.3155
26.516193955675355 40.59
26.53906827888316 40.7476
26.562122397260108 41.0119
26.584998883685063 41.3411
26.607876449110325 41.6302
26.63075509460056 41.7022
26.65381357334404 41.7468
26.67669439061878 41.7073
26.699576291163382 41.5711
26.722459276044212 41.446000000000005
26.745522132402975 41.1759
26.768407297649354 40.9547
26.791293550442003 40.7232
26.814180891848974 40.4749
26.837248143099337 40.0698
26.860137673466657 39.9051
26.88302829566349 39.7202
26.90592001075963 39.5407
26.92899167420566 39.4763
26.951885586870763 39.1547
26.974780595655517 38.8214
26.99785558178161 38.6269
27.020752794605112 38.486
27.043651106772522 38.5315
27.06655051935668 38.4446
27.089629948036183 38.3693
27.112531573292053 38.3196
27.135434302194138 38.3192
27.158338135817015 38.0881
27.181422024430987 38.1879
27.204328079372566 38.0805
27.22723524226965 38.0591
27.250143514198573 38.078
27.273231880156334 38.0457
27.296142382065014 38.0725
27.319053996245536 37.8553
27.341966723775965 37.976
27.365059584515222 37.9941
27.38797455070062 38.0376
27.410890633481237 37.8749
27.433807833936918 37.976
27.456905206923906 38.0886
27.47982465472398 38.1397
27.502745223449743 38.0976
27.525666914182825 38.166
27.548768816912457 38.1153
27.571692763693633 38.0713
27.59461783573812 37.8567
27.617723149491244 37.8073
27.640650484125285 37.893
27.66357894728264 37.6934
27.686508540048052 37.5695
27.709618414237887 37.5678
27.732550278321757 37.4767
27.755483275279115 37.4474
27.778417406196485 37.6003
27.801531858397514 37.3883
27.824468269376716 37.4438
27.847405817586786 37.3618
27.870344504116094 37.441
27.893463551932008 37.6444
27.916404527281053 37.8077
27.93934664422563 37.9428
27.962289903855886 38.0225
27.98541356491974 38.198
28.00835912214229 38.3526
28.03130582533231 38.4998
28.054253675581805 38.773
28.077381967556104 38.6073
28.100332124185126 38.586999999999996
28.123283431160893 38.4501
28.146235889577238 38.3546
28.169368830154156 38.2425
28.192323603752033 38.0552
28.215279532083304 37.7664
28.238415973016764 37.5354
28.261374223145094 37.3407
28.284333631303806 37.1471
28.307294198589954 36.9641
28.330435319167677 36.6369
28.353398217078915 36.4246
28.376362277420153 36.3325
28.39932750129032 36.1423
28.422473319286713 35.9854
28.44544088262495 36.044000000000004
28.468409612800283 35.7874
28.491379510913497 35.6182
28.51453004413313 35.5561
28.53750229057244 35.5701
28.56047570826344 35.5121
28.583450298308804 35.465
28.606605564586562 35.3133
28.629582511831156 35.3674
28.65256063474956 35.1241
28.675539934446338 35.2098
28.698699951647605 35.243
28.72168161743193 35.0542
28.74466446331978 35.0846
28.767648490417624 35.0986
28.790813276438353 35.0649
28.813799678527303 35.0637
28.836787265157085 35.116
28.859955641890075 35.1928
28.882945610203045 35.0313
28.905936766392035 34.9063
28.928929111566863 34.9728
28.952102288520145 34.7577
28.975097024308607 34.6735
28.998092952423807 34.5321
29.021090073977508 34.5271
29.04426806913204 34.4668
29.067267590245258 34.2902
29.090268308143695 34.1714
29.11327022394099 34.2317
29.13645305530891 34.1416
29.159457379627167 34.0859
29.18246290519685 34.0258
29.20546963313352 33.9283
29.22865731875826 34.0815
29.25166646419296 33.9904
29.27467681535305 33.8413
29.29768837335608 33.9414
29.320880931312562 33.8697
29.34389491580634 33.8802
29.366910110507334 33.7743
29.38992651653503 33.8382
29.41312396492981 33.868
29.436142806456754 33.7066
29.45916286268059 33.7162
29.48236399319994 33.5516
29.50538649169417 33.4549
29.528410208259935 33.3409
29.55143514402014 33.161
29.574641196749695 33.0415
29.597668583816574 33.0111
29.6206971934585 32.6832
29.64372702680042 32.8364
29.666938019934474 32.7575
29.689970313635285 32.6173
29.713003834422636 32.6228
29.73603858342347 32.613
29.759254535188578 32.4429
29.78229175361658 32.4915
29.80533020365064 32.5149
29.82836988641968 32.5515
29.85159081507472 32.3887
29.874632976355343 32.3662
29.89767637376955 32.3541
29.920721008448314 32.1895
29.9439469322847 32.2494
29.96699405457564 32.2153
29.9900424175358 32.1691
30.013092022298157 32.1247
30.03632295963995 32.145
30.059375061131373 32.13
30.08242840783577 32.1211
30.105483000888153 32.2099
30.128718970092244 32.0759
30.151776069006917 31.965
30.17483441768648 31.987
30.198074175317235 31.9902
30.221135036724256 32.0686
30.24419715131772 32.0149
30.267260520236203 31.8792
30.290505341942243 31.8991
30.313571232750228 32.0807
30.336638381310948 32.0218
30.35970678876503 31.794
30.38295669299435 31.8766
30.40602763151657 31.7672
30.429099832366074 31.7363
30.452173296685572 31.7836
30.47542830191959 31.7033
30.498504306502497 31.7243
30.521581577995562 31.7251
30.544660117543582 31.7743
30.56792024229725 31.779
30.59100133132069 31.7208
30.614083691845494 31.8146
30.637167325018545 31.802
30.660432587840603 31.8572
30.683518779717886 31.7583
30.70660624769615 31.868000000000002
30.729694992924372 31.8776
30.75296541239743 31.7955
30.77605672557558 31.8283
30.799149319462742 31.6906
30.8224236211637 31.589000000000002
30.845518789950724 31.522
30.868615242910597 31.4167
30.891712981195973 31.2585
30.91499247215866 31.2672
30.938092794619365 31.2336
30.96119440587579 31.1161
30.984297307082752 31.0553
31.00758200598383 30.9319
31.030687500658694 30.8357
31.053794288760695 30.8705
31.076902371446767 30.7273
31.100192296997445 30.746
31.12330298246119 30.7759
31.14641496599209 30.6137
31.169528248749216 30.6193
31.19282341969534 30.5081
31.215939314557186 30.7039
31.239056512134788 30.5956
31.262175013589378 30.5283
31.28547544871168 30.4845
31.30859657161541 30.4855
31.331719001892175 30.4655
31.35484274070538 30.5872
31.378148458819545 30.6004
31.401274828443725 30.6575
31.424402510106933 30.5283
31.447712205419993 30.7331
31.470842524931633 30.5412
31.493974159989783 30.5574
31.51710711176168 30.4783
31.54042212308802 30.5098
31.563557722100917 30.3896
31.586694641341655 30.2589
31.609832881979628 30.0601
31.63315322823208 30.1323
31.656294125521327 30.0199
31.679436347728515 29.996
31.70257989602529 29.8346
31.725905596152327 29.8513
31.74905181052835 29.7412
31.772199354521323 29.8671
31.79534822930507 29.796
31.818679302290967 29.825
31.84183085259981 29.8132
31.864983737233473 29.737
31.88813795736804 29.787
31.911474422233013 29.7006
31.934631327356435 29.8463
31.9577895715215 29.7032
31.980949155906522 29.7011
32.004291031706956 29.7361
32.027453310562606 29.6012
32.05061693318573 29.482
32.07396288236386 29.5138
32.09712920658542 29.4051
32.12029687812702 29.1856
32.14346589817093 29.1842
32.166817291729984 29.1437
32.18998902288583 29.0915
32.21316210610336 29.0549
32.23633654256711 29.0106
32.259693399663725 28.9668
32.282870556771144 28.8543
32.30604907069099 28.7716
32.329228942610065 28.8187
32.35259128243769 28.6169
32.375773884550505 28.6136
32.398957848235646 28.6087
32.422143174682176 28.4931
32.445511016471215 28.392
32.468699082679954 28.405
32.49188851523011 28.3455
32.51507931531304 28.3259
32.538452678331 28.3445
32.56164622776311 28.155
32.58484114831493 28.2054
32.60803744118015 28.2722
32.631416344731896 28.1447
32.654615396551876 28.0932
32.67781582427913 28.1041
32.701198898634416 27.9574
32.72440209253756 27.9631
32.747606665947124 27.9898
32.77081262006088 27.7961
32.79420126883317 27.8627
32.81740999876112 27.8845
32.840620112999424 27.7512
32.86383161274818 27.8022
32.88722585534586 27.6388
32.91044014056596 27.8068
32.933655814909734 27.7052
32.95687287957963 27.7567
32.98027273544904 27.5496
33.00349259526636 27.6204
33.026713849030116 27.619
33.04993649794511 27.5436
33.073341986570746 27.5344
33.09656744032826 27.5324
33.11979429286444 27.474
33.14302254538647 27.5779
33.166433686291185 27.4988
33.18966475336992 27.4658
33.212897224069096 27.288
33.23613109959831 27.2808
33.259547912343415 27.2494
33.2827846121627 27.2837
33.306022720453775 27.1291
33.32926223842861 27.0839
33.352684742614166 27.0731
33.37592709463173 27.0379
33.399170859982064 27.039
33.422597648419426 26.8961
33.44584425514446 26.8083
33.46909227885668 26.7752
33.4923417207723 26.6985
33.51577423505344 26.6564
33.539026528130385 26.6147
33.56228024307245 26.6597
33.585535381098246 26.467
33.60897364093058 26.4814
33.63223163992385 26.4964
33.6554910656699 26.2901
33.678751919389796 26.3977
33.702195944520106 26.3096
33.72545966903325 26.4125
33.74872482519663 26.1846
33.771991414233746 26.226999999999997
33.79544122444841 26.1407
33.81871069412428 26.1045
33.84198160035767 26.101999999999997
33.86525394437455 26.0807
33.88870955949969 26.0146
33.911984794020626 26.0234
33.93526147001624 25.9385
33.958539588715006 25.8991
33.98200102861669 25.8668
34.0052820477047 25.8492
34.02856451319451 25.809
34.05203033759056 25.7128
34.07531571090147 25.6844
34.09860253431845 25.6575
34.121890809074316 25.6347
34.145362493118924 25.6151
34.16865368561615 25.531
34.191946333164054 25.5013
34.21524043699793 25.5132
34.23871800066799 25.5001
34.26201503218366 25.4006
34.28531352370466 25.3118
34.30861347646881 25.3013
34.33209693978188 25.2812
34.3553998301885 25.2991
34.378704185565205 25.2034
34.402010007152356 25.0834
34.42549939016683 25.0821
34.44880815937748 25.0899
34.472118398533134 24.9712
34.49543010887669 24.9836
34.51892543169198 24.7837
34.54224009966052 24.8557
34.56555624255917 24.8447
34.58887386163339 24.763
34.61237514439016 24.7437
34.6356957311114 24.7356
34.65901779775809 24.7116
34.68252356662995 24.6957
34.705848608458616 24.643
34.72917513396849 24.5205
34.75250314440949 24.5441
34.77601490857862 24.4461
34.799345904259795 24.4532
34.82267838863559 24.4008
34.846012362958525 24.443
34.869530142679984 24.3867
34.89286711232212 24.3625
34.91620557568269 24.3101
34.93954553401677 24.2892
34.9630693495876 24.1783
34.986412313340814 24.2451
35.00975677584668 24.2626
35.033102738362956 24.1339
35.05663261012228 24.0626
35.0799815881786 24.1629
35.10333207003229 24.0029
35.12668405694369 23.9977
35.150220005273056 24.0224
35.17357501786656 23.9696
35.19693153931268 23.8967
35.220289570874385 23.8439
35.24383161619786 23.9072
35.267192683604904 23.9262
35.290555264930376 23.8845
35.314101899412165 23.8029
35.33746752422433 23.8241
35.36083466676374 23.7373
35.38420332829803 23.6758
35.407756095629054 23.7176
35.43112781085063 23.7192
35.45450104888391 23.6581
35.477875810999194 23.7432
35.50143473172161 23.5954
35.52481255774625 23.5769
35.54819191167777 23.5369
35.57157279478914 23.5407
35.595137889488406 23.5826
35.61852184675279 23.4649
35.641907337029984 23.4259
35.665294361595684 23.3244
35.68886565090076 23.351999999999997
35.7122557598848 23.2997
35.73564740699838 23.2612
35.759040593519934 23.2238
35.78261809810353 23.1829
35.80601437933051 23.0822
35.829412203814705 22.9896
35.85281157283719 23.048000000000002
35.876395313415884 23.0724
35.8997977874528 22.9451
35.92320180988546 22.9272
35.946790244133936 22.9382
35.97019737933222 22.8474
35.993606066789866 22.7958
36.01701630779276 22.8117
36.04061101440684 22.8032
36.06402437852291 22.7089
36.08743930005611 22.7796
36.1108557802951 22.5961
36.13445678011326 22.6
36.15787639383515 22.5443
36.18129757014299 22.6322
36.20472031032821 22.5222
36.22832762423364 22.4319
36.25175350829375 22.3751
36.275180960119776 22.3549
36.298609981005924 22.3958
36.32222362992669 22.5054
36.34565580510207 22.3466
36.36908955323448 22.3652
36.39252487562093 22.2016
36.416144880530226 22.1893
36.43958336764275 22.1823
36.463023432914625 22.2051
36.486465077645676 22.0232
36.51009145956204 22.1741
36.53353627947859 22.1861
36.55698268276811 22.1793
36.58043067073321 22.0402
36.60406345072071 21.9164
36.62751462435344 21.9729
36.65096738658405 22.0
36.67460498210655 21.9765
36.69806093788647 21.8608
36.72151848619297 21.7379
36.744977628333636 21.7696
36.76862165890998 21.6931
36.79208400512205 21.6425
36.81554794910557 21.7098
36.83901349217101 21.6288
36.862663978991606 21.6188
36.88613273667352 21.6108
36.90960309738324 21.5161
36.933075062434064 21.4342
36.95673202673572 21.5343
36.98020721697122 21.469
37.003684015502365 21.4068
37.027162423645365 21.3641
37.050825886711465 21.3525
37.07430753063053 21.2889
37.09779078812467 21.2942
37.121275660513014 21.2422
37.144945643673694 21.2308
37.16843376245278 21.1775
37.19192350009803 21.2001
37.215414857931435 21.1296
37.239091382563885 21.0301
37.262585997426164 20.9226
37.28608223645736 21.0123
37.309763684451696 20.9815
37.33326318851098 20.9927
37.356764320726555 20.9592
37.380267082425526 20.9354
37.40395510942588 20.8315
37.42746114683234 20.7873
37.45096881771841 20.7728
37.474478123414166 20.7717
37.49817275092816 20.6512
37.52168534303452 20.6893
37.54519957395567 20.6189
37.568715445024665 20.5844
37.592416694607714 20.5191
37.61593586281424 20.6035
37.63945667518264 20.6201
37.66297913304891 20.4983
37.68668702630454 20.4863
37.710212792059274 20.3906
37.733740207334854 20.4282
37.757269273470364 20.337
37.780983832050374 20.2993
37.80451621684926 20.316
37.82805025654007 20.265
37.851585952464795 20.2749
37.8753071980695 20.1223
37.89884622345676 20.1568
37.92238690911902 20.1611
37.94611318753442 20.0528
37.969657210779765 20.1112
37.99320289834801 20.0346
38.016750251586465 19.9844
38.04048325513017 19.9333
38.06403395679343 19.8925
38.087586328183946 19.8714
38.11114037065203 19.8239
38.13488012115898 19.8389
38.1584375229181 19.824
38.181996599821 19.7012
38.205557353221124 19.6693
38.229303872575656 19.6629
38.2528679961576 19.6518
38.27643380031219 19.6167
38.30000128639589 19.6133
38.32375459653193 19.6121
38.34732546371299 19.4956
38.37089801690786 19.4525
38.39447225747609 19.4737
38.418232380377425 19.4627
38.441810012983396 19.4626
38.46538933705673 19.4194
38.488970353960084 19.4179
38.51273731166058 19.3081
38.536321731567014 19.2935
38.55990784840681 19.2729
38.58367995004091 19.2406
38.60726947812959 19.1746
38.63086070726198 19.1539
38.654453638806274 19.1859
38.678232613930824 19.1634
38.70182896773327 19.0757
38.72542702806741 19.0426
38.7490267963045 19.0541
38.77281266709232 18.9705
38.79641586862214 18.9757
38.8200207821842 18.8889
38.843627409152944 18.8854
38.86742019782782 18.8699
38.891030269149255 18.8102
38.914642058016156 18.8485
38.938255565806124 18.8376
38.96205529464307 18.7831
38.98567225787121 18.7559
39.00929094417078 18.7166
39.03291135492255 18.7224
39.05671804624804 18.6505
39.080341923549106 18.6282
39.103967529460334 18.5951
39.127594865365744 18.5021
39.15140854155791 18.4342
39.17503935514948 18.484
39.19867190290282 18.4043
39.22249083587951 18.4337
39.24612686969409 18.4271
39.269764641845306 18.3535
39.293404153722804 18.3837
39.317230110864074 18.2837
39.34087311998506 18.2449
39.36451787301696 18.255
39.388164371352595 18.1711
39.41199737518003 18.2248
39.43564738196752 18.1644
39.45929913825317 18.13
39.48295264543308 18.1218
39.506792718520884 18.0339
39.530449745387216 17.9619
39.55410852735203 17.9837
39.57776906581474 18.0357
39.60161623079 17.9722
39.625280300200025 17.9757
39.64894613032202 17.928
39.67261372255866 17.9672
39.6964680021016 17.8927
39.72013913657293 17.86
39.74381203738292 17.8856
39.76748670593756 17.8467
39.79134812278169 17.8434
39.81502634488497 17.6826
39.83870633896685 17.6794
39.862388106436654 17.6329
39.88625668336918 17.6343
39.90994201572829 17.5869
39.933629125719285 17.5915
39.957503091207826 17.5751
39.9811937746168 17.5554
40.00488623990914 17.5123
40.02858048850006 17.5164
40.05246165409549 17.4936
40.076159487492085 17.3879
40.099859108448875 17.3804
40.123560518384345 17.3503
40.1474489070226 17.3676
40.171153913178564 17.3233
40.194860712584955 17.2817
40.2185693066637 17.2548
40.242464941335314 17.2301
40.26617714307655 17.2098
40.289891143772046 17.195999999999998
40.3136069448471 17.1458
40.33750984859743 17.0918
40.3612292688043 17.0817
40.3849504936829 17.033
40.40867352466194 17.0569
40.43258372059144 16.9922
40.45631038219906 17.0022
40.48003885420956 16.9116
40.503769138055105 16.8943
40.52768664931955 16.9619
40.55142057531802 16.9119
40.57515631746428 16.878
40.599079334038514 16.8501
40.62281872700477 16.779
40.64655994043941 16.7061
40.67030297578061 16.722
40.69423334835778 16.714000000000002
40.71798004609188 16.6911
40.74172857006355 16.6742
40.76547892171441 16.7172
40.7894166736039 16.6308
40.813170699248566 16.5663
40.83692655691388 16.546
40.86068424804498 16.5301
40.884629402612525 16.5799
40.908390779366385 16.5247
40.932153993938 16.4747
40.95591904777605 16.4745
40.979871628443995 16.4272
41.003640379561936 16.3121
41.02741097430883 16.3136
41.05118341413683 16.3058
41.075143444384416 16.3069
41.098919593177826 16.2724
41.1226975914255 16.2513
41.14647744058318 16.255
41.170444943946755 16.1612
41.19422851378379 16.1442
41.218013938914645 16.097
41.24198706625173 16.0731
41.26577622087193 16.1071
41.289567235177785 15.9969
41.31336011063129 15.9889
41.337340752422875 15.9254
41.361137369129835 15.9313
41.38493585138705 15.9322
41.40873620066004 15.9068
41.43272438060107 15.8622
41.45652848292052 15.7951
41.48033445666918 15.8248
41.50414230331616 15.8899
41.528138045159764 15.7833
41.551949656675205 15.6956
41.575763145513235 15.7112
41.59957851314666 15.7107
41.62358184070442 15.6888
41.64740098505737 15.6604
41.6712220126409 15.5762
41.69504492493139 15.5674
41.71905586207357 15.5231
41.74288256296395 15.5654
41.766711153007456 15.5096
41.79054163368412 15.5176
41.814560204340054 15.5294
41.838394485526365 15.4562
41.86223066180303 15.4055
41.88625497706819 15.379000000000001
41.910094962812 15.4235
41.93393684811168 15.4199
41.95778063445365 15.300999999999998
41.981812625263366 15.2944
42.00566023303407 15.2655
42.029509746323676 15.2202
42.05336116662236 15.1995
42.077400857069705 15.1541
42.10125611078846 15.1242
42.12511327600405 15.106
42.14897235421036 15.1392
42.173019768448455 15.0909
42.19688269209613 15.0393
42.22074753323349 15.0669
42.24461429335818 15.0183
42.268669455600495 14.9813
42.292540073217886 14.9635
42.31641261433284 14.9057
42.34028708044675 14.9301
42.36435001496739 14.8947
42.38822835065557 14.8797
42.41210861586426 14.8711
42.4359908120986 14.8059
42.46006154323262 14.8199
42.48394762115317 14.7698
42.507835634632315 14.7855
42.531912233047436 14.71
42.55580413732265 14.6729
42.579697981698 14.6919
42.60359376768525 14.6462
42.62767820545945 14.6241
42.65157789440821 14.5804
42.67547952952185 14.5315
42.699383112316 14.5323
42.72347541395347 14.4933
42.74738291190531 14.4907
42.771292362102166 14.4334
42.795203766063516 14.4155
42.819303956130405 14.4142
42.843219287476536 14.3993
42.86713657716324 14.3825
42.89105582671383 14.3604
42.91516392983864 14.3236
42.939087119032166 14.2863
42.963012272677304 14.3181
42.98693939230129 14.2163
43.01105543317513 14.220999999999998
43.034986504731386 14.2045
43.05891954686589 14.2309
43.08285456110972 14.177
43.10697856448665 14.1134
43.130917542983475 14.0656
43.15485849820081 14.0818
43.17880143167367 14.0308
43.20293342237094 13.9822
43.226880332449 14.0005
43.25082922540554 13.9902
43.27496722682525 14.0019
43.29892010567796 13.9416
43.32287497204102 13.8658
43.34683182745632 13.843
43.370977859791836 13.8767
43.39493871351105 13.8101
43.41890156092628 13.8667
43.44286640358341 13.78
43.46702049182749 13.7688
43.49098934522816 13.7436
43.51496019852649 13.7539
43.5389330532723 13.6614
43.56309522248204 13.6484
43.58707210044314 13.6369
43.61105098451946 13.6055
43.63503187626491 13.6061
43.659202151562134 13.5531
43.68318707902681 13.5422
43.70717401884041 13.5193
43.731162972560874 13.4724
43.75534137913236 13.4893
43.779334381108384 13.4226
43.803329401683186 13.4127
43.82732644241872 13.4362
43.8515130055166 13.4333
43.87551410707659 13.3524
43.89951723350145 13.3382
43.923709934595614 13.2981
43.94771713129917 13.2822
43.97172635758096 13.2887
43.99573761501002 13.2231
44.0199385169922 13.2105
44.04395385732619 13.1526
44.067971233533086 13.1669
44.09199064718605 13.1871
44.11619977548961 13.1176
44.14022328470671 13.0913
44.16424883610785 13.0899
44.18827643127035 13.0871
44.21249381139513 13.0326
44.236525514814076 12.9871
44.26055926674478 12.9563
44.28459506876863 12.9838
44.3088207262813 12.9278
44.33286064928722 12.931
44.35690262714919 12.8935
44.38094666145278 12.8262
44.4051806219871 12.8426
44.42922879003185 12.8714
44.45327901929361 12.8469
44.477331311362136 12.8363
44.501573600619416 12.7738
44.525630039221795 12.7306
44.54968854541895 12.7287
44.573937102200176 12.7594
44.5979997645541 12.6834
44.622064499300315 12.6549
44.64613130803592 12.6315
44.67038823869318 12.6563
44.69445921643748 12.6329
44.718532272981385 12.57
44.742607409926194 12.5782
44.76687274034801 12.530999999999999
44.79095205918753 12.4476
44.81503346325094 12.5023
44.839116954143876 12.4877
44.86339071028742 12.425999999999998
44.88747839599524 12.4525
44.91156817336837 12.3913
44.93566004401666 12.3621
44.959942251908146 12.3168
44.984038330325966 12.3283
45.00813650686762 12.2965
45.03223678314731 12.2665
45.05652746888232 12.282
45.08063196592069 12.251
45.104738567558705 12.2072
45.128847275414856 12.1997
45.15314646515866 12.136
45.17725940679741 12.1171
45.20137445952892 12.1
45.22568004865265 12.1222
45.24979934496396 12.0949
45.27392075725247 12.0397
45.29804428714431 12.0453
45.322358426247604 12.0645
45.346486212804315 12.0355
45.370616121861914 12.0209
45.39474815505086 11.9749
45.41907087049246 11.9242
45.4432071734666 11.8946
45.46734560548283 11.8975
45.49148616817604 11.9159
45.51581748638564 11.8767
45.5399623320197 11.8108
45.56410931325473 11.7929
45.58825843173002 11.8179
45.61259837920865 11.7748
45.636751793816 11.7851
45.66090735060093 11.7281
45.68506505120716 11.6789
45.7094136545275 11.709000000000001
45.73357566449271 11.6238
45.75773982322992 11.5971
45.78190613238733 11.6305
45.806263418194064 11.6035
45.83043404997326 11.5934
45.85460683713677 11.602
45.87897065658495 11.5063
45.90314777634752 11.4984
45.92732705646868 11.5108
45.9515084986045 11.4776
45.97588104735473 11.4336
46.00006683541565 11.4276
46.02425479047904 11.4536
46.04844491420549 11.4228
46.0728262191024 11.3726
46.09702070211635 11.3382
46.12121735879483 11.3597
46.14541619080294 11.3494
46.169806278764455 11.3307
46.194009483459034 11.3118
46.21821486849841 11.2603
46.24242243555223 11.2375
46.266821333570014 11.2445
46.29103328674601 11.1983
46.31524742696538 11.2109
46.33946375590237 11.2469
46.36387149104216 11.1685
46.38809221957392 11.0746
46.41231514186606 11.0817
46.436540259597464 11.0828
46.460956858999374 11.0725
46.48518638983522 11.0448
46.509418121166966 11.0183
46.533652054678114 10.9719
46.55807754555709 10.964
46.58231590571962 10.9233
46.60655647313217 10.8976
46.630988654873654 10.8847
46.655233659129024 10.8817
46.67948087571551 10.9216
46.70373030632484 10.8813
46.72817142736393 10.8353
46.752425308428684 10.8301
46.77668140861147 10.7854
46.80093972960865 10.7512
46.82538981736788 10.7185
46.849652602470904 10.7601
46.87391761349769 10.770999999999999
46.8981848521493 10.6945
46.9226439341274 10.7055
46.946915650573224 10.6564
46.97118959976749 10.6351
46.99546578341598 10.6319
47.019933887188216 10.6029
47.04421456235744 10.5842
47.06849747711879 10.5367
47.09278263318286 10.5445
47.11725978640143 10.548
47.14154944775105 10.511
47.165841355555656 10.4546
47.1901355115306 10.4295
47.214621741924994 10.4625
47.23892041698887 10.4281
47.26322134538975 10.4093
47.28771440635075 10.3565
47.31201986422527 10.3405
47.33632758061436 10.3492
47.360637557241866 10.3159
47.38513974410611 10.3241
47.40945426407847 10.2583
47.43377104948137 10.2792
47.45809010204344 10.2467
47.48260144275502 10.2379
47.506925052572285 10.1971
47.53125093475548 10.1439
47.55557909103813 10.1639
47.58009961361992 10.1378
47.60443234110732 10.1091
47.62876734791564 10.1301
47.65310463578333 10.1335
47.6776343683373 10.1319
47.7019762413987 10.0521
47.72632040075572 10.0747
47.75066684815169 10.0228
47.77520581885936 9.99888
47.799556865477655 10.0116
47.823910205386 9.997860000000001
47.84826584033272 9.92954
47.87281407745551 9.923010000000001
47.89717432569297 9.905619999999999
47.92153687423484 9.94693
47.94609208429692 9.932160000000001
47.97045925671401 9.88215
47.99482873471275 9.80082
48.01920052005013 9.80459
48.04376504619224 9.82007
48.068141469543484 9.82054
48.09252020552573 9.792069999999999
48.11690125590099 9.76705
48.1414751266064 9.72513
48.16586082917454 9.74715
48.19024885144316 9.68759
48.2146391951793 9.67579
48.239222439012764 9.69575
48.26361744916137 9.658610000000001
48.28801478610016 9.65022
48.31241445160131 9.610389999999999
48.337007097209366 9.612969999999999
48.36141144338331 9.56077
48.38581812345755 9.56323
48.41022713920929 9.57377
48.434829215320704 9.53715
48.45924292604658 9.50958
48.48365897780325 9.52614
48.50807737237308 9.46508
48.532688907799276 9.4758
48.55711201168574 9.43459
48.581537463754074 9.436960000000001
48.60615611725119 9.43573
48.63058628942721 9.392660000000001
48.65501881516546 9.37994
48.6794536962573 9.36863
48.70408185970339 9.36651
48.72852147531801 9.3387
48.75296345168211 9.30574
48.77740779059232 9.26418
48.80204549302823 9.28539
48.82649458091802 9.269060000000001
48.85094603676547 9.255469999999999
48.87539986237231 9.203619999999999
48.90004713292306 9.20248
48.92450572200832 9.17794
48.94896668628025 9.1705
48.97343002754588 9.16404
48.99808689542115 9.15524
49.02255501470614 9.12032
49.04702551642794 9.08421
49.0714984023988 9.07606
49.096164896893235 9.06735
49.120642575466796 9.03083
49.145122643748394 9.01775
49.16960510355558 8.99517
49.19428125404938 9.00066
49.2187685210852 8.97461
49.243258185121555 8.96871
49.26794160167084 8.93443
49.2924360839405 8.94807
49.31693296869764 8.89568
49.34143225776915 8.90029
49.36612538195438 8.85896
49.39062950396021 8.81177
49.41513603578346 8.8198
49.4396449792564 8.82062
49.46434784069503 8.83507
49.488861631846454 8.75957
49.513377840166804 8.7401
49.537896467493745 8.70782
49.56260909589029 8.67051
49.587132585683285 8.74622
49.611658500018365 8.7274
49.636186840738596 8.6773
49.66090926588511 8.70612
49.685442483902584 8.660960000000001
49.70997813385706 8.613560000000001
49.734516217597076 8.6331
49.75924846937352 8.60191
49.7837914452858 8.58058
49.80833686055187 8.58066
49.83288471702571 8.55941
49.85762682540054 8.56485
49.882179588965734 8.51314
49.9067347993235 8.45618
49.93129245833333 8.467410000000001
49.95604445336378 8.4519
49.98060703442832 8.4484
50.005172069746266 8.472439999999999
50.02993150438364 8.45019
50.05450147301533 8.398439999999999
50.07907390151433 8.3842
50.10364879174981 8.35614
50.12841816587289 8.36133
50.1529980044635 8.3158
50.17758031042124 8.32824
50.20216508562089 8.304160000000001
50.22694442953363 8.27749
50.25153416817468 8.26447
50.27612638170508 8.232619999999999
50.300721072005196 8.24038
50.325510416102105 8.22613
50.350110084975064 8.24222
50.37471223628208 8.22463
50.39931687190919 8.175839999999999
50.424116246675766 8.19202
50.44872587605249 8.16307
50.47333799543065 8.1815
50.49795260670191 8.131269999999999
50.52276204271512 8.07945
50.54738166295838 8.07221
50.57200378079314 8.07103
50.596628398116835 8.05241
50.62144792604559 8.03127
50.646077567609396 7.98871
50.670709714377715 7.997160000000001
50.69553683636198 7.9994
50.72017401885922 8.00037
50.7448137122895 7.9883
50.76945591856022 7.94027
50.79429318636823 7.924860000000001
50.818940443716784 7.91401
50.84359021965163 7.874960000000001
50.868242516085964 7.891889999999999
50.893089960641895 7.90756
50.917747323549435 7.848260000000001
50.94240721271973 7.79701
50.96706963007175 7.80996
50.99192728239342 7.76403
51.01659478166073 7.79898
51.04126481489051 7.77849
51.06593738400761 7.748880000000001
51.090805275207074 7.72721
51.11548294172845 7.74585
51.14016314993547 7.71875
51.164845901758845 7.729439999999999
51.18972406304274 7.65423
51.21441192780656 7.66323
51.23910234200271 7.646139999999999
51.2637953075678 7.62696
51.288683770237945 7.6494100000000005
51.31338186432707 7.61753
51.33808251561888 7.59693
51.362978729967345 7.5784899999999995
51.387684521509755 7.578710000000001
51.41239287610203 7.55155
51.437103795691165 7.506469999999999
51.46201036644977 7.47606
51.486726441956634 7.4859100000000005
51.51144508832545 7.508360000000001
51.536166307509156 7.508189999999999
51.56108326624387 7.50315
51.58580965706056 7.495989999999999
51.61053862657523 7.4436800000000005
51.635270176746864 7.38421
51.66019755512065 7.3752699999999995
51.68493429268881 7.3818
51.70967361681515 7.363010000000001
51.73441552946465 7.33462
51.759353359237934 7.33357
51.7841004750961 7.32798
51.80885018539685 7.2796199999999995
51.833602492111254 7.2733300000000005
51.8585508051424 7.276
51.883308330926425 7.266710000000001
51.90806845906181 7.293489999999999
51.932831191525715 7.205989999999999
51.95779001977161 7.19964
51.98255798721516 7.2057199999999995
52.00732856494335 7.151210000000001
52.03229530577543 7.171
52.057071130455945 7.18842
52.081849571391054 7.1426300000000005
52.106630630568695 7.132039999999999
52.13160794279417 7.098210000000001
52.15639426492067 7.118460000000001
52.18118321127822 7.0865800000000005
52.205974783860896 7.06255
52.23096269971011 7.028580000000001
52.255759551287994 7.05157
52.280559035098186 6.999160000000001
52.30536115314103 7.012410000000001
52.33035970494467 7.01438
52.35516711807904 7.01978
52.37997717147198 6.96945
52.40478986713005 6.96765
52.42979908731974 6.9378899999999994
52.454617094216 6.91228
52.47943774942214 6.907260000000001
52.50426105495102 6.87586
52.529280976059844 6.86833
52.554109609024096 6.84818
52.57894089837482 6.855810000000001
52.60377484613117 6.8647
52.62880550079408 6.802110000000001
52.65364479223379 6.79897
52.67848674816189 6.718889999999999
52.70352547971946 6.767739999999999
52.72837279155837 6.75697
52.753222773982785 6.74443
52.778075429022984 6.758039999999999
52.80312495150885 6.7463
52.827982978797436 6.69532
52.85284368481815 6.704860000000001
52.87770707160767 6.656960000000001
52.90276741793998 6.653389999999999
52.92763619336701 6.61215
52.952507655698504 6.61282
52.977381806977576 6.63235
53.00245301017842 6.65256
53.02733256653592 6.60757
53.052214817996074 6.649189999999999
53.077099766608484 6.583069999999999
53.102181859804446 6.56843
53.127072229988265 6.53678
53.15196530349892 6.51283
53.17686108239249 6.495430000000001
53.20195409881522 6.51015
53.22685531582556 6.493869999999999
53.25175924441303 6.4703800000000005
53.27666588664027 6.4651
53.30176985962693 6.464119999999999
53.3266819565689 6.410069999999999
53.35159677336455 6.39811
53.376514312083096 6.41109
53.40162927507703 6.389819999999999
53.42655228516116 6.43919
53.45147802340193 6.37395
53.47660125628886 6.38548
53.50153247842639 6.33517
53.52646643496923 6.30586
53.55140312799818 6.33029
53.576537409691696 6.26711
53.60147960336152 6.26532
53.626424539786164 6.26083
53.65137222105307 6.27875
53.67651758529126 6.22867
53.70147078399681 6.20121
53.72642673383343 6.19682
53.75138543689533 6.171119999999999
53.776541917524526 6.19327
53.801506154876755 6.18412
53.826473151763246 6.14764
53.851442910284916 6.13932
53.87661054126026 6.15953
53.9015858509782 6.13267
53.92656392866066 6.1409
53.95154477641532 6.14135
53.976723591801296 6.07667
54.00171000771266 6.04484
54.02669920004598 6.06876
54.051691170915745 6.04898
54.076881204886796 6.0351099999999995
54.101878760928514 6.014390000000001
54.12687910187696 5.9783599999999995
54.152077577768296 5.98259
54.1770835166946 5.957000000000001
54.20209224691339 5.95961
54.22710377055121 5.93585
54.25231352511594 5.93124
54.27733066384342 5.89203
54.30235060239643 5.93476
54.32737334290836 5.88638
54.35259441062629 5.85648
54.377622783395324 5.81451
54.40265396455061 5.817830000000001
54.42768795623251 5.80711
54.45292037169559 5.77686
54.477960012857906 5.74153
54.50300247099511 5.77608
54.52804774825457 5.7768
54.55329154616743 5.72716
54.57834249018678 5.70599
54.6033962597977 5.71634
54.6284528571545 5.67931
54.653708072335164 5.65043
54.67877035378786 5.645919999999999
54.70383546947698 5.5761199999999995
54.72890342156389 5.58712
54.7541700889442 5.53688
54.77924374251975 5.54389
54.8043202390049 5.48825
54.82959552413022 5.526330000000001
54.8546777351945 5.53369
54.87976279569621 5.47032
54.90485070780914 5.4886099999999995
54.930137506558005 5.43083
54.95523115074295 5.3997
54.98032765308844 5.393330000000001
55.005427015775496 5.36114
55.03072536339621 5.36454
55.05583047570572 5.315169999999999
55.080938454927676 5.28797
55.10604930325027 5.279730000000001
55.131359235107396 5.31475
55.15647585066083 5.24902
55.181595341907496 5.2439800000000005
55.20671771104285 5.19658
55.232039262617704 5.176
55.25716741665048 5.15604
55.28229845518636 5.1646
55.30743238042802 5.07247
55.33276558731939 5.07967
55.357905315183636 5.08421
55.383047936390035 5.09334
55.40819345314859 5.02111
55.433538351073295 5.0182
55.458689688238415 5.014959999999999
55.483843927614096 5.017580000000001
55.509197623043605 4.95945
55.53435769621134 4.91571
55.55952067826466 4.86533
55.5846865714265 4.84915
55.61005202069737 4.8394699999999995
55.63522376553902 4.84466
55.66039842818645 4.803719999999999
55.68557601087004 4.81959
55.7109532500271 4.736219999999999
55.73613670233794 4.77646
