TT I
1.2716486653135266 7.37913
1.2939594142134223 6.9542399999999995
1.3162702121660406 6.36126
1.3385810600174564 6.23046
1.3608919586137629 6.82605
1.383202908801069 6.2695300000000005
1.405513911425503 5.8979
1.4278249673332093 5.96082
1.4501343378461518 5.84901
1.4724455028545926 5.80958
1.4947567236847858 6.56248
1.517068001182951 6.36675
1.5393793361953272 5.74303
1.5616907295681737 5.77315
1.5840021821477681 5.48908
1.60631369478041 5.38424
1.6286252683124185 5.58916
1.6509369035901333 4.98228
1.6732468618895553 4.65705
1.695558623192809 3.9447699999999997
1.7178704487808514 4.76929
1.7401823395001077 4.83159
1.7625012545597203 4.69184
1.7848028405262486 4.94474
1.8071218901122095 4.72885
1.8294236121921872 4.014959999999999
1.8517427996910911 4.77022
1.8740620574440425 4.7891
1.8963639900671978 4.4485
1.9186833908139995 4.25795
1.9409854680117449 4.55536
1.9633050151394713 4.96176
1.9856246367570705 4.90929
2.0079269371922672 4.32242
2.03024671027244 4.491140000000001
2.0525491637446027 4.00399
2.074869091674931 4.6159
2.097171701569106 4.82969
2.1194917877373847 5.15091
2.141811954326636 4.61567
2.164114805233074 4.4355
2.186435135143035 4.82191
2.208738150935709 7.90142
2.231058647554722 13.3063
2.2533792288321184 10.4758
2.275682498336085 6.831110000000001
2.298003251406138 5.058680000000001
2.3203066942619714 5.06768
2.3426276225136022 5.0654900000000005
2.3649486396617507 5.88885
2.387252348930071 6.11685
2.4095735463442893 5.9384
2.4318774374315884 6.32673
2.4541988185014043 6.2869
2.476502894794693 7.0904300000000005
2.498824462909887 7.250260000000001
2.521146125856138 7.94647
2.5434504863470337 7.652889999999999
2.5657723414244717 7.815910000000001
2.588076895590662 7.98195
2.610398946189713 8.16093
2.6327210958598384 8.063189999999999
2.6550259469304716 8.19694
2.6773482972090137 8.70582
2.6996533504259 9.00108
2.7219759047039602 9.06064
2.744298562293959 8.531419999999999
2.7666039251246595 8.65386
2.7889267918020164 8.172880000000001
2.8112323652516555 8.424539999999999
2.833555444408179 8.53634
2.8558786311183852 8.17879
2.8781845268938557 9.03623
2.9005079311721484 9.58473
2.9228140460410397 9.38829
2.9451376712799635 9.4175
2.967444008632326 9.97217
2.9897678582247247 9.648819999999999
3.0120918213106695 10.7255
3.0343984987899373 10.5982
3.0567226913198637 10.936
3.079029599759726 11.2935
3.101354025127254 12.4771
3.123678568232338 13.0264
3.145985829517914 12.946
3.16831061055229 13.5707
3.1906181112775593 14.7256
3.212943133635653 15.3348
3.2352682779763207 14.8111
3.2575761442691227 15.2403
3.2799015350264273 15.5004
3.302209649240067 16.5276
3.3245352898092655 16.7707
3.3468436553365257 16.7749
3.369169549113219 17.4579
3.3914955708171384 18.081
3.413804319727358 18.4248
3.4361305997334863 18.4896
3.4584396084414553 19.3993
3.4807661501462652 20.0453
3.503092824025881 20.9626
3.5254022288463154 20.6943
3.5477291695206588 21.5235
3.5700388426251948 22.1019
3.5923660534916446 23.0551
3.6146934007816114 28.7709
3.637003482731501 48.0276
3.6593311053109985 51.4469
3.681641464033634 36.0501
3.7039693653009733 26.5456
3.726297407241705 25.3482
3.7486081875460804 25.035
3.7709365132734978 25.4462
3.793247578841633 26.3153
3.8155761917550093 26.4949
3.8378875459837216 27.0226
3.8602164494827234 27.127
3.882545499606844 27.5578
3.9048572932539183 28.1143
3.9271866390645718 28.7782
3.9494987298666713 29.3515
3.971828374764527 29.6247
3.9941581705403255 30.2271
4.016470713506008 30.9044
4.038800813471445 31.4602
4.061113662089144 32.3169
4.0834440696459176 32.7339
4.105774632334751 32.8452
4.128087945865126 33.9142
4.150418821249301 34.4193
4.172732448931298 35.5039
4.195063640413578 37.0769
4.2173775856475215 38.6788
4.239709096631102 52.2729
4.262040768704612 114.37899999999999
4.284355196706267 142.672
4.306687193387355 99.789
4.329001947444346 55.8252
4.35133427213731 43.8262
4.373666762177566 42.7465
4.395982011761091 42.9308
4.418314834921175 43.9066
4.44063041906622 47.8963
4.4629635787515625 52.3538
4.4852969080429785 53.2742
4.5076130004776225 52.7352
4.529946671403969 57.1536
4.552263106909177 61.81
4.574597122877047 58.2259
4.596931312711224 54.2687
4.619248269273446 52.8933
4.6415828092605835 53.4134
4.663900117405352 55.0817
4.686235010953232 56.213
4.708552674085913 58.155
4.730887924602802 59.3706
4.753223354952695 60.8684
4.775541557023902 64.8685
4.797877349456786 68.2649
4.820195915032126 68.7326
4.842532072957498 68.0173
4.864868414979744 70.8914
4.88718753227192 75.2855
4.909524244902505 76.8871
4.931843734218147 75.6963
4.954180820867835 77.4021
4.976518095879839 79.7033
4.998838149695359 82.4539
5.021175803844231 86.0804
5.043496238205739 89.1699
5.065834274903528 93.4549
5.088172504230693 98.0979
5.1104935158799565 104.28399999999999
5.132832132875765 124.932
5.155153533596801 153.767
5.1774925416746225 190.93400000000003
5.199814334878411 369.61
5.2221537374521505 946.319
5.244493338631803 2764.93
5.266815727034316 8032.28
5.289155727832427 13574.7
5.311478517248165 8873.12
5.333818921080011 2702.21
5.356159527788849 505.892
5.3784829252032536 193.317
5.400823940070432 153.389
5.423147747031976 129.245
5.445489173474152 118.709
5.467830807066149 118.81
5.490155234831516 119.60799999999999
5.512497285125229 112.04899999999999
5.534822130975162 105.236
5.557164601388673 101.199
5.579489868738879 97.8396
5.601832762690846 96.7081
5.6241758697774475 95.8311
5.646501775867269 94.8196
5.668845311622074 93.9131
5.691171647754637 92.9803
5.713515615597765 92.1437
5.735859800852677 91.6705
5.758186788542988 93.4207
5.780531411018185 97.6962
5.802858837297399 98.8848
5.825203900414495 97.8529
5.8475491852224 102.10600000000001
5.869877275883075 101.235
5.892223006467101 96.235
5.914551544266608 93.5978
5.936897724049891 95.4234
5.959244129804903 101.99799999999999
5.981573344815301 126.75299999999999
6.0039202049061 226.447
6.026249875609095 443.75300000000004
6.04859719346037 907.291
6.070927323278297 2205.12
6.093275102315365 4656.06
6.115623113320588 5198.39
6.137953938319995 2995.81
6.160302415650845 820.199
6.182633708324452 194.205
6.2049826554078376 104.412
6.227331838745022 87.6231
6.249663839443684 81.7256
6.27201349767565 78.6157
6.294345974611799 79.6131
6.316696111167083 82.4165
6.339046488263839 79.9408
6.361379686074702 72.9197
6.383730546639482 69.6293
6.406064229255215 69.0476
6.428415576718203 70.1918
6.450749747566656 69.8237
6.47310158535871 67.0406
6.495453669698332 64.40100000000001
6.517788579421056 63.7573
6.540141159237969 62.6648
6.562476565766648 62.106
6.5848296444934045 61.8847
6.607182974060425 62.4929
6.6295191323281015 62.1103
6.651872965955752 62.3496
6.6742096296068985 71.6439
6.6965639707294615 88.4727
6.71891856698715 87.2809
6.741255995248479 71.0039
6.763611104154477 61.2926
6.785949046381137 58.2858
6.808304671371482 59.175
6.8306605557940046 60.4216
6.852999275508618 59.6233
6.875355681171544 57.3584
6.897694923437771 56.2932
6.92005185377892 55.5142
6.9423916220322655 55.3252
6.964749080490181 54.5887
6.987106804399774 54.7721
7.009447368180821 55.4341
7.031805625367033 55.2028
7.054146723727803 55.0016
7.076505517631004 54.3914
7.098864581288365 54.1579
7.121206488070854 53.9506
7.143566093607822 54.1109
7.165908543567245 55.7158
7.188268694426048 55.8625
7.2106291193438095 54.5994
7.232972390625943 54.4469
7.255333366030969 59.8968
7.277677189091925 79.8508
7.300038718428332 95.2908
7.322400526130865 86.0223
7.344745183422596 66.6747
7.367107550224791 56.092
7.389452767901992 53.9973
7.411815697249891 53.6772
7.434161478756298 53.1801
7.456524974096713 52.8756
7.478888753837185 52.7692
7.501235387657368 53.4125
7.523599738562711 53.3235
7.545946944825532 53.633
7.568311870344528 54.3449
7.5906770845765665 54.4906
7.613025156078678 54.956
7.635390950099687 55.418
7.657739602662809 55.5102
7.680105979923558 55.3345
7.702472650212829 56.4113
7.724822180948224 56.1378
7.747189439655568 55.7132
7.769539560075357 55.0796
7.791907410653562 55.5813
7.81425812420825 55.38399999999999
7.836626570110925 55.6055
7.858995315087906 56.4224
7.881346924933401 56.9949
7.903716270417482 57.413999999999994
7.926068482028405 57.5547
7.948438431475253 58.0486
7.9708086843180235 58.9677
7.993161805171116 59.5868
8.015532667162402 59.9379
8.037886398416653 61.3069
8.060257873014221 61.7458
8.082629655331942 62.6743
8.104984308787587 63.625
8.127356708900503 65.6399
8.149711981398308 70.1207
8.172085002766314 72.4879
8.194458336181368 70.2762
8.216814543847752 67.9741
8.23918850371002 68.3946
8.26154533906492 69.1571
8.283919928836452 70.5243
8.306277395339652 71.3995
8.328652618483376 73.1353
8.351028159736202 75.2407
8.373386579575245 77.3315
8.395762759396959 79.0794
8.418121819038275 81.9192
8.440498640894003 89.2898
8.462875785192262 100.134
8.485235811156207 122.508
8.507613602688501 169.68099999999998
8.529974277114228 242.729
8.552352719347912 364.00699999999995
8.574731488360351 617.836
8.59709314210385 1204.52
8.619472567021075 1943.28
8.64183487789147 2215.46
8.664214962183097 1700.71
8.686577933647762 840.2330000000001
8.708958680784317 297.303
8.731339760774953 139.395
8.753703729764451 104.319
8.77608547780821 95.7028
8.798450116065078 92.6357
8.820832535634787 91.0753
8.843215292401656 91.4982
8.865580941199045 92.0022
8.887964374703538 91.4449
8.910330701447199 91.8916
8.932714815164482 91.7453
8.955099270424924 88.7538
8.977466620733543 86.0325
8.999851761421976 84.3463
9.022219798361645 83.20100000000001
9.04460562795561 82.9434
9.066991803441677 82.8975
9.089360876979615 83.3693
9.111747746589993 83.6845
9.13411751544971 82.2731
9.156505082664324 81.1849
9.178875550323522 81.2462
9.20126381862328 80.6325
9.223652438908596 81.0657
9.246023961427412 80.9893
9.26841328802173 81.0786
9.290785518039224 81.6107
9.313175554425882 83.9643
9.335565947154315 85.7829
9.357939245086508 86.0511
9.380330352834827 85.5665
9.40270436697103 85.3373
9.425096193225055 84.5692
9.447488380180165 84.286
9.469863475295412 83.6221
9.492256385987508 83.2976
9.514632206018318 84.1795
9.537025843935714 84.7018
9.559402392368193 86.069
9.581796761000229 88.5861
9.604191496441521 91.3875
9.626569144158516 94.0183
9.648964615551032 95.6658
9.671343000390081 94.6159
9.693739211225699 92.4312
9.716135793237463 91.5756
9.738515290448102 92.0854
9.760912617143402 93.8457
9.783292860202891 96.3218
9.805690935076182 98.314
9.828089385495742 99.193
9.850470754023561 100.169
9.872869957865444 103.445
9.89525208097539 110.34100000000001
9.917652041736662 116.98700000000001
9.940052382417589 124.941
9.962435644102392 147.10399999999998
9.984836746950979 183.75099999999998
10.007220771957746 238.39700000000002
10.029622640473708 328.477
10.052007432299963 507.088
10.074410069984072 822.824
10.096813093716005 1298.96
10.119199042482517 1849.56
10.141602840636468 1979.34
10.163989564971628 1463.58
10.186394141051062 767.582
10.208799107559706 324.592
10.231187001965623 161.83700000000002
10.253592751657669 118.0
10.275981430388155 108.95299999999999
10.298387966769793 107.14399999999999
10.320794897965431 107.804
10.343184759907361 106.204
10.36559248305461 103.725
10.387983138083852 103.241
10.410391656691655 108.90700000000001
10.432800574501677 119.26799999999999
10.455192425893369 132.285
10.47760214443012 157.141
10.499994797678786 203.05
10.522405320453982 288.469
10.54479877906917 409.215
10.567210109595656 541.1709999999999
10.5896218454736 591.578
10.612016518879773 484.131
10.634429067781074 316.33799999999997
10.656824555333241 178.53799999999998
10.679237920773568 112.056
10.701651695961992 91.8428
10.724048411481384 87.194
10.746463008485165 84.7667
10.768860546937125 83.2417
10.791275969274796 81.88600000000001
10.81369180576079 80.607
10.836090585366925 79.5619
10.858507252467449 78.4589
10.88090686379991 77.2985
10.903324365036394 77.0751
10.925724811614439 76.866
10.948143150509463 77.528
10.970561909719066 76.8055
10.992963615930844 75.9666
11.015383218085756 74.2347
11.037785768347074 72.7769
11.06020621697282 71.6735
11.082627090322113 70.8237
11.105030913430326 70.1255
11.12745263854165 70.0935
11.149857314510728 70.9586
11.172279894912576 73.1621
11.194702904450653 72.7866
11.217108866490921 70.6746
11.239532736615194 69.0162
11.26193956033512 67.9899
11.284364294577085 67.3539
11.306789462371718 66.1071
11.329197585398376 65.9098
11.351623622610898 65.6435
11.37403261614354 64.8232
11.396459526308487 64.8409
11.418869393879497 64.602
11.441297180532617 64.10300000000001
11.463725406927658 63.7634
11.486136592353875 63.4133
11.508565700543707 63.4571
11.530977768845315 64.4011
11.553407762368774 64.2172
11.575838200059769 63.982
11.598251599479612 63.16
11.620682927815501 62.5686
11.64309721895548 62.3711
11.665529441478206 62.0272
11.687962112597958 61.9479
11.710377748130886 62.0672
11.732811318753434 61.8824
11.755227854859067 61.626000000000005
11.777662328529495 61.6527
11.800079768750786 61.4971
11.822515149015453 61.6879
11.844950984084935 61.7653
11.867369787303163 61.4309
11.889806534289491 61.466
11.912226250487029 61.6243
11.934663912939751 61.758
11.9571020346363 61.8384
11.979523127133968 62.3135
12.001962169624331 63.3306
12.024384183972964 64.5749
12.046824150809913 67.3958
12.069264581333726 71.4264
12.091687985297767 76.8323
12.11412934550045 85.88
12.136553680195208 101.166
12.158995973632788 126.65299999999999
12.181438735204349 159.735
12.20386447284199 189.22299999999998
12.226308172985636 210.72099999999998
12.24873485024193 200.16099999999997
12.271179492516982 153.73
12.293607112949127 113.809
12.316052700916226 86.2048
12.338498763250042 71.0712
12.360927805303868 65.4366
12.383374818673879 63.9381
12.405804812803074 63.0786
12.428252780773262 63.0454
12.45070122756722 63.1836
12.473132656675375 63.2385
12.49558206341869 63.8906
12.518014453510101 63.894
12.540464823770117 63.8905
12.562915677315177 63.7769
12.58534951575545 64.3517
12.607801338171472 64.7278
12.630236146511358 66.8028
12.652688941369085 68.6896
12.675124723177234 69.6071
12.697578494048786 68.2692
12.720032754458185 67.2529
12.742470003354093 66.445
12.764925245138771 66.8194
12.787363476431278 66.842
12.809819703166806 67.1417
12.83227642391173 68.4103
12.854716135692716 68.7984
12.877173846755147 69.9873
12.899614549869717 70.2943
12.9220732548287 71.20100000000001
12.94453245827299 71.7561
12.966974655289818 72.9724
12.989434858002571 73.4701
13.011878055298721 74.2241
13.034339260862497 74.8055
13.056800969391883 76.7026
13.079245674017244 79.3583
13.101708390774869 83.0198
13.12415410463411 91.0254
13.146617833206086 99.792
13.169064559883248 108.945
13.191529303857127 122.527
13.213994557076367 145.46200000000002
13.236442809902437 184.614
13.258909083908291 244.956
13.28135835851934 316.741
13.30382565690295 392.31199999999995
13.326293469022952 445.793
13.348744283242008 420.48699999999997
13.371213125129904 332.8
13.39366497011003 228.717
13.416134845360597 152.125
13.438605238843131 114.33
13.46105863690397 103.06700000000001
13.483530069144786 104.03200000000001
13.505984506951902 108.236
13.528456981549432 117.381
13.550929978879088 131.642
13.573385983253365 157.07399999999998
13.595860028340867 199.583
13.618317081455832 258.543
13.64079217790333 323.822
13.663250283359057 371.689
13.685726434770173 380.095
13.708203115221277 324.252
13.730662806148091 239.66400000000002
13.75314054697177 165.887
13.775601299246777 115.494
13.798080104050406 91.6624
13.820559442405358 82.9664
13.843021793671388 80.1742
13.865502201420897 78.6647
13.887965623051947 78.5259
13.910447103807167 77.3769
13.932929122629764 75.9948
13.955394156785959 75.5336
13.977877254034569 74.6297
14.000343367582113 73.7177
14.022827546871707 72.9446
14.045294743423524 72.4936
14.06778000837062 71.7311
14.090265817715476 71.7637
14.112734645763819 71.2198
14.13522154619454 70.7074
14.157691466286913 70.6825
14.180179461423874 70.3956
14.202668005486178 70.1066
14.22513957064374 69.4681
14.247629214846473 69.1444
14.270101881097517 68.8325
14.29259262906496 68.6177
14.315083930490205 68.9907
14.337558255389705 69.1107
14.360050666019726 68.8478
14.382526101071944 68.5235
14.405019624534942 68.2073
14.427513705993134 67.783
14.449990813291825 67.777
14.47248601302899 67.6482
14.49496423954951 67.5478
14.517460561197822 67.8068
14.539939910570322 67.3757
14.562437357763558 67.8095
14.58493536931253 68.5673
14.607416409993311 68.6596
14.62991555254159 69.1629
14.652397725157423 69.1726
14.674898002342799 69.368
14.697398848433282 69.5045
14.719882725991326 70.8265
14.74238471217934 72.4956
14.764869730765593 75.4725
14.787372860692983 77.9727
14.809876564079925 81.7269
14.83236330125751 87.1107
14.854868153850365 95.7533
14.877356041159485 110.323
14.899862046604186 131.049
14.922351087688757 158.91899999999998
14.944858249632887 192.705
14.967365991421232 219.923
14.989856770231246 229.03799999999998
15.012365673994204 214.30900000000003
15.03485761569738 178.976
15.05736768508665 137.424
15.07987833888692 103.723
15.102372032001655 84.0513
15.124883856909658 73.8005
15.14737872204565 70.3057
15.169891721717274 69.17
15.192405310371893 69.1661
15.214901940621196 68.973
15.237416709527137 68.4124
15.259914520936249 68.1759
15.282430473753607 67.452
15.304947020131227 66.6247
15.327446610371178 66.3169
15.349964346154254 65.8569
15.372465126703139 65.4716
15.394984055556009 65.3547
15.417486030076159 65.1614
15.44000615566487 64.6776
15.462526881230803 64.7667
15.485030653812652 64.721
15.507552581617434 64.6263
15.530057557334603 64.5878
15.55258069104857 64.8592
15.575104429329837 65.0319
15.597611216864632 64.8758
15.620136166564563 65.4442
15.6426441664095 66.8231
15.665170331202765 69.0261
15.687697105158826 71.3117
15.710206930593545 74.2916
15.732734925158933 78.3237
15.755245972089478 84.3042
15.77777519094324 93.5081
15.800287463046663 107.215
15.822817909869592 127.985
15.84534897229804 152.914
15.867863089299354 177.30200000000002
15.890395385222186 195.87
15.912910736597423 195.558
15.935444269699861 177.24200000000002
15.957978423016485 145.627
15.980495633101265 111.634
16.003031029129367 87.0683
16.02554948280019 71.5883
16.048086125229432 64.5669
16.070623392487107 62.5023
16.09314371869582 61.818999999999996
16.11568223789321 61.1992
16.13820381691126 60.2874
16.160743591742527 59.7374
16.183283996022084 59.0705
16.205807461423195 58.2487
16.228349126881973 57.6448
16.25087385432698 57.5853
16.27341678466365 57.0065
16.29594277784926 57.0373
16.31848697676433 56.732
16.341031811604868 56.6232
16.36355971058487 56.5375
16.3861058195587 56.6006
16.40863499352978 55.7928
16.431182380342005 55.2099
16.453730407713202 55.0542
16.476261501364792 54.8633
16.498810812136167 54.5328
16.52134319004079 54.7406
16.54389378792203 54.318000000000005
16.566445031001553 54.1209
16.588979342490088 54.1015
16.61153187824822 53.9766
16.634067483263312 53.7959
16.656621315414416 53.7253
16.679175797408888 53.3235
16.701713349928728 53.4963
16.72426913389191 53.8028
16.74680798922351 53.9111
16.76936507887444 53.5385
16.791905240734874 53.661
16.814463639794468 53.4697
16.837022695210294 53.7391
16.859564824093756 53.8062
16.882125194503903 54.1404
16.904668639217885 54.5299
16.927230328348003 54.388000000000005
16.949792678493612 54.6676
16.972338104193863 54.4738
16.994901778652235 54.3347
17.017448529496576 54.5461
17.040013531998152 54.9206
17.06257920018044 55.5675
17.0851279459922 56.166000000000004
17.107694947817667 56.951
17.130245028099072 57.7347
17.15281336730298 58.7514
17.17536478578733 60.4194
17.19793446610687 62.8652
17.220504818648422 66.1417
17.243058251703697 69.9216
17.265629950971032 74.687
17.288184731571736 80.0802
17.310757781306908 83.1949
17.33333150794385 83.2285
17.355888317140174 80.2568
17.37846339986244 74.208
17.401021565958885 67.5144
17.42359800851343 63.1011
17.44617513265564 60.0037
17.468735341390783 58.7863
17.491261035594565 58.0292
17.51396340099364 57.9742
17.536490463869136 58.0891
17.559018209820174 57.8749
17.58154663977963 58.1735
17.604251766089718 58.3747
17.626781572227713 58.551
17.64931206518155 58.6146
17.671843245885103 59.2093
17.69455114821572 59.4279
17.717083712612634 59.5407
17.739616967569667 59.6555
17.762150914021706 60.2811
17.78486160749854 60.4753
17.807396945166804 61.3998
17.829932977143503 62.6317
17.85246970436452 63.9802
17.875183204129467 65.4074
17.897721330097664 66.9228
17.920260154126645 69.17399999999999
17.942799677153296 72.0853
17.9655159983646 75.9668
17.988056927677544 81.631
18.010598558807683 89.6895
18.033140892692916 100.851
18.05586005052525 113.281
18.07840379824407 126.292
18.10094825154059 136.054
18.12366954819864 140.458
18.146215420998306 136.701
18.16876200220057 126.088
18.191309292745153 110.771
18.214033452627167 96.6747
18.236582170236648 86.7175
18.259131600016456 83.7076
18.281681742907335 85.3145
18.304408781233683 90.6497
18.32696035875955 96.5184
18.349512652227624 101.39299999999999
18.372065662579683 106.221
18.394795594587553 104.91
18.41735004715306 98.6515
18.43990521943684 90.8809
18.46246111238171 81.3158
18.485193953325208 72.8248
18.507751296070428 66.906
18.530309362314178 63.8564
18.552868153000343 62.133
18.57560391815056 60.9946
18.59816416623245 60.4994
18.620725141597372 60.2313
18.643286845190268 59.6339
18.666025549835414 59.146
18.688588718427933 58.4898
18.711152618092243 58.5574
18.73389353884365 58.2226
18.75645890921984 57.8213
18.77902501351406 57.5226
18.801591852673102 57.7281
18.824335739722738 57.0021
18.846904057212626 56.9727
18.8694731124168 56.8671
18.89204290628315 56.723
18.914789774966803 56.3466
18.937361054791623 56.1093
18.959933076131318 55.7423
18.982505839934877 55.9134
19.00525570560582 56.0425
19.027829963004184 55.6377
19.05040496572238 55.8457
19.072980714710468 56.0731
19.095733592739563 56.1919
19.11831084296757 56.2091
19.140888842324735 56.5442
19.16346759176222 56.8038
19.18622349753803 57.2084
19.208803755869358 58.0629
19.231384767143577 59.3406
19.253966532312948 61.2976
19.276725481241822 63.5597
19.29930876296784 66.0553
19.3218928014549 69.1501
19.34465404436217 72.2785
19.36723960516257 74.9183
19.389825925592426 74.7324
19.412413006605938 73.2476
19.43517731967805 69.0948
19.457765930683355 64.3753
19.48035530514408 60.2684
19.50294544401556 57.0254
19.525712842708348 54.8903
19.54830451925909 53.9156
19.570896963095727 53.0628
19.593490175174704 52.8364
19.616260674962184 52.9191
19.638855432416964 52.5962
19.661450960992624 52.7118
19.68404726164677 52.5768
19.706820878021247 52.4775
19.729418731756834 52.5739
19.752017360452857 52.4382
19.77461676506804 52.6754
19.797393513540218 52.6861
19.819994478951667 52.8713
19.84259622316767 53.3175
19.8651987471481 53.6883
19.887978643247177 54.055
19.91058273574792 54.4266
19.933187610901943 55.2329
19.955969879466828 56.3715
19.97857632894404 58.1969
20.00118356396599 59.8483
20.023791585494575 62.1414
20.046577028914875 65.0385
20.069186632506966 67.4612
20.091797025500632 69.0713
20.114408208858933 69.3282
20.137196842715273 68.0547
20.159809615886765 66.2777
20.18242318232135 63.4955
20.20503754298326 61.3841
20.227829382875154 61.0558
20.250445341109344 61.4113
20.27306209647285 62.6958
20.29567964993108 63.9745
20.31847471147704 65.1444
20.34109387027612 65.3593
20.363713830075454 64.514
20.386334591841646 62.2559
20.409132890679302 59.2763
20.431755265564437 56.245
20.454378445325528 53.4146
20.477002430930366 51.722
20.499803982716553 50.6987
20.522429589228004 50.0647
20.54505600449589 49.7122
20.567683229489194 49.6497
20.590488049900088 49.3656
20.61311690359731 49.2646
20.63574656993626 49.2145
20.658553853717297 48.7778
20.681185154618298 48.5526
20.703817271080066 48.56399999999999
20.72645020407368 48.229
20.749260783967177 48.176
20.771895359337133 48.0174
20.794530754161617 48.1168
20.817166969412938 48.0608
20.83998086114876 47.9521
20.86261872660049 47.8032
20.885257415405402 47.8216
20.90789692853701 47.8135
20.930714147864748 47.8344
20.953355319030678 47.6719
20.97599731745334 47.882
20.99864014410749 47.5848
21.021460706796564 47.7927
21.044105199328826 47.8949
21.06675052302631 48.1237
21.089396678865015 48.2518
21.112220600704806 48.4705
21.134868430275347 49.1825
21.15751709492456 49.4149
21.180166595629693 49.6119
21.202993892429635 50.1056
21.22564507473034 50.4801
21.24829709602816 50.5673
21.27112693608965 50.5187
21.293780644891275 50.5025
21.316435195634053 49.5914
21.339090589297417 48.8525
21.361923832041875 48.348
21.384580921090404 47.845
21.407238856007325 47.4458
21.429897637773326 47.4095
21.45273429906592 47.5679
21.475394784108598 47.7051
21.498056118951983 47.618
21.520718304578022 47.86600000000001
21.543558400304388 47.7072
21.566222297108816 48.1008
21.58888704765135 48.2492
21.61155265291521 48.6699
21.63439619898156 48.9666
21.657063523335786 49.0136
21.67973170537063 49.4152
21.7024007460706 50.0284
21.72524775840385 50.7716
21.747918526116475 51.8804
21.770590155457388 53.1792
21.79326264741238 54.9188
21.816113141960237 56.9491
21.838787368860547 59.0257
21.861462461341976 61.145
21.884315579735777 63.0424
21.90699241312273 64.0347
21.92967011506078 64.182
21.95234868653799 62.9985
21.9752053151131 61.1162
21.997885635446785 59.132
22.020566828293532 57.5555
22.04324889464272 56.1788
22.066109049404666 55.4224
22.088792872571794 55.3745
22.111477572219204 55.49
22.1341631493376 55.4365
22.157026846313123 55.0038
22.179714188221507 53.9652
22.202402410582668 52.6807
22.22509151438863 51.2727
22.24795876962584 50.0393
22.270649646204486 49.1124
22.293341407213727 48.6321
22.316034053646906 48.2611
22.338904883215342 48.0897
22.36159931041458 47.9517
22.38429462602756 47.7902
22.40699083104897 47.6986
22.429865251039757 47.7668
22.452563244831367 47.8633
22.47526213102522 47.9072
22.49813925616515 47.7922
22.520839937143307 47.6435
22.543541513520587 47.8245
22.56624398629403 47.7377
22.589124730075895 47.6475
22.611829005656723 47.806000000000004
22.63453418063466 47.8854
22.657240256008077 48.0602
22.680124634582935 48.174
22.70283252079775 48.288999999999994
22.725541310413075 48.6758
22.74825100442868 48.8668
22.771139033969575 49.3489
22.79385054687155 49.6607
22.81656296718292 50.3874
22.83927629590484 51.2822
22.862167992606945 52.3488
22.88488314827121 53.7017
22.907599215359284 54.6703
22.93031619487366 55.8645
22.953211574954405 56.8391
22.975930389478226 57.1658
22.998650119445763 57.297
23.02137076586092 56.1338
23.044269845560063 54.5298
23.06699233506288 52.8277
23.089715744034912 51.1563
23.112617610931565 49.629
23.135342869061212 48.787
23.158069049684816 48.3155
23.1807961538087 47.8154
23.20370174880544 47.9222
23.226430710184808 48.0433
23.249160598093425 48.0237
23.271891413539002 48.0593
23.294800752937697 47.9884
23.31753343374794 48.1246
23.340267045128353 48.277
23.36300158808808 48.6466
23.38591468821339 48.8904
23.408651104658304 49.4552
23.431388455719986 50.1316
23.454126742409 51.0226
23.4770436196085 52.213
23.499783787914662 53.5832
23.522524894889884 54.8599
23.54526694154616 55.8855
23.56818761219047 56.9364
23.59093154860734 57.3374
23.613676427751283 57.1247
23.636422250635754 55.9406
23.659346731118656 54.0431
23.68209445191868 52.0269
23.704843119509587 49.8616
23.72759273490623 48.0959
23.750521041644767 46.7762
23.77327256312355 46.0233
23.796025035462787 45.6874
23.818956224555475 45.2302
23.841710609113413 45.181999999999995
23.86446594758979 44.8421
23.887222241002014 44.673
23.910157285144578 44.4035
23.932915498962537 44.5096
23.955674670778713 44.3397
23.978434801611975 44.056000000000004
24.001373717286125 43.8705
24.024135776723917 43.8219
24.046898798245582 43.6167
24.06966278287146 43.5909
24.092605586582614 43.4139
24.115371508023642 43.2234
24.1381383956401 43.218
24.16090625045381 43.104
24.183852958731244 43.0593
24.206622758582608 43.0585
24.229393528706886 42.7907
24.252165270127392 43.028
24.27511589952438 42.7545
24.297889594216997 42.6068
24.32066426328598 42.5082
24.34343990775613 42.4673
24.36639447485003 42.4247
24.38917208083877 42.4188
24.41195066531332 42.293
24.43490819850244 42.4896
24.457688750692377 42.2686
24.48047028445616 42.2656
24.503252800821233 42.5785
24.526214300784112 42.4574
24.548998793132213 42.5467
24.57178427117417 42.3166
24.59457073593893 42.2965
24.617536219319863 42.1096
24.64032466834748 42.0633
24.663114107195035 42.1592
24.685904536893013 41.8808
24.708874020360852 41.7972
24.731666442613744 41.5504
24.754459858818787 41.5495
24.777254270007962 41.5828
24.80022777025625 41.4904
24.82302418230472 41.5609
24.845821592443674 41.6019
24.86862000170663 41.4486
24.891597535453727 41.3221
24.914397953892728 41.5479
24.93719937456671 41.4189
24.96000179851076 41.638000000000005
24.98298338249997 41.69
25.00578782394922 42.0018
25.028593271784167 42.2177
25.05157790644186 42.5124
25.07438537804115 42.6024
25.097193859145293 43.0463
25.120003350792075 43.3101
25.142992065061257 43.4131
25.165803588823465 43.5948
25.18861612625217 43.937
25.211429678386736 43.9971
25.234422489079968 43.9687
25.257238081693636 44.0282
25.280054692141732 44.2419
25.3028723214652 44.1941
25.325869245420463 44.4245
25.348688923599397 44.3087
25.371509623787006 44.2496
25.394331347025812 43.7997
25.41733240110666 43.1018
25.440156181590016 42.3653
25.46298098826268 41.8981
25.48580682216873 41.4046
25.50881202326435 40.9523
25.53163992281684 40.5969
25.55446885274561 40.41
25.577298814096377 40.1896
25.600308179121807 39.9528
25.623140214533745 40.0608
25.64597328451537 40.043
25.66898578564376 39.819
25.691820936010206 39.8516
25.714657124097695 39.7964
25.737494350954734 39.8455
25.760511045684957 39.7408
25.783350361364224 39.7871
25.806190718969255 39.8067
25.82903211955018 39.7502
25.852053024868923 39.8849
25.874896522722523 39.9977
25.897741066713106 39.8439
25.920586657892454 40.0415
25.943611790812668 40.1389
25.966459487728237 40.2531
25.989308234998564 40.333
26.01215803367705 40.7348
26.03518741123814 40.9217
26.05803932412957 41.022
26.080892291600094 40.9532
26.10374631470478 41.0957
26.12677995397268 41.1398
26.14963609978026 40.9829
26.172493304397875 40.5095
26.19535156888223 40.2893
26.218389486949604 39.9731
26.241249882640123 39.8067
26.26411134137826 39.6843
26.28715248187403 39.4601
26.31001607820869 39.3598
26.3328807407756 39.2418
26.35574647063438 39.3962
26.37879191991473 39.4111
26.401659795896734 39.3609
26.424528742360263 39.6324
26.447398760366614 39.7591
26.470448535598294 39.7351
26.49332070826805 40.0327
26.516193955675355 40.3733
26.53906827888316 40.5827
26.562122397260108 40.6999
26.584998883685063 41.1765
26.607876449110325 41.3789
26.63075509460056 41.5463
26.65381357334404 41.5896
26.67669439061878 41.4153
26.699576291163382 41.36600000000001
26.722459276044212 41.1053
26.745522132402975 40.7843
26.768407297649354 40.5233
26.791293550442003 40.2817
26.814180891848974 40.1441
26.837248143099337 39.8611
26.860137673466657 39.7485
26.88302829566349 39.4835
26.90592001075963 39.2527
26.92899167420566 38.9551
26.951885586870763 38.7287
26.974780595655517 38.6094
26.99785558178161 38.5566
27.020752794605112 38.3489
27.043651106772522 38.2376
27.06655051935668 38.167
27.089629948036183 38.0377
27.112531573292053 37.9703
27.135434302194138 38.0781
27.158338135817015 37.8379
27.181422024430987 37.9138
27.204328079372566 37.7914
27.22723524226965 37.9118
27.250143514198573 37.9349
27.273231880156334 37.8635
27.296142382065014 37.7683
27.319053996245536 37.7283
27.341966723775965 37.6366
27.365059584515222 37.8347
27.38797455070062 37.8419
27.410890633481237 37.8133
27.433807833936918 37.8238
27.456905206923906 37.908
27.47982465472398 37.857
27.502745223449743 37.9072
27.525666914182825 38.0324
27.548768816912457 37.9961
27.571692763693633 37.821999999999996
27.59461783573812 37.7212
27.617723149491244 37.4581
27.640650484125285 37.4704
27.66357894728264 37.4608
27.686508540048052 37.3361
27.709618414237887 37.3211
27.732550278321757 37.3953
27.755483275279115 37.2489
27.778417406196485 37.1924
27.801531858397514 37.2096
27.824468269376716 37.1315
27.847405817586786 37.1862
27.870344504116094 37.2617
27.893463551932008 37.3874
27.916404527281053 37.6911
27.93934664422563 37.7599
27.962289903855886 37.8126
27.98541356491974 38.0319
28.00835912214229 38.0617
28.03130582533231 38.4417
28.054253675581805 38.5791
28.077381967556104 38.3916
28.100332124185126 38.329
28.123283431160893 38.3109
28.146235889577238 38.1608
28.169368830154156 37.9489
28.192323603752033 37.7605
28.215279532083304 37.4495
28.238415973016764 37.2294
28.261374223145094 37.0841
28.284333631303806 36.9583
28.307294198589954 36.8317
28.330435319167677 36.4029
28.353398217078915 36.3251
28.376362277420153 36.1182
28.39932750129032 35.843
28.422473319286713 35.6443
28.44544088262495 35.7755
28.468409612800283 35.5236
28.491379510913497 35.4116
28.51453004413313 35.32
28.53750229057244 35.205999999999996
28.56047570826344 35.2496
28.583450298308804 35.3183
28.606605564586562 35.0375
28.629582511831156 35.0214
28.65256063474956 34.9913
28.675539934446338 35.0093
28.698699951647605 34.9831
28.72168161743193 34.8728
28.74466446331978 34.8952
28.767648490417624 34.8684
28.790813276438353 34.7486
28.813799678527303 34.7242
28.836787265157085 34.8509
28.859955641890075 34.8596
28.882945610203045 34.8616
28.905936766392035 34.7512
28.928929111566863 34.6827
28.952102288520145 34.6689
28.975097024308607 34.5234
28.998092952423807 34.3889
29.021090073977508 34.2528
29.04426806913204 34.1963
29.067267590245258 33.9601
29.090268308143695 33.9478
29.11327022394099 33.8628
29.13645305530891 33.8147
29.159457379627167 33.7544
29.18246290519685 33.8528
29.20546963313352 33.8282
29.22865731875826 33.7492
29.25166646419296 33.7394
29.27467681535305 33.6713
29.29768837335608 33.7213
29.320880931312562 33.7535
29.34389491580634 33.7223
29.366910110507334 33.7398
29.38992651653503 33.7298
29.41312396492981 33.6392
29.436142806456754 33.4672
29.45916286268059 33.3901
29.48236399319994 33.1963
29.50538649169417 33.2275
29.528410208259935 33.1042
29.55143514402014 32.9015
29.574641196749695 32.8512
29.597668583816574 32.6915
29.6206971934585 32.5266
29.64372702680042 32.5692
29.666938019934474 32.4334
29.689970313635285 32.4811
29.713003834422636 32.2779
29.73603858342347 32.2822
29.759254535188578 32.2586
29.78229175361658 32.2439
29.80533020365064 32.3472
29.82836988641968 32.3423
29.85159081507472 32.1723
29.874632976355343 32.0893
29.89767637376955 32.2008
29.920721008448314 32.008
29.9439469322847 31.9118
29.96699405457564 31.9892
29.9900424175358 32.0163
30.013092022298157 31.9039
30.03632295963995 31.7285
30.059375061131373 31.8607
30.08242840783577 31.9126
30.105483000888153 31.8336
30.128718970092244 31.8819
30.151776069006917 31.7731
30.17483441768648 31.8227
30.198074175317235 31.8364
30.221135036724256 31.8251
30.24419715131772 31.7366
30.267260520236203 31.6748
30.290505341942243 31.7207
30.313571232750228 31.7988
30.336638381310948 31.7191
30.35970678876503 31.7539
30.38295669299435 31.6603
30.40602763151657 31.5977
30.429099832366074 31.6509
30.452173296685572 31.5624
30.47542830191959 31.5274
30.498504306502497 31.5293
30.521581577995562 31.5963
30.544660117543582 31.5763
30.56792024229725 31.7053
30.59100133132069 31.6914
30.614083691845494 31.6639
30.637167325018545 31.8164
30.660432587840603 31.8408
30.683518779717886 31.7293
30.70660624769615 31.730999999999998
30.729694992924372 31.6096
30.75296541239743 31.6631
30.77605672557558 31.5607
30.799149319462742 31.5011
30.8224236211637 31.3556
30.845518789950724 31.3381
30.868615242910597 31.3266
30.891712981195973 31.1219
30.91499247215866 31.0896
30.938092794619365 31.0966
30.96119440587579 31.0075
30.984297307082752 30.9034
31.00758200598383 30.7197
31.030687500658694 30.686999999999998
31.053794288760695 30.6585
31.076902371446767 30.5828
31.100192296997445 30.6564
31.12330298246119 30.5662
31.14641496599209 30.3556
31.169528248749216 30.3803
31.19282341969534 30.3547
31.215939314557186 30.4604
31.239056512134788 30.3764
31.262175013589378 30.3732
31.28547544871168 30.384
31.30859657161541 30.2873
31.331719001892175 30.3662
31.35484274070538 30.3824
31.378148458819545 30.4396
31.401274828443725 30.3215
31.424402510106933 30.3359
31.447712205419993 30.4365
31.470842524931633 30.3627
31.493974159989783 30.2615
31.51710711176168 30.2966
31.54042212308802 30.2643
31.563557722100917 30.214000000000002
31.586694641341655 29.9873
31.609832881979628 29.9209
31.63315322823208 29.9112
31.656294125521327 29.7784
31.679436347728515 29.6781
31.70257989602529 29.6646
31.725905596152327 29.6425
31.74905181052835 29.4985
31.772199354521323 29.7116
31.79534822930507 29.6883
31.818679302290967 29.659000000000002
31.84183085259981 29.679000000000002
31.864983737233473 29.6158
31.88813795736804 29.5621
31.911474422233013 29.5749
31.934631327356435 29.6836
31.9577895715215 29.5437
31.980949155906522 29.5616
32.004291031706956 29.5606
32.027453310562606 29.3801
32.05061693318573 29.2278
32.07396288236386 29.293000000000003
32.09712920658542 29.1859
32.12029687812702 29.0434
32.14346589817093 29.0125
32.166817291729984 29.0041
32.18998902288583 28.9245
32.21316210610336 28.8542
32.23633654256711 28.8383
32.259693399663725 28.7051
32.282870556771144 28.5803
32.30604907069099 28.6667
32.329228942610065 28.6184
32.35259128243769 28.4313
32.375773884550505 28.3823
32.398957848235646 28.3893
32.422143174682176 28.4232
32.445511016471215 28.2821
32.468699082679954 28.1749
32.49188851523011 28.2569
32.51507931531304 28.1716
32.538452678331 28.1585
32.56164622776311 28.0295
32.58484114831493 27.9684
32.60803744118015 27.9986
32.631416344731896 27.9759
32.654615396551876 27.9166
32.67781582427913 27.8682
32.701198898634416 27.8457
32.72440209253756 27.8261
32.747606665947124 27.8357
32.77081262006088 27.7138
32.79420126883317 27.6224
32.81740999876112 27.7021
32.840620112999424 27.5659
32.86383161274818 27.5049
32.88722585534586 27.4948
32.91044014056596 27.6403
32.933655814909734 27.5584
32.95687287957963 27.3883
32.98027273544904 27.4219
33.00349259526636 27.4985
33.026713849030116 27.5166
33.04993649794511 27.3046
33.073341986570746 27.2741
33.09656744032826 27.3878
33.11979429286444 27.3249
33.14302254538647 27.3676
33.166433686291185 27.2999
33.18966475336992 27.2414
33.212897224069096 27.0384
33.23613109959831 27.124000000000002
33.259547912343415 27.0718
33.2827846121627 27.0485
33.306022720453775 27.0091
33.32926223842861 26.864
33.352684742614166 26.9873
33.37592709463173 26.8958
33.399170859982064 26.8453
33.422597648419426 26.7615
33.44584425514446 26.5716
33.46909227885668 26.6008
33.4923417207723 26.5137
33.51577423505344 26.5714
33.539026528130385 26.4209
33.56228024307245 26.4588
33.585535381098246 26.3417
33.60897364093058 26.2884
33.63223163992385 26.2278
33.6554910656699 26.2129
33.678751919389796 26.2537
33.702195944520106 26.2095
33.72545966903325 26.1518
33.74872482519663 26.0347
33.771991414233746 26.0993
33.79544122444841 26.0447
33.81871069412428 25.9229
33.84198160035767 25.9041
33.86525394437455 25.9671
33.88870955949969 25.8439
33.911984794020626 25.8442
33.93526147001624 25.8598
33.958539588715006 25.7657
33.98200102861669 25.6838
34.0052820477047 25.5686
34.02856451319451 25.4985
34.05203033759056 25.5714
34.07531571090147 25.4587
34.09860253431845 25.4834
34.121890809074316 25.4359
34.145362493118924 25.3977
34.16865368561615 25.4269
34.191946333164054 25.38
34.21524043699793 25.3159
34.23871800066799 25.2474
34.26201503218366 25.2384
34.28531352370466 25.2495
34.30861347646881 25.1405
34.33209693978188 25.2119
34.3553998301885 25.1063
34.378704185565205 25.0275
34.402010007152356 24.9943
34.42549939016683 24.9696
34.44880815937748 24.8962
34.472118398533134 24.8533
34.49543010887669 24.8272
34.51892543169198 24.587
34.54224009966052 24.694000000000003
34.56555624255917 24.7551
34.58887386163339 24.5812
34.61237514439016 24.5429
34.6356957311114 24.467
34.65901779775809 24.4728
34.68252356662995 24.5024
34.705848608458616 24.4293
34.72917513396849 24.3436
34.75250314440949 24.3395
34.77601490857862 24.3747
34.799345904259795 24.2502
34.82267838863559 24.3064
34.846012362958525 24.2073
34.869530142679984 24.2168
34.89286711232212 24.1256
34.91620557568269 24.1072
34.93954553401677 24.0688
34.9630693495876 23.999000000000002
34.986412313340814 24.0633
35.00975677584668 24.026999999999997
35.033102738362956 24.0495
35.05663261012228 23.9317
35.0799815881786 23.9697
35.10333207003229 23.8901
35.12668405694369 23.8362
35.150220005273056 23.7909
35.17357501786656 23.8006
35.19693153931268 23.8102
35.220289570874385 23.6669
35.24383161619786 23.675
35.267192683604904 23.756
35.290555264930376 23.6683
35.314101899412165 23.6578
35.33746752422433 23.6383
35.36083466676374 23.7079
35.38420332829803 23.5966
35.407756095629054 23.6214
35.43112781085063 23.6016
35.45450104888391 23.5482
35.477875810999194 23.5411
35.50143473172161 23.4768
35.52481255774625 23.4835
35.54819191167777 23.4024
35.57157279478914 23.383000000000003
35.595137889488406 23.2741
35.61852184675279 23.2826
35.641907337029984 23.139
35.665294361595684 23.1221
35.68886565090076 23.1757
35.7122557598848 23.1048
35.73564740699838 23.114
35.759040593519934 23.0804
35.78261809810353 23.0246
35.80601437933051 22.9712
35.829412203814705 22.8516
35.85281157283719 22.8048
35.876395313415884 22.8883
35.8997977874528 22.8663
35.92320180988546 22.8028
35.946790244133936 22.7057
35.97019737933222 22.6712
35.993606066789866 22.7273
36.01701630779276 22.5922
36.04061101440684 22.526
36.06402437852291 22.6031
36.08743930005611 22.6692
36.1108557802951 22.4898
36.13445678011326 22.4754
36.15787639383515 22.4938
36.18129757014299 22.3975
36.20472031032821 22.3916
36.22832762423364 22.3268
36.25175350829375 22.31
36.275180960119776 22.2333
36.298609981005924 22.2531
36.32222362992669 22.2712
36.34565580510207 22.2462
36.36908955323448 22.2455
36.39252487562093 22.0734
36.416144880530226 22.0084
36.43958336764275 22.0389
36.463023432914625 22.0857
36.486465077645676 21.951999999999998
36.51009145956204 22.1007
36.53353627947859 22.0453
36.55698268276811 22.0037
36.58043067073321 21.9262
36.60406345072071 21.8178
36.62751462435344 21.8632
36.65096738658405 21.8129
36.67460498210655 21.7867
36.69806093788647 21.7771
36.72151848619297 21.6358
36.744977628333636 21.6613
36.76862165890998 21.5817
36.79208400512205 21.5198
36.81554794910557 21.5118
36.83901349217101 21.4247
36.862663978991606 21.5045
36.88613273667352 21.4429
36.90960309738324 21.4517
36.933075062434064 21.3618
36.95673202673572 21.2615
36.98020721697122 21.2774
37.003684015502365 21.2851
37.027162423645365 21.2633
37.050825886711465 21.1062
37.07430753063053 21.1327
37.09779078812467 21.0452
37.121275660513014 21.0894
37.144945643673694 21.1403
37.16843376245278 21.05
37.19192350009803 21.0179
37.215414857931435 20.9381
37.239091382563885 20.8994
37.262585997426164 20.8946
37.28608223645736 20.8582
37.309763684451696 20.8522
37.33326318851098 20.8215
37.356764320726555 20.7856
37.380267082425526 20.7794
37.40395510942588 20.7722
37.42746114683234 20.68
37.45096881771841 20.5953
37.474478123414166 20.5848
37.49817275092816 20.581
37.52168534303452 20.6221
37.54519957395567 20.4588
37.568715445024665 20.4778
37.592416694607714 20.4089
37.61593586281424 20.4529
37.63945667518264 20.4822
37.66297913304891 20.3645
37.68668702630454 20.3775
37.710212792059274 20.337
37.733740207334854 20.2914
37.757269273470364 20.2709
37.780983832050374 20.1719
37.80451621684926 20.1585
37.82805025654007 20.1619
37.851585952464795 20.0299
37.8753071980695 20.0467
37.89884622345676 20.0061
37.92238690911902 19.9534
37.94611318753442 19.9396
37.969657210779765 19.8823
37.99320289834801 19.8752
38.016750251586465 19.8855
38.04048325513017 19.8163
38.06403395679343 19.8127
38.087586328183946 19.7838
38.11114037065203 19.7531
38.13488012115898 19.7347
38.1584375229181 19.6791
38.181996599821 19.6078
38.205557353221124 19.608
38.229303872575656 19.5682
38.2528679961576 19.5533
38.27643380031219 19.5563
38.30000128639589 19.4024
38.32375459653193 19.4812
38.34732546371299 19.4594
38.37089801690786 19.4134
38.39447225747609 19.4034
38.418232380377425 19.3122
38.441810012983396 19.2973
38.46538933705673 19.2744
38.488970353960084 19.2462
38.51273731166058 19.1884
38.536321731567014 19.1883
38.55990784840681 19.1502
38.58367995004091 19.0663
38.60726947812959 19.0143
38.63086070726198 19.0733
38.654453638806274 19.073
38.678232613930824 19.0372
38.70182896773327 18.9479
38.72542702806741 18.9807
38.7490267963045 18.9231
38.77281266709232 18.8714
38.79641586862214 18.8912
38.8200207821842 18.7657
38.843627409152944 18.8093
38.86742019782782 18.7797
38.891030269149255 18.6554
38.914642058016156 18.6839
38.938255565806124 18.6438
38.96205529464307 18.5755
38.98567225787121 18.6326
39.00929094417078 18.5292
39.03291135492255 18.6061
39.05671804624804 18.5393
39.080341923549106 18.4766
39.103967529460334 18.4827
39.127594865365744 18.3908
39.15140854155791 18.3829
39.17503935514948 18.342
39.19867190290282 18.2895
39.22249083587951 18.3239
39.24612686969409 18.3568
39.269764641845306 18.2729
39.293404153722804 18.2445
39.317230110864074 18.2016
39.34087311998506 18.0929
39.36451787301696 18.1445
39.388164371352595 18.057000000000002
39.41199737518003 18.0643
39.43564738196752 18.0943
39.45929913825317 17.9877
39.48295264543308 18.0095
39.506792718520884 17.9701
39.530449745387216 17.9349
39.55410852735203 17.8926
39.57776906581474 17.922
39.60161623079 17.8832
39.625280300200025 17.8191
39.64894613032202 17.7914
39.67261372255866 17.8319
39.6964680021016 17.7114
39.72013913657293 17.6852
39.74381203738292 17.6902
39.76748670593756 17.6645
39.79134812278169 17.6294
39.81502634488497 17.6465
39.83870633896685 17.6429
39.862388106436654 17.5565
39.88625668336918 17.4943
39.90994201572829 17.476
39.933629125719285 17.415
39.957503091207826 17.4023
39.9811937746168 17.3949
40.00488623990914 17.4067
40.02858048850006 17.3533
40.05246165409549 17.2872
40.076159487492085 17.2295
40.099859108448875 17.3157
40.123560518384345 17.2045
40.1474489070226 17.1781
40.171153913178564 17.1295
40.194860712584955 17.067999999999998
40.2185693066637 17.1172
40.242464941335314 17.0452
40.26617714307655 17.0615
40.289891143772046 17.0716
40.3136069448471 17.0682
40.33750984859743 17.009
40.3612292688043 16.9326
40.3849504936829 16.9475
40.40867352466194 16.9307
40.43258372059144 16.8879
40.45631038219906 16.8254
40.48003885420956 16.7901
40.503769138055105 16.8093
40.52768664931955 16.8265
40.55142057531802 16.7933
40.57515631746428 16.7973
40.599079334038514 16.7476
40.62281872700477 16.6838
40.64655994043941 16.6121
40.67030297578061 16.7036
40.69423334835778 16.6368
40.71798004609188 16.6105
40.74172857006355 16.5296
40.76547892171441 16.5216
40.7894166736039 16.4572
40.813170699248566 16.423
40.83692655691388 16.4422
40.86068424804498 16.4735
40.884629402612525 16.367
40.908390779366385 16.3089
40.932153993938 16.3122
40.95591904777605 16.2999
40.979871628443995 16.3011
41.003640379561936 16.2236
41.02741097430883 16.3076
41.05118341413683 16.2326
41.075143444384416 16.116
41.098919593177826 16.102
41.1226975914255 16.102999999999998
41.14647744058318 16.0962
41.170444943946755 16.1141
41.19422851378379 16.0729
41.218013938914645 16.0477
41.24198706625173 15.9583
41.26577622087193 15.9208
41.289567235177785 15.9648
41.31336011063129 15.9493
41.337340752422875 15.8516
41.361137369129835 15.9016
41.38493585138705 15.8233
41.40873620066004 15.7952
41.43272438060107 15.7771
41.45652848292052 15.7543
41.48033445666918 15.7198
41.50414230331616 15.7102
41.528138045159764 15.6811
41.551949656675205 15.669
41.575763145513235 15.5545
41.59957851314666 15.6324
41.62358184070442 15.5899
41.64740098505737 15.5031
41.6712220126409 15.4662
41.69504492493139 15.4697
41.71905586207357 15.4496
41.74288256296395 15.4906
41.766711153007456 15.3807
41.79054163368412 15.3778
41.814560204340054 15.3382
41.838394485526365 15.341
41.86223066180303 15.2633
41.88625497706819 15.3347
41.910094962812 15.2764
41.93393684811168 15.2024
41.95778063445365 15.2217
41.981812625263366 15.1847
42.00566023303407 15.2117
42.029509746323676 15.1601
42.05336116662236 15.0924
42.077400857069705 15.0822
42.10125611078846 15.0984
42.12511327600405 15.0559
42.14897235421036 14.9759
42.173019768448455 14.9703
42.19688269209613 14.9744
42.22074753323349 14.9362
42.24461429335818 14.8931
42.268669455600495 14.8724
42.292540073217886 14.8701
42.31641261433284 14.8335
42.34028708044675 14.725
42.36435001496739 14.8
42.38822835065557 14.7609
42.41210861586426 14.7103
42.4359908120986 14.7471
42.46006154323262 14.6805
42.48394762115317 14.6298
42.507835634632315 14.6558
42.531912233047436 14.6381
42.55580413732265 14.5718
42.579697981698 14.5726
42.60359376768525 14.4931
42.62767820545945 14.4806
42.65157789440821 14.5314
42.67547952952185 14.5125
42.699383112316 14.4568
42.72347541395347 14.3829
42.74738291190531 14.3462
42.771292362102166 14.3573
42.795203766063516 14.3251
42.819303956130405 14.3229
42.843219287476536 14.2279
42.86713657716324 14.2302
42.89105582671383 14.2047
42.91516392983864 14.1845
42.939087119032166 14.1753
42.963012272677304 14.162
42.98693939230129 14.1691
43.01105543317513 14.1322
43.034986504731386 14.0925
43.05891954686589 14.0571
43.08285456110972 14.0437
43.10697856448665 14.0194
43.130917542983475 13.9341
43.15485849820081 13.9898
43.17880143167367 13.9515
43.20293342237094 13.9203
43.226880332449 13.9024
43.25082922540554 13.8921
43.27496722682525 13.8847
43.29892010567796 13.8264
43.32287497204102 13.7981
43.34683182745632 13.7225
43.370977859791836 13.7626
43.39493871351105 13.7311
43.41890156092628 13.7207
43.44286640358341 13.6837
43.46702049182749 13.7174
43.49098934522816 13.6819
43.51496019852649 13.6514
43.5389330532723 13.6658
43.56309522248204 13.5958
43.58707210044314 13.5866
43.61105098451946 13.4892
43.63503187626491 13.4908
43.659202151562134 13.4993
43.68318707902681 13.4932
43.70717401884041 13.3989
43.731162972560874 13.3936
43.75534137913236 13.3633
43.779334381108384 13.3466
43.803329401683186 13.3339
43.82732644241872 13.302999999999999
43.8515130055166 13.3226
43.87551410707659 13.2706
43.89951723350145 13.2532
43.923709934595614 13.1792
43.94771713129917 13.1525
43.97172635758096 13.1732
43.99573761501002 13.2051
44.0199385169922 13.1273
44.04395385732619 13.1326
44.067971233533086 13.1453
44.09199064718605 13.0755
44.11619977548961 13.0317
44.14022328470671 12.9792
44.16424883610785 13.0255
44.18827643127035 12.9895
44.21249381139513 12.9185
44.236525514814076 12.939
44.26055926674478 12.9283
44.28459506876863 12.9174
44.3088207262813 12.8558
44.33286064928722 12.8348
44.35690262714919 12.8179
44.38094666145278 12.8184
44.4051806219871 12.786
44.42922879003185 12.7876
44.45327901929361 12.7063
44.477331311362136 12.6869
44.501573600619416 12.6603
44.525630039221795 12.6376
44.54968854541895 12.6243
44.573937102200176 12.6425
44.5979997645541 12.6058
44.622064499300315 12.5763
44.64613130803592 12.5518
44.67038823869318 12.5652
44.69445921643748 12.5016
44.718532272981385 12.4662
44.742607409926194 12.4702
44.76687274034801 12.4415
44.79095205918753 12.3875
44.81503346325094 12.4051
44.839116954143876 12.417
44.86339071028742 12.3482
44.88747839599524 12.3195
44.91156817336837 12.2786
44.93566004401666 12.2902
44.959942251908146 12.2582
44.984038330325966 12.25
45.00813650686762 12.2326
45.03223678314731 12.1708
45.05652746888232 12.1219
45.08063196592069 12.148
45.104738567558705 12.1132
45.128847275414856 12.0896
45.15314646515866 12.0829
45.17725940679741 12.0832
45.20137445952892 12.0476
45.22568004865265 12.0351
45.24979934496396 11.9865
45.27392075725247 11.9914
45.29804428714431 11.9883
45.322358426247604 11.9275
45.346486212804315 11.899000000000001
45.370616121861914 11.8855
45.39474815505086 11.8505
45.41907087049246 11.8413
45.4432071734666 11.8223
45.46734560548283 11.8359
45.49148616817604 11.8167
45.51581748638564 11.7324
45.5399623320197 11.7092
45.56410931325473 11.6938
45.58825843173002 11.7178
45.61259837920865 11.7009
45.636751793816 11.7083
45.66090735060093 11.6458
45.68506505120716 11.6426
45.7094136545275 11.5857
45.73357566449271 11.5546
45.75773982322992 11.5938
45.78190613238733 11.5519
45.806263418194064 11.4774
45.83043404997326 11.5071
45.85460683713677 11.493
45.87897065658495 11.4767
45.90314777634752 11.4313
45.92732705646868 11.3895
45.9515084986045 11.3982
45.97588104735473 11.3778
46.00006683541565 11.3685
46.02425479047904 11.3406
46.04844491420549 11.3399
46.0728262191024 11.3279
46.09702070211635 11.3408
46.12121735879483 11.2812
46.14541619080294 11.2398
46.169806278764455 11.2446
46.194009483459034 11.2176
46.21821486849841 11.2237
46.24242243555223 11.1747
46.266821333570014 11.1702
46.29103328674601 11.1387
46.31524742696538 11.1643
46.33946375590237 11.119000000000002
46.36387149104216 11.0826
46.38809221957392 10.9857
46.41231514186606 10.9972
46.436540259597464 11.0446
46.460956858999374 10.9723
46.48518638983522 10.9694
46.509418121166966 10.9543
46.533652054678114 10.911
46.55807754555709 10.9007
46.58231590571962 10.8785
46.60655647313217 10.8458
46.630988654873654 10.847999999999999
46.655233659129024 10.7953
46.67948087571551 10.7861
46.70373030632484 10.7727
46.72817142736393 10.7733
46.752425308428684 10.7622
46.77668140861147 10.6961
46.80093972960865 10.6927
46.82538981736788 10.6557
46.849652602470904 10.65
46.87391761349769 10.679
46.8981848521493 10.6501
46.9226439341274 10.610999999999999
46.946915650573224 10.5672
46.97118959976749 10.5157
46.99546578341598 10.5046
47.019933887188216 10.4837
47.04421456235744 10.5008
47.06849747711879 10.4863
47.09278263318286 10.4276
47.11725978640143 10.437999999999999
47.14154944775105 10.4127
47.165841355555656 10.3851
47.1901355115306 10.4127
47.214621741924994 10.3732
47.23892041698887 10.3266
47.26322134538975 10.286
47.28771440635075 10.300999999999998
47.31201986422527 10.2837
47.33632758061436 10.2455
47.360637557241866 10.2514
47.38513974410611 10.2346
47.40945426407847 10.1949
47.43377104948137 10.193
47.45809010204344 10.1752
47.48260144275502 10.1684
47.506925052572285 10.1235
47.53125093475548 10.0527
47.55557909103813 10.0981
47.58009961361992 10.0619
47.60443234110732 10.0434
47.62876734791564 10.0477
47.65310463578333 9.97665
47.6776343683373 9.97175
47.7019762413987 9.96301
47.72632040075572 9.93847
47.75066684815169 9.93154
47.77520581885936 9.89066
47.799556865477655 9.915389999999999
47.823910205386 9.90124
47.84826584033272 9.87745
47.87281407745551 9.83883
47.89717432569297 9.88227
47.92153687423484 9.81452
47.94609208429692 9.79139
47.97045925671401 9.7768
47.99482873471275 9.74548
48.01920052005013 9.74726
48.04376504619224 9.75119
48.068141469543484 9.73418
48.09252020552573 9.687669999999999
48.11690125590099 9.68759
48.1414751266064 9.65639
48.16586082917454 9.6319
48.19024885144316 9.62391
48.2146391951793 9.64553
48.239222439012764 9.61139
48.26361744916137 9.600530000000001
48.28801478610016 9.59365
48.31241445160131 9.56921
48.337007097209366 9.56981
48.36141144338331 9.53139
48.38581812345755 9.50324
48.41022713920929 9.480369999999999
48.434829215320704 9.45551
48.45924292604658 9.4358
48.48365897780325 9.42999
48.50807737237308 9.382060000000001
48.532688907799276 9.41109
48.55711201168574 9.378219999999999
48.581537463754074 9.33677
48.60615611725119 9.33263
48.63058628942721 9.320269999999999
48.65501881516546 9.37566
48.6794536962573 9.35752
48.70408185970339 9.28916
48.72852147531801 9.243
48.75296345168211 9.24043
48.77740779059232 9.239469999999999
48.80204549302823 9.261989999999999
48.82649458091802 9.163860000000001
48.85094603676547 9.15851
48.87539986237231 9.15952
48.90004713292306 9.11737
48.92450572200832 9.13911
48.94896668628025 9.10858
48.97343002754588 9.06787
48.99808689542115 9.08135
49.02255501470614 9.05856
49.04702551642794 9.01555
49.0714984023988 9.02217
49.096164896893235 8.947560000000001
49.120642575466796 8.95582
49.145122643748394 8.96792
49.16960510355558 8.92747
49.19428125404938 8.89516
49.2187685210852 8.88457
49.243258185121555 8.900210000000001
49.26794160167084 8.86355
49.2924360839405 8.815760000000001
49.31693296869764 8.82497
49.34143225776915 8.85573
49.36612538195438 8.83019
49.39062950396021 8.79393
49.41513603578346 8.79454
49.4396449792564 8.76304
49.46434784069503 8.74657
49.488861631846454 8.719339999999999
49.513377840166804 8.68138
49.537896467493745 8.721589999999999
49.56260909589029 8.61886
49.587132585683285 8.64011
49.611658500018365 8.64142
49.636186840738596 8.5979
49.66090926588511 8.6174
49.685442483902584 8.5613
49.70997813385706 8.5439
49.734516217597076 8.55995
49.75924846937352 8.52765
49.7837914452858 8.52069
49.80833686055187 8.46208
49.83288471702571 8.48882
49.85762682540054 8.50027
49.882179588965734 8.461
49.9067347993235 8.45698
49.93129245833333 8.43247
49.95604445336378 8.40933
49.98060703442832 8.40203
50.005172069746266 8.387780000000001
50.02993150438364 8.368139999999999
50.05450147301533 8.333110000000001
50.07907390151433 8.33531
50.10364879174981 8.316939999999999
50.12841816587289 8.3224
50.1529980044635 8.29815
50.17758031042124 8.293389999999999
50.20216508562089 8.26309
50.22694442953363 8.239360000000001
50.25153416817468 8.19881
50.27612638170508 8.1904
50.300721072005196 8.17891
50.325510416102105 8.139289999999999
50.350110084975064 8.18171
50.37471223628208 8.13513
50.39931687190919 8.10223
50.424116246675766 8.099310000000001
50.44872587605249 8.12016
50.47333799543065 8.11358
50.49795260670191 8.05612
50.52276204271512 8.045760000000001
50.54738166295838 8.02593
50.57200378079314 8.02929
50.596628398116835 8.0016
50.62144792604559 7.99563
50.646077567609396 7.96338
50.670709714377715 7.97475
50.69553683636198 7.88559
50.72017401885922 7.928610000000001
50.7448137122895 7.89202
50.76945591856022 7.9121
50.79429318636823 7.87666
50.818940443716784 7.845510000000001
50.84359021965163 7.83701
50.868242516085964 7.82569
50.893089960641895 7.809139999999999
50.917747323549435 7.74273
50.94240721271973 7.755960000000001
50.96706963007175 7.74333
50.99192728239342 7.73597
51.01659478166073 7.74118
51.04126481489051 7.72595
51.06593738400761 7.7336
51.090805275207074 7.66348
51.11548294172845 7.69235
51.14016314993547 7.65336
51.164845901758845 7.66668
51.18972406304274 7.657030000000001
51.21441192780656 7.63023
51.23910234200271 7.631060000000001
51.2637953075678 7.57368
51.288683770237945 7.5521899999999995
51.31338186432707 7.57321
51.33808251561888 7.5378
51.362978729967345 7.55956
51.387684521509755 7.5075899999999995
51.41239287610203 7.4634100000000005
51.437103795691165 7.4683399999999995
51.46201036644977 7.462210000000001
51.486726441956634 7.44233
51.51144508832545 7.433089999999999
51.536166307509156 7.4493
51.56108326624387 7.4025
51.58580965706056 7.3935699999999995
51.61053862657523 7.35973
51.635270176746864 7.3529100000000005
51.66019755512065 7.357810000000001
51.68493429268881 7.31723
51.70967361681515 7.3291699999999995
51.73441552946465 7.3104
51.759353359237934 7.268960000000001
51.7841004750961 7.24142
51.80885018539685 7.26872
51.833602492111254 7.2565
51.8585508051424 7.19532
51.883308330926425 7.204060000000001
51.90806845906181 7.161580000000001
51.932831191525715 7.16183
51.95779001977161 7.19867
51.98255798721516 7.12597
52.00732856494335 7.08292
52.03229530577543 7.0937600000000005
52.057071130455945 7.11857
52.081849571391054 7.10975
52.106630630568695 7.072780000000001
52.13160794279417 7.03897
52.15639426492067 7.06377
52.18118321127822 7.02458
52.205974783860896 7.003639999999999
52.23096269971011 7.0025
52.255759551287994 6.957339999999999
52.280559035098186 6.961060000000001
52.30536115314103 6.94135
52.33035970494467 6.9517
52.35516711807904 6.9291100000000005
52.37997717147198 6.920310000000001
52.40478986713005 6.9211800000000006
52.42979908731974 6.901039999999999
52.454617094216 6.86385
52.47943774942214 6.83778
52.50426105495102 6.8379
52.529280976059844 6.829219999999999
52.554109609024096 6.82326
52.57894089837482 6.80903
52.60377484613117 6.7740800000000005
52.62880550079408 6.78895
52.65364479223379 6.73528
52.67848674816189 6.76355
52.70352547971946 6.72417
52.72837279155837 6.722010000000001
52.753222773982785 6.679989999999999
52.778075429022984 6.71353
52.80312495150885 6.6463399999999995
52.827982978797436 6.627739999999999
52.85284368481815 6.6307
52.87770707160767 6.6323300000000005
52.90276741793998 6.592210000000001
52.92763619336701 6.6019
52.952507655698504 6.56314
52.977381806977576 6.573180000000001
53.00245301017842 6.54828
53.02733256653592 6.5555
53.052214817996074 6.557
53.077099766608484 6.556989999999999
53.102181859804446 6.52581
53.127072229988265 6.50727
53.15196530349892 6.45833
53.17686108239249 6.471419999999999
53.20195409881522 6.45306
53.22685531582556 6.45328
53.25175924441303 6.4120099999999995
53.27666588664027 6.35999
53.30176985962693 6.38756
53.3266819565689 6.37363
53.35159677336455 6.366619999999999
53.376514312083096 6.34138
53.40162927507703 6.3449800000000005
53.42655228516116 6.31036
53.45147802340193 6.2773900000000005
53.47660125628886 6.27819
53.50153247842639 6.32925
53.52646643496923 6.29063
53.55140312799818 6.24591
53.576537409691696 6.23139
53.60147960336152 6.2409099999999995
53.626424539786164 6.226380000000001
53.65137222105307 6.1959800000000005
53.67651758529126 6.19008
53.70147078399681 6.16275
53.72642673383343 6.17821
53.75138543689533 6.19227
53.776541917524526 6.17635
53.801506154876755 6.13923
53.826473151763246 6.12124
53.851442910284916 6.11406
53.87661054126026 6.08595
53.9015858509782 6.0883400000000005
53.92656392866066 6.06441
53.95154477641532 6.0782099999999994
53.976723591801296 6.03083
54.00171000771266 6.00507
54.02669920004598 6.02707
54.051691170915745 5.99094
54.076881204886796 5.96702
54.101878760928514 5.96658
54.12687910187696 5.9446900000000005
54.152077577768296 5.96366
54.1770835166946 5.93083
54.20209224691339 5.91861
54.22710377055121 5.90937
54.25231352511594 5.86566
54.27733066384342 5.85901
54.30235060239643 5.88456
54.32737334290836 5.836130000000001
54.35259441062629 5.77695
54.377622783395324 5.78568
54.40265396455061 5.79306
54.42768795623251 5.74903
54.45292037169559 5.72155
54.477960012857906 5.707380000000001
54.50300247099511 5.72521
54.52804774825457 5.71445
54.55329154616743 5.67791
54.57834249018678 5.639480000000001
54.6033962597977 5.64257
54.6284528571545 5.62517
54.653708072335164 5.5770599999999995
54.67877035378786 5.55105
54.70383546947698 5.54035
54.72890342156389 5.55909
54.7541700889442 5.51504
54.77924374251975 5.5037400000000005
54.8043202390049 5.4623
54.82959552413022 5.4585300000000005
54.8546777351945 5.44603
54.87976279569621 5.44361
54.90485070780914 5.44067
54.930137506558005 5.39353
54.95523115074295 5.43156
54.98032765308844 5.38135
55.005427015775496 5.33515
55.03072536339621 5.34115
55.05583047570572 5.3138
55.080938454927676 5.25699
55.10604930325027 5.29129
55.131359235107396 5.21553
55.15647585066083 5.19715
55.181595341907496 5.18454
55.20671771104285 5.14698
55.232039262617704 5.164569999999999
55.25716741665048 5.137980000000001
55.28229845518636 5.0856900000000005
55.30743238042802 5.05549
55.33276558731939 5.05147
55.357905315183636 5.06976
55.383047936390035 5.01345
55.40819345314859 5.00309
55.433538351073295 4.9406300000000005
55.458689688238415 4.99391
55.483843927614096 4.91438
55.509197623043605 4.86992
55.53435769621134 4.82206
55.55952067826466 4.835319999999999
55.5846865714265 4.82071
55.61005202069737 4.79582
55.63522376553902 4.81192
55.66039842818645 4.76619
55.68557601087004 4.7967699999999995
55.7109532500271 4.71157
55.73613670233794 4.7743400000000005
