TT I
1.2716486653135266 7.572019999999999
1.2939594142134223 7.565010000000001
1.3162702121660406 6.878010000000001
1.3385810600174564 6.5944
1.3608919586137629 6.38394
1.383202908801069 6.3764199999999995
1.405513911425503 6.22208
1.4278249673332093 6.16204
1.4501343378461518 6.29183
1.4724455028545926 5.52082
1.4947567236847858 5.699730000000001
1.517068001182951 6.32201
1.5393793361953272 6.26245
1.5616907295681737 5.47551
1.5840021821477681 5.02139
1.60631369478041 5.7123800000000005
1.6286252683124185 5.3139199999999995
1.6509369035901333 5.00393
1.6732468618895553 5.19672
1.695558623192809 4.71136
1.7178704487808514 4.8488
1.7401823395001077 4.9164
1.7625012545597203 5.38595
1.7848028405262486 5.11066
1.8071218901122095 5.2354
1.8294236121921872 4.02922
1.8517427996910911 4.21131
1.8740620574440425 4.71736
1.8963639900671978 5.0243
1.9186833908139995 4.7658
1.9409854680117449 4.94968
1.9633050151394713 5.065580000000001
1.9856246367570705 4.92005
2.0079269371922672 4.79901
2.03024671027244 4.4030000000000005
2.0525491637446027 4.72245
2.074869091674931 4.20761
2.097171701569106 4.1685300000000005
2.1194917877373847 4.7665
2.141811954326636 4.75723
2.164114805233074 4.661230000000001
2.186435135143035 5.66156
2.208738150935709 7.95103
2.231058647554722 14.4581
2.2533792288321184 11.7234
2.275682498336085 7.006989999999999
2.298003251406138 5.24226
2.3203066942619714 5.7331
2.3426276225136022 5.1617
2.3649486396617507 5.4252400000000005
2.387252348930071 5.62349
2.4095735463442893 5.575069999999999
2.4318774374315884 5.893669999999999
2.4541988185014043 6.3291900000000005
2.476502894794693 6.550669999999999
2.498824462909887 7.13938
2.521146125856138 6.22511
2.5434504863470337 6.01855
2.5657723414244717 6.87777
2.588076895590662 7.47053
2.610398946189713 8.279060000000001
2.6327210958598384 7.49035
2.6550259469304716 7.40523
2.6773482972090137 7.700019999999999
2.6996533504259 7.2676
2.7219759047039602 7.90384
2.744298562293959 8.00762
2.7666039251246595 7.89721
2.7889267918020164 8.20996
2.8112323652516555 7.98814
2.833555444408179 8.212019999999999
2.8558786311183852 7.93812
2.8781845268938557 8.83339
2.9005079311721484 8.82375
2.9228140460410397 8.40617
2.9451376712799635 9.180480000000001
2.967444008632326 9.286480000000001
2.9897678582247247 9.45186
3.0120918213106695 10.09
3.0343984987899373 10.620999999999999
3.0567226913198637 11.2193
3.079029599759726 11.725999999999999
3.101354025127254 12.4288
3.123678568232338 12.9111
3.145985829517914 13.6491
3.16831061055229 13.8496
3.1906181112775593 13.8627
3.212943133635653 14.5331
3.2352682779763207 14.9087
3.2575761442691227 15.1472
3.2799015350264273 16.1128
3.302209649240067 16.5081
3.3245352898092655 16.4267
3.3468436553365257 16.6558
3.369169549113219 17.5614
3.3914955708171384 18.3238
3.413804319727358 18.8846
3.4361305997334863 18.6081
3.4584396084414553 19.0643
3.4807661501462652 20.2687
3.503092824025881 20.6529
3.5254022288463154 21.0428
3.5477291695206588 21.6023
3.5700388426251948 22.3873
3.5923660534916446 23.0109
3.6146934007816114 30.0109
3.637003482731501 49.8361
3.6593311053109985 55.1069
3.681641464033634 37.3273
3.7039693653009733 26.6024
3.726297407241705 25.548000000000002
3.7486081875460804 25.1637
3.7709365132734978 25.9642
3.793247578841633 26.7682
3.8155761917550093 27.1759
3.8378875459837216 26.9337
3.8602164494827234 27.3722
3.882545499606844 28.5032
3.9048572932539183 28.953000000000003
3.9271866390645718 29.4161
3.9494987298666713 29.9291
3.971828374764527 30.6267
3.9941581705403255 30.6631
4.016470713506008 31.208000000000002
4.038800813471445 31.518
4.061113662089144 32.5734
4.0834440696459176 33.2095
4.105774632334751 33.3777
4.128087945865126 34.1247
4.150418821249301 35.1337
4.172732448931298 35.6966
4.195063640413578 37.5691
4.2173775856475215 39.6474
4.239709096631102 54.1089
4.262040768704612 125.086
4.284355196706267 154.369
4.306687193387355 107.92200000000001
4.329001947444346 57.6585
4.35133427213731 44.7006
4.373666762177566 43.9599
4.395982011761091 44.1277
4.418314834921175 45.3064
4.44063041906622 49.1511
4.4629635787515625 53.6611
4.4852969080429785 55.0098
4.5076130004776225 52.727
4.529946671403969 55.0487
4.552263106909177 57.6827
4.574597122877047 56.2485
4.596931312711224 54.207
4.619248269273446 54.3167
4.6415828092605835 55.2847
4.663900117405352 56.4744
4.686235010953232 57.455
4.708552674085913 58.2961
4.730887924602802 60.1349
4.753223354952695 61.8999
4.775541557023902 65.2425
4.797877349456786 67.8234
4.820195915032126 68.7105
4.842532072957498 68.9049
4.864868414979744 71.4387
4.88718753227192 74.7062
4.909524244902505 76.2523
4.931843734218147 77.3844
4.954180820867835 79.4265
4.976518095879839 82.1866
4.998838149695359 85.3577
5.021175803844231 88.8059
5.043496238205739 92.2384
5.065834274903528 97.3263
5.088172504230693 102.5
5.1104935158799565 109.647
5.132832132875765 128.702
5.155153533596801 160.524
5.1774925416746225 216.655
5.199814334878411 480.977
5.2221537374521505 1267.34
5.244493338631803 3239.73
5.266815727034316 7738.57
5.289155727832427 12291.4
5.311478517248165 8219.74
5.333818921080011 2736.11
5.356159527788849 573.619
5.3784829252032536 202.885
5.400823940070432 154.74200000000002
5.423147747031976 132.616
5.445489173474152 122.258
5.467830807066149 119.35799999999999
5.490155234831516 117.762
5.512497285125229 111.62100000000001
5.534822130975162 106.96600000000001
5.557164601388673 103.51799999999999
5.579489868738879 100.64299999999999
5.601832762690846 99.5149
5.6241758697774475 98.0016
5.646501775867269 97.1857
5.668845311622074 96.7157
5.691171647754637 95.4318
5.713515615597765 94.6658
5.735859800852677 93.6675
5.758186788542988 94.8109
5.780531411018185 97.7902
5.802858837297399 97.9299
5.825203900414495 97.2441
5.8475491852224 100.088
5.869877275883075 100.26299999999999
5.892223006467101 98.1052
5.914551544266608 97.5111
5.936897724049891 101.071
5.959244129804903 109.189
5.981573344815301 145.018
6.0039202049061 276.601
6.026249875609095 556.81
6.04859719346037 1105.27
6.070927323278297 2328.69
6.093275102315365 4369.77
6.115623113320588 5513.24
6.137953938319995 3298.21
6.160302415650845 988.8789999999999
6.182633708324452 236.385
6.2049826554078376 114.76
6.227331838745022 93.1479
6.249663839443684 85.6867
6.27201349767565 81.6837
6.294345974611799 82.679
6.316696111167083 86.1731
6.339046488263839 83.104
6.361379686074702 75.3649
6.383730546639482 71.3562
6.406064229255215 70.0285
6.428415576718203 70.5216
6.450749747566656 69.4268
6.47310158535871 67.2396
6.495453669698332 65.6612
6.517788579421056 64.9767
6.540141159237969 63.7045
6.562476565766648 63.4088
6.5848296444934045 63.0382
6.607182974060425 62.8887
6.6295191323281015 63.0884
6.651872965955752 63.8735
6.6742096296068985 74.2586
6.6965639707294615 94.1392
6.71891856698715 93.6808
6.741255995248479 74.0011
6.763611104154477 62.851000000000006
6.785949046381137 59.6772
6.808304671371482 59.3154
6.8306605557940046 60.7413
6.852999275508618 59.5472
6.875355681171544 58.0478
6.897694923437771 57.1412
6.92005185377892 56.9267
6.9423916220322655 56.5764
6.964749080490181 55.7772
6.987106804399774 55.9178
7.009447368180821 56.2979
7.031805625367033 55.9561
7.054146723727803 55.425
7.076505517631004 55.1595
7.098864581288365 54.9738
7.121206488070854 55.037
7.143566093607822 54.9945
7.165908543567245 55.9955
7.188268694426048 56.2184
7.2106291193438095 55.4685
7.232972390625943 55.843999999999994
7.255333366030969 61.0968
7.277677189091925 83.572
7.300038718428332 102.244
7.322400526130865 91.0035
7.344745183422596 68.9506
7.367107550224791 57.4211
7.389452767901992 55.363
7.411815697249891 54.942
7.434161478756298 53.8605
7.456524974096713 54.1286
7.478888753837185 54.0478
7.501235387657368 54.7036
7.523599738562711 54.512
7.545946944825532 54.7857
7.568311870344528 55.7821
7.5906770845765665 55.55
7.613025156078678 56.0925
7.635390950099687 56.4604
7.657739602662809 56.2155
7.680105979923558 56.3742
7.702472650212829 56.5922
7.724822180948224 56.8531
7.747189439655568 56.7252
7.769539560075357 56.0015
7.791907410653562 56.7974
7.81425812420825 56.9029
7.836626570110925 57.1479
7.858995315087906 57.9013
7.881346924933401 58.141999999999996
7.903716270417482 58.8522
7.926068482028405 58.5498
7.948438431475253 59.3788
7.9708086843180235 60.0279
7.993161805171116 60.828
8.015532667162402 61.2812
8.037886398416653 62.2585
8.060257873014221 63.2229
8.082629655331942 63.6289
8.104984308787587 64.4162
8.127356708900503 66.757
8.149711981398308 70.7959
8.172085002766314 72.7667
8.194458336181368 70.525
8.216814543847752 69.5078
8.23918850371002 70.21600000000001
8.26154533906492 70.8463
8.283919928836452 72.7273
8.306277395339652 73.4457
8.328652618483376 74.7077
8.351028159736202 77.0447
8.373386579575245 79.2928
8.395762759396959 81.4679
8.418121819038275 85.134
8.440498640894003 93.1638
8.462875785192262 107.17399999999999
8.485235811156207 136.34799999999998
8.507613602688501 198.15599999999998
8.529974277114228 291.892
8.552352719347912 437.57800000000003
8.574731488360351 723.307
8.59709314210385 1262.79
8.619472567021075 1910.9
8.64183487789147 2193.5
8.664214962183097 1765.3
8.686577933647762 918.8939999999999
8.708958680784317 353.63699999999994
8.731339760774953 156.83
8.753703729764451 110.65799999999999
8.77608547780821 99.6532
8.798450116065078 96.0942
8.820832535634787 93.37899999999999
8.843215292401656 93.0092
8.865580941199045 92.6662
8.887964374703538 91.6965
8.910330701447199 91.8881
8.932714815164482 91.8757
8.955099270424924 89.7327
8.977466620733543 87.3134
8.999851761421976 86.0027
9.022219798361645 84.8887
9.04460562795561 84.9277
9.066991803441677 84.4841
9.089360876979615 84.9247
9.111747746589993 84.4167
9.13411751544971 83.5645
9.156505082664324 82.8445
9.178875550323522 82.5348
9.20126381862328 82.69
9.223652438908596 82.7193
9.246023961427412 82.9073
9.26841328802173 82.6714
9.290785518039224 83.1208
9.313175554425882 85.1434
9.335565947154315 86.0484
9.357939245086508 86.0705
9.380330352834827 86.0105
9.40270436697103 86.0308
9.425096193225055 85.5437
9.447488380180165 85.7863
9.469863475295412 85.3073
9.492256385987508 85.7993
9.514632206018318 86.1341
9.537025843935714 86.6436
9.559402392368193 87.3633
9.581796761000229 89.7852
9.604191496441521 91.5118
9.626569144158516 93.3536
9.648964615551032 95.551
9.671343000390081 95.7747
9.693739211225699 94.6171
9.716135793237463 93.7776
9.738515290448102 93.8267
9.760912617143402 95.7114
9.783292860202891 97.6918
9.805690935076182 99.6995
9.828089385495742 100.685
9.850470754023561 102.464
9.872869957865444 106.137
9.89525208097539 113.68700000000001
9.917652041736662 122.21799999999999
9.940052382417589 132.217
9.962435644102392 162.382
9.984836746950979 211.48
10.007220771957746 275.534
10.029622640473708 382.417
10.052007432299963 577.528
10.074410069984072 876.7589999999999
10.096813093716005 1284.02
10.119199042482517 1731.26
10.141602840636468 1895.53
10.163989564971628 1506.33
10.186394141051062 835.757
10.208799107559706 364.026
10.231187001965623 175.97299999999998
10.253592751657669 124.64399999999999
10.275981430388155 113.066
10.298387966769793 111.03299999999999
10.320794897965431 111.505
10.343184759907361 110.06200000000001
10.36559248305461 107.10700000000001
10.387983138083852 106.979
10.410391656691655 115.177
10.432800574501677 127.985
10.455192425893369 144.512
10.47760214443012 171.75099999999998
10.499994797678786 219.27599999999998
10.522405320453982 301.441
10.54479877906917 411.296
10.567210109595656 512.862
10.5896218454736 571.664
10.612016518879773 478.74300000000005
10.634429067781074 321.579
10.656824555333241 187.842
10.679237920773568 118.104
10.701651695961992 95.1301
10.724048411481384 89.7445
10.746463008485165 87.27799999999999
10.768860546937125 85.6642
10.791275969274796 83.7604
10.81369180576079 82.928
10.836090585366925 81.7515
10.858507252467449 80.3082
10.88090686379991 79.4948
10.903324365036394 78.8588
10.925724811614439 78.1235
10.948143150509463 79.3118
10.970561909719066 78.3595
10.992963615930844 76.9843
11.015383218085756 75.7146
11.037785768347074 73.9704
11.06020621697282 72.9359
11.082627090322113 72.5401
11.105030913430326 72.0417
11.12745263854165 71.6622
11.149857314510728 72.6281
11.172279894912576 75.0517
11.194702904450653 74.749
11.217108866490921 73.0684
11.239532736615194 70.8197
11.26193956033512 69.9857
11.284364294577085 69.4293
11.306789462371718 68.0699
11.329197585398376 67.3281
11.351623622610898 67.4251
11.37403261614354 66.4387
11.396459526308487 66.3038
11.418869393879497 65.8326
11.441297180532617 65.4445
11.463725406927658 65.1366
11.486136592353875 65.1397
11.508565700543707 65.2508
11.530977768845315 66.0997
11.553407762368774 66.2902
11.575838200059769 65.566
11.598251599479612 64.6657
11.620682927815501 63.8186
11.64309721895548 64.0942
11.665529441478206 63.7043
11.687962112597958 63.2723
11.710377748130886 63.3569
11.732811318753434 63.2331
11.755227854859067 63.3301
11.777662328529495 62.98
11.800079768750786 62.8107
11.822515149015453 62.9137
11.844950984084935 63.2824
11.867369787303163 63.1491
11.889806534289491 62.805
11.912226250487029 62.9856
11.934663912939751 63.2181
11.9571020346363 63.4589
11.979523127133968 63.7608
12.001962169624331 65.3745
12.024384183972964 67.2443
12.046824150809913 70.8304
12.069264581333726 75.773
12.091687985297767 81.5779
12.11412934550045 91.6387
12.136553680195208 106.876
12.158995973632788 130.47299999999998
12.181438735204349 157.209
12.20386447284199 183.988
12.226308172985636 202.93
12.24873485024193 197.27
12.271179492516982 161.173
12.293607112949127 122.16799999999999
12.316052700916226 90.007
12.338498763250042 73.9032
12.360927805303868 67.5792
12.383374818673879 65.4847
12.405804812803074 64.3851
12.428252780773262 64.6045
12.45070122756722 64.4446
12.473132656675375 64.4309
12.49558206341869 65.1792
12.518014453510101 65.2198
12.540464823770117 65.2938
12.562915677315177 65.3665
12.58534951575545 65.6059
12.607801338171472 66.2853
12.630236146511358 68.7942
12.652688941369085 70.9712
12.675124723177234 71.3985
12.697578494048786 70.6172
12.720032754458185 68.584
12.742470003354093 67.7916
12.764925245138771 68.1339
12.787363476431278 68.5427
12.809819703166806 68.979
12.83227642391173 69.6836
12.854716135692716 70.2633
12.877173846755147 71.3056
12.899614549869717 72.0137
12.9220732548287 72.9989
12.94453245827299 73.5797
12.966974655289818 74.5586
12.989434858002571 75.26
13.011878055298721 76.0534
13.034339260862497 76.9287
13.056800969391883 78.1859
13.079245674017244 81.9125
13.101708390774869 86.49799999999999
13.12415410463411 96.0622
13.146617833206086 106.806
13.169064559883248 117.89299999999999
13.191529303857127 133.507
13.213994557076367 158.951
13.236442809902437 198.34099999999998
13.258909083908291 253.433
13.28135835851934 314.801
13.30382565690295 377.06
13.326293469022952 425.64099999999996
13.348744283242008 419.26099999999997
13.371213125129904 346.655
13.39366497011003 249.838
13.416134845360597 164.761
13.438605238843131 121.47200000000001
13.46105863690397 109.915
13.483530069144786 111.448
13.505984506951902 116.676
13.528456981549432 126.95
13.550929978879088 143.175
13.573385983253365 169.11599999999999
13.595860028340867 207.55599999999998
13.618317081455832 256.187
13.64079217790333 309.789
13.663250283359057 350.20599999999996
13.685726434770173 369.404
13.708203115221277 330.774
13.730662806148091 252.907
13.75314054697177 179.65900000000002
13.775601299246777 125.789
13.798080104050406 96.5899
13.820559442405358 85.3956
13.843021793671388 82.104
13.865502201420897 80.7474
13.887965623051947 80.1956
13.910447103807167 79.0625
13.932929122629764 77.9604
13.955394156785959 77.5022
13.977877254034569 76.3807
14.000343367582113 75.4942
14.022827546871707 74.7594
14.045294743423524 74.5424
14.06778000837062 73.6123
14.090265817715476 73.5282
14.112734645763819 72.8292
14.13522154619454 72.5803
14.157691466286913 72.4808
14.180179461423874 72.2914
14.202668005486178 71.8059
14.22513957064374 71.3726
14.247629214846473 71.1261
14.270101881097517 70.8542
14.29259262906496 70.7303
14.315083930490205 70.835
14.337558255389705 70.9162
14.360050666019726 70.7705
14.382526101071944 70.4322
14.405019624534942 69.8417
14.427513705993134 69.3404
14.449990813291825 69.4148
14.47248601302899 69.1135
14.49496423954951 69.248
14.517460561197822 69.6805
14.539939910570322 69.3639
14.562437357763558 69.6452
14.58493536931253 70.35300000000001
14.607416409993311 70.6088
14.62991555254159 71.0617
14.652397725157423 71.2336
14.674898002342799 71.2838
14.697398848433282 71.4909
14.719882725991326 73.0056
14.74238471217934 75.1795
14.764869730765593 78.9585
14.787372860692983 82.1026
14.809876564079925 86.6581
14.83236330125751 92.7421
14.854868153850365 102.04899999999999
14.877356041159485 116.76799999999999
14.899862046604186 135.668
14.922351087688757 159.66899999999998
14.944858249632887 185.209
14.967365991421232 210.877
14.989856770231246 220.75099999999998
15.012365673994204 211.93099999999998
15.03485761569738 182.24400000000003
15.05736768508665 143.35
15.07987833888692 110.454
15.102372032001655 88.3688
15.124883856909658 76.5564
15.14737872204565 72.6728
15.169891721717274 71.1034
15.192405310371893 70.5967
15.214901940621196 70.5228
15.237416709527137 70.1163
15.259914520936249 70.1005
15.282430473753607 69.1889
15.304947020131227 68.6048
15.327446610371178 68.0499
15.349964346154254 67.4223
15.372465126703139 67.225
15.394984055556009 67.1995
15.417486030076159 66.9601
15.44000615566487 66.6454
15.462526881230803 66.652
15.485030653812652 66.6121
15.507552581617434 66.4938
15.530057557334603 66.4771
15.55258069104857 66.355
15.575104429329837 66.7235
15.597611216864632 66.6731
15.620136166564563 67.3884
15.6426441664095 69.3965
15.665170331202765 72.2518
15.687697105158826 75.0281
15.710206930593545 78.4153
15.732734925158933 82.8142
15.755245972089478 89.9562
15.77777519094324 99.6945
15.800287463046663 113.40799999999999
15.822817909869592 131.838
15.84534897229804 152.506
15.867863089299354 174.114
15.890395385222186 189.817
15.912910736597423 192.64700000000002
15.935444269699861 179.377
15.957978423016485 149.83
15.980495633101265 118.124
16.003031029129367 92.6784
16.02554948280019 74.9596
16.048086125229432 66.9528
16.070623392487107 64.3248
16.09314371869582 63.722
16.11568223789321 62.7301
16.13820381691126 61.9791
16.160743591742527 61.2854
16.183283996022084 60.5874
16.205807461423195 59.721000000000004
16.228349126881973 59.2729
16.25087385432698 59.1938
16.27341678466365 58.4904
16.29594277784926 58.5628
16.31848697676433 58.4287
16.341031811604868 58.0699
16.36355971058487 58.0847
16.3861058195587 57.9857
16.40863499352978 57.1246
16.431182380342005 56.6726
16.453730407713202 56.3653
16.476261501364792 56.1572
16.498810812136167 55.8792
16.52134319004079 55.9694
16.54389378792203 55.8427
16.566445031001553 55.7999
16.588979342490088 55.6075
16.61153187824822 55.4479
16.634067483263312 55.1707
16.656621315414416 55.1607
16.679175797408888 54.8509
16.701713349928728 54.7453
16.72426913389191 55.1909
16.74680798922351 55.11
16.76936507887444 55.2588
16.791905240734874 55.0897
16.814463639794468 55.1812
16.837022695210294 55.1082
16.859564824093756 55.4797
16.882125194503903 55.8081
16.904668639217885 56.0496
16.927230328348003 55.9512
16.949792678493612 56.0623
16.972338104193863 55.9672
16.994901778652235 55.799
17.017448529496576 56.0503
17.040013531998152 56.5316
17.06257920018044 57.1229
17.0851279459922 57.9289
17.107694947817667 58.7598
17.130245028099072 59.5353
17.15281336730298 60.8893
17.17536478578733 62.7699
17.19793446610687 65.1406
17.220504818648422 68.0524
17.243058251703697 71.205
17.265629950971032 75.4982
17.288184731571736 79.1905
17.310757781306908 82.9906
17.33333150794385 84.5974
17.355888317140174 82.2854
17.37846339986244 77.509
17.401021565958885 70.9372
17.42359800851343 65.6866
17.44617513265564 62.3311
17.468735341390783 60.7165
17.491261035594565 59.7958
17.51396340099364 59.5411
17.536490463869136 59.7212
17.559018209820174 59.5593
17.58154663977963 59.6526
17.604251766089718 59.9103
17.626781572227713 59.9417
17.64931206518155 60.3612
17.671843245885103 60.8157
17.69455114821572 61.0342
17.717083712612634 61.2779
17.739616967569667 61.6498
17.762150914021706 62.1687
17.78486160749854 62.309
17.807396945166804 63.3912
17.829932977143503 64.7021
17.85246970436452 66.4594
17.875183204129467 68.0882
17.897721330097664 70.0363
17.920260154126645 72.5175
17.942799677153296 75.8666
17.9655159983646 79.9832
17.988056927677544 85.7626
18.010598558807683 93.6188
18.033140892692916 103.436
18.05586005052525 113.11399999999999
18.07840379824407 124.23299999999999
18.10094825154059 134.167
18.12366954819864 140.936
18.146215420998306 141.092
18.16876200220057 131.38299999999998
18.191309292745153 116.014
18.214033452627167 102.223
18.236582170236648 91.7426
18.259131600016456 87.1858
18.281681742907335 88.0102
18.304408781233683 92.193
18.32696035875955 96.7135
18.349512652227624 101.149
18.372065662579683 105.325
18.394795594587553 106.041
18.41735004715306 102.458
18.43990521943684 95.0773
18.46246111238171 85.7868
18.485193953325208 76.4822
18.507751296070428 69.5811
18.530309362314178 65.9189
18.552868153000343 63.6968
18.57560391815056 62.3914
18.59816416623245 62.1115
18.620725141597372 61.6368
18.643286845190268 61.2116
18.666025549835414 60.5603
18.688588718427933 59.9758
18.711152618092243 60.0958
18.73389353884365 59.9274
18.75645890921984 59.418
18.77902501351406 58.9784
18.801591852673102 58.8792
18.824335739722738 58.4975
18.846904057212626 58.4734
18.8694731124168 58.1245
18.89204290628315 58.2215
18.914789774966803 58.0754
18.937361054791623 57.8039
18.959933076131318 57.4843
18.982505839934877 57.1397
19.00525570560582 57.4578
19.027829963004184 57.2467
19.05040496572238 57.3333
19.072980714710468 57.6832
19.095733592739563 57.6412
19.11831084296757 57.7613
19.140888842324735 58.474
19.16346759176222 58.4944
19.18622349753803 58.8666
19.208803755869358 60.0914
19.231384767143577 61.0813
19.253966532312948 62.9607
19.276725481241822 65.18
19.29930876296784 67.32300000000001
19.3218928014549 70.1403
19.34465404436217 72.773
19.36723960516257 75.1596
19.389825925592426 76.1283
19.412413006605938 75.208
19.43517731967805 71.7978
19.457765930683355 67.2628
19.48035530514408 62.9558
19.50294544401556 59.1129
19.525712842708348 56.6777
19.54830451925909 55.4663
19.570896963095727 54.5933
19.593490175174704 54.3105
19.616260674962184 54.401
19.638855432416964 54.0004
19.661450960992624 54.2783
19.68404726164677 53.9137
19.706820878021247 53.6974
19.729418731756834 53.9861
19.752017360452857 53.6054
19.77461676506804 54.1719
19.797393513540218 54.321999999999996
19.819994478951667 54.5806
19.84259622316767 55.1009
19.8651987471481 55.3104
19.887978643247177 55.7193
19.91058273574792 56.1027
19.933187610901943 56.9989
19.955969879466828 58.1996
19.97857632894404 59.6988
20.00118356396599 61.4607
20.023791585494575 63.5665
20.046577028914875 65.9045
20.069186632506966 68.058
20.091797025500632 69.6483
20.114408208858933 70.3346
20.137196842715273 69.7498
20.159809615886765 68.0548
20.18242318232135 65.5832
20.20503754298326 63.6842
20.227829382875154 62.5857
20.250445341109344 62.6885
20.27306209647285 63.113
20.29567964993108 64.2634
20.31847471147704 65.2562
20.34109387027612 65.8965
20.363713830075454 65.383
20.386334591841646 63.8314
20.409132890679302 61.1472
20.431755265564437 58.2312
20.454378445325528 55.3776
20.477002430930366 53.3398
20.499803982716553 52.2724
20.522429589228004 51.6015
20.54505600449589 51.2037
20.567683229489194 50.864
20.590488049900088 50.7089
20.61311690359731 50.608000000000004
20.63574656993626 50.3402
20.658553853717297 50.0758
20.681185154618298 50.0674
20.703817271080066 49.8717
20.72645020407368 49.3637
20.749260783967177 49.1564
20.771895359337133 49.3649
20.794530754161617 49.324
20.817166969412938 49.2832
20.83998086114876 49.1031
20.86261872660049 49.0656
20.885257415405402 49.0482
20.90789692853701 49.1369
20.930714147864748 49.1388
20.953355319030678 49.0604
20.97599731745334 49.2341
20.99864014410749 48.9247
21.021460706796564 49.0598
21.044105199328826 49.2907
21.06675052302631 49.3608
21.089396678865015 49.5664
21.112220600704806 49.9652
21.134868430275347 50.4489
21.15751709492456 50.6372
21.180166595629693 50.6351
21.202993892429635 51.0888
21.22564507473034 51.6443
21.24829709602816 51.7307
21.27112693608965 51.7281
21.293780644891275 51.8144
21.316435195634053 51.0303
21.339090589297417 50.1955
21.361923832041875 49.8445
21.384580921090404 49.1512
21.407238856007325 48.7311
21.429897637773326 48.8803
21.45273429906592 48.9053
21.475394784108598 48.7597
21.498056118951983 48.6826
21.520718304578022 49.0659
21.543558400304388 49.3749
21.566222297108816 49.5654
21.58888704765135 49.7034
21.61155265291521 49.858000000000004
21.63439619898156 50.3573
21.657063523335786 50.61
21.67973170537063 51.0449
21.7024007460706 51.6549
21.72524775840385 52.3752
21.747918526116475 53.4526
21.770590155457388 54.8375
21.79326264741238 56.4343
21.816113141960237 57.9839
21.838787368860547 59.8149
21.861462461341976 61.3167
21.884315579735777 63.1901
21.90699241312273 64.4355
21.92967011506078 65.0581
21.95234868653799 64.6458
21.9752053151131 63.3329
21.997885635446785 61.5325
22.020566828293532 59.5497
22.04324889464272 57.8317
22.066109049404666 56.6107
22.088792872571794 56.3899
22.111477572219204 56.3471
22.1341631493376 56.5066
22.157026846313123 56.3925
22.179714188221507 55.2812
22.202402410582668 54.4596
22.22509151438863 52.8061
22.24795876962584 51.4878
22.270649646204486 50.5211
22.293341407213727 49.9474
22.316034053646906 49.5767
22.338904883215342 49.3295
22.36159931041458 49.4138
22.38429462602756 49.1579
22.40699083104897 48.93899999999999
22.429865251039757 48.9912
22.452563244831367 49.0893
22.47526213102522 49.0209
22.49813925616515 48.9896
22.520839937143307 49.0048
22.543541513520587 49.0014
22.56624398629403 48.913000000000004
22.589124730075895 48.9696
22.611829005656723 49.2473
22.63453418063466 49.1653
22.657240256008077 49.402
22.680124634582935 49.4543
22.70283252079775 49.8253
22.725541310413075 50.1552
22.74825100442868 50.3405
22.771139033969575 50.8851
22.79385054687155 50.8915
22.81656296718292 51.5805
22.83927629590484 52.5803
22.862167992606945 53.456
22.88488314827121 54.4904
22.907599215359284 55.7236
22.93031619487366 56.5975
22.953211574954405 57.3588
22.975930389478226 58.1628
22.998650119445763 58.2779
23.02137076586092 57.4308
23.044269845560063 56.0386
23.06699233506288 54.4106
23.089715744034912 52.5634
23.112617610931565 51.2238
23.135342869061212 50.0875
23.158069049684816 49.5238
23.1807961538087 49.0311
23.20370174880544 49.3246
23.226430710184808 49.2619
23.249160598093425 49.2912
23.271891413539002 49.3303
23.294800752937697 49.3903
23.31753343374794 49.5104
23.340267045128353 49.5998
23.36300158808808 50.0553
23.38591468821339 50.416000000000004
23.408651104658304 50.7997
23.431388455719986 51.4336
23.454126742409 52.4334
23.4770436196085 53.4661
23.499783787914662 54.6025
23.522524894889884 55.3865
23.54526694154616 56.2128
23.56818761219047 57.3376
23.59093154860734 57.8407
23.613676427751283 58.0873
23.636422250635754 57.0181
23.659346731118656 55.4357
23.68209445191868 53.4236
23.704843119509587 51.5013
23.72759273490623 49.5113
23.750521041644767 48.3265
23.77327256312355 47.3629
23.796025035462787 46.8211
23.818956224555475 46.349
23.841710609113413 46.3062
23.86446594758979 45.903999999999996
23.887222241002014 45.8313
23.910157285144578 45.4702
23.932915498962537 45.5832
23.955674670778713 45.3838
23.978434801611975 45.0798
24.001373717286125 45.0671
24.024135776723917 44.931000000000004
24.046898798245582 44.6996
24.06966278287146 44.7167
24.092605586582614 44.5493
24.115371508023642 44.2754
24.1381383956401 44.0737
24.16090625045381 44.20399999999999
24.183852958731244 44.133
24.206622758582608 43.9614
24.229393528706886 43.8522
24.252165270127392 43.9103
24.27511589952438 43.8418
24.297889594216997 43.7752
24.32066426328598 43.5991
24.34343990775613 43.567
24.36639447485003 43.5006
24.38917208083877 43.391999999999996
24.41195066531332 43.4019
24.43490819850244 43.3929
24.457688750692377 43.2199
24.48047028445616 43.1245
24.503252800821233 43.3431
24.526214300784112 43.4407
24.548998793132213 43.282
24.57178427117417 43.233000000000004
24.59457073593893 43.2565
24.617536219319863 43.2262
24.64032466834748 43.3219
24.663114107195035 43.0361
24.685904536893013 42.8152
24.708874020360852 42.7831
24.731666442613744 42.646
24.754459858818787 42.577
24.777254270007962 42.4858
24.80022777025625 42.5572
24.82302418230472 42.556999999999995
24.845821592443674 42.5089
24.86862000170663 42.5074
24.891597535453727 42.2806
24.914397953892728 42.6833
24.93719937456671 42.635
24.96000179851076 42.6612
24.98298338249997 42.9122
25.00578782394922 43.076
25.028593271784167 43.2268
25.05157790644186 43.5417
25.07438537804115 43.6795
25.097193859145293 43.8454
25.120003350792075 44.2015
25.142992065061257 44.521
25.165803588823465 44.8
25.18861612625217 44.882
25.211429678386736 44.8408
25.234422489079968 45.07899999999999
25.257238081693636 45.1183
25.280054692141732 45.2297
25.3028723214652 45.1829
25.325869245420463 45.2232
25.348688923599397 45.1892
25.371509623787006 45.1684
25.394331347025812 44.8479
25.41733240110666 44.4249
25.440156181590016 43.657
25.46298098826268 43.0322
25.48580682216873 42.5011
25.50881202326435 41.876000000000005
25.53163992281684 41.6383
25.55446885274561 41.4122
25.577298814096377 41.158
25.600308179121807 41.1068
25.623140214533745 41.1182
25.64597328451537 40.9537
25.66898578564376 40.9422
25.691820936010206 40.9288
25.714657124097695 40.7936
25.737494350954734 40.7161
25.760511045684957 40.5804
25.783350361364224 40.797
25.806190718969255 40.7965
25.82903211955018 40.8107
25.852053024868923 40.9554
25.874896522722523 41.0161
25.897741066713106 40.823
25.920586657892454 41.101000000000006
25.943611790812668 41.3226
25.966459487728237 41.4294
25.989308234998564 41.3023
26.01215803367705 41.6655
26.03518741123814 41.7643
26.05803932412957 41.8415
26.080892291600094 41.715
26.10374631470478 41.7844
26.12677995397268 41.9796
26.14963609978026 41.9122
26.172493304397875 41.5711
26.19535156888223 41.5191
26.218389486949604 41.0723
26.241249882640123 40.6962
26.26411134137826 40.5395
26.28715248187403 40.6745
26.31001607820869 40.3216
26.3328807407756 40.2089
26.35574647063438 40.3352
26.37879191991473 40.3394
26.401659795896734 40.4884
26.424528742360263 40.5982
26.447398760366614 40.7866
26.470448535598294 40.9338
26.49332070826805 40.9461
26.516193955675355 41.5128
26.53906827888316 41.669
26.562122397260108 41.7325
26.584998883685063 41.9731
26.607876449110325 42.0955
26.63075509460056 42.4491
26.65381357334404 42.5006
26.67669439061878 42.4338
26.699576291163382 42.4238
26.722459276044212 42.1747
26.745522132402975 41.7993
26.768407297649354 41.6392
26.791293550442003 41.3392
26.814180891848974 40.9761
26.837248143099337 40.6022
26.860137673466657 40.6452
26.88302829566349 40.4255
26.90592001075963 40.2995
26.92899167420566 40.1422
26.951885586870763 39.7022
26.974780595655517 39.568000000000005
26.99785558178161 39.4713
27.020752794605112 39.39
27.043651106772522 39.1871
27.06655051935668 39.0893
27.089629948036183 39.0636
27.112531573292053 39.0396
27.135434302194138 39.175
27.158338135817015 38.7812
27.181422024430987 38.8385
27.204328079372566 38.7289
27.22723524226965 38.6451
27.250143514198573 38.7994
27.273231880156334 38.7653
27.296142382065014 38.6939
27.319053996245536 38.6297
27.341966723775965 38.6106
27.365059584515222 38.7771
27.38797455070062 38.7501
27.410890633481237 38.6659
27.433807833936918 38.7367
27.456905206923906 38.7905
27.47982465472398 38.8948
27.502745223449743 38.8419
27.525666914182825 38.8261
27.548768816912457 38.8929
27.571692763693633 38.7862
27.59461783573812 38.5709
27.617723149491244 38.4132
27.640650484125285 38.3194
27.66357894728264 38.4728
27.686508540048052 38.3906
27.709618414237887 38.3195
27.732550278321757 38.1194
27.755483275279115 38.0464
27.778417406196485 38.2998
27.801531858397514 38.2658
27.824468269376716 38.0582
27.847405817586786 38.0102
27.870344504116094 38.3714
27.893463551932008 38.3764
27.916404527281053 38.5555
27.93934664422563 38.6139
27.962289903855886 38.6532
27.98541356491974 38.9617
28.00835912214229 39.0369
28.03130582533231 39.2786
28.054253675581805 39.3417
28.077381967556104 39.2493
28.100332124185126 39.2619
28.123283431160893 39.1158
28.146235889577238 39.0531
28.169368830154156 38.7565
28.192323603752033 38.6629
28.215279532083304 38.3579
28.238415973016764 38.1388
28.261374223145094 37.9593
28.284333631303806 37.8216
28.307294198589954 37.8073
28.330435319167677 37.3824
28.353398217078915 37.043
28.376362277420153 36.986999999999995
28.39932750129032 36.8191
28.422473319286713 36.6768
28.44544088262495 36.699
28.468409612800283 36.4398
28.491379510913497 36.2848
28.51453004413313 36.2654
28.53750229057244 36.18
28.56047570826344 36.1059
28.583450298308804 36.1016
28.606605564586562 35.9276
28.629582511831156 35.9695
28.65256063474956 35.8509
28.675539934446338 35.8843
28.698699951647605 35.8585
28.72168161743193 35.7115
28.74466446331978 35.8124
28.767648490417624 35.6929
28.790813276438353 35.5489
28.813799678527303 35.6518
28.836787265157085 35.6263
28.859955641890075 35.5916
28.882945610203045 35.6365
28.905936766392035 35.4603
28.928929111566863 35.5242
28.952102288520145 35.5066
28.975097024308607 35.387
28.998092952423807 35.2687
29.021090073977508 35.2333
29.04426806913204 35.082
29.067267590245258 34.8048
29.090268308143695 34.7557
29.11327022394099 34.8098
29.13645305530891 34.5916
29.159457379627167 34.6148
29.18246290519685 34.7235
29.20546963313352 34.6125
29.22865731875826 34.5803
29.25166646419296 34.5168
29.27467681535305 34.4348
29.29768837335608 34.5974
29.320880931312562 34.4961
29.34389491580634 34.4943
29.366910110507334 34.4175
29.38992651653503 34.3912
29.41312396492981 34.5505
29.436142806456754 34.4165
29.45916286268059 34.2247
29.48236399319994 34.1479
29.50538649169417 34.0303
29.528410208259935 33.9408
29.55143514402014 33.7428
29.574641196749695 33.6711
29.597668583816574 33.5075
29.6206971934585 33.236999999999995
29.64372702680042 33.3297
29.666938019934474 33.2165
29.689970313635285 33.1084
29.713003834422636 33.2459
29.73603858342347 33.2557
29.759254535188578 33.0951
29.78229175361658 33.015
29.80533020365064 33.0924
29.82836988641968 33.0786
29.85159081507472 33.0432
29.874632976355343 32.9301
29.89767637376955 32.8972
29.920721008448314 32.7321
29.9439469322847 32.7603
29.96699405457564 32.7108
29.9900424175358 32.7975
30.013092022298157 32.7382
30.03632295963995 32.7168
30.059375061131373 32.7565
30.08242840783577 32.733000000000004
30.105483000888153 32.7194
30.128718970092244 32.6146
30.151776069006917 32.6391
30.17483441768648 32.6256
30.198074175317235 32.5944
30.221135036724256 32.7444
30.24419715131772 32.5847
30.267260520236203 32.4875
30.290505341942243 32.5451
30.313571232750228 32.5237
30.336638381310948 32.6216
30.35970678876503 32.489000000000004
30.38295669299435 32.3904
30.40602763151657 32.3781
30.429099832366074 32.4309
30.452173296685572 32.3107
30.47542830191959 32.2834
30.498504306502497 32.2451
30.521581577995562 32.4158
30.544660117543582 32.4375
30.56792024229725 32.3575
30.59100133132069 32.383
30.614083691845494 32.3242
30.637167325018545 32.3844
30.660432587840603 32.4888
30.683518779717886 32.3899
30.70660624769615 32.4864
30.729694992924372 32.4119
30.75296541239743 32.4513
30.77605672557558 32.3275
30.799149319462742 32.1729
30.8224236211637 32.1545
30.845518789950724 32.1026
30.868615242910597 32.0952
30.891712981195973 31.9028
30.91499247215866 31.8244
30.938092794619365 31.8885
30.96119440587579 31.7632
30.984297307082752 31.6207
31.00758200598383 31.421
31.030687500658694 31.4676
31.053794288760695 31.3874
31.076902371446767 31.2601
31.100192296997445 31.3595
31.12330298246119 31.3395
31.14641496599209 31.1018
31.169528248749216 31.2063
31.19282341969534 31.1628
31.215939314557186 31.1323
31.239056512134788 31.2574
31.262175013589378 31.2221
31.28547544871168 31.0738
31.30859657161541 31.0401
31.331719001892175 31.1069
31.35484274070538 31.189
31.378148458819545 31.129
31.401274828443725 31.0664
31.424402510106933 31.2059
31.447712205419993 31.2549
31.470842524931633 31.0945
31.493974159989783 30.9869
31.51710711176168 31.1096
31.54042212308802 31.0157
31.563557722100917 30.9754
31.586694641341655 30.8483
31.609832881979628 30.7088
31.63315322823208 30.6759
31.656294125521327 30.5619
31.679436347728515 30.4576
31.70257989602529 30.4609
31.725905596152327 30.4063
31.74905181052835 30.3384
31.772199354521323 30.4608
31.79534822930507 30.4045
31.818679302290967 30.3335
31.84183085259981 30.4162
31.864983737233473 30.3611
31.88813795736804 30.3921
31.911474422233013 30.2916
31.934631327356435 30.3234
31.9577895715215 30.2858
31.980949155906522 30.2033
32.004291031706956 30.246
32.027453310562606 30.0545
32.05061693318573 29.8728
32.07396288236386 30.0228
32.09712920658542 30.0011
32.12029687812702 29.7664
32.14346589817093 29.7672
32.166817291729984 29.715
32.18998902288583 29.5519
32.21316210610336 29.6104
32.23633654256711 29.4888
32.259693399663725 29.4605
32.282870556771144 29.4404
32.30604907069099 29.4353
32.329228942610065 29.2467
32.35259128243769 29.1114
32.375773884550505 29.0148
32.398957848235646 29.1798
32.422143174682176 29.0708
32.445511016471215 28.9092
32.468699082679954 28.9676
32.49188851523011 28.9165
32.51507931531304 28.8633
32.538452678331 28.9396
32.56164622776311 28.7807
32.58484114831493 28.6625
32.60803744118015 28.6616
32.631416344731896 28.6143
32.654615396551876 28.647
32.67781582427913 28.6437
32.701198898634416 28.4812
32.72440209253756 28.5075
32.747606665947124 28.4481
32.77081262006088 28.3174
32.79420126883317 28.4451
32.81740999876112 28.4172
32.840620112999424 28.1578
32.86383161274818 28.1732
32.88722585534586 28.2249
32.91044014056596 28.2204
32.933655814909734 28.1483
32.95687287957963 28.1739
32.98027273544904 28.1431
33.00349259526636 28.0925
33.026713849030116 28.0899
33.04993649794511 28.0133
33.073341986570746 28.0326
33.09656744032826 27.9314
33.11979429286444 27.9936
33.14302254538647 27.9493
33.166433686291185 27.8839
33.18966475336992 27.8228
33.212897224069096 27.7537
33.23613109959831 27.842
33.259547912343415 27.7178
33.2827846121627 27.7385
33.306022720453775 27.5872
33.32926223842861 27.4729
33.352684742614166 27.6386
33.37592709463173 27.5593
33.399170859982064 27.5086
33.422597648419426 27.3948
33.44584425514446 27.3524
33.46909227885668 27.3931
33.4923417207723 27.2003
33.51577423505344 27.2036
33.539026528130385 27.0668
33.56228024307245 27.0571
33.585535381098246 26.9986
33.60897364093058 27.0042
33.63223163992385 26.982
33.6554910656699 26.8527
33.678751919389796 26.8752
33.702195944520106 26.7598
33.72545966903325 26.7548
33.74872482519663 26.6928
33.771991414233746 26.6746
33.79544122444841 26.6213
33.81871069412428 26.5955
33.84198160035767 26.5068
33.86525394437455 26.5872
33.88870955949969 26.5514
33.911984794020626 26.5128
33.93526147001624 26.4583
33.958539588715006 26.3338
33.98200102861669 26.2363
34.0052820477047 26.2268
34.02856451319451 26.3
34.05203033759056 26.1547
34.07531571090147 26.1222
34.09860253431845 26.1742
34.121890809074316 26.0341
34.145362493118924 26.0668
34.16865368561615 25.9945
34.191946333164054 25.9643
34.21524043699793 25.9823
34.23871800066799 25.9558
34.26201503218366 25.8519
34.28531352370466 25.9061
34.30861347646881 25.7666
34.33209693978188 25.704
34.3553998301885 25.6397
34.378704185565205 25.578000000000003
34.402010007152356 25.5236
34.42549939016683 25.4953
34.44880815937748 25.4646
34.472118398533134 25.4619
34.49543010887669 25.4011
34.51892543169198 25.3479
34.54224009966052 25.2973
34.56555624255917 25.3084
34.58887386163339 25.268
34.61237514439016 25.1735
34.6356957311114 25.1
34.65901779775809 25.1686
34.68252356662995 25.0877
34.705848608458616 25.1247
34.72917513396849 25.0656
34.75250314440949 24.982
34.77601490857862 24.9333
34.799345904259795 24.8908
34.82267838863559 24.8295
34.846012362958525 24.7712
34.869530142679984 24.7829
34.89286711232212 24.7183
34.91620557568269 24.7319
34.93954553401677 24.72
34.9630693495876 24.6346
34.986412313340814 24.6344
35.00975677584668 24.6248
35.033102738362956 24.5884
35.05663261012228 24.5153
35.0799815881786 24.5475
35.10333207003229 24.4378
35.12668405694369 24.4792
35.150220005273056 24.3891
35.17357501786656 24.3807
35.19693153931268 24.3598
35.220289570874385 24.2787
35.24383161619786 24.2701
35.267192683604904 24.283
35.290555264930376 24.1666
35.314101899412165 24.2035
35.33746752422433 24.2732
35.36083466676374 24.124000000000002
35.38420332829803 24.1653
35.407756095629054 24.2109
35.43112781085063 24.1625
35.45450104888391 24.1561
35.477875810999194 24.0839
35.50143473172161 24.0418
35.52481255774625 24.1358
35.54819191167777 23.9755
35.57157279478914 23.9937
35.595137889488406 24.0205
35.61852184675279 23.8533
35.641907337029984 23.7541
35.665294361595684 23.7905
35.68886565090076 23.7243
35.7122557598848 23.6742
35.73564740699838 23.7098
35.759040593519934 23.5609
35.78261809810353 23.5272
35.80601437933051 23.5109
35.829412203814705 23.3289
35.85281157283719 23.3606
35.876395313415884 23.415
35.8997977874528 23.3403
35.92320180988546 23.3104
35.946790244133936 23.3567
35.97019737933222 23.3344
35.993606066789866 23.2831
36.01701630779276 23.2224
36.04061101440684 23.1175
36.06402437852291 23.1354
36.08743930005611 23.1227
36.1108557802951 23.0577
36.13445678011326 22.995
36.15787639383515 22.9945
36.18129757014299 23.0562
36.20472031032821 22.9839
36.22832762423364 22.8761
36.25175350829375 22.9215
36.275180960119776 22.7924
36.298609981005924 22.8602
36.32222362992669 22.8345
36.34565580510207 22.7257
36.36908955323448 22.6457
36.39252487562093 22.5846
36.416144880530226 22.601
36.43958336764275 22.5729
36.463023432914625 22.5923
36.486465077645676 22.4932
36.51009145956204 22.5512
36.53353627947859 22.4858
36.55698268276811 22.5211
36.58043067073321 22.4197
36.60406345072071 22.3247
36.62751462435344 22.3466
36.65096738658405 22.3236
36.67460498210655 22.3213
36.69806093788647 22.2526
36.72151848619297 22.1167
36.744977628333636 22.1348
36.76862165890998 22.0816
36.79208400512205 22.0861
36.81554794910557 22.1009
36.83901349217101 22.0083
36.862663978991606 21.9368
36.88613273667352 22.0001
36.90960309738324 21.9021
36.933075062434064 21.8431
36.95673202673572 21.7893
36.98020721697122 21.7912
37.003684015502365 21.730999999999998
37.027162423645365 21.7355
37.050825886711465 21.6564
37.07430753063053 21.6296
37.09779078812467 21.609
37.121275660513014 21.5884
37.144945643673694 21.6066
37.16843376245278 21.5481
37.19192350009803 21.51
37.215414857931435 21.4435
37.239091382563885 21.4133
37.262585997426164 21.3904
37.28608223645736 21.3699
37.309763684451696 21.2864
37.33326318851098 21.2967
37.356764320726555 21.2527
37.380267082425526 21.2458
37.40395510942588 21.2848
37.42746114683234 21.1587
37.45096881771841 21.1448
37.474478123414166 21.0892
37.49817275092816 21.0982
37.52168534303452 21.0899
37.54519957395567 20.9713
37.568715445024665 20.9616
37.592416694607714 20.9556
37.61593586281424 20.9031
37.63945667518264 20.9485
37.66297913304891 20.8608
37.68668702630454 20.8282
37.710212792059274 20.7103
37.733740207334854 20.684
37.757269273470364 20.6818
37.780983832050374 20.6371
37.80451621684926 20.596999999999998
37.82805025654007 20.6113
37.851585952464795 20.5802
37.8753071980695 20.5055
37.89884622345676 20.4954
37.92238690911902 20.4579
37.94611318753442 20.4411
37.969657210779765 20.3973
37.99320289834801 20.3442
38.016750251586465 20.3037
38.04048325513017 20.2924
38.06403395679343 20.2449
38.087586328183946 20.2358
38.11114037065203 20.1469
38.13488012115898 20.2194
38.1584375229181 20.0908
38.181996599821 20.0427
38.205557353221124 20.0835
38.229303872575656 20.0693
38.2528679961576 20.0742
38.27643380031219 19.9417
38.30000128639589 19.8879
38.32375459653193 19.8968
38.34732546371299 19.9427
38.37089801690786 19.8312
38.39447225747609 19.7644
38.418232380377425 19.7327
38.441810012983396 19.8414
38.46538933705673 19.8058
38.488970353960084 19.7035
38.51273731166058 19.6212
38.536321731567014 19.6082
38.55990784840681 19.6106
38.58367995004091 19.5585
38.60726947812959 19.483
38.63086070726198 19.509
38.654453638806274 19.4712
38.678232613930824 19.348
38.70182896773327 19.3417
38.72542702806741 19.333
38.7490267963045 19.3547
38.77281266709232 19.3452
38.79641586862214 19.2499
38.8200207821842 19.2628
38.843627409152944 19.2956
38.86742019782782 19.2282
38.891030269149255 19.1243
38.914642058016156 19.0705
38.938255565806124 19.0903
38.96205529464307 19.0414
38.98567225787121 19.0863
39.00929094417078 19.0212
39.03291135492255 19.0229
39.05671804624804 18.9425
39.080341923549106 18.9099
39.103967529460334 18.9446
39.127594865365744 18.9003
39.15140854155791 18.8379
39.17503935514948 18.7999
39.19867190290282 18.8234
39.22249083587951 18.7278
39.24612686969409 18.7241
39.269764641845306 18.7324
39.293404153722804 18.6498
39.317230110864074 18.573
39.34087311998506 18.5562
39.36451787301696 18.5638
39.388164371352595 18.4899
39.41199737518003 18.4793
39.43564738196752 18.4766
39.45929913825317 18.4155
39.48295264543308 18.3936
39.506792718520884 18.3789
39.530449745387216 18.3701
39.55410852735203 18.2872
39.57776906581474 18.31
39.60161623079 18.2661
39.625280300200025 18.2301
39.64894613032202 18.1931
39.67261372255866 18.3024
39.6964680021016 18.185
39.72013913657293 18.1642
39.74381203738292 18.107
39.76748670593756 18.117
39.79134812278169 18.0884
39.81502634488497 18.0237
39.83870633896685 18.0001
39.862388106436654 18.0074
39.88625668336918 17.8657
39.90994201572829 17.8843
39.933629125719285 17.8912
39.957503091207826 17.7883
39.9811937746168 17.8701
40.00488623990914 17.8687
40.02858048850006 17.7624
40.05246165409549 17.7342
40.076159487492085 17.6262
40.099859108448875 17.643
40.123560518384345 17.6165
40.1474489070226 17.6353
40.171153913178564 17.5376
40.194860712584955 17.5297
40.2185693066637 17.5312
40.242464941335314 17.4109
40.26617714307655 17.4494
40.289891143772046 17.4862
40.3136069448471 17.4007
40.33750984859743 17.3711
40.3612292688043 17.3839
40.3849504936829 17.3644
40.40867352466194 17.3574
40.43258372059144 17.29
40.45631038219906 17.2653
40.48003885420956 17.1982
40.503769138055105 17.2343
40.52768664931955 17.1859
40.55142057531802 17.1451
40.57515631746428 17.0996
40.599079334038514 17.0894
40.62281872700477 17.0567
40.64655994043941 16.9991
40.67030297578061 17.0369
40.69423334835778 16.9894
40.71798004609188 16.9105
40.74172857006355 16.9809
40.76547892171441 16.9286
40.7894166736039 16.8703
40.813170699248566 16.8199
40.83692655691388 16.7492
40.86068424804498 16.7814
40.884629402612525 16.7624
40.908390779366385 16.7147
40.932153993938 16.6895
40.95591904777605 16.6696
40.979871628443995 16.7039
41.003640379561936 16.7163
41.02741097430883 16.6451
41.05118341413683 16.6091
41.075143444384416 16.5559
41.098919593177826 16.5187
41.1226975914255 16.518
41.14647744058318 16.495
41.170444943946755 16.4793
41.19422851378379 16.4276
41.218013938914645 16.3567
41.24198706625173 16.288
41.26577622087193 16.3173
41.289567235177785 16.2981
41.31336011063129 16.2498
41.337340752422875 16.2692
41.361137369129835 16.2672
41.38493585138705 16.2026
41.40873620066004 16.1837
41.43272438060107 16.1351
41.45652848292052 16.0716
41.48033445666918 16.0747
41.50414230331616 16.0488
41.528138045159764 16.0701
41.551949656675205 15.9993
41.575763145513235 15.9931
41.59957851314666 15.9625
41.62358184070442 15.9646
41.64740098505737 15.9644
41.6712220126409 15.8845
41.69504492493139 15.8361
41.71905586207357 15.8244
41.74288256296395 15.7673
41.766711153007456 15.7695
41.79054163368412 15.7178
41.814560204340054 15.714
41.838394485526365 15.6912
41.86223066180303 15.68
41.88625497706819 15.6
41.910094962812 15.6426
41.93393684811168 15.5588
41.95778063445365 15.5503
41.981812625263366 15.5255
42.00566023303407 15.4792
42.029509746323676 15.425999999999998
42.05336116662236 15.3697
42.077400857069705 15.4429
42.10125611078846 15.4242
42.12511327600405 15.3055
42.14897235421036 15.3187
42.173019768448455 15.3371
42.19688269209613 15.2537
42.22074753323349 15.3191
42.24461429335818 15.2861
42.268669455600495 15.2248
42.292540073217886 15.2146
42.31641261433284 15.1801
42.34028708044675 15.1248
42.36435001496739 15.1206
42.38822835065557 15.137
42.41210861586426 15.0694
42.4359908120986 15.0732
42.46006154323262 14.9857
42.48394762115317 14.9754
42.507835634632315 14.9901
42.531912233047436 14.975
42.55580413732265 14.9098
42.579697981698 14.9147
42.60359376768525 14.8357
42.62767820545945 14.8277
42.65157789440821 14.7759
42.67547952952185 14.7348
42.699383112316 14.7824
42.72347541395347 14.7227
42.74738291190531 14.6618
42.771292362102166 14.6835
42.795203766063516 14.6958
42.819303956130405 14.6502
42.843219287476536 14.5858
42.86713657716324 14.6533
42.89105582671383 14.5957
42.91516392983864 14.5674
42.939087119032166 14.5155
42.963012272677304 14.4772
42.98693939230129 14.4755
43.01105543317513 14.4415
43.034986504731386 14.4135
43.05891954686589 14.3798
43.08285456110972 14.3553
43.10697856448665 14.3452
43.130917542983475 14.2725
43.15485849820081 14.2796
43.17880143167367 14.2621
43.20293342237094 14.2263
43.226880332449 14.2005
43.25082922540554 14.1845
43.27496722682525 14.1321
43.29892010567796 14.1093
43.32287497204102 14.130999999999998
43.34683182745632 14.0657
43.370977859791836 14.0727
43.39493871351105 14.0551
43.41890156092628 13.991
43.44286640358341 14.0218
43.46702049182749 13.9767
43.49098934522816 13.9359
43.51496019852649 13.9409
43.5389330532723 13.9183
43.56309522248204 13.8894
43.58707210044314 13.838
43.61105098451946 13.7989
43.63503187626491 13.8191
43.659202151562134 13.8124
43.68318707902681 13.7497
43.70717401884041 13.7633
43.731162972560874 13.6534
43.75534137913236 13.6464
43.779334381108384 13.6854
43.803329401683186 13.6181
43.82732644241872 13.5567
43.8515130055166 13.6046
43.87551410707659 13.5872
43.89951723350145 13.5986
43.923709934595614 13.4647
43.94771713129917 13.501
43.97172635758096 13.5193
43.99573761501002 13.4297
44.0199385169922 13.421
44.04395385732619 13.3498
44.067971233533086 13.3854
44.09199064718605 13.3439
44.11619977548961 13.3676
44.14022328470671 13.3313
44.16424883610785 13.3213
44.18827643127035 13.2563
44.21249381139513 13.2082
44.236525514814076 13.1708
44.26055926674478 13.1752
44.28459506876863 13.2082
44.3088207262813 13.1188
44.33286064928722 13.1271
44.35690262714919 13.0809
44.38094666145278 13.0565
44.4051806219871 13.0877
44.42922879003185 13.0381
44.45327901929361 12.9802
44.477331311362136 12.9216
44.501573600619416 12.937999999999999
44.525630039221795 12.9024
44.54968854541895 12.92
44.573937102200176 12.8693
44.5979997645541 12.8672
44.622064499300315 12.8893
44.64613130803592 12.8504
44.67038823869318 12.8315
44.69445921643748 12.7717
44.718532272981385 12.7428
44.742607409926194 12.7205
44.76687274034801 12.7117
44.79095205918753 12.6807
44.81503346325094 12.7078
44.839116954143876 12.6572
44.86339071028742 12.6526
44.88747839599524 12.6053
44.91156817336837 12.6035
44.93566004401666 12.5628
44.959942251908146 12.5771
44.984038330325966 12.5228
45.00813650686762 12.4382
45.03223678314731 12.4896
45.05652746888232 12.4484
45.08063196592069 12.4254
45.104738567558705 12.4524
45.128847275414856 12.4025
45.15314646515866 12.386
45.17725940679741 12.3363
45.20137445952892 12.3146
45.22568004865265 12.315
45.24979934496396 12.319
45.27392075725247 12.2591
45.29804428714431 12.2491
45.322358426247604 12.2517
45.346486212804315 12.2115
45.370616121861914 12.1954
45.39474815505086 12.1637
45.41907087049246 12.1608
45.4432071734666 12.1271
45.46734560548283 12.0829
45.49148616817604 12.0718
45.51581748638564 12.0915
45.5399623320197 12.0149
45.56410931325473 12.0193
45.58825843173002 11.9916
45.61259837920865 11.9619
45.636751793816 11.9512
45.66090735060093 11.9116
45.68506505120716 11.8991
45.7094136545275 11.8473
45.73357566449271 11.7673
45.75773982322992 11.8124
45.78190613238733 11.8508
45.806263418194064 11.7386
45.83043404997326 11.7719
45.85460683713677 11.7601
45.87897065658495 11.7366
45.90314777634752 11.7046
45.92732705646868 11.6726
45.9515084986045 11.6534
45.97588104735473 11.6319
46.00006683541565 11.6452
46.02425479047904 11.5856
46.04844491420549 11.5854
46.0728262191024 11.5688
46.09702070211635 11.5666
46.12121735879483 11.47
46.14541619080294 11.5071
46.169806278764455 11.4827
46.194009483459034 11.4368
46.21821486849841 11.4244
46.24242243555223 11.4195
46.266821333570014 11.4021
46.29103328674601 11.3712
46.31524742696538 11.4003
46.33946375590237 11.3315
46.36387149104216 11.3027
46.38809221957392 11.2485
46.41231514186606 11.2486
46.436540259597464 11.2424
46.460956858999374 11.2336
46.48518638983522 11.2106
46.509418121166966 11.1932
46.533652054678114 11.1647
46.55807754555709 11.1512
46.58231590571962 11.1512
46.60655647313217 11.0946
46.630988654873654 11.0401
46.655233659129024 11.0657
46.67948087571551 11.052999999999999
46.70373030632484 11.0069
46.72817142736393 10.9905
46.752425308428684 10.985
46.77668140861147 10.9591
46.80093972960865 10.9249
46.82538981736788 10.9238
46.849652602470904 10.9203
46.87391761349769 10.8958
46.8981848521493 10.8554
46.9226439341274 10.8282
46.946915650573224 10.821
46.97118959976749 10.7916
46.99546578341598 10.7888
47.019933887188216 10.741
47.04421456235744 10.7359
47.06849747711879 10.715
47.09278263318286 10.6794
47.11725978640143 10.6561
47.14154944775105 10.6011
47.165841355555656 10.6407
47.1901355115306 10.6586
47.214621741924994 10.6467
47.23892041698887 10.5922
47.26322134538975 10.5621
47.28771440635075 10.5185
47.31201986422527 10.5417
47.33632758061436 10.5231
47.360637557241866 10.491
47.38513974410611 10.4649
47.40945426407847 10.4715
47.43377104948137 10.4412
47.45809010204344 10.3757
47.48260144275502 10.3856
47.506925052572285 10.3679
47.53125093475548 10.3712
47.55557909103813 10.3563
47.58009961361992 10.3139
47.60443234110732 10.2655
47.62876734791564 10.280999999999999
47.65310463578333 10.2734
47.6776343683373 10.2272
47.7019762413987 10.1764
47.72632040075572 10.1712
47.75066684815169 10.22
47.77520581885936 10.1576
47.799556865477655 10.1176
47.823910205386 10.1588
47.84826584033272 10.1237
47.87281407745551 10.0816
47.89717432569297 10.0991
47.92153687423484 10.0649
47.94609208429692 10.0035
47.97045925671401 10.0135
47.99482873471275 10.0114
48.01920052005013 9.98353
48.04376504619224 9.95995
48.068141469543484 9.89677
48.09252020552573 9.92666
48.11690125590099 9.89513
48.1414751266064 9.89127
48.16586082917454 9.864339999999999
48.19024885144316 9.8519
48.2146391951793 9.84755
48.239222439012764 9.84089
48.26361744916137 9.77619
48.28801478610016 9.77788
48.31241445160131 9.79035
48.337007097209366 9.78638
48.36141144338331 9.741810000000001
48.38581812345755 9.70937
48.41022713920929 9.70885
48.434829215320704 9.7142
48.45924292604658 9.680639999999999
48.48365897780325 9.69085
48.50807737237308 9.64431
48.532688907799276 9.63218
48.55711201168574 9.5967
48.581537463754074 9.56982
48.60615611725119 9.5538
48.63058628942721 9.5661
48.65501881516546 9.52582
48.6794536962573 9.51499
48.70408185970339 9.49381
48.72852147531801 9.47054
48.75296345168211 9.43104
48.77740779059232 9.451130000000001
48.80204549302823 9.443489999999999
48.82649458091802 9.421289999999999
48.85094603676547 9.38688
48.87539986237231 9.35264
48.90004713292306 9.35142
48.92450572200832 9.31817
48.94896668628025 9.30465
48.97343002754588 9.26877
48.99808689542115 9.29725
49.02255501470614 9.28632
49.04702551642794 9.24642
49.0714984023988 9.22178
49.096164896893235 9.213239999999999
49.120642575466796 9.132639999999999
49.145122643748394 9.17422
49.16960510355558 9.16738
49.19428125404938 9.16487
49.2187685210852 9.120389999999999
49.243258185121555 9.10555
49.26794160167084 9.06705
49.2924360839405 9.04538
49.31693296869764 9.028089999999999
49.34143225776915 9.01372
49.36612538195438 8.97995
49.39062950396021 9.0154
49.41513603578346 8.94164
49.4396449792564 8.94266
49.46434784069503 8.95622
49.488861631846454 8.91112
49.513377840166804 8.90143
49.537896467493745 8.86046
49.56260909589029 8.85477
49.587132585683285 8.85142
49.611658500018365 8.83201
49.636186840738596 8.77952
49.66090926588511 8.81095
49.685442483902584 8.80369
49.70997813385706 8.76839
49.734516217597076 8.781310000000001
49.75924846937352 8.74864
49.7837914452858 8.69538
49.80833686055187 8.68379
49.83288471702571 8.68162
49.85762682540054 8.6688
49.882179588965734 8.65443
49.9067347993235 8.66414
49.93129245833333 8.638010000000001
49.95604445336378 8.626619999999999
49.98060703442832 8.612960000000001
50.005172069746266 8.56834
50.02993150438364 8.56917
50.05450147301533 8.55654
50.07907390151433 8.532739999999999
50.10364879174981 8.51592
50.12841816587289 8.4843
50.1529980044635 8.48836
50.17758031042124 8.4554
50.20216508562089 8.46957
50.22694442953363 8.44083
50.25153416817468 8.40659
50.27612638170508 8.419319999999999
50.300721072005196 8.38978
50.325510416102105 8.33196
50.350110084975064 8.32293
50.37471223628208 8.33126
50.39931687190919 8.31442
50.424116246675766 8.29246
50.44872587605249 8.29743
50.47333799543065 8.315
50.49795260670191 8.26352
50.52276204271512 8.26335
50.54738166295838 8.239310000000001
50.57200378079314 8.20541
50.596628398116835 8.20727
50.62144792604559 8.20327
50.646077567609396 8.17808
50.670709714377715 8.16526
50.69553683636198 8.13519
50.72017401885922 8.11166
50.7448137122895 8.073160000000001
50.76945591856022 8.09125
50.79429318636823 8.06066
50.818940443716784 8.080919999999999
50.84359021965163 8.02852
50.868242516085964 8.00889
50.893089960641895 7.9755
50.917747323549435 7.95776
50.94240721271973 7.97842
50.96706963007175 7.9545
50.99192728239342 7.958480000000001
51.01659478166073 7.951280000000001
51.04126481489051 7.86729
51.06593738400761 7.897760000000001
51.090805275207074 7.88013
51.11548294172845 7.8360199999999995
51.14016314993547 7.84622
51.164845901758845 7.81844
51.18972406304274 7.831519999999999
51.21441192780656 7.77464
51.23910234200271 7.76837
51.2637953075678 7.75663
51.288683770237945 7.719810000000001
51.31338186432707 7.67519
51.33808251561888 7.69848
51.362978729967345 7.70259
51.387684521509755 7.69229
51.41239287610203 7.699110000000001
51.437103795691165 7.656739999999999
51.46201036644977 7.63795
51.486726441956634 7.60577
51.51144508832545 7.616960000000001
51.536166307509156 7.58095
51.56108326624387 7.56417
51.58580965706056 7.57227
51.61053862657523 7.516369999999999
51.635270176746864 7.4894300000000005
51.66019755512065 7.48618
51.68493429268881 7.5023
51.70967361681515 7.4939
51.73441552946465 7.47698
51.759353359237934 7.442410000000001
51.7841004750961 7.441960000000001
51.80885018539685 7.44013
51.833602492111254 7.38588
51.8585508051424 7.373489999999999
51.883308330926425 7.397710000000001
51.90806845906181 7.34347
51.932831191525715 7.35416
51.95779001977161 7.327539999999999
51.98255798721516 7.28068
52.00732856494335 7.311160000000001
52.03229530577543 7.262230000000001
52.057071130455945 7.247669999999999
52.081849571391054 7.215389999999999
52.106630630568695 7.23043
52.13160794279417 7.20937
52.15639426492067 7.22761
52.18118321127822 7.190010000000001
52.205974783860896 7.176939999999999
52.23096269971011 7.15695
52.255759551287994 7.160810000000001
52.280559035098186 7.12202
52.30536115314103 7.116910000000001
52.33035970494467 7.12598
52.35516711807904 7.11504
52.37997717147198 7.06997
52.40478986713005 7.064010000000001
52.42979908731974 7.0312600000000005
52.454617094216 7.0161
52.47943774942214 7.0102899999999995
52.50426105495102 6.996289999999999
52.529280976059844 6.98548
52.554109609024096 6.98747
52.57894089837482 6.94865
52.60377484613117 6.9244699999999995
52.62880550079408 6.90985
52.65364479223379 6.89036
52.67848674816189 6.864330000000001
52.70352547971946 6.89135
52.72837279155837 6.854439999999999
52.753222773982785 6.84172
52.778075429022984 6.82523
52.80312495150885 6.820189999999999
52.827982978797436 6.834919999999999
52.85284368481815 6.78895
52.87770707160767 6.78304
52.90276741793998 6.76117
52.92763619336701 6.7483699999999995
52.952507655698504 6.723730000000001
52.977381806977576 6.7516
53.00245301017842 6.746569999999999
53.02733256653592 6.7457
53.052214817996074 6.67306
53.077099766608484 6.671189999999999
53.102181859804446 6.62144
53.127072229988265 6.61563
53.15196530349892 6.61455
53.17686108239249 6.6062899999999996
53.20195409881522 6.556210000000001
53.22685531582556 6.574560000000001
53.25175924441303 6.5712600000000005
53.27666588664027 6.49045
53.30176985962693 6.511819999999999
53.3266819565689 6.51976
53.35159677336455 6.49087
53.376514312083096 6.51037
53.40162927507703 6.50999
53.42655228516116 6.533980000000001
53.45147802340193 6.46625
53.47660125628886 6.45295
53.50153247842639 6.40822
53.52646643496923 6.464119999999999
53.55140312799818 6.40461
53.576537409691696 6.3929
53.60147960336152 6.3968300000000005
53.626424539786164 6.37026
53.65137222105307 6.33234
53.67651758529126 6.32365
53.70147078399681 6.31763
53.72642673383343 6.3102800000000006
53.75138543689533 6.30324
53.776541917524526 6.29216
53.801506154876755 6.2601
53.826473151763246 6.22961
53.851442910284916 6.22065
53.87661054126026 6.25667
53.9015858509782 6.20055
53.92656392866066 6.18996
53.95154477641532 6.15796
53.976723591801296 6.17281
54.00171000771266 6.16979
54.02669920004598 6.132619999999999
54.051691170915745 6.114380000000001
54.076881204886796 6.108569999999999
54.101878760928514 6.1141
54.12687910187696 6.09058
54.152077577768296 6.0737
54.1770835166946 6.06634
54.20209224691339 6.076230000000001
54.22710377055121 6.07094
54.25231352511594 6.01933
54.27733066384342 5.98385
54.30235060239643 5.99841
54.32737334290836 5.9836800000000006
54.35259441062629 5.9021
54.377622783395324 5.91996
54.40265396455061 5.91755
54.42768795623251 5.923830000000001
54.45292037169559 5.8585199999999995
54.477960012857906 5.8429400000000005
54.50300247099511 5.87664
54.52804774825457 5.85484
54.55329154616743 5.8085
54.57834249018678 5.74913
54.6033962597977 5.750290000000001
54.6284528571545 5.7556400000000005
54.653708072335164 5.72541
54.67877035378786 5.74026
54.70383546947698 5.682230000000001
54.72890342156389 5.67316
54.7541700889442 5.64026
54.77924374251975 5.66608
54.8043202390049 5.62518
54.82959552413022 5.57281
54.8546777351945 5.54601
54.87976279569621 5.5227699999999995
54.90485070780914 5.5250699999999995
54.930137506558005 5.51713
54.95523115074295 5.5549
54.98032765308844 5.46811
55.005427015775496 5.42453
55.03072536339621 5.4564
55.05583047570572 5.44575
55.080938454927676 5.38669
55.10604930325027 5.38697
55.131359235107396 5.38431
55.15647585066083 5.29513
55.181595341907496 5.3128400000000005
55.20671771104285 5.31842
55.232039262617704 5.28341
55.25716741665048 5.232080000000001
55.28229845518636 5.27605
55.30743238042802 5.19302
55.33276558731939 5.18731
55.357905315183636 5.19413
55.383047936390035 5.11065
55.40819345314859 5.12805
55.433538351073295 5.09291
55.458689688238415 5.09313
55.483843927614096 4.95033
55.509197623043605 4.99262
55.53435769621134 4.97411
55.55952067826466 4.99453
55.5846865714265 4.93808
55.61005202069737 4.91451
55.63522376553902 4.91285
55.66039842818645 4.9173
55.68557601087004 4.89299
55.7109532500271 4.77251
55.73613670233794 4.827380000000001
