TT I
1.2716486653135266 7.12617
1.2939594142134223 6.50296
1.3162702121660406 5.57219
1.3385810600174564 5.80471
1.3608919586137629 6.18985
1.383202908801069 6.1216099999999996
1.405513911425503 5.96816
1.4278249673332093 5.59427
1.4501343378461518 5.59713
1.4724455028545926 5.0574699999999995
1.4947567236847858 5.63202
1.517068001182951 5.534680000000001
1.5393793361953272 5.27961
1.5616907295681737 5.2579199999999995
1.5840021821477681 5.41118
1.60631369478041 4.83355
1.6286252683124185 5.25737
1.6509369035901333 4.1228
1.6732468618895553 4.53953
1.695558623192809 3.89069
1.7178704487808514 5.11111
1.7401823395001077 4.49225
1.7625012545597203 4.01935
1.7848028405262486 4.58859
1.8071218901122095 3.8598199999999996
1.8294236121921872 4.37948
1.8517427996910911 3.78475
1.8740620574440425 3.83855
1.8963639900671978 4.1819999999999995
1.9186833908139995 4.0406
1.9409854680117449 4.66413
1.9633050151394713 4.4812199999999995
1.9856246367570705 4.42317
2.0079269371922672 4.13561
2.03024671027244 3.86686
2.0525491637446027 4.19449
2.074869091674931 4.40259
2.097171701569106 4.6838
2.1194917877373847 4.60688
2.141811954326636 4.16341
2.164114805233074 4.48183
2.186435135143035 4.39309
2.208738150935709 4.56564
2.231058647554722 6.02391
2.2533792288321184 5.8966
2.275682498336085 5.44857
2.298003251406138 5.08052
2.3203066942619714 4.77991
2.3426276225136022 4.77083
2.3649486396617507 5.51063
2.387252348930071 6.18038
2.4095735463442893 5.7301400000000005
2.4318774374315884 6.044969999999999
2.4541988185014043 6.2365900000000005
2.476502894794693 6.27433
2.498824462909887 6.36557
2.521146125856138 6.30966
2.5434504863470337 7.321910000000001
2.5657723414244717 7.52327
2.588076895590662 8.175239999999999
2.610398946189713 8.79785
2.6327210958598384 8.08806
2.6550259469304716 8.2459
2.6773482972090137 8.43945
2.6996533504259 8.7244
2.7219759047039602 8.59779
2.744298562293959 8.72684
2.7666039251246595 8.50636
2.7889267918020164 8.45796
2.8112323652516555 8.56005
2.833555444408179 8.658610000000001
2.8558786311183852 8.20508
2.8781845268938557 9.18443
2.9005079311721484 9.29838
2.9228140460410397 9.18459
2.9451376712799635 8.96062
2.967444008632326 9.479439999999999
2.9897678582247247 10.2253
3.0120918213106695 10.036
3.0343984987899373 10.3931
3.0567226913198637 10.5996
3.079029599759726 10.9188
3.101354025127254 12.0126
3.123678568232338 12.3319
3.145985829517914 12.7318
3.16831061055229 12.9943
3.1906181112775593 13.635
3.212943133635653 14.1724
3.2352682779763207 14.4115
3.2575761442691227 14.4662
3.2799015350264273 15.1707
3.302209649240067 15.7389
3.3245352898092655 16.211
3.3468436553365257 16.8868
3.369169549113219 17.131
3.3914955708171384 17.7737
3.413804319727358 18.224
3.4361305997334863 18.0086
3.4584396084414553 19.0867
3.4807661501462652 19.5938
3.503092824025881 20.0482
3.5254022288463154 20.2733
3.5477291695206588 20.2529
3.5700388426251948 20.7542
3.5923660534916446 21.25
3.6146934007816114 22.7462
3.637003482731501 27.5554
3.6593311053109985 30.0744
3.681641464033634 26.4963
3.7039693653009733 23.8219
3.726297407241705 24.0788
3.7486081875460804 24.1573
3.7709365132734978 24.3035
3.793247578841633 25.3007
3.8155761917550093 25.4479
3.8378875459837216 25.8425
3.8602164494827234 26.5109
3.882545499606844 27.1195
3.9048572932539183 27.7287
3.9271866390645718 28.3081
3.9494987298666713 28.7406
3.971828374764527 28.8897
3.9941581705403255 29.1813
4.016470713506008 29.6411
4.038800813471445 30.4403
4.061113662089144 30.8864
4.0834440696459176 31.6695
4.105774632334751 31.7362
4.128087945865126 32.2088
4.150418821249301 32.6249
4.172732448931298 33.6678
4.195063640413578 34.3116
4.2173775856475215 35.0503
4.239709096631102 37.6611
4.262040768704612 51.5632
4.284355196706267 63.551
4.306687193387355 56.6437
4.329001947444346 43.7334
4.35133427213731 40.4783
4.373666762177566 40.2156
4.395982011761091 40.7997
4.418314834921175 41.7189
4.44063041906622 42.9899
4.4629635787515625 44.8622
4.4852969080429785 46.1205
4.5076130004776225 46.2319
4.529946671403969 46.6397
4.552263106909177 47.2941
4.574597122877047 48.7784
4.596931312711224 49.8385
4.619248269273446 50.5461
4.6415828092605835 51.507
4.663900117405352 52.8537
4.686235010953232 54.2635
4.708552674085913 55.0902
4.730887924602802 56.6635
4.753223354952695 58.2289
4.775541557023902 59.54600000000001
4.797877349456786 60.6229
4.820195915032126 62.5015
4.842532072957498 63.7282
4.864868414979744 66.4071
4.88718753227192 67.9477
4.909524244902505 69.9502
4.931843734218147 71.8112
4.954180820867835 74.52
4.976518095879839 76.8256
4.998838149695359 79.3877
5.021175803844231 82.7689
5.043496238205739 85.4811
5.065834274903528 89.1096
5.088172504230693 93.2969
5.1104935158799565 97.7228
5.132832132875765 105.75
5.155153533596801 118.23200000000001
5.1774925416746225 137.60399999999998
5.199814334878411 231.325
5.2221537374521505 811.263
5.244493338631803 2530.79
5.266815727034316 7235.61
5.289155727832427 13670.9
5.311478517248165 9613.99
5.333818921080011 3306.75
5.356159527788849 667.555
5.3784829252032536 203.24400000000003
5.400823940070432 143.211
5.423147747031976 123.20100000000001
5.445489173474152 113.721
5.467830807066149 107.75299999999999
5.490155234831516 104.12899999999999
5.512497285125229 101.00299999999999
5.534822130975162 99.8807
5.557164601388673 97.3898
5.579489868738879 94.9658
5.601832762690846 93.0536
5.6241758697774475 91.4631
5.646501775867269 90.99799999999999
5.668845311622074 90.1939
5.691171647754637 89.8646
5.713515615597765 88.6073
5.735859800852677 87.7889
5.758186788542988 87.3707
5.780531411018185 87.5217
5.802858837297399 86.3344
5.825203900414495 86.5951
5.8475491852224 86.9679
5.869877275883075 87.1732
5.892223006467101 88.2451
5.914551544266608 89.0933
5.936897724049891 91.2145
5.959244129804903 95.0747
5.981573344815301 106.65700000000001
6.0039202049061 165.04
6.026249875609095 399.338
6.04859719346037 894.073
6.070927323278297 2058.45
6.093275102315365 4461.17
6.115623113320588 5523.75
6.137953938319995 3697.62
6.160302415650845 1095.39
6.182633708324452 238.708
6.2049826554078376 109.087
6.227331838745022 87.3445
6.249663839443684 80.1201
6.27201349767565 75.9392
6.294345974611799 74.0741
6.316696111167083 72.8602
6.339046488263839 71.7949
6.361379686074702 68.5768
6.383730546639482 66.6511
6.406064229255215 64.8321
6.428415576718203 64.3678
6.450749747566656 63.6036
6.47310158535871 62.5827
6.495453669698332 62.0941
6.517788579421056 61.2094
6.540141159237969 59.9546
6.562476565766648 59.7327
6.5848296444934045 59.1391
6.607182974060425 58.6883
6.6295191323281015 58.0002
6.651872965955752 57.6559
6.6742096296068985 58.7582
6.6965639707294615 62.8066
6.71891856698715 64.0199
6.741255995248479 60.3281
6.763611104154477 56.9781
6.785949046381137 55.4428
6.808304671371482 54.6251
6.8306605557940046 54.5838
6.852999275508618 53.6884
6.875355681171544 53.8757
6.897694923437771 53.5984
6.92005185377892 53.1497
6.9423916220322655 52.9837
6.964749080490181 52.5941
6.987106804399774 52.6375
7.009447368180821 52.5159
7.031805625367033 52.3312
7.054146723727803 52.1714
7.076505517631004 52.4681
7.098864581288365 52.3044
7.121206488070854 51.7431
7.143566093607822 51.4947
7.165908543567245 51.6946
7.188268694426048 51.3714
7.2106291193438095 51.0748
7.232972390625943 50.5515
7.255333366030969 51.4347
7.277677189091925 55.6294
7.300038718428332 61.7708
7.322400526130865 61.1255
7.344745183422596 55.9576
7.367107550224791 52.5732
7.389452767901992 51.4814
7.411815697249891 51.5965
7.434161478756298 51.1986
7.456524974096713 51.5084
7.478888753837185 51.1347
7.501235387657368 52.4826
7.523599738562711 58.1765
7.545946944825532 66.847
7.568311870344528 70.4433
7.5906770845765665 63.4298
7.613025156078678 55.8817
7.635390950099687 53.7033
7.657739602662809 53.0112
7.680105979923558 52.4776
7.702472650212829 53.0128
7.724822180948224 52.7646
7.747189439655568 53.1531
7.769539560075357 52.9952
7.791907410653562 53.3645
7.81425812420825 53.9169
7.836626570110925 54.1824
7.858995315087906 54.842
7.881346924933401 54.8729
7.903716270417482 55.4795
7.926068482028405 55.7752
7.948438431475253 56.3605
7.9708086843180235 56.8584
7.993161805171116 57.1108
8.015532667162402 57.6661
8.037886398416653 58.8245
8.060257873014221 58.8792
8.082629655331942 59.5912
8.104984308787587 60.4668
8.127356708900503 61.1631
8.149711981398308 62.4444
8.172085002766314 63.3027
8.194458336181368 64.0399
8.216814543847752 64.6612
8.23918850371002 65.7545
8.26154533906492 66.7924
8.283919928836452 68.0466
8.306277395339652 68.8357
8.328652618483376 70.4149
8.351028159736202 72.2487
8.373386579575245 74.2444
8.395762759396959 75.5664
8.418121819038275 77.8139
8.440498640894003 81.4098
8.462875785192262 86.4645
8.485235811156207 94.7031
8.507613602688501 129.296
8.529974277114228 232.447
8.552352719347912 380.967
8.574731488360351 623.862
8.59709314210385 1116.13
8.619472567021075 1840.65
8.64183487789147 2277.16
8.664214962183097 1958.33
8.686577933647762 1095.12
8.708958680784317 419.00699999999995
8.731339760774953 173.952
8.753703729764451 108.943
8.77608547780821 94.8847
8.798450116065078 91.0012
8.820832535634787 88.7672
8.843215292401656 87.2536
8.865580941199045 85.9077
8.887964374703538 84.3828
8.910330701447199 83.7469
8.932714815164482 83.3223
8.955099270424924 82.48
8.977466620733543 81.5879
8.999851761421976 81.2307
9.022219798361645 80.418
9.04460562795561 80.2733
9.066991803441677 79.8861
9.089360876979615 79.6156
9.111747746589993 79.2749
9.13411751544971 79.2182
9.156505082664324 78.95100000000001
9.178875550323522 79.4554
9.20126381862328 81.518
9.223652438908596 90.2194
9.246023961427412 104.56299999999999
9.26841328802173 109.87899999999999
9.290785518039224 99.8952
9.313175554425882 87.5269
9.335565947154315 81.3209
9.357939245086508 79.8802
9.380330352834827 79.8715
9.40270436697103 80.1489
9.425096193225055 79.85600000000001
9.447488380180165 80.6772
9.469863475295412 80.8226
9.492256385987508 81.0199
9.514632206018318 81.7672
9.537025843935714 82.1671
9.559402392368193 82.6628
9.581796761000229 83.4177
9.604191496441521 83.8901
9.626569144158516 84.53
9.648964615551032 85.4254
9.671343000390081 86.4646
9.693739211225699 87.0302
9.716135793237463 87.6509
9.738515290448102 88.3066
9.760912617143402 89.5605
9.783292860202891 91.0901
9.805690935076182 92.0338
9.828089385495742 92.6607
9.850470754023561 94.2487
9.872869957865444 96.245
9.89525208097539 99.4016
9.917652041736662 103.088
9.940052382417589 106.45299999999999
9.962435644102392 115.478
9.984836746950979 148.196
10.007220771957746 229.72299999999998
10.029622640473708 353.42199999999997
10.052007432299963 521.804
10.074410069984072 781.3389999999999
10.096813093716005 1203.7
10.119199042482517 1768.5
10.141602840636468 2078.22
10.163989564971628 1704.24
10.186394141051062 1020.58
10.208799107559706 442.787
10.231187001965623 198.975
10.253592751657669 124.84299999999999
10.275981430388155 107.553
10.298387966769793 103.29299999999999
10.320794897965431 102.154
10.343184759907361 101.00299999999999
10.36559248305461 99.3473
10.387983138083852 98.0871
10.410391656691655 98.7996
10.432800574501677 107.914
10.455192425893369 130.32399999999998
10.47760214443012 163.02700000000002
10.499994797678786 204.685
10.522405320453982 274.655
10.54479877906917 387.705
10.567210109595656 515.314
10.5896218454736 594.258
10.612016518879773 574.465
10.634429067781074 401.73400000000004
10.656824555333241 229.093
10.679237920773568 139.942
10.701651695961992 102.81200000000001
10.724048411481384 91.9863
10.746463008485165 85.8404
10.768860546937125 82.1862
10.791275969274796 79.9312
10.81369180576079 79.0031
10.836090585366925 77.9388
10.858507252467449 76.4385
10.88090686379991 75.405
10.903324365036394 74.6625
10.925724811614439 73.4375
10.948143150509463 73.4063
10.970561909719066 72.7017
10.992963615930844 71.7786
11.015383218085756 70.6589
11.037785768347074 69.9479
11.06020621697282 69.441
11.082627090322113 69.0045
11.105030913430326 68.3376
11.12745263854165 67.9547
11.149857314510728 67.3151
11.172279894912576 67.6893
11.194702904450653 67.1936
11.217108866490921 66.5118
11.239532736615194 65.8532
11.26193956033512 65.4087
11.284364294577085 64.5268
11.306789462371718 64.0494
11.329197585398376 63.6722
11.351623622610898 63.9396
11.37403261614354 62.9038
11.396459526308487 62.9239
11.418869393879497 62.5453
11.441297180532617 62.3537
11.463725406927658 61.9646
11.486136592353875 61.6223
11.508565700543707 61.2354
11.530977768845315 61.4798
11.553407762368774 61.2308
11.575838200059769 61.2724
11.598251599479612 60.815
11.620682927815501 60.4823
11.64309721895548 60.743
11.665529441478206 60.1592
11.687962112597958 60.0996
11.710377748130886 60.1549
11.732811318753434 60.2069
11.755227854859067 60.0746
11.777662328529495 59.9332
11.800079768750786 59.8413
11.822515149015453 59.63
11.844950984084935 60.1491
11.867369787303163 60.3198
11.889806534289491 60.3612
11.912226250487029 61.8682
11.934663912939751 64.6714
11.9571020346363 67.1492
11.979523127133968 67.7742
12.001962169624331 65.9852
12.024384183972964 63.668
12.046824150809913 64.1036
12.069264581333726 69.7587
12.091687985297767 77.1251
12.11412934550045 87.1089
12.136553680195208 99.7381
12.158995973632788 120.992
12.181438735204349 147.38
12.20386447284199 178.67
12.226308172985636 203.325
12.24873485024193 209.729
12.271179492516982 175.00799999999998
12.293607112949127 134.632
12.316052700916226 96.7825
12.338498763250042 74.2012
12.360927805303868 64.4452
12.383374818673879 62.0117
12.405804812803074 61.293
12.428252780773262 61.1217
12.45070122756722 61.114
12.473132656675375 61.3914
12.49558206341869 61.5901
12.518014453510101 61.3541
12.540464823770117 61.407
12.562915677315177 61.5409
12.58534951575545 62.158
12.607801338171472 61.8662
12.630236146511358 62.6587
12.652688941369085 63.6876
12.675124723177234 63.946000000000005
12.697578494048786 64.2484
12.720032754458185 64.0162
12.742470003354093 64.1697
12.764925245138771 64.5318
12.787363476431278 64.8815
12.809819703166806 65.6387
12.83227642391173 66.142
12.854716135692716 66.723
12.877173846755147 67.6073
12.899614549869717 68.0307
12.9220732548287 68.5942
12.94453245827299 69.3711
12.966974655289818 70.3184
12.989434858002571 71.1585
13.011878055298721 71.9916
13.034339260862497 72.8828
13.056800969391883 74.425
13.079245674017244 76.5317
13.101708390774869 78.2775
13.12415410463411 82.3559
13.146617833206086 92.6776
13.169064559883248 108.5
13.191529303857127 127.09700000000001
13.213994557076367 149.469
13.236442809902437 182.412
13.258909083908291 231.68200000000002
13.28135835851934 293.04200000000003
13.30382565690295 370.616
13.326293469022952 438.976
13.348744283242008 451.411
13.371213125129904 377.379
13.39366497011003 276.893
13.416134845360597 182.606
13.438605238843131 125.65700000000001
13.46105863690397 102.196
13.483530069144786 99.0944
13.505984506951902 107.654
13.528456981549432 120.714
13.550929978879088 136.657
13.573385983253365 158.082
13.595860028340867 190.66099999999997
13.618317081455832 237.41299999999998
13.64079217790333 298.784
13.663250283359057 356.465
13.685726434770173 389.166
13.708203115221277 360.035
13.730662806148091 286.20799999999997
13.75314054697177 204.37099999999998
13.775601299246777 137.498
13.798080104050406 100.098
13.820559442405358 84.6643
13.843021793671388 79.7476
13.865502201420897 77.8181
13.887965623051947 77.4522
13.910447103807167 75.7328
13.932929122629764 74.6166
13.955394156785959 74.3986
13.977877254034569 73.5058
14.000343367582113 72.5765
14.022827546871707 72.1035
14.045294743423524 71.4607
14.06778000837062 70.7676
14.090265817715476 70.8026
14.112734645763819 71.4224
14.13522154619454 73.2009
14.157691466286913 74.7353
14.180179461423874 74.9018
14.202668005486178 73.1615
14.22513957064374 70.3196
14.247629214846473 68.725
14.270101881097517 68.1103
14.29259262906496 67.5076
14.315083930490205 67.4799
14.337558255389705 67.2391
14.360050666019726 67.2465
14.382526101071944 67.1521
14.405019624534942 66.9987
14.427513705993134 66.3871
14.449990813291825 66.5246
14.47248601302899 66.2347
14.49496423954951 66.5971
14.517460561197822 66.6826
14.539939910570322 66.046
14.562437357763558 66.4484
14.58493536931253 66.7033
14.607416409993311 66.8033
14.62991555254159 67.2886
14.652397725157423 67.4897
14.674898002342799 67.5469
14.697398848433282 67.3621
14.719882725991326 68.3978
14.74238471217934 68.5948
14.764869730765593 70.6901
14.787372860692983 74.3319
14.809876564079925 81.501
14.83236330125751 89.2162
14.854868153850365 98.1589
14.877356041159485 110.89200000000001
14.899862046604186 126.51299999999999
14.922351087688757 149.482
14.944858249632887 180.49099999999999
14.967365991421232 209.002
14.989856770231246 228.59900000000002
15.012365673994204 226.805
15.03485761569738 200.234
15.05736768508665 158.375
15.07987833888692 120.74700000000001
15.102372032001655 93.48899999999999
15.124883856909658 77.2941
15.14737872204565 71.0933
15.169891721717274 68.6459
15.192405310371893 67.9078
15.214901940621196 67.4441
15.237416709527137 66.6492
15.259914520936249 66.3478
15.282430473753607 65.6999
15.304947020131227 65.2064
15.327446610371178 65.0511
15.349964346154254 64.6241
15.372465126703139 64.5356
15.394984055556009 64.2834
15.417486030076159 64.2087
15.44000615566487 63.732
15.462526881230803 63.653
15.485030653812652 63.6031
15.507552581617434 63.5266
15.530057557334603 63.4644
15.55258069104857 63.5124
15.575104429329837 63.9735
15.597611216864632 63.832
15.620136166564563 63.7406
15.6426441664095 63.9829
15.665170331202765 65.3332
15.687697105158826 68.7755
15.710206930593545 74.0255
15.732734925158933 80.1464
15.755245972089478 87.0295
15.77777519094324 95.6108
15.800287463046663 106.405
15.822817909869592 123.541
15.84534897229804 144.347
15.867863089299354 169.507
15.890395385222186 190.888
15.912910736597423 202.97099999999998
15.935444269699861 193.91400000000002
15.957978423016485 169.144
15.980495633101265 134.439
16.003031029129367 104.506
16.02554948280019 81.5902
16.048086125229432 69.5841
16.070623392487107 64.5314
16.09314371869582 62.5867
16.11568223789321 61.0353
16.13820381691126 59.9353
16.160743591742527 59.0308
16.183283996022084 58.4909
16.205807461423195 57.6754
16.228349126881973 57.0691
16.25087385432698 56.8884
16.27341678466365 56.2674
16.29594277784926 55.9037
16.31848697676433 55.5485
16.341031811604868 55.1514
16.36355971058487 55.1531
16.3861058195587 55.0272
16.40863499352978 54.6652
16.431182380342005 54.4188
16.453730407713202 53.9001
16.476261501364792 53.7885
16.498810812136167 53.483000000000004
16.52134319004079 53.5299
16.54389378792203 53.4583
16.566445031001553 53.2716
16.588979342490088 53.0932
16.61153187824822 53.0579
16.634067483263312 53.0034
16.656621315414416 52.8935
16.679175797408888 52.6574
16.701713349928728 52.7755
16.72426913389191 52.7993
16.74680798922351 52.8242
16.76936507887444 52.7231
16.791905240734874 52.7793
16.814463639794468 52.7861
16.837022695210294 52.8843
16.859564824093756 52.9808
16.882125194503903 53.1043
16.904668639217885 53.4589
16.927230328348003 53.9395
16.949792678493612 54.2057
16.972338104193863 54.1955
16.994901778652235 53.9199
17.017448529496576 53.9396
17.040013531998152 53.9127
17.06257920018044 53.963
17.0851279459922 54.8458
17.107694947817667 56.0943
17.130245028099072 57.1795
17.15281336730298 58.6008
17.17536478578733 60.4089
17.19793446610687 62.3415
17.220504818648422 65.0633
17.243058251703697 67.9758
17.265629950971032 72.3412
17.288184731571736 77.2274
17.310757781306908 81.8639
17.33333150794385 82.9122
17.355888317140174 82.6777
17.37846339986244 78.8367
17.401021565958885 72.1798
17.42359800851343 65.9381
17.44617513265564 61.3221
17.468735341390783 58.97
17.491261035594565 57.7529
17.51396340099364 57.1743
17.536490463869136 57.2955
17.559018209820174 57.1802
17.58154663977963 57.4571
17.604251766089718 57.597
17.626781572227713 57.7748
17.64931206518155 57.9527
17.671843245885103 58.3131
17.69455114821572 58.4755
17.717083712612634 58.9868
17.739616967569667 59.4303
17.762150914021706 60.0841
17.78486160749854 60.1023
17.807396945166804 60.9214
17.829932977143503 61.2232
17.85246970436452 61.9689
17.875183204129467 63.652
17.897721330097664 66.7219
17.920260154126645 70.0631
17.942799677153296 73.7238
17.9655159983646 77.8029
17.988056927677544 82.7011
18.010598558807683 88.8499
18.033140892692916 97.9661
18.05586005052525 109.323
18.07840379824407 121.117
18.10094825154059 133.59
18.12366954819864 142.31799999999998
18.146215420998306 144.445
18.16876200220057 137.55700000000002
18.191309292745153 123.48299999999999
18.214033452627167 108.93799999999999
18.236582170236648 96.0034
18.259131600016456 88.17200000000001
18.281681742907335 86.2759
18.304408781233683 89.0534
18.32696035875955 94.1581
18.349512652227624 99.6033
18.372065662579683 105.565
18.394795594587553 107.36200000000001
18.41735004715306 104.685
18.43990521943684 98.3611
18.46246111238171 88.9812
18.485193953325208 79.0494
18.507751296070428 70.6904
18.530309362314178 65.7656
18.552868153000343 63.0031
18.57560391815056 61.3193
18.59816416623245 60.6537
18.620725141597372 60.1024
18.643286845190268 59.6506
18.666025549835414 58.9839
18.688588718427933 58.2849
18.711152618092243 58.099
18.73389353884365 57.7195
18.75645890921984 57.3766
18.77902501351406 57.1304
18.801591852673102 57.0299
18.824335739722738 56.567
18.846904057212626 56.5096
18.8694731124168 56.1034
18.89204290628315 56.1509
18.914789774966803 56.1433
18.937361054791623 55.8536
18.959933076131318 55.4881
18.982505839934877 55.373999999999995
19.00525570560582 55.394
19.027829963004184 55.0941
19.05040496572238 55.4306
19.072980714710468 55.284
19.095733592739563 55.0575
19.11831084296757 55.4773
19.140888842324735 55.9255
19.16346759176222 56.4035
19.18622349753803 57.2414
19.208803755869358 58.2233
19.231384767143577 59.4355
19.253966532312948 60.9629
19.276725481241822 62.8882
19.29930876296784 65.5915
19.3218928014549 69.0419
19.34465404436217 71.9602
19.36723960516257 74.5635
19.389825925592426 75.9132
19.412413006605938 75.2331
19.43517731967805 72.1976
19.457765930683355 67.9085
19.48035530514408 63.2981
19.50294544401556 59.3826
19.525712842708348 56.1633
19.54830451925909 54.3006
19.570896963095727 52.9852
19.593490175174704 52.4954
19.616260674962184 52.4741
19.638855432416964 52.2964
19.661450960992624 52.2827
19.68404726164677 52.0396
19.706820878021247 51.8371
19.729418731756834 52.3599
19.752017360452857 51.9771
19.77461676506804 51.9612
19.797393513540218 52.032
19.819994478951667 52.2071
19.84259622316767 52.8045
19.8651987471481 53.4494
19.887978643247177 53.8437
19.91058273574792 54.3703
19.933187610901943 55.4197
19.955969879466828 56.4741
19.97857632894404 57.7122
20.00118356396599 59.2211
20.023791585494575 61.1339
20.046577028914875 64.041
20.069186632506966 66.6699
20.091797025500632 69.117
20.114408208858933 70.7094
20.137196842715273 70.5679
20.159809615886765 69.03
20.18242318232135 66.6601
20.20503754298326 64.0463
20.227829382875154 62.7584
20.250445341109344 62.0853
20.27306209647285 62.4732
20.29567964993108 63.6608
20.31847471147704 64.8224
20.34109387027612 65.6716
20.363713830075454 65.6262
20.386334591841646 64.0075
20.409132890679302 61.586000000000006
20.431755265564437 58.4139
20.454378445325528 55.3057
20.477002430930366 52.8327
20.499803982716553 51.0635
20.522429589228004 50.1243
20.54505600449589 49.5985
20.567683229489194 49.5423
20.590488049900088 49.0311
20.61311690359731 48.9822
20.63574656993626 48.9331
20.658553853717297 48.3529
20.681185154618298 48.3117
20.703817271080066 48.3253
20.72645020407368 48.1372
20.749260783967177 48.1485
20.771895359337133 48.066
20.794530754161617 48.1432
20.817166969412938 48.0277
20.83998086114876 48.0667
20.86261872660049 47.698
20.885257415405402 47.5887
20.90789692853701 47.5344
20.930714147864748 47.396
20.953355319030678 47.3186
20.97599731745334 47.4709
20.99864014410749 47.372
21.021460706796564 47.5376
21.044105199328826 47.6926
21.06675052302631 47.8334
21.089396678865015 47.9748
21.112220600704806 48.2858
21.134868430275347 48.5948
21.15751709492456 48.8986
21.180166595629693 49.0524
21.202993892429635 49.5881
21.22564507473034 50.1805
21.24829709602816 50.5534
21.27112693608965 50.7689
21.293780644891275 50.623000000000005
21.316435195634053 49.9267
21.339090589297417 49.1624
21.361923832041875 48.6244
21.384580921090404 47.9401
21.407238856007325 47.4334
21.429897637773326 47.4759
21.45273429906592 47.3947
21.475394784108598 47.2048
21.498056118951983 47.382
21.520718304578022 47.5109
21.543558400304388 47.4947
21.566222297108816 47.6446
21.58888704765135 47.7951
21.61155265291521 47.8154
21.63439619898156 48.6437
21.657063523335786 48.9901
21.67973170537063 49.6032
21.7024007460706 50.2779
21.72524775840385 50.7843
21.747918526116475 51.9443
21.770590155457388 52.9882
21.79326264741238 54.4828
21.816113141960237 56.0526
21.838787368860547 57.9432
21.861462461341976 60.4666
21.884315579735777 62.8511
21.90699241312273 64.7316
21.92967011506078 65.3518
21.95234868653799 65.3878
21.9752053151131 64.0396
21.997885635446785 61.9576
22.020566828293532 59.7833
22.04324889464272 57.8937
22.066109049404666 56.4339
22.088792872571794 55.8592
22.111477572219204 55.8288
22.1341631493376 56.1928
22.157026846313123 56.0177
22.179714188221507 55.354
22.202402410582668 54.3587
22.22509151438863 52.6498
22.24795876962584 51.1939
22.270649646204486 50.0663
22.293341407213727 49.0911
22.316034053646906 48.3777
22.338904883215342 47.9857
22.36159931041458 47.9431
22.38429462602756 47.7675
22.40699083104897 47.5175
22.429865251039757 47.5002
22.452563244831367 47.5307
22.47526213102522 47.4771
22.49813925616515 47.4977
22.520839937143307 47.4309
22.543541513520587 47.6311
22.56624398629403 47.6218
22.589124730075895 47.4959
22.611829005656723 47.5915
22.63453418063466 47.5487
22.657240256008077 47.7314
22.680124634582935 47.9377
22.70283252079775 48.4133
22.725541310413075 48.8825
22.74825100442868 49.1579
22.771139033969575 49.5097
22.79385054687155 49.8808
22.81656296718292 50.5554
22.83927629590484 51.3209
22.862167992606945 52.3182
22.88488314827121 53.2842
22.907599215359284 54.446999999999996
22.93031619487366 55.7759
22.953211574954405 56.9112
22.975930389478226 57.69
22.998650119445763 57.9424
23.02137076586092 57.2141
23.044269845560063 56.2256
23.06699233506288 54.7633
23.089715744034912 52.727
23.112617610931565 51.0452
23.135342869061212 49.5866
23.158069049684816 48.6473
23.1807961538087 48.0091
23.20370174880544 48.0368
23.226430710184808 47.742
23.249160598093425 47.7413
23.271891413539002 47.7073
23.294800752937697 47.9276
23.31753343374794 48.5275
23.340267045128353 48.5923
23.36300158808808 49.0806
23.38591468821339 49.4026
23.408651104658304 49.8521
23.431388455719986 50.4678
23.454126742409 51.2176
23.4770436196085 52.1482
23.499783787914662 53.2687
23.522524894889884 54.5677
23.54526694154616 55.8948
23.56818761219047 57.3203
23.59093154860734 57.8693
23.613676427751283 58.4201
23.636422250635754 57.7333
23.659346731118656 56.4618
23.68209445191868 54.4412
23.704843119509587 52.0319
23.72759273490623 50.0311
23.750521041644767 48.1563
23.77327256312355 46.8523
23.796025035462787 46.0397
23.818956224555475 45.3721
23.841710609113413 45.287
23.86446594758979 44.9726
23.887222241002014 44.5948
23.910157285144578 44.2904
23.932915498962537 44.4259
23.955674670778713 44.3292
23.978434801611975 43.9751
24.001373717286125 43.8937
24.024135776723917 43.8386
24.046898798245582 43.6447
24.06966278287146 43.5003
24.092605586582614 43.3077
24.115371508023642 43.0457
24.1381383956401 42.9156
24.16090625045381 42.9455
24.183852958731244 42.9408
24.206622758582608 42.8207
24.229393528706886 42.6102
24.252165270127392 42.7133
24.27511589952438 42.7148
24.297889594216997 42.5933
24.32066426328598 42.3114
24.34343990775613 42.3539
24.36639447485003 42.0909
24.38917208083877 42.1647
24.41195066531332 42.0509
24.43490819850244 42.1538
24.457688750692377 42.0208
24.48047028445616 42.0241
24.503252800821233 42.2118
24.526214300784112 42.1519
24.548998793132213 42.2609
24.57178427117417 42.1118
24.59457073593893 42.3157
24.617536219319863 42.2787
24.64032466834748 42.228
24.663114107195035 41.9827
24.685904536893013 41.7427
24.708874020360852 41.6514
24.731666442613744 41.665
24.754459858818787 41.494
24.777254270007962 41.3385
24.80022777025625 41.2722
24.82302418230472 41.3742
24.845821592443674 41.328
24.86862000170663 41.2896
24.891597535453727 41.3251
24.914397953892728 41.5163
24.93719937456671 41.5806
24.96000179851076 41.5658
24.98298338249997 41.6079
25.00578782394922 41.8194
25.028593271784167 42.1249
25.05157790644186 42.4707
25.07438537804115 42.6427
25.097193859145293 42.9263
25.120003350792075 43.4024
25.142992065061257 43.7031
25.165803588823465 44.0027
25.18861612625217 44.2394
25.211429678386736 44.4204
25.234422489079968 44.309
25.257238081693636 44.3657
25.280054692141732 44.7013
25.3028723214652 44.6981
25.325869245420463 44.5624
25.348688923599397 44.7272
25.371509623787006 44.6485
25.394331347025812 44.2884
25.41733240110666 44.0243
25.440156181590016 43.3537
25.46298098826268 42.7351
25.48580682216873 42.0234
25.50881202326435 41.3718
25.53163992281684 41.0091
25.55446885274561 40.5182
25.577298814096377 40.2414
25.600308179121807 40.0119
25.623140214533745 40.1401
25.64597328451537 39.968
25.66898578564376 39.7833
25.691820936010206 39.8854
25.714657124097695 39.718
25.737494350954734 39.7383
25.760511045684957 39.681
25.783350361364224 39.6404
25.806190718969255 39.742
25.82903211955018 39.9592
25.852053024868923 39.941
25.874896522722523 39.9794
25.897741066713106 39.8673
25.920586657892454 39.9866
25.943611790812668 40.0671
25.966459487728237 40.1683
25.989308234998564 40.3386
26.01215803367705 40.8032
26.03518741123814 41.0563
26.05803932412957 41.0252
26.080892291600094 41.1172
26.10374631470478 41.2272
26.12677995397268 41.3528
26.14963609978026 41.4423
26.172493304397875 41.1008
26.19535156888223 40.8896
26.218389486949604 40.2726
26.241249882640123 40.0201
26.26411134137826 39.6735
26.28715248187403 39.6235
26.31001607820869 39.4147
26.3328807407756 39.3242
26.35574647063438 39.4269
26.37879191991473 39.4074
26.401659795896734 39.4464
26.424528742360263 39.5942
26.447398760366614 39.7891
26.470448535598294 39.8803
26.49332070826805 40.1677
26.516193955675355 40.5232
26.53906827888316 40.646
26.562122397260108 40.8922
26.584998883685063 41.4464
26.607876449110325 41.6472
26.63075509460056 41.8364
26.65381357334404 42.0458
26.67669439061878 42.0066
26.699576291163382 41.9916
26.722459276044212 41.843
26.745522132402975 41.5958
26.768407297649354 41.3034
26.791293550442003 40.8523
26.814180891848974 40.478
26.837248143099337 40.1339
26.860137673466657 40.1829
26.88302829566349 39.7944
26.90592001075963 39.7368
26.92899167420566 39.7284
26.951885586870763 39.1728
26.974780595655517 38.9563
26.99785558178161 38.6488
27.020752794605112 38.5266
27.043651106772522 38.2787
27.06655051935668 38.2602
27.089629948036183 38.1871
27.112531573292053 38.0949
27.135434302194138 38.1914
27.158338135817015 37.921
27.181422024430987 38.0191
27.204328079372566 37.9475
27.22723524226965 38.0541
27.250143514198573 38.0817
27.273231880156334 38.0049
27.296142382065014 37.811
27.319053996245536 37.84
27.341966723775965 37.8349
27.365059584515222 37.8261
27.38797455070062 37.9756
27.410890633481237 37.8217
27.433807833936918 37.8651
27.456905206923906 38.0335
27.47982465472398 38.0898
27.502745223449743 37.9829
27.525666914182825 38.2106
27.548768816912457 38.1743
27.571692763693633 38.0486
27.59461783573812 37.917
27.617723149491244 37.8834
27.640650484125285 37.6867
27.66357894728264 37.6141
27.686508540048052 37.5749
27.709618414237887 37.3775
27.732550278321757 37.3676
27.755483275279115 37.3699
27.778417406196485 37.2663
27.801531858397514 37.3419
27.824468269376716 37.3201
27.847405817586786 37.4072
27.870344504116094 37.4148
27.893463551932008 37.6666
27.916404527281053 37.857
27.93934664422563 38.012
27.962289903855886 38.1576
27.98541356491974 38.3802
28.00835912214229 38.3927
28.03130582533231 38.7645
28.054253675581805 38.891999999999996
28.077381967556104 38.7806
28.100332124185126 38.8545
28.123283431160893 38.801
28.146235889577238 38.7229
28.169368830154156 38.4564
28.192323603752033 38.4481
28.215279532083304 37.9643
28.238415973016764 37.867
28.261374223145094 37.5923
28.284333631303806 37.4159
28.307294198589954 37.1949
28.330435319167677 36.9214
28.353398217078915 36.6136
28.376362277420153 36.3872
28.39932750129032 36.1557
28.422473319286713 36.0703
28.44544088262495 35.9408
28.468409612800283 35.6742
28.491379510913497 35.5817
28.51453004413313 35.234
28.53750229057244 35.3523
28.56047570826344 35.2559
28.583450298308804 35.3821
28.606605564586562 35.1668
28.629582511831156 35.2539
28.65256063474956 35.16
28.675539934446338 35.1162
28.698699951647605 35.0242
28.72168161743193 34.9997
28.74466446331978 34.9821
28.767648490417624 34.8012
28.790813276438353 34.8478
28.813799678527303 34.9573
28.836787265157085 34.8675
28.859955641890075 34.9692
28.882945610203045 34.8979
28.905936766392035 34.8516
28.928929111566863 34.7756
28.952102288520145 34.7744
28.975097024308607 34.6332
28.998092952423807 34.4863
29.021090073977508 34.4156
29.04426806913204 34.3403
29.067267590245258 34.0368
29.090268308143695 34.0377
29.11327022394099 34.0643
29.13645305530891 33.9605
29.159457379627167 33.8289
29.18246290519685 33.8314
29.20546963313352 33.7813
29.22865731875826 33.779
29.25166646419296 33.8135
29.27467681535305 33.7697
29.29768837335608 33.8763
29.320880931312562 33.8167
29.34389491580634 33.7865
29.366910110507334 33.7499
29.38992651653503 33.7368
29.41312396492981 33.8063
29.436142806456754 33.7725
29.45916286268059 33.6903
29.48236399319994 33.5395
29.50538649169417 33.436
29.528410208259935 33.3837
29.55143514402014 33.0472
29.574641196749695 32.8601
29.597668583816574 32.828
29.6206971934585 32.5635
29.64372702680042 32.5456
29.666938019934474 32.407
29.689970313635285 32.4322
29.713003834422636 32.326
29.73603858342347 32.3769
29.759254535188578 32.4124
29.78229175361658 32.1055
29.80533020365064 32.3055
29.82836988641968 32.3216
29.85159081507472 32.3011
29.874632976355343 32.1963
29.89767637376955 32.1006
29.920721008448314 32.061
29.9439469322847 32.1013
29.96699405457564 32.1219
29.9900424175358 32.1034
30.013092022298157 32.0266
30.03632295963995 31.961
30.059375061131373 31.9959
30.08242840783577 32.0209
30.105483000888153 31.9602
30.128718970092244 31.8358
30.151776069006917 31.9239
30.17483441768648 31.949
30.198074175317235 31.8916
30.221135036724256 31.9908
30.24419715131772 31.8578
30.267260520236203 31.7624
30.290505341942243 31.8659
30.313571232750228 31.9757
30.336638381310948 31.8699
30.35970678876503 31.8584
30.38295669299435 31.7322
30.40602763151657 31.7287
30.429099832366074 31.6475
30.452173296685572 31.5394
30.47542830191959 31.5374
30.498504306502497 31.5796
30.521581577995562 31.7427
30.544660117543582 31.7306
30.56792024229725 31.7775
30.59100133132069 31.7738
30.614083691845494 31.7066
30.637167325018545 31.8178
30.660432587840603 31.7998
30.683518779717886 31.7518
30.70660624769615 31.8529
30.729694992924372 31.8322
30.75296541239743 31.846
30.77605672557558 31.8318
30.799149319462742 31.8169
30.8224236211637 31.624000000000002
30.845518789950724 31.5616
30.868615242910597 31.4899
30.891712981195973 31.2675
30.91499247215866 31.3637
30.938092794619365 31.1702
30.96119440587579 31.1102
30.984297307082752 31.0985
31.00758200598383 30.982
31.030687500658694 30.8901
31.053794288760695 30.8201
31.076902371446767 30.6664
31.100192296997445 30.7304
31.12330298246119 30.58
31.14641496599209 30.4613
31.169528248749216 30.5578
31.19282341969534 30.5949
31.215939314557186 30.4936
31.239056512134788 30.5827
31.262175013589378 30.4467
31.28547544871168 30.4566
31.30859657161541 30.4097
31.331719001892175 30.4209
31.35484274070538 30.5888
31.378148458819545 30.563000000000002
31.401274828443725 30.5128
31.424402510106933 30.526999999999997
31.447712205419993 30.5845
31.470842524931633 30.4419
31.493974159989783 30.441
31.51710711176168 30.3925
31.54042212308802 30.4356
31.563557722100917 30.4344
31.586694641341655 30.2987
31.609832881979628 30.2597
31.63315322823208 30.2025
31.656294125521327 30.0148
31.679436347728515 29.9382
31.70257989602529 29.811999999999998
31.725905596152327 29.8263
31.74905181052835 29.6938
31.772199354521323 29.8242
31.79534822930507 29.8133
31.818679302290967 29.7738
31.84183085259981 29.7114
31.864983737233473 29.7078
31.88813795736804 29.8539
31.911474422233013 29.668000000000003
31.934631327356435 29.7142
31.9577895715215 29.7122
31.980949155906522 29.6927
32.004291031706956 29.7795
32.027453310562606 29.6173
32.05061693318573 29.5529
32.07396288236386 29.4961
32.09712920658542 29.4906
32.12029687812702 29.3033
32.14346589817093 29.2789
32.166817291729984 29.1977
32.18998902288583 29.1009
32.21316210610336 29.0499
32.23633654256711 28.9673
32.259693399663725 28.9004
32.282870556771144 28.7849
32.30604907069099 28.8411
32.329228942610065 28.6552
32.35259128243769 28.6196
32.375773884550505 28.5653
32.398957848235646 28.5085
32.422143174682176 28.3929
32.445511016471215 28.4363
32.468699082679954 28.3713
32.49188851523011 28.3242
32.51507931531304 28.2835
32.538452678331 28.2773
32.56164622776311 28.1901
32.58484114831493 28.1713
32.60803744118015 28.104
32.631416344731896 28.1107
32.654615396551876 28.0116
32.67781582427913 28.0234
32.701198898634416 27.9471
32.72440209253756 27.8894
32.747606665947124 27.8249
32.77081262006088 27.7484
32.79420126883317 27.7135
32.81740999876112 27.7354
32.840620112999424 27.555
32.86383161274818 27.5236
32.88722585534586 27.5944
32.91044014056596 27.7271
32.933655814909734 27.6205
32.95687287957963 27.6834
32.98027273544904 27.4881
33.00349259526636 27.421999999999997
33.026713849030116 27.4986
33.04993649794511 27.4736
33.073341986570746 27.4417
33.09656744032826 27.4172
33.11979429286444 27.4269
33.14302254538647 27.4972
33.166433686291185 27.4207
33.18966475336992 27.4058
33.212897224069096 27.3354
33.23613109959831 27.1849
33.259547912343415 27.1911
33.2827846121627 27.1956
33.306022720453775 27.2164
33.32926223842861 27.1323
33.352684742614166 27.1306
33.37592709463173 27.1134
33.399170859982064 26.9921
33.422597648419426 26.8539
33.44584425514446 26.7408
33.46909227885668 26.7851
33.4923417207723 26.563000000000002
33.51577423505344 26.6625
33.539026528130385 26.5703
33.56228024307245 26.5159
33.585535381098246 26.3818
33.60897364093058 26.3097
33.63223163992385 26.3405
33.6554910656699 26.2192
33.678751919389796 26.3265
33.702195944520106 26.2407
33.72545966903325 26.1899
33.74872482519663 26.160999999999998
33.771991414233746 26.2165
33.79544122444841 26.1342
33.81871069412428 26.0086
33.84198160035767 26.0887
33.86525394437455 26.065
33.88870955949969 25.9404
33.911984794020626 25.9892
33.93526147001624 25.9212
33.958539588715006 25.9338
33.98200102861669 25.8009
34.0052820477047 25.6499
34.02856451319451 25.7018
34.05203033759056 25.7272
34.07531571090147 25.6507
34.09860253431845 25.6121
34.121890809074316 25.5307
34.145362493118924 25.6015
34.16865368561615 25.489
34.191946333164054 25.4118
34.21524043699793 25.3715
34.23871800066799 25.4027
34.26201503218366 25.2919
34.28531352370466 25.2289
34.30861347646881 25.1824
34.33209693978188 25.2519
34.3553998301885 25.1566
34.378704185565205 25.0934
34.402010007152356 25.0501
34.42549939016683 25.0717
34.44880815937748 24.9625
34.472118398533134 24.9831
34.49543010887669 24.9795
34.51892543169198 24.8356
34.54224009966052 24.8091
34.56555624255917 24.7466
34.58887386163339 24.6718
34.61237514439016 24.5882
34.6356957311114 24.614
34.65901779775809 24.531
34.68252356662995 24.592
34.705848608458616 24.5456
34.72917513396849 24.5267
34.75250314440949 24.4817
34.77601490857862 24.4728
34.799345904259795 24.3692
34.82267838863559 24.3
34.846012362958525 24.2462
34.869530142679984 24.2518
34.89286711232212 24.2947
34.91620557568269 24.2741
34.93954553401677 24.1903
34.9630693495876 24.1059
34.986412313340814 24.1637
35.00975677584668 24.1724
35.033102738362956 24.1202
35.05663261012228 24.0245
35.0799815881786 24.0429
35.10333207003229 24.0174
35.12668405694369 24.0254
35.150220005273056 23.9344
35.17357501786656 23.9394
35.19693153931268 23.9706
35.220289570874385 23.8084
35.24383161619786 23.9073
35.267192683604904 23.851999999999997
35.290555264930376 23.7457
35.314101899412165 23.7244
35.33746752422433 23.7373
35.36083466676374 23.7203
35.38420332829803 23.6331
35.407756095629054 23.743000000000002
35.43112781085063 23.7456
35.45450104888391 23.7196
35.477875810999194 23.712
35.50143473172161 23.5671
35.52481255774625 23.6274
35.54819191167777 23.5358
35.57157279478914 23.4748
35.595137889488406 23.5247
35.61852184675279 23.4487
35.641907337029984 23.3771
35.665294361595684 23.2872
35.68886565090076 23.2723
35.7122557598848 23.2926
35.73564740699838 23.2573
35.759040593519934 23.1877
35.78261809810353 23.1023
35.80601437933051 23.1361
35.829412203814705 23.0034
35.85281157283719 22.8972
35.876395313415884 22.9702
35.8997977874528 22.8418
35.92320180988546 22.8885
35.946790244133936 22.796999999999997
35.97019737933222 22.8318
35.993606066789866 22.7909
36.01701630779276 22.7922
36.04061101440684 22.7611
36.06402437852291 22.6572
36.08743930005611 22.7507
36.1108557802951 22.5819
36.13445678011326 22.6378
36.15787639383515 22.6297
36.18129757014299 22.5624
36.20472031032821 22.4553
36.22832762423364 22.3915
36.25175350829375 22.4083
36.275180960119776 22.3479
36.298609981005924 22.3712
36.32222362992669 22.279
36.34565580510207 22.2689
36.36908955323448 22.2511
36.39252487562093 22.1047
36.416144880530226 22.1903
36.43958336764275 22.1466
36.463023432914625 22.1554
36.486465077645676 22.1165
36.51009145956204 22.0742
36.53353627947859 22.0142
36.55698268276811 22.0031
36.58043067073321 21.9307
36.60406345072071 21.8761
36.62751462435344 21.936999999999998
36.65096738658405 21.916
36.67460498210655 21.8575
36.69806093788647 21.857
36.72151848619297 21.7397
36.744977628333636 21.8093
36.76862165890998 21.6633
36.79208400512205 21.6932
36.81554794910557 21.6497
36.83901349217101 21.5609
36.862663978991606 21.539
36.88613273667352 21.5562
36.90960309738324 21.5592
36.933075062434064 21.4104
36.95673202673572 21.4843
36.98020721697122 21.4402
37.003684015502365 21.3028
37.027162423645365 21.2912
37.050825886711465 21.2462
37.07430753063053 21.1472
37.09779078812467 21.1557
37.121275660513014 21.109
37.144945643673694 21.16
37.16843376245278 21.1112
37.19192350009803 21.1407
37.215414857931435 21.0528
37.239091382563885 20.9556
37.262585997426164 20.9846
37.28608223645736 20.9954
37.309763684451696 20.9699
37.33326318851098 20.8928
37.356764320726555 20.8463
37.380267082425526 20.8583
37.40395510942588 20.7882
37.42746114683234 20.7694
37.45096881771841 20.6873
37.474478123414166 20.6957
37.49817275092816 20.6356
37.52168534303452 20.6401
37.54519957395567 20.5255
37.568715445024665 20.5611
37.592416694607714 20.5265
37.61593586281424 20.5858
37.63945667518264 20.5122
37.66297913304891 20.4023
37.68668702630454 20.424
37.710212792059274 20.3444
37.733740207334854 20.3212
37.757269273470364 20.2392
37.780983832050374 20.2562
37.80451621684926 20.1968
37.82805025654007 20.1582
37.851585952464795 20.1116
37.8753071980695 20.0294
37.89884622345676 20.0558
37.92238690911902 20.0848
37.94611318753442 19.9803
37.969657210779765 19.9952
37.99320289834801 20.0023
38.016750251586465 19.8364
38.04048325513017 19.8774
38.06403395679343 19.8881
38.087586328183946 19.8604
38.11114037065203 19.8008
38.13488012115898 19.7902
38.1584375229181 19.6866
38.181996599821 19.6357
38.205557353221124 19.7399
38.229303872575656 19.652
38.2528679961576 19.6416
38.27643380031219 19.5441
38.30000128639589 19.5144
38.32375459653193 19.5452
38.34732546371299 19.5699
38.37089801690786 19.4303
38.39447225747609 19.4075
38.418232380377425 19.4338
38.441810012983396 19.4335
38.46538933705673 19.3549
38.488970353960084 19.3759
38.51273731166058 19.3827
38.536321731567014 19.2696
38.55990784840681 19.2336
38.58367995004091 19.1433
38.60726947812959 19.0955
38.63086070726198 19.1399
38.654453638806274 19.0978
38.678232613930824 19.0457
38.70182896773327 18.997
38.72542702806741 19.0768
38.7490267963045 19.0351
38.77281266709232 19.007
38.79641586862214 19.0005
38.8200207821842 18.8633
38.843627409152944 18.8965
38.86742019782782 18.8146
38.891030269149255 18.7445
38.914642058016156 18.6918
38.938255565806124 18.7097
38.96205529464307 18.7015
38.98567225787121 18.6521
39.00929094417078 18.6323
39.03291135492255 18.6457
39.05671804624804 18.6266
39.080341923549106 18.5571
39.103967529460334 18.4706
39.127594865365744 18.4954
39.15140854155791 18.3787
39.17503935514948 18.4806
39.19867190290282 18.423
39.22249083587951 18.4495
39.24612686969409 18.3677
39.269764641845306 18.3523
39.293404153722804 18.3545
39.317230110864074 18.2325
39.34087311998506 18.2039
39.36451787301696 18.2255
39.388164371352595 18.1391
39.41199737518003 18.1102
39.43564738196752 18.0759
39.45929913825317 18.1009
39.48295264543308 18.0666
39.506792718520884 18.0854
39.530449745387216 18.0175
39.55410852735203 18.0154
39.57776906581474 18.0193
39.60161623079 17.8999
39.625280300200025 17.8543
39.64894613032202 17.8549
39.67261372255866 17.8516
39.6964680021016 17.9028
39.72013913657293 17.7971
39.74381203738292 17.8021
39.76748670593756 17.7841
39.79134812278169 17.7384
39.81502634488497 17.7059
39.83870633896685 17.6998
39.862388106436654 17.66
39.88625668336918 17.6059
39.90994201572829 17.618
39.933629125719285 17.5718
39.957503091207826 17.4643
39.9811937746168 17.4908
40.00488623990914 17.4769
40.02858048850006 17.3919
40.05246165409549 17.3985
40.076159487492085 17.3599
40.099859108448875 17.3606
40.123560518384345 17.3872
40.1474489070226 17.3315
40.171153913178564 17.2846
40.194860712584955 17.2571
40.2185693066637 17.230999999999998
40.242464941335314 17.1522
40.26617714307655 17.1266
40.289891143772046 17.1334
40.3136069448471 17.1084
40.33750984859743 17.0784
40.3612292688043 17.0637
40.3849504936829 16.9546
40.40867352466194 16.9953
40.43258372059144 16.948
40.45631038219906 16.9486
40.48003885420956 16.8844
40.503769138055105 16.8963
40.52768664931955 16.8731
40.55142057531802 16.8309
40.57515631746428 16.8118
40.599079334038514 16.7584
40.62281872700477 16.7153
40.64655994043941 16.723
40.67030297578061 16.7221
40.69423334835778 16.7109
40.71798004609188 16.6363
40.74172857006355 16.6035
40.76547892171441 16.6007
40.7894166736039 16.5406
40.813170699248566 16.5532
40.83692655691388 16.5138
40.86068424804498 16.526
40.884629402612525 16.5026
40.908390779366385 16.4623
40.932153993938 16.3789
40.95591904777605 16.3594
40.979871628443995 16.425
41.003640379561936 16.4022
41.02741097430883 16.3262
41.05118341413683 16.3322
41.075143444384416 16.2944
41.098919593177826 16.2964
41.1226975914255 16.1906
41.14647744058318 16.1593
41.170444943946755 16.1263
41.19422851378379 16.1506
41.218013938914645 16.0943
41.24198706625173 16.0145
41.26577622087193 15.9554
41.289567235177785 15.9582
41.31336011063129 16.0114
41.337340752422875 15.9387
41.361137369129835 15.9212
41.38493585138705 15.8893
41.40873620066004 15.8384
41.43272438060107 15.8283
41.45652848292052 15.7557
41.48033445666918 15.7642
41.50414230331616 15.729000000000001
41.528138045159764 15.7306
41.551949656675205 15.6239
41.575763145513235 15.7003
41.59957851314666 15.6569
41.62358184070442 15.5977
41.64740098505737 15.6467
41.6712220126409 15.5487
41.69504492493139 15.5331
41.71905586207357 15.5744
41.74288256296395 15.5256
41.766711153007456 15.4742
41.79054163368412 15.4561
41.814560204340054 15.4876
41.838394485526365 15.4213
41.86223066180303 15.3764
41.88625497706819 15.3371
41.910094962812 15.2941
41.93393684811168 15.3293
41.95778063445365 15.2697
41.981812625263366 15.198
42.00566023303407 15.1654
42.029509746323676 15.1232
42.05336116662236 15.1606
42.077400857069705 15.140999999999998
42.10125611078846 15.1065
42.12511327600405 15.0888
42.14897235421036 15.0611
42.173019768448455 15.0761
42.19688269209613 15.0222
42.22074753323349 15.0256
42.24461429335818 14.9603
42.268669455600495 14.9059
42.292540073217886 14.8924
42.31641261433284 14.902999999999999
42.34028708044675 14.9023
42.36435001496739 14.8598
42.38822835065557 14.8347
42.41210861586426 14.7733
42.4359908120986 14.7867
42.46006154323262 14.7659
42.48394762115317 14.7136
42.507835634632315 14.7143
42.531912233047436 14.7649
42.55580413732265 14.6894
42.579697981698 14.6206
42.60359376768525 14.5967
42.62767820545945 14.5852
42.65157789440821 14.548
42.67547952952185 14.5228
42.699383112316 14.4867
42.72347541395347 14.4283
42.74738291190531 14.3798
42.771292362102166 14.4334
42.795203766063516 14.3849
42.819303956130405 14.3429
42.843219287476536 14.3315
42.86713657716324 14.3075
42.89105582671383 14.2745
42.91516392983864 14.2571
42.939087119032166 14.2282
42.963012272677304 14.2512
42.98693939230129 14.2388
43.01105543317513 14.1674
43.034986504731386 14.1431
43.05891954686589 14.1226
43.08285456110972 14.1485
43.10697856448665 14.0893
43.130917542983475 14.0244
43.15485849820081 14.0088
43.17880143167367 13.947000000000001
43.20293342237094 13.9702
43.226880332449 13.9471
43.25082922540554 13.9416
43.27496722682525 13.8908
43.29892010567796 13.8664
43.32287497204102 13.8583
43.34683182745632 13.7883
43.370977859791836 13.7932
43.39493871351105 13.793
43.41890156092628 13.8126
43.44286640358341 13.7878
43.46702049182749 13.7364
43.49098934522816 13.6762
43.51496019852649 13.7031
43.5389330532723 13.6314
43.56309522248204 13.6261
43.58707210044314 13.5991
43.61105098451946 13.5317
43.63503187626491 13.5805
43.659202151562134 13.4882
43.68318707902681 13.5061
43.70717401884041 13.5141
43.731162972560874 13.4313
43.75534137913236 13.3951
43.779334381108384 13.4288
43.803329401683186 13.4014
43.82732644241872 13.3499
43.8515130055166 13.3359
43.87551410707659 13.2835
43.89951723350145 13.3082
43.923709934595614 13.2458
43.94771713129917 13.2261
43.97172635758096 13.2488
43.99573761501002 13.184000000000001
44.0199385169922 13.2241
44.04395385732619 13.2121
44.067971233533086 13.1175
44.09199064718605 13.0931
44.11619977548961 13.1424
44.14022328470671 13.055
44.16424883610785 13.0848
44.18827643127035 13.049000000000001
44.21249381139513 13.0049
44.236525514814076 12.9664
44.26055926674478 12.9177
44.28459506876863 12.9425
44.3088207262813 12.9038
44.33286064928722 12.8461
44.35690262714919 12.9067
44.38094666145278 12.8289
44.4051806219871 12.8238
44.42922879003185 12.7808
44.45327901929361 12.7841
44.477331311362136 12.7533
44.501573600619416 12.6994
44.525630039221795 12.6437
44.54968854541895 12.6711
44.573937102200176 12.6225
44.5979997645541 12.6461
44.622064499300315 12.5774
44.64613130803592 12.5789
44.67038823869318 12.5706
44.69445921643748 12.6286
44.718532272981385 12.5121
44.742607409926194 12.5038
44.76687274034801 12.499
44.79095205918753 12.4363
44.81503346325094 12.4074
44.839116954143876 12.4124
44.86339071028742 12.4079
44.88747839599524 12.3663
44.91156817336837 12.3507
44.93566004401666 12.3295
44.959942251908146 12.3014
44.984038330325966 12.2814
45.00813650686762 12.2562
45.03223678314731 12.243
45.05652746888232 12.175999999999998
45.08063196592069 12.2107
45.104738567558705 12.2145
45.128847275414856 12.1563
45.15314646515866 12.0778
45.17725940679741 12.0721
45.20137445952892 12.0654
45.22568004865265 12.0826
45.24979934496396 12.0686
45.27392075725247 11.9692
45.29804428714431 11.9891
45.322358426247604 11.9524
45.346486212804315 11.9473
45.370616121861914 11.933
45.39474815505086 11.8835
45.41907087049246 11.8503
45.4432071734666 11.8524
45.46734560548283 11.8262
45.49148616817604 11.8605
45.51581748638564 11.8128
45.5399623320197 11.8251
45.56410931325473 11.7705
45.58825843173002 11.8192
45.61259837920865 11.7557
45.636751793816 11.7641
45.66090735060093 11.6853
45.68506505120716 11.6211
45.7094136545275 11.635
45.73357566449271 11.6321
45.75773982322992 11.6266
45.78190613238733 11.6055
45.806263418194064 11.5281
45.83043404997326 11.5561
45.85460683713677 11.5342
45.87897065658495 11.4853
45.90314777634752 11.4374
45.92732705646868 11.4449
45.9515084986045 11.4287
45.97588104735473 11.4717
46.00006683541565 11.3938
46.02425479047904 11.3652
46.04844491420549 11.34
46.0728262191024 11.3604
46.09702070211635 11.3501
46.12121735879483 11.3071
46.14541619080294 11.305
46.169806278764455 11.2661
46.194009483459034 11.2535
46.21821486849841 11.2396
46.24242243555223 11.1872
46.266821333570014 11.1766
46.29103328674601 11.1591
46.31524742696538 11.1782
46.33946375590237 11.1186
46.36387149104216 11.0854
46.38809221957392 11.0378
46.41231514186606 11.0586
46.436540259597464 11.0637
46.460956858999374 11.0417
46.48518638983522 11.0037
46.509418121166966 10.949000000000002
46.533652054678114 10.9492
46.55807754555709 10.9306
46.58231590571962 10.9464
46.60655647313217 10.9188
46.630988654873654 10.8847
46.655233659129024 10.8842
46.67948087571551 10.8265
46.70373030632484 10.853
46.72817142736393 10.8197
46.752425308428684 10.7846
46.77668140861147 10.7478
46.80093972960865 10.7041
46.82538981736788 10.6906
46.849652602470904 10.7227
46.87391761349769 10.6264
46.8981848521493 10.6088
46.9226439341274 10.6133
46.946915650573224 10.5582
46.97118959976749 10.6077
46.99546578341598 10.5789
47.019933887188216 10.5352
47.04421456235744 10.527000000000001
47.06849747711879 10.5178
47.09278263318286 10.4859
47.11725978640143 10.4696
47.14154944775105 10.478
47.165841355555656 10.4201
47.1901355115306 10.3737
47.214621741924994 10.3709
47.23892041698887 10.398
47.26322134538975 10.3453
47.28771440635075 10.3308
47.31201986422527 10.3386
47.33632758061436 10.3251
47.360637557241866 10.2789
47.38513974410611 10.2577
47.40945426407847 10.2222
47.43377104948137 10.2446
47.45809010204344 10.227
47.48260144275502 10.2277
47.506925052572285 10.1398
47.53125093475548 10.1174
47.55557909103813 10.1539
47.58009961361992 10.0751
47.60443234110732 10.0688
47.62876734791564 10.0729
47.65310463578333 10.0539
47.6776343683373 10.0715
47.7019762413987 9.98987
47.72632040075572 9.97485
47.75066684815169 9.9761
47.77520581885936 9.96425
47.799556865477655 9.95071
47.823910205386 9.93389
47.84826584033272 9.9187
47.87281407745551 9.87898
47.89717432569297 9.89109
47.92153687423484 9.89246
47.94609208429692 9.8509
47.97045925671401 9.81436
47.99482873471275 9.77871
48.01920052005013 9.79853
48.04376504619224 9.74502
48.068141469543484 9.78554
48.09252020552573 9.75682
48.11690125590099 9.73367
48.1414751266064 9.73695
48.16586082917454 9.65293
48.19024885144316 9.65794
48.2146391951793 9.6268
48.239222439012764 9.6553
48.26361744916137 9.642660000000001
48.28801478610016 9.59863
48.31241445160131 9.59477
48.337007097209366 9.55937
48.36141144338331 9.54319
48.38581812345755 9.54521
48.41022713920929 9.55739
48.434829215320704 9.49737
48.45924292604658 9.45557
48.48365897780325 9.48425
48.50807737237308 9.46805
48.532688907799276 9.44863
48.55711201168574 9.41015
48.581537463754074 9.384
48.60615611725119 9.378039999999999
48.63058628942721 9.387030000000001
48.65501881516546 9.37229
48.6794536962573 9.3548
48.70408185970339 9.343639999999999
48.72852147531801 9.300360000000001
48.75296345168211 9.25285
48.77740779059232 9.21359
48.80204549302823 9.273439999999999
48.82649458091802 9.23161
48.85094603676547 9.204419999999999
48.87539986237231 9.16233
48.90004713292306 9.14563
48.92450572200832 9.14431
48.94896668628025 9.126439999999999
48.97343002754588 9.15847
48.99808689542115 9.07696
49.02255501470614 9.05321
49.04702551642794 9.06673
49.0714984023988 9.06418
49.096164896893235 9.0372
49.120642575466796 9.01019
49.145122643748394 8.969710000000001
49.16960510355558 8.98285
49.19428125404938 8.967080000000001
49.2187685210852 8.93026
49.243258185121555 8.90325
49.26794160167084 8.89462
49.2924360839405 8.8816
49.31693296869764 8.88597
49.34143225776915 8.85272
49.36612538195438 8.84534
49.39062950396021 8.849789999999999
49.41513603578346 8.823780000000001
49.4396449792564 8.7765
49.46434784069503 8.778939999999999
49.488861631846454 8.75963
49.513377840166804 8.727219999999999
49.537896467493745 8.74635
49.56260909589029 8.67735
49.587132585683285 8.68649
49.611658500018365 8.69403
49.636186840738596 8.64562
49.66090926588511 8.6169
49.685442483902584 8.605360000000001
49.70997813385706 8.56129
49.734516217597076 8.57053
49.75924846937352 8.56864
49.7837914452858 8.5405
49.80833686055187 8.51412
49.83288471702571 8.487160000000001
49.85762682540054 8.50791
49.882179588965734 8.46792
49.9067347993235 8.49131
49.93129245833333 8.47406
49.95604445336378 8.423210000000001
49.98060703442832 8.44973
50.005172069746266 8.40645
50.02993150438364 8.39435
50.05450147301533 8.37116
50.07907390151433 8.31047
50.10364879174981 8.3482
50.12841816587289 8.343810000000001
50.1529980044635 8.300089999999999
50.17758031042124 8.28229
50.20216508562089 8.311819999999999
50.22694442953363 8.248569999999999
50.25153416817468 8.254669999999999
50.27612638170508 8.2651
50.300721072005196 8.1854
50.325510416102105 8.193760000000001
50.350110084975064 8.196769999999999
50.37471223628208 8.18468
50.39931687190919 8.16738
50.424116246675766 8.13729
50.44872587605249 8.09891
50.47333799543065 8.126619999999999
50.49795260670191 8.095089999999999
50.52276204271512 8.05302
50.54738166295838 8.033430000000001
50.57200378079314 8.04984
50.596628398116835 8.01896
50.62144792604559 8.002930000000001
50.646077567609396 8.0078
50.670709714377715 7.992189999999999
50.69553683636198 7.98481
50.72017401885922 7.950060000000001
50.7448137122895 7.93025
50.76945591856022 7.901910000000001
50.79429318636823 7.90216
50.818940443716784 7.87944
50.84359021965163 7.858060000000001
50.868242516085964 7.84284
50.893089960641895 7.851939999999999
50.917747323549435 7.79961
50.94240721271973 7.796
50.96706963007175 7.80739
50.99192728239342 7.78896
51.01659478166073 7.75995
51.04126481489051 7.768680000000001
51.06593738400761 7.72015
51.090805275207074 7.69906
51.11548294172845 7.718839999999999
51.14016314993547 7.728560000000001
51.164845901758845 7.69998
51.18972406304274 7.67927
51.21441192780656 7.64111
51.23910234200271 7.65849
51.2637953075678 7.62788
51.288683770237945 7.60203
51.31338186432707 7.5922600000000005
51.33808251561888 7.553730000000001
51.362978729967345 7.5606
51.387684521509755 7.5392
51.41239287610203 7.520389999999999
51.437103795691165 7.50294
51.46201036644977 7.4838
51.486726441956634 7.46409
51.51144508832545 7.47777
51.536166307509156 7.45615
51.56108326624387 7.42863
51.58580965706056 7.40641
51.61053862657523 7.40705
51.635270176746864 7.39532
51.66019755512065 7.36512
51.68493429268881 7.30675
51.70967361681515 7.3135
51.73441552946465 7.3225
51.759353359237934 7.32147
51.7841004750961 7.301769999999999
51.80885018539685 7.29128
51.833602492111254 7.277019999999999
51.8585508051424 7.264530000000001
51.883308330926425 7.23068
51.90806845906181 7.231660000000001
51.932831191525715 7.19579
51.95779001977161 7.20857
51.98255798721516 7.17616
52.00732856494335 7.14831
52.03229530577543 7.158760000000001
52.057071130455945 7.09214
52.081849571391054 7.114789999999999
52.106630630568695 7.1384
52.13160794279417 7.096419999999999
52.15639426492067 7.0996
52.18118321127822 7.06757
52.205974783860896 7.0398
52.23096269971011 7.028410000000001
52.255759551287994 7.01595
52.280559035098186 6.99357
52.30536115314103 6.998010000000001
52.33035970494467 6.9626399999999995
52.35516711807904 6.98533
52.37997717147198 6.956410000000001
52.40478986713005 6.94338
52.42979908731974 6.9175699999999996
52.454617094216 6.90515
52.47943774942214 6.876239999999999
52.50426105495102 6.8646899999999995
52.529280976059844 6.838019999999999
52.554109609024096 6.875839999999999
52.57894089837482 6.83015
52.60377484613117 6.82256
52.62880550079408 6.81195
52.65364479223379 6.76655
52.67848674816189 6.77929
52.70352547971946 6.765639999999999
52.72837279155837 6.75013
52.753222773982785 6.70838
52.778075429022984 6.72111
52.80312495150885 6.718839999999999
52.827982978797436 6.7229600000000005
52.85284368481815 6.62609
52.87770707160767 6.673939999999999
52.90276741793998 6.6471800000000005
52.92763619336701 6.62087
52.952507655698504 6.60398
52.977381806977576 6.59244
53.00245301017842 6.6014
53.02733256653592 6.59585
53.052214817996074 6.570119999999999
53.077099766608484 6.54979
53.102181859804446 6.54422
53.127072229988265 6.54484
53.15196530349892 6.509119999999999
53.17686108239249 6.49869
53.20195409881522 6.49241
53.22685531582556 6.46622
53.25175924441303 6.4282
53.27666588664027 6.42047
53.30176985962693 6.41856
53.3266819565689 6.40664
53.35159677336455 6.408919999999999
53.376514312083096 6.4099699999999995
53.40162927507703 6.42781
53.42655228516116 6.345680000000001
53.45147802340193 6.32624
53.47660125628886 6.28681
53.50153247842639 6.2987
53.52646643496923 6.281630000000001
53.55140312799818 6.25712
53.576537409691696 6.28722
53.60147960336152 6.2522199999999994
53.626424539786164 6.24798
53.65137222105307 6.2184099999999995
53.67651758529126 6.20173
53.70147078399681 6.18029
53.72642673383343 6.17604
53.75138543689533 6.15886
53.776541917524526 6.1817400000000005
53.801506154876755 6.17148
53.826473151763246 6.16495
53.851442910284916 6.147869999999999
53.87661054126026 6.10727
53.9015858509782 6.08321
53.92656392866066 6.095940000000001
53.95154477641532 6.07728
53.976723591801296 6.08677
54.00171000771266 6.06527
54.02669920004598 6.0227900000000005
54.051691170915745 6.0123
54.076881204886796 6.01318
54.101878760928514 6.03275
54.12687910187696 5.95768
54.152077577768296 5.9087
54.1770835166946 5.919569999999999
54.20209224691339 5.9172
54.22710377055121 5.88869
54.25231352511594 5.88737
54.27733066384342 5.91527
54.30235060239643 5.8792599999999995
54.32737334290836 5.84774
54.35259441062629 5.8272
54.377622783395324 5.8386
54.40265396455061 5.82575
54.42768795623251 5.81237
54.45292037169559 5.79225
54.477960012857906 5.75395
54.50300247099511 5.7353
54.52804774825457 5.724819999999999
54.55329154616743 5.71176
54.57834249018678 5.70763
54.6033962597977 5.65028
54.6284528571545 5.603190000000001
54.653708072335164 5.623819999999999
54.67877035378786 5.5865
54.70383546947698 5.557519999999999
54.72890342156389 5.5289
54.7541700889442 5.55157
54.77924374251975 5.52241
54.8043202390049 5.51587
54.82959552413022 5.50821
54.8546777351945 5.49575
54.87976279569621 5.48488
54.90485070780914 5.46242
54.930137506558005 5.4181
54.95523115074295 5.41513
54.98032765308844 5.41004
55.005427015775496 5.3685
55.03072536339621 5.37488
55.05583047570572 5.3068
55.080938454927676 5.30394
55.10604930325027 5.30351
55.131359235107396 5.31513
55.15647585066083 5.2469
55.181595341907496 5.2131099999999995
55.20671771104285 5.20285
55.232039262617704 5.19299
55.25716741665048 5.1608
55.28229845518636 5.12483
55.30743238042802 5.10356
55.33276558731939 5.08563
55.357905315183636 5.096430000000001
55.383047936390035 5.07886
55.40819345314859 5.03434
55.433538351073295 4.9863800000000005
55.458689688238415 5.008
55.483843927614096 4.95006
55.509197623043605 5.0099599999999995
55.53435769621134 4.900530000000001
55.55952067826466 4.87333
55.5846865714265 4.90625
55.61005202069737 4.87616
55.63522376553902 4.8158199999999995
55.66039842818645 4.778980000000001
55.68557601087004 4.78595
55.7109532500271 4.668880000000001
55.73613670233794 4.718459999999999
