TT I
1.2716486653135266 8.013580000000001
1.2939594142134223 7.478280000000001
1.3162702121660406 7.0376
1.3385810600174564 7.2557100000000005
1.3608919586137629 7.2137199999999995
1.383202908801069 6.31059
1.405513911425503 6.27018
1.4278249673332093 6.27413
1.4501343378461518 6.68695
1.4724455028545926 5.97486
1.4947567236847858 6.52451
1.517068001182951 6.44635
1.5393793361953272 6.043480000000001
1.5616907295681737 5.75206
1.5840021821477681 5.496569999999999
1.60631369478041 5.08354
1.6286252683124185 4.84172
1.6509369035901333 5.040690000000001
1.6732468618895553 5.8432699999999995
1.695558623192809 4.79441
1.7178704487808514 4.90152
1.7401823395001077 4.84424
1.7625012545597203 4.83927
1.7848028405262486 5.01216
1.8071218901122095 4.912730000000001
1.8294236121921872 4.82839
1.8517427996910911 4.58636
1.8740620574440425 5.03869
1.8963639900671978 5.03771
1.9186833908139995 5.02669
1.9409854680117449 4.596480000000001
1.9633050151394713 4.951980000000001
1.9856246367570705 4.9947099999999995
2.0079269371922672 4.9067300000000005
2.03024671027244 5.0883
2.0525491637446027 4.42973
2.074869091674931 4.72302
2.097171701569106 4.073169999999999
2.1194917877373847 4.199409999999999
2.141811954326636 4.633
2.164114805233074 4.886880000000001
2.186435135143035 5.55144
2.208738150935709 8.87616
2.231058647554722 15.0732
2.2533792288321184 12.3414
2.275682498336085 7.07003
2.298003251406138 4.79853
2.3203066942619714 4.7085300000000005
2.3426276225136022 4.4583
2.3649486396617507 5.31649
2.387252348930071 5.21011
2.4095735463442893 5.5208699999999995
2.4318774374315884 5.4349300000000005
2.4541988185014043 5.03704
2.476502894794693 6.3155
2.498824462909887 6.25056
2.521146125856138 6.14576
2.5434504863470337 5.842969999999999
2.5657723414244717 6.71453
2.588076895590662 6.87897
2.610398946189713 6.87056
2.6327210958598384 6.59854
2.6550259469304716 7.04513
2.6773482972090137 6.89682
2.6996533504259 7.20135
2.7219759047039602 7.419810000000001
2.744298562293959 7.32045
2.7666039251246595 7.420389999999999
2.7889267918020164 7.745610000000001
2.8112323652516555 7.9569
2.833555444408179 8.05909
2.8558786311183852 8.205860000000001
2.8781845268938557 8.69069
2.9005079311721484 8.42216
2.9228140460410397 8.84992
2.9451376712799635 8.86614
2.967444008632326 8.71723
2.9897678582247247 9.67636
3.0120918213106695 9.922930000000001
3.0343984987899373 10.6836
3.0567226913198637 10.9462
3.079029599759726 11.6045
3.101354025127254 12.0675
3.123678568232338 12.9683
3.145985829517914 12.9009
3.16831061055229 13.7157
3.1906181112775593 14.3694
3.212943133635653 14.5234
3.2352682779763207 14.397
3.2575761442691227 15.0436
3.2799015350264273 15.5694
3.302209649240067 16.366
3.3245352898092655 17.0024
3.3468436553365257 17.4812
3.369169549113219 17.8927
3.3914955708171384 18.6721
3.413804319727358 18.8756
3.4361305997334863 18.9112
3.4584396084414553 19.629
3.4807661501462652 20.4224
3.503092824025881 21.0998
3.5254022288463154 21.3885
3.5477291695206588 21.6354
3.5700388426251948 22.2118
3.5923660534916446 23.4273
3.6146934007816114 30.984
3.637003482731501 53.595
3.6593311053109985 57.9148
3.681641464033634 38.9062
3.7039693653009733 27.4088
3.726297407241705 25.6701
3.7486081875460804 25.5098
3.7709365132734978 25.5815
3.793247578841633 26.0883
3.8155761917550093 26.8765
3.8378875459837216 27.267
3.8602164494827234 27.8329
3.882545499606844 28.8882
3.9048572932539183 29.0469
3.9271866390645718 29.3834
3.9494987298666713 30.2947
3.971828374764527 30.6325
3.9941581705403255 30.9867
4.016470713506008 31.9045
4.038800813471445 32.6236
4.061113662089144 33.5607
4.0834440696459176 34.2547
4.105774632334751 34.4107
4.128087945865126 35.3119
4.150418821249301 35.7888
4.172732448931298 36.4953
4.195063640413578 38.1282
4.2173775856475215 40.6231
4.239709096631102 55.7204
4.262040768704612 129.847
4.284355196706267 166.715
4.306687193387355 116.928
4.329001947444346 60.9793
4.35133427213731 45.7347
4.373666762177566 44.4248
4.395982011761091 44.4862
4.418314834921175 45.7231
4.44063041906622 49.6933
4.4629635787515625 55.3393
4.4852969080429785 55.5576
4.5076130004776225 52.6315
4.529946671403969 53.2386
4.552263106909177 54.1197
4.574597122877047 53.593
4.596931312711224 53.8461
4.619248269273446 54.6125
4.6415828092605835 55.611000000000004
4.663900117405352 56.8953
4.686235010953232 58.6037
4.708552674085913 59.6068
4.730887924602802 61.4264
4.753223354952695 63.0615
4.775541557023902 64.7443
4.797877349456786 66.5879
4.820195915032126 68.7283
4.842532072957498 69.9735
4.864868414979744 72.4093
4.88718753227192 75.2228
4.909524244902505 77.1071
4.931843734218147 78.7854
4.954180820867835 81.3071
4.976518095879839 84.8975
4.998838149695359 87.8877
5.021175803844231 91.8287
5.043496238205739 95.7718
5.065834274903528 101.245
5.088172504230693 106.902
5.1104935158799565 115.969
5.132832132875765 135.842
5.155153533596801 170.021
5.1774925416746225 243.271
5.199814334878411 617.4540000000001
5.2221537374521505 1625.77
5.244493338631803 3698.77
5.266815727034316 7474.27
5.289155727832427 11359.6
5.311478517248165 8616.86
5.333818921080011 3318.88
5.356159527788849 713.784
5.3784829252032536 219.963
5.400823940070432 161.674
5.423147747031976 139.118
5.445489173474152 127.103
5.467830807066149 121.67399999999999
5.490155234831516 117.31700000000001
5.512497285125229 112.184
5.534822130975162 109.195
5.557164601388673 106.958
5.579489868738879 103.945
5.601832762690846 102.363
5.6241758697774475 101.068
5.646501775867269 100.031
5.668845311622074 99.4971
5.691171647754637 98.738
5.713515615597765 97.1749
5.735859800852677 96.5678
5.758186788542988 96.5176
5.780531411018185 97.5452
5.802858837297399 97.3604
5.825203900414495 97.6048
5.8475491852224 99.4614
5.869877275883075 99.5149
5.892223006467101 100.26
5.914551544266608 102.262
5.936897724049891 106.211
5.959244129804903 117.29299999999999
5.981573344815301 159.61
6.0039202049061 330.625
6.026249875609095 683.365
6.04859719346037 1281.91
6.070927323278297 2343.81
6.093275102315365 4014.99
6.115623113320588 4926.66
6.137953938319995 3384.53
6.160302415650845 1152.76
6.182633708324452 283.211
6.2049826554078376 126.70100000000001
6.227331838745022 99.5985
6.249663839443684 89.9484
6.27201349767565 85.2174
6.294345974611799 85.9704
6.316696111167083 89.4381
6.339046488263839 86.2471
6.361379686074702 77.6699
6.383730546639482 73.4817
6.406064229255215 71.45100000000001
6.428415576718203 71.0293
6.450749747566656 69.5847
6.47310158535871 67.9087
6.495453669698332 66.8446
6.517788579421056 66.44
6.540141159237969 65.173
6.562476565766648 64.6636
6.5848296444934045 64.2346
6.607182974060425 63.6959
6.6295191323281015 63.9036
6.651872965955752 64.9193
6.6742096296068985 75.6029
6.6965639707294615 96.6568
6.71891856698715 96.5645
6.741255995248479 77.0121
6.763611104154477 64.393
6.785949046381137 60.5234
6.808304671371482 59.5632
6.8306605557940046 59.7442
6.852999275508618 58.7189
6.875355681171544 58.3137
6.897694923437771 57.6335
6.92005185377892 57.5427
6.9423916220322655 57.2039
6.964749080490181 56.6723
6.987106804399774 57.0099
7.009447368180821 57.167
7.031805625367033 56.4424
7.054146723727803 56.244
7.076505517631004 55.7465
7.098864581288365 55.7411
7.121206488070854 55.9019
7.143566093607822 55.9054
7.165908543567245 56.6389
7.188268694426048 56.122
7.2106291193438095 55.8776
7.232972390625943 56.8092
7.255333366030969 62.7772
7.277677189091925 86.1701
7.300038718428332 108.04299999999999
7.322400526130865 96.9943
7.344745183422596 71.9611
7.367107550224791 58.7845
7.389452767901992 56.4889
7.411815697249891 55.468999999999994
7.434161478756298 55.1181
7.456524974096713 55.2007
7.478888753837185 55.3377
7.501235387657368 55.6522
7.523599738562711 55.5244
7.545946944825532 56.1243
7.568311870344528 56.3443
7.5906770845765665 56.5423
7.613025156078678 57.3924
7.635390950099687 57.6749
7.657739602662809 57.506
7.680105979923558 57.1494
7.702472650212829 57.321000000000005
7.724822180948224 57.4921
7.747189439655568 57.3803
7.769539560075357 57.2859
7.791907410653562 57.9591
7.81425812420825 57.7035
7.836626570110925 58.0457
7.858995315087906 59.0617
7.881346924933401 59.1581
7.903716270417482 59.8022
7.926068482028405 60.2365
7.948438431475253 60.8683
7.9708086843180235 61.2283
7.993161805171116 61.707
8.015532667162402 62.542
8.037886398416653 63.6057
8.060257873014221 63.8694
8.082629655331942 64.2234
8.104984308787587 65.4974
8.127356708900503 68.0239
8.149711981398308 71.2914
8.172085002766314 72.8795
8.194458336181368 71.6904
8.216814543847752 70.9418
8.23918850371002 71.4788
8.26154533906492 72.6035
8.283919928836452 74.6821
8.306277395339652 75.5086
8.328652618483376 76.9353
8.351028159736202 79.0249
8.373386579575245 81.5877
8.395762759396959 83.7785
8.418121819038275 87.921
8.440498640894003 96.8128
8.462875785192262 111.38600000000001
8.485235811156207 146.798
8.507613602688501 228.449
8.529974277114228 347.707
8.552352719347912 507.97900000000004
8.574731488360351 767.8439999999999
8.59709314210385 1191.01
8.619472567021075 1726.0
8.64183487789147 2086.98
8.664214962183097 1835.71
8.686577933647762 1033.62
8.708958680784317 409.22900000000004
8.731339760774953 177.74599999999998
8.753703729764451 118.507
8.77608547780821 104.286
8.798450116065078 99.699
8.820832535634787 96.3901
8.843215292401656 94.8268
8.865580941199045 93.42200000000001
8.887964374703538 92.1663
8.910330701447199 92.4025
8.932714815164482 92.4533
8.955099270424924 91.3731
8.977466620733543 89.1262
8.999851761421976 87.2649
9.022219798361645 86.2081
9.04460562795561 86.2208
9.066991803441677 86.0823
9.089360876979615 86.0559
9.111747746589993 85.3802
9.13411751544971 84.8935
9.156505082664324 84.6487
9.178875550323522 84.4716
9.20126381862328 84.4871
9.223652438908596 84.6542
9.246023961427412 84.4581
9.26841328802173 84.2584
9.290785518039224 84.8557
9.313175554425882 86.2022
9.335565947154315 86.2052
9.357939245086508 86.0072
9.380330352834827 86.1765
9.40270436697103 86.0313
9.425096193225055 86.2143
9.447488380180165 86.5904
9.469863475295412 86.5801
9.492256385987508 87.6057
9.514632206018318 88.0064
9.537025843935714 88.0584
9.559402392368193 89.1473
9.581796761000229 90.4854
9.604191496441521 92.1578
9.626569144158516 94.0907
9.648964615551032 96.3559
9.671343000390081 96.9089
9.693739211225699 96.537
9.716135793237463 96.0326
9.738515290448102 95.7779
9.760912617143402 97.7019
9.783292860202891 98.7291
9.805690935076182 100.34
9.828089385495742 101.65299999999999
9.850470754023561 104.06700000000001
9.872869957865444 108.60600000000001
9.89525208097539 116.838
9.917652041736662 126.369
9.940052382417589 137.385
9.962435644102392 174.386
9.984836746950979 239.605
10.007220771957746 325.71
10.029622640473708 445.26800000000003
10.052007432299963 625.947
10.074410069984072 873.6489999999999
10.096813093716005 1215.29
10.119199042482517 1597.21
10.141602840636468 1843.4
10.163989564971628 1610.88
10.186394141051062 989.189
10.208799107559706 451.88800000000003
10.231187001965623 207.804
10.253592751657669 134.757
10.275981430388155 118.08200000000001
10.298387966769793 114.889
10.320794897965431 114.777
10.343184759907361 113.17
10.36559248305461 110.075
10.387983138083852 110.51100000000001
10.410391656691655 120.323
10.432800574501677 138.14700000000002
10.455192425893369 159.221
10.47760214443012 189.0
10.499994797678786 233.268
10.522405320453982 300.378
10.54479877906917 388.85
10.567210109595656 488.37699999999995
10.5896218454736 552.288
10.612016518879773 521.413
10.634429067781074 365.62300000000005
10.656824555333241 215.03900000000002
10.679237920773568 129.717
10.701651695961992 99.9774
10.724048411481384 92.9179
10.746463008485165 89.4093
10.768860546937125 87.4733
10.791275969274796 85.8245
10.81369180576079 84.5204
10.836090585366925 83.4183
10.858507252467449 82.2463
10.88090686379991 80.9819
10.903324365036394 80.2367
10.925724811614439 79.7782
10.948143150509463 80.1617
10.970561909719066 79.708
10.992963615930844 78.1993
11.015383218085756 76.6286
11.037785768347074 75.3355
11.06020621697282 74.3759
11.082627090322113 74.1035
11.105030913430326 73.5539
11.12745263854165 73.3022
11.149857314510728 74.2235
11.172279894912576 77.2445
11.194702904450653 77.1909
11.217108866490921 74.8208
11.239532736615194 72.5286
11.26193956033512 71.2159
11.284364294577085 70.5855
11.306789462371718 69.373
11.329197585398376 68.8374
11.351623622610898 68.6915
11.37403261614354 67.9136
11.396459526308487 67.8179
11.418869393879497 66.9485
11.441297180532617 66.783
11.463725406927658 66.4905
11.486136592353875 66.3553
11.508565700543707 66.4411
11.530977768845315 67.0344
11.553407762368774 67.3188
11.575838200059769 67.2307
11.598251599479612 66.191
11.620682927815501 65.4801
11.64309721895548 65.1289
11.665529441478206 64.8287
11.687962112597958 64.5529
11.710377748130886 64.4566
11.732811318753434 64.3516
11.755227854859067 64.2038
11.777662328529495 64.3834
11.800079768750786 64.436
11.822515149015453 64.2611
11.844950984084935 64.4923
11.867369787303163 64.0207
11.889806534289491 64.0468
11.912226250487029 64.681
11.934663912939751 64.734
11.9571020346363 65.031
11.979523127133968 65.0259
12.001962169624331 66.464
12.024384183972964 69.1619
12.046824150809913 74.2452
12.069264581333726 80.4067
12.091687985297767 86.8704
12.11412934550045 96.2702
12.136553680195208 110.061
12.158995973632788 130.001
12.181438735204349 151.345
12.20386447284199 176.796
12.226308172985636 201.983
12.24873485024193 202.16
12.271179492516982 170.457
12.293607112949127 130.822
12.316052700916226 95.5221
12.338498763250042 77.3824
12.360927805303868 69.6834
12.383374818673879 67.1479
12.405804812803074 65.8732
12.428252780773262 65.9017
12.45070122756722 65.9511
12.473132656675375 65.9861
12.49558206341869 66.2817
12.518014453510101 66.1399
12.540464823770117 66.2307
12.562915677315177 66.0685
12.58534951575545 66.7873
12.607801338171472 67.5629
12.630236146511358 69.9762
12.652688941369085 72.6926
12.675124723177234 73.5343
12.697578494048786 72.2589
12.720032754458185 70.1006
12.742470003354093 69.4262
12.764925245138771 69.558
12.787363476431278 69.8663
12.809819703166806 70.3757
12.83227642391173 71.0199
12.854716135692716 71.7938
12.877173846755147 72.9297
12.899614549869717 73.2307
12.9220732548287 74.2811
12.94453245827299 74.7179
12.966974655289818 75.6507
12.989434858002571 76.65
13.011878055298721 77.6536
13.034339260862497 78.6583
13.056800969391883 80.2163
13.079245674017244 83.5886
13.101708390774869 88.8671
13.12415410463411 100.556
13.146617833206086 114.815
13.169064559883248 128.63
13.191529303857127 145.08700000000002
13.213994557076367 169.553
13.236442809902437 204.007
13.258909083908291 247.44400000000002
13.28135835851934 294.77099999999996
13.30382565690295 351.615
13.326293469022952 401.24800000000005
13.348744283242008 418.642
13.371213125129904 367.642
13.39366497011003 276.712
13.416134845360597 185.595
13.438605238843131 132.9
13.46105863690397 116.573
13.483530069144786 119.071
13.505984506951902 126.146
13.528456981549432 137.766
13.550929978879088 152.94299999999998
13.573385983253365 175.532
13.595860028340867 206.40099999999998
13.618317081455832 245.197
13.64079217790333 289.42
13.663250283359057 330.95300000000003
13.685726434770173 360.56800000000004
13.708203115221277 343.041
13.730662806148091 275.013
13.75314054697177 198.322
13.775601299246777 135.025
13.798080104050406 101.62799999999999
13.820559442405358 88.4151
13.843021793671388 84.2912
13.865502201420897 82.5402
13.887965623051947 81.9325
13.910447103807167 80.9112
13.932929122629764 79.5228
13.955394156785959 79.2501
13.977877254034569 78.2258
14.000343367582113 77.1806
14.022827546871707 76.8101
14.045294743423524 75.7422
14.06778000837062 75.1792
14.090265817715476 74.8287
14.112734645763819 74.2483
14.13522154619454 74.024
14.157691466286913 74.06
14.180179461423874 73.8839
14.202668005486178 73.4447
14.22513957064374 73.0413
14.247629214846473 72.3832
14.270101881097517 72.0713
14.29259262906496 72.1904
14.315083930490205 72.4967
14.337558255389705 72.5334
14.360050666019726 72.58
14.382526101071944 71.7651
14.405019624534942 71.0627
14.427513705993134 70.8783
14.449990813291825 70.9504
14.47248601302899 70.84
14.49496423954951 70.9561
14.517460561197822 70.9343
14.539939910570322 70.7434
14.562437357763558 70.9387
14.58493536931253 71.5217
14.607416409993311 72.1824
14.62991555254159 72.4491
14.652397725157423 72.683
14.674898002342799 72.887
14.697398848433282 72.9305
14.719882725991326 74.5848
14.74238471217934 77.2016
14.764869730765593 82.3069
14.787372860692983 86.6812
14.809876564079925 92.228
14.83236330125751 98.7968
14.854868153850365 108.045
14.877356041159485 120.465
14.899862046604186 135.92700000000002
14.922351087688757 155.425
14.944858249632887 177.33900000000003
14.967365991421232 199.889
14.989856770231246 217.678
15.012365673994204 217.18099999999998
15.03485761569738 193.604
15.05736768508665 151.937
15.07987833888692 118.865
15.102372032001655 93.446
15.124883856909658 79.3618
15.14737872204565 74.3073
15.169891721717274 72.7151
15.192405310371893 72.17
15.214901940621196 72.0761
15.237416709527137 71.8743
15.259914520936249 71.7468
15.282430473753607 70.9005
15.304947020131227 70.1743
15.327446610371178 69.6872
15.349964346154254 68.8776
15.372465126703139 68.7174
15.394984055556009 68.5451
15.417486030076159 68.3122
15.44000615566487 68.0218
15.462526881230803 67.7721
15.485030653812652 68.1062
15.507552581617434 67.9009
15.530057557334603 67.9514
15.55258069104857 67.9446
15.575104429329837 68.0833
15.597611216864632 68.0818
15.620136166564563 69.0298
15.6426441664095 71.6141
15.665170331202765 75.2703
15.687697105158826 79.072
15.710206930593545 83.2392
15.732734925158933 87.8162
15.755245972089478 94.2414
15.77777519094324 103.455
15.800287463046663 114.946
15.822817909869592 129.474
15.84534897229804 145.12
15.867863089299354 165.028
15.890395385222186 181.285
15.912910736597423 192.581
15.935444269699861 186.437
15.957978423016485 161.398
15.980495633101265 130.236
16.003031029129367 101.041
16.02554948280019 80.1682
16.048086125229432 69.6308
16.070623392487107 66.6027
16.09314371869582 65.1332
16.11568223789321 64.1004
16.13820381691126 63.4087
16.160743591742527 62.7346
16.183283996022084 61.9009
16.205807461423195 61.1034
16.228349126881973 60.6849
16.25087385432698 60.52
16.27341678466365 59.9686
16.29594277784926 59.699
16.31848697676433 59.5653
16.341031811604868 59.3648
16.36355971058487 59.6594
16.3861058195587 59.3475
16.40863499352978 58.6091
16.431182380342005 58.0203
16.453730407713202 57.4345
16.476261501364792 57.2284
16.498810812136167 57.0542
16.52134319004079 57.3391
16.54389378792203 57.0832
16.566445031001553 56.7055
16.588979342490088 56.7155
16.61153187824822 56.5812
16.634067483263312 56.2869
16.656621315414416 56.1479
16.679175797408888 55.99100000000001
16.701713349928728 56.0685
16.72426913389191 56.27
16.74680798922351 56.3276
16.76936507887444 56.0985
16.791905240734874 56.2914
16.814463639794468 56.4249
16.837022695210294 56.4188
16.859564824093756 56.5241
16.882125194503903 56.7656
16.904668639217885 56.9811
16.927230328348003 57.32899999999999
16.949792678493612 57.381
16.972338104193863 57.1893
16.994901778652235 57.1964
17.017448529496576 57.4383
17.040013531998152 58.044
17.06257920018044 58.7089
17.0851279459922 59.555
17.107694947817667 60.4917
17.130245028099072 61.2969
17.15281336730298 62.7796
17.17536478578733 64.4378
17.19793446610687 66.7672
17.220504818648422 69.3032
17.243058251703697 71.6921
17.265629950971032 75.281
17.288184731571736 78.9014
17.310757781306908 82.615
17.33333150794385 84.664
17.355888317140174 83.6594
17.37846339986244 79.4059
17.401021565958885 73.041
17.42359800851343 68.0652
17.44617513265564 64.2703
17.468735341390783 61.8101
17.491261035594565 61.1322
17.51396340099364 60.8073
17.536490463869136 60.716
17.559018209820174 60.8513
17.58154663977963 60.9178
17.604251766089718 61.1888
17.626781572227713 61.451
17.64931206518155 61.5395
17.671843245885103 62.0435
17.69455114821572 62.1772
17.717083712612634 62.4633
17.739616967569667 62.6721
17.762150914021706 63.1663
17.78486160749854 63.508
17.807396945166804 64.4154
17.829932977143503 66.5176
17.85246970436452 68.8387
17.875183204129467 70.7876
17.897721330097664 72.9473
17.920260154126645 75.9692
17.942799677153296 79.2244
17.9655159983646 83.0482
17.988056927677544 88.1531
18.010598558807683 94.7948
18.033140892692916 102.708
18.05586005052525 110.83
18.07840379824407 120.292
18.10094825154059 130.14
18.12366954819864 139.622
18.146215420998306 142.655
18.16876200220057 136.391
18.191309292745153 124.17
18.214033452627167 110.681
18.236582170236648 97.2175
18.259131600016456 90.5791
18.281681742907335 89.1774
18.304408781233683 91.8327
18.32696035875955 95.5524
18.349512652227624 99.6294
18.372065662579683 104.132
18.394795594587553 106.022
18.41735004715306 104.126
18.43990521943684 97.8061
18.46246111238171 88.9477
18.485193953325208 79.0961
18.507751296070428 71.7558
18.530309362314178 67.6468
18.552868153000343 65.4209
18.57560391815056 63.8738
18.59816416623245 63.2621
18.620725141597372 63.0059
18.643286845190268 62.7264
18.666025549835414 62.1571
18.688588718427933 61.4432
18.711152618092243 61.4211
18.73389353884365 61.1017
18.75645890921984 60.7061
18.77902501351406 60.4182
18.801591852673102 60.3824
18.824335739722738 59.6118
18.846904057212626 59.7111
18.8694731124168 59.3711
18.89204290628315 59.4906
18.914789774966803 59.0952
18.937361054791623 59.0123
18.959933076131318 58.467
18.982505839934877 58.6896
19.00525570560582 58.5842
19.027829963004184 58.5325
19.05040496572238 58.7355
19.072980714710468 58.8277
19.095733592739563 59.1912
19.11831084296757 59.5125
19.140888842324735 59.9852
19.16346759176222 60.2481
19.18622349753803 60.9925
19.208803755869358 61.7736
19.231384767143577 63.0282
19.253966532312948 64.4611
19.276725481241822 66.0979
19.29930876296784 67.77600000000001
19.3218928014549 70.0629
19.34465404436217 72.5254
19.36723960516257 74.9469
19.389825925592426 76.7892
19.412413006605938 76.4382
19.43517731967805 74.3011
19.457765930683355 69.9922
19.48035530514408 65.5564
19.50294544401556 61.3975
19.525712842708348 58.4585
19.54830451925909 56.8434
19.570896963095727 55.7759
19.593490175174704 55.746
19.616260674962184 55.5436
19.638855432416964 54.9957
19.661450960992624 55.3448
19.68404726164677 54.9415
19.706820878021247 54.9481
19.729418731756834 55.1859
19.752017360452857 54.9689
19.77461676506804 55.4211
19.797393513540218 55.6059
19.819994478951667 55.9259
19.84259622316767 56.622
19.8651987471481 57.1327
19.887978643247177 57.2864
19.91058273574792 57.6204
19.933187610901943 58.6202
19.955969879466828 59.6512
19.97857632894404 61.0296
20.00118356396599 62.4896
20.023791585494575 64.1534
20.046577028914875 66.3601
20.069186632506966 68.2933
20.091797025500632 70.2004
20.114408208858933 71.4183
20.137196842715273 72.0765
20.159809615886765 70.9288
20.18242318232135 68.2377
20.20503754298326 65.8966
20.227829382875154 64.1509
20.250445341109344 63.7147
20.27306209647285 63.636
20.29567964993108 64.4458
20.31847471147704 65.639
20.34109387027612 66.5654
20.363713830075454 66.91199999999999
20.386334591841646 65.8449
20.409132890679302 63.32899999999999
20.431755265564437 60.0872
20.454378445325528 57.3741
20.477002430930366 55.0748
20.499803982716553 53.5836
20.522429589228004 52.6808
20.54505600449589 52.0811
20.567683229489194 52.2106
20.590488049900088 51.9203
20.61311690359731 51.6002
20.63574656993626 51.4116
20.658553853717297 51.1371
20.681185154618298 51.1734
20.703817271080066 50.9919
20.72645020407368 50.5868
20.749260783967177 50.5057
20.771895359337133 50.3148
20.794530754161617 50.3032
20.817166969412938 50.36
20.83998086114876 50.2348
20.86261872660049 50.1145
20.885257415405402 50.0901
20.90789692853701 50.0419
20.930714147864748 50.2114
20.953355319030678 50.0432
20.97599731745334 50.193000000000005
20.99864014410749 50.0711
21.021460706796564 50.1773
21.044105199328826 50.3477
21.06675052302631 50.5133
21.089396678865015 50.7054
21.112220600704806 50.893
21.134868430275347 51.1603
21.15751709492456 51.451
21.180166595629693 51.5572
21.202993892429635 51.9177
21.22564507473034 52.3714
21.24829709602816 52.7559
21.27112693608965 52.8721
21.293780644891275 53.022
21.316435195634053 52.4417
21.339090589297417 51.6403
21.361923832041875 51.1783
21.384580921090404 50.6148
21.407238856007325 49.8694
21.429897637773326 49.728
21.45273429906592 49.8604
21.475394784108598 49.9121
21.498056118951983 49.797
21.520718304578022 50.0068
21.543558400304388 50.163999999999994
21.566222297108816 50.6332
21.58888704765135 50.7875
21.61155265291521 51.276
21.63439619898156 51.6184
21.657063523335786 51.7561
21.67973170537063 52.349
21.7024007460706 52.9951
21.72524775840385 53.9051
21.747918526116475 54.7796
21.770590155457388 56.0359
21.79326264741238 57.4294
21.816113141960237 58.6874
21.838787368860547 60.1366
21.861462461341976 61.7556
21.884315579735777 63.3797
21.90699241312273 65.0198
21.92967011506078 66.2762
21.95234868653799 66.5175
21.9752053151131 65.4223
21.997885635446785 63.391000000000005
22.020566828293532 61.3463
22.04324889464272 59.3588
22.066109049404666 57.8717
22.088792872571794 57.0955
22.111477572219204 57.1367
22.1341631493376 57.3825
22.157026846313123 57.2753
22.179714188221507 56.9732
22.202402410582668 55.9823
22.22509151438863 54.3619
22.24795876962584 52.8905
22.270649646204486 52.1207
22.293341407213727 51.3389
22.316034053646906 50.7453
22.338904883215342 50.4237
22.36159931041458 50.4924
22.38429462602756 50.25
22.40699083104897 50.081
22.429865251039757 50.0536
22.452563244831367 50.0437
22.47526213102522 50.0985
22.49813925616515 49.9668
22.520839937143307 49.9796
22.543541513520587 49.9502
22.56624398629403 49.8279
22.589124730075895 50.0023
22.611829005656723 50.291000000000004
22.63453418063466 50.2782
22.657240256008077 50.5692
22.680124634582935 50.8199
22.70283252079775 51.0627
22.725541310413075 51.3589
22.74825100442868 51.5971
22.771139033969575 52.1575
22.79385054687155 52.3234
22.81656296718292 53.0172
22.83927629590484 53.5338
22.862167992606945 54.3495
22.88488314827121 55.4855
22.907599215359284 56.0988
22.93031619487366 57.0513
22.953211574954405 57.8416
22.975930389478226 58.8514
22.998650119445763 59.5341
23.02137076586092 58.809
23.044269845560063 57.7423
23.06699233506288 56.1909
23.089715744034912 54.4333
23.112617610931565 52.6849
23.135342869061212 51.4705
23.158069049684816 50.8022
23.1807961538087 50.3204
23.20370174880544 50.2799
23.226430710184808 50.472
23.249160598093425 50.6124
23.271891413539002 50.5426
23.294800752937697 50.4514
23.31753343374794 50.798
23.340267045128353 50.8679
23.36300158808808 51.2672
23.38591468821339 51.5631
23.408651104658304 52.1277
23.431388455719986 52.713
23.454126742409 53.2155
23.4770436196085 54.0998
23.499783787914662 55.1344
23.522524894889884 55.7354
23.54526694154616 56.667
23.56818761219047 57.6156
23.59093154860734 58.2183
23.613676427751283 59.229
23.636422250635754 58.6275
23.659346731118656 57.1458
23.68209445191868 55.6053
23.704843119509587 53.2215
23.72759273490623 51.2492
23.750521041644767 49.7434
23.77327256312355 48.5896
23.796025035462787 47.7555
23.818956224555475 47.3636
23.841710609113413 47.3494
23.86446594758979 47.1537
23.887222241002014 46.8283
23.910157285144578 46.6424
23.932915498962537 46.5489
23.955674670778713 46.2269
23.978434801611975 46.1184
24.001373717286125 46.0011
24.024135776723917 45.9274
24.046898798245582 45.7357
24.06966278287146 45.6319
24.092605586582614 45.527
24.115371508023642 45.5275
24.1381383956401 45.2704
24.16090625045381 45.2016
24.183852958731244 45.2367
24.206622758582608 45.1628
24.229393528706886 44.8824
24.252165270127392 45.0591
24.27511589952438 44.8414
24.297889594216997 44.6353
24.32066426328598 44.5211
24.34343990775613 44.4499
24.36639447485003 44.4748
24.38917208083877 44.4427
24.41195066531332 44.2815
24.43490819850244 44.3083
24.457688750692377 44.0634
24.48047028445616 44.0659
24.503252800821233 44.3745
24.526214300784112 44.3957
24.548998793132213 44.3223
24.57178427117417 44.0622
24.59457073593893 44.1796
24.617536219319863 44.1721
24.64032466834748 44.2786
24.663114107195035 43.9517
24.685904536893013 43.5902
24.708874020360852 43.6406
24.731666442613744 43.6659
24.754459858818787 43.4879
24.777254270007962 43.534
24.80022777025625 43.6249
24.82302418230472 43.3902
24.845821592443674 43.5206
24.86862000170663 43.4998
24.891597535453727 43.3853
24.914397953892728 43.6314
24.93719937456671 43.4943
24.96000179851076 43.7137
24.98298338249997 43.9135
25.00578782394922 44.0789
25.028593271784167 44.244
25.05157790644186 44.4916
25.07438537804115 44.6825
25.097193859145293 44.7722
25.120003350792075 44.9283
25.142992065061257 45.2902
25.165803588823465 45.4982
25.18861612625217 45.8094
25.211429678386736 45.8669
25.234422489079968 45.9179
25.257238081693636 45.8374
25.280054692141732 45.8918
25.3028723214652 45.7254
25.325869245420463 45.763000000000005
25.348688923599397 45.8091
25.371509623787006 46.0495
25.394331347025812 45.8344
25.41733240110666 45.4981
25.440156181590016 45.0262
25.46298098826268 44.4324
25.48580682216873 43.6301
25.50881202326435 43.1414
25.53163992281684 42.6272
25.55446885274561 42.3644
25.577298814096377 42.1549
25.600308179121807 41.9725
25.623140214533745 42.01
25.64597328451537 41.8286
25.66898578564376 41.6128
25.691820936010206 41.8803
25.714657124097695 41.7158
25.737494350954734 41.7316
25.760511045684957 41.6083
25.783350361364224 41.7679
25.806190718969255 41.6014
25.82903211955018 41.8355
25.852053024868923 41.7857
25.874896522722523 41.9353
25.897741066713106 41.9114
25.920586657892454 41.9805
25.943611790812668 41.9235
25.966459487728237 42.0911
25.989308234998564 41.9892
26.01215803367705 42.4284
26.03518741123814 42.5145
26.05803932412957 42.6727
26.080892291600094 42.5743
26.10374631470478 42.6766
26.12677995397268 42.8384
26.14963609978026 42.8234
26.172493304397875 42.6269
26.19535156888223 42.3506
26.218389486949604 42.0892
26.241249882640123 41.7873
26.26411134137826 41.6217
26.28715248187403 41.4875
26.31001607820869 41.2933
26.3328807407756 41.2834
26.35574647063438 41.3123
26.37879191991473 41.3697
26.401659795896734 41.26
26.424528742360263 41.5472
26.447398760366614 41.591
26.470448535598294 41.78
26.49332070826805 41.81399999999999
26.516193955675355 42.1763
26.53906827888316 42.3039
26.562122397260108 42.3676
26.584998883685063 42.7385
26.607876449110325 42.9329
26.63075509460056 43.088
26.65381357334404 43.2607
26.67669439061878 43.2314
26.699576291163382 43.3263
26.722459276044212 43.236999999999995
26.745522132402975 42.8346
26.768407297649354 42.643
26.791293550442003 42.2516
26.814180891848974 41.9242
26.837248143099337 41.6022
26.860137673466657 41.6281
26.88302829566349 41.3978
26.90592001075963 41.1035
26.92899167420566 40.9141
26.951885586870763 40.6834
26.974780595655517 40.5209
26.99785558178161 40.2961
27.020752794605112 40.1537
27.043651106772522 40.0124
27.06655051935668 39.9893
27.089629948036183 39.7956
27.112531573292053 39.8478
27.135434302194138 39.9054
27.158338135817015 39.7194
27.181422024430987 39.7256
27.204328079372566 39.4883
27.22723524226965 39.6511
27.250143514198573 39.7068
27.273231880156334 39.6138
27.296142382065014 39.6051
27.319053996245536 39.4169
27.341966723775965 39.4826
27.365059584515222 39.5512
27.38797455070062 39.6785
27.410890633481237 39.4386
27.433807833936918 39.5153
27.456905206923906 39.5005
27.47982465472398 39.5954
27.502745223449743 39.6366
27.525666914182825 39.7046
27.548768816912457 39.6859
27.571692763693633 39.6599
27.59461783573812 39.524
27.617723149491244 39.4709
27.640650484125285 39.1784
27.66357894728264 39.2361
27.686508540048052 39.2592
27.709618414237887 39.1386
27.732550278321757 38.9762
27.755483275279115 39.0115
27.778417406196485 38.9881
27.801531858397514 38.94
27.824468269376716 38.8609
27.847405817586786 38.925
27.870344504116094 39.0469
27.893463551932008 39.1791
27.916404527281053 39.4498
27.93934664422563 39.5535
27.962289903855886 39.4442
27.98541356491974 39.6987
28.00835912214229 39.7143
28.03130582533231 39.9266
28.054253675581805 40.1274
28.077381967556104 40.1087
28.100332124185126 40.0662
28.123283431160893 40.027
28.146235889577238 39.8901
28.169368830154156 39.5065
28.192323603752033 39.4174
28.215279532083304 39.1198
28.238415973016764 38.8628
28.261374223145094 38.8609
28.284333631303806 38.6461
28.307294198589954 38.415
28.330435319167677 38.1425
28.353398217078915 37.9791
28.376362277420153 37.6832
28.39932750129032 37.510999999999996
28.422473319286713 37.4185
28.44544088262495 37.4142
28.468409612800283 37.3029
28.491379510913497 37.0646
28.51453004413313 36.9407
28.53750229057244 36.9361
28.56047570826344 36.830999999999996
28.583450298308804 36.8481
28.606605564586562 36.6484
28.629582511831156 36.7459
28.65256063474956 36.7249
28.675539934446338 36.7088
28.698699951647605 36.5312
28.72168161743193 36.4825
28.74466446331978 36.4315
28.767648490417624 36.4251
28.790813276438353 36.3786
28.813799678527303 36.3661
28.836787265157085 36.2927
28.859955641890075 36.3562
28.882945610203045 36.4652
28.905936766392035 36.3343
28.928929111566863 36.3558
28.952102288520145 36.2328
28.975097024308607 36.05
28.998092952423807 35.9873
29.021090073977508 35.9236
29.04426806913204 35.7794
29.067267590245258 35.4918
29.090268308143695 35.5291
29.11327022394099 35.4581
29.13645305530891 35.3518
29.159457379627167 35.347
29.18246290519685 35.3443
29.20546963313352 35.2642
29.22865731875826 35.3187
29.25166646419296 35.2905
29.27467681535305 35.1422
29.29768837335608 35.0948
29.320880931312562 35.1318
29.34389491580634 35.1069
29.366910110507334 35.0061
29.38992651653503 35.0857
29.41312396492981 35.1166
29.436142806456754 35.076
29.45916286268059 35.022
29.48236399319994 34.9097
29.50538649169417 34.7136
29.528410208259935 34.6331
29.55143514402014 34.3622
29.574641196749695 34.2228
29.597668583816574 34.2165
29.6206971934585 33.9967
29.64372702680042 34.1271
29.666938019934474 34.0574
29.689970313635285 33.8908
29.713003834422636 33.7303
29.73603858342347 33.781
29.759254535188578 33.7428
29.78229175361658 33.7318
29.80533020365064 33.5897
29.82836988641968 33.7033
29.85159081507472 33.6416
29.874632976355343 33.5528
29.89767637376955 33.6077
29.920721008448314 33.4832
29.9439469322847 33.4396
29.96699405457564 33.3673
29.9900424175358 33.5619
30.013092022298157 33.4533
30.03632295963995 33.4139
30.059375061131373 33.3494
30.08242840783577 33.2846
30.105483000888153 33.3878
30.128718970092244 33.3595
30.151776069006917 33.2844
30.17483441768648 33.2837
30.198074175317235 33.2943
30.221135036724256 33.4286
30.24419715131772 33.2752
30.267260520236203 33.1518
30.290505341942243 33.2537
30.313571232750228 33.2655
30.336638381310948 33.349000000000004
30.35970678876503 33.207
30.38295669299435 33.1689
30.40602763151657 33.0491
30.429099832366074 33.0768
30.452173296685572 32.9662
30.47542830191959 33.0044
30.498504306502497 32.8867
30.521581577995562 33.0479
30.544660117543582 33.1085
30.56792024229725 33.0934
30.59100133132069 32.9922
30.614083691845494 32.9598
30.637167325018545 33.0843
30.660432587840603 33.0759
30.683518779717886 32.9953
30.70660624769615 33.0479
30.729694992924372 33.083
30.75296541239743 33.0734
30.77605672557558 32.9927
30.799149319462742 32.9636
30.8224236211637 32.8989
30.845518789950724 32.9154
30.868615242910597 32.6602
30.891712981195973 32.5075
30.91499247215866 32.4368
30.938092794619365 32.4356
30.96119440587579 32.4535
30.984297307082752 32.2507
31.00758200598383 32.1589
31.030687500658694 32.1037
31.053794288760695 32.1125
31.076902371446767 31.8835
31.100192296997445 31.9427
31.12330298246119 31.9487
31.14641496599209 31.8176
31.169528248749216 31.8426
31.19282341969534 31.8564
31.215939314557186 31.7931
31.239056512134788 31.7942
31.262175013589378 31.7719
31.28547544871168 31.7026
31.30859657161541 31.6925
31.331719001892175 31.7154
31.35484274070538 31.8965
31.378148458819545 31.7152
31.401274828443725 31.6777
31.424402510106933 31.7891
31.447712205419993 31.8718
31.470842524931633 31.6879
31.493974159989783 31.669
31.51710711176168 31.6106
31.54042212308802 31.6177
31.563557722100917 31.6398
31.586694641341655 31.4396
31.609832881979628 31.3622
31.63315322823208 31.3647
31.656294125521327 31.1914
31.679436347728515 31.166
31.70257989602529 31.1039
31.725905596152327 31.0967
31.74905181052835 31.0206
31.772199354521323 31.0204
31.79534822930507 30.9519
31.818679302290967 30.8706
31.84183085259981 30.8957
31.864983737233473 30.8907
31.88813795736804 30.9558
31.911474422233013 30.7329
31.934631327356435 30.8852
31.9577895715215 31.0243
31.980949155906522 30.8912
32.004291031706956 30.829
32.027453310562606 30.7034
32.05061693318573 30.6492
32.07396288236386 30.6387
32.09712920658542 30.6365
32.12029687812702 30.4369
32.14346589817093 30.4452
32.166817291729984 30.4139
32.18998902288583 30.1709
32.21316210610336 30.1921
32.23633654256711 30.0215
32.259693399663725 29.9991
32.282870556771144 30.008000000000003
32.30604907069099 30.026
32.329228942610065 29.9458
32.35259128243769 29.7512
32.375773884550505 29.7276
32.398957848235646 29.7743
32.422143174682176 29.7101
32.445511016471215 29.5839
32.468699082679954 29.5158
32.49188851523011 29.5079
32.51507931531304 29.3893
32.538452678331 29.4417
32.56164622776311 29.3504
32.58484114831493 29.2759
32.60803744118015 29.4233
32.631416344731896 29.1876
32.654615396551876 29.2815
32.67781582427913 29.2905
32.701198898634416 29.0813
32.72440209253756 29.1006
32.747606665947124 29.1173
32.77081262006088 29.002
32.79420126883317 28.9626
32.81740999876112 28.9797
32.840620112999424 28.8369
32.86383161274818 28.7643
32.88722585534586 28.7792
32.91044014056596 28.9764
32.933655814909734 28.7543
32.95687287957963 28.8214
32.98027273544904 28.6483
33.00349259526636 28.5781
33.026713849030116 28.7426
33.04993649794511 28.5923
33.073341986570746 28.5504
33.09656744032826 28.524
33.11979429286444 28.5059
33.14302254538647 28.5267
33.166433686291185 28.4387
33.18966475336992 28.4599
33.212897224069096 28.4139
33.23613109959831 28.3462
33.259547912343415 28.4085
33.2827846121627 28.3631
33.306022720453775 28.1921
33.32926223842861 28.0428
33.352684742614166 28.0889
33.37592709463173 28.1233
33.399170859982064 28.0238
33.422597648419426 27.9589
33.44584425514446 27.854
33.46909227885668 27.8778
33.4923417207723 27.6948
33.51577423505344 27.8055
33.539026528130385 27.6681
33.56228024307245 27.6482
33.585535381098246 27.4942
33.60897364093058 27.4116
33.63223163992385 27.5783
33.6554910656699 27.4543
33.678751919389796 27.4766
33.702195944520106 27.3323
33.72545966903325 27.274
33.74872482519663 27.2838
33.771991414233746 27.3296
33.79544122444841 27.1775
33.81871069412428 27.1052
33.84198160035767 27.1132
33.86525394437455 27.1239
33.88870955949969 26.9199
33.911984794020626 26.9339
33.93526147001624 27.0148
33.958539588715006 26.9305
33.98200102861669 26.7792
34.0052820477047 26.7113
34.02856451319451 26.8105
34.05203033759056 26.7932
34.07531571090147 26.7218
34.09860253431845 26.6936
34.121890809074316 26.5997
34.145362493118924 26.541
34.16865368561615 26.4352
34.191946333164054 26.4484
34.21524043699793 26.423000000000002
34.23871800066799 26.385
34.26201503218366 26.2869
34.28531352370466 26.3497
34.30861347646881 26.1953
34.33209693978188 26.239
34.3553998301885 26.3071
34.378704185565205 26.1617
34.402010007152356 26.0696
34.42549939016683 26.1192
34.44880815937748 25.9644
34.472118398533134 25.8625
34.49543010887669 25.9305
34.51892543169198 25.8267
34.54224009966052 25.8359
34.56555624255917 25.796999999999997
34.58887386163339 25.7168
34.61237514439016 25.6656
34.6356957311114 25.6712
34.65901779775809 25.6423
34.68252356662995 25.6331
34.705848608458616 25.598000000000003
34.72917513396849 25.4497
34.75250314440949 25.4431
34.77601490857862 25.3602
34.799345904259795 25.3541
34.82267838863559 25.396
34.846012362958525 25.344
34.869530142679984 25.3296
34.89286711232212 25.2571
34.91620557568269 25.2466
34.93954553401677 25.2068
34.9630693495876 25.177
34.986412313340814 25.1913
35.00975677584668 25.07
35.033102738362956 25.066999999999997
35.05663261012228 25.0639
35.0799815881786 25.0447
35.10333207003229 24.9326
35.12668405694369 24.9588
35.150220005273056 24.9783
35.17357501786656 24.8883
35.19693153931268 24.9091
35.220289570874385 24.7539
35.24383161619786 24.8511
35.267192683604904 24.8269
35.290555264930376 24.7022
35.314101899412165 24.7856
35.33746752422433 24.7417
35.36083466676374 24.6308
35.38420332829803 24.5812
35.407756095629054 24.6927
35.43112781085063 24.5795
35.45450104888391 24.5435
35.477875810999194 24.64
35.50143473172161 24.5582
35.52481255774625 24.5164
35.54819191167777 24.4343
35.57157279478914 24.3541
35.595137889488406 24.3611
35.61852184675279 24.3136
35.641907337029984 24.3065
35.665294361595684 24.1809
35.68886565090076 24.2732
35.7122557598848 24.1945
35.73564740699838 24.14
35.759040593519934 24.1052
35.78261809810353 24.0039
35.80601437933051 23.9437
35.829412203814705 23.9306
35.85281157283719 23.8849
35.876395313415884 23.8626
35.8997977874528 23.8446
35.92320180988546 23.7389
35.946790244133936 23.6598
35.97019737933222 23.7474
35.993606066789866 23.7229
36.01701630779276 23.6997
36.04061101440684 23.6286
36.06402437852291 23.6293
36.08743930005611 23.5767
36.1108557802951 23.5146
36.13445678011326 23.4875
36.15787639383515 23.4337
36.18129757014299 23.4046
36.20472031032821 23.4056
36.22832762423364 23.3568
36.25175350829375 23.3342
36.275180960119776 23.2031
36.298609981005924 23.3533
36.32222362992669 23.2598
36.34565580510207 23.2312
36.36908955323448 23.133000000000003
36.39252487562093 23.0702
36.416144880530226 23.0711
36.43958336764275 23.0069
36.463023432914625 23.0355
36.486465077645676 22.9698
36.51009145956204 23.0756
36.53353627947859 23.0607
36.55698268276811 22.9024
36.58043067073321 22.8625
36.60406345072071 22.7649
36.62751462435344 22.8268
36.65096738658405 22.7836
36.67460498210655 22.7162
36.69806093788647 22.7163
36.72151848619297 22.603
36.744977628333636 22.7128
36.76862165890998 22.608
36.79208400512205 22.6353
36.81554794910557 22.607
36.83901349217101 22.4817
36.862663978991606 22.4393
36.88613273667352 22.3729
36.90960309738324 22.3199
36.933075062434064 22.2653
36.95673202673572 22.2151
36.98020721697122 22.1698
37.003684015502365 22.2422
37.027162423645365 22.1104
37.050825886711465 22.179000000000002
37.07430753063053 22.1164
37.09779078812467 22.0667
37.121275660513014 22.0283
37.144945643673694 21.9443
37.16843376245278 21.9526
37.19192350009803 21.9403
37.215414857931435 21.9365
37.239091382563885 21.826
37.262585997426164 21.8283
37.28608223645736 21.7754
37.309763684451696 21.7535
37.33326318851098 21.7099
37.356764320726555 21.7429
37.380267082425526 21.6989
37.40395510942588 21.614
37.42746114683234 21.5498
37.45096881771841 21.5274
37.474478123414166 21.5456
37.49817275092816 21.5603
37.52168534303452 21.4982
37.54519957395567 21.3659
37.568715445024665 21.4021
37.592416694607714 21.359
37.61593586281424 21.4401
37.63945667518264 21.4667
37.66297913304891 21.1814
37.68668702630454 21.2591
37.710212792059274 21.1914
37.733740207334854 21.1862
37.757269273470364 21.1006
37.780983832050374 21.0939
37.80451621684926 21.1492
37.82805025654007 21.0782
37.851585952464795 21.0
37.8753071980695 20.8779
37.89884622345676 20.8764
37.92238690911902 20.8544
37.94611318753442 20.8419
37.969657210779765 20.8563
37.99320289834801 20.8134
38.016750251586465 20.7031
38.04048325513017 20.7164
38.06403395679343 20.6433
38.087586328183946 20.6107
38.11114037065203 20.6307
38.13488012115898 20.6181
38.1584375229181 20.5668
38.181996599821 20.5047
38.205557353221124 20.4642
38.229303872575656 20.4535
38.2528679961576 20.4224
38.27643380031219 20.4292
38.30000128639589 20.3804
38.32375459653193 20.3748
38.34732546371299 20.3267
38.37089801690786 20.2427
38.39447225747609 20.2664
38.418232380377425 20.2326
38.441810012983396 20.2247
38.46538933705673 20.1612
38.488970353960084 20.1364
38.51273731166058 20.0853
38.536321731567014 20.0053
38.55990784840681 19.9576
38.58367995004091 19.9511
38.60726947812959 19.852
38.63086070726198 19.9459
38.654453638806274 19.951
38.678232613930824 19.834
38.70182896773327 19.8284
38.72542702806741 19.767
38.7490267963045 19.7536
38.77281266709232 19.7049
38.79641586862214 19.6346
38.8200207821842 19.6507
38.843627409152944 19.6892
38.86742019782782 19.6319
38.891030269149255 19.5299
38.914642058016156 19.5405
38.938255565806124 19.5362
38.96205529464307 19.4595
38.98567225787121 19.3829
39.00929094417078 19.3556
39.03291135492255 19.4082
39.05671804624804 19.3553
39.080341923549106 19.308
39.103967529460334 19.2973
39.127594865365744 19.323
39.15140854155791 19.2222
39.17503935514948 19.235
39.19867190290282 19.2217
39.22249083587951 19.1553
39.24612686969409 19.1309
39.269764641845306 19.1173
39.293404153722804 19.0822
39.317230110864074 19.0536
39.34087311998506 18.9808
39.36451787301696 18.9705
39.388164371352595 18.9602
39.41199737518003 18.8856
39.43564738196752 18.8737
39.45929913825317 18.8823
39.48295264543308 18.8246
39.506792718520884 18.7799
39.530449745387216 18.7476
39.55410852735203 18.7322
39.57776906581474 18.683
39.60161623079 18.6651
39.625280300200025 18.6646
39.64894613032202 18.5827
39.67261372255866 18.5838
39.6964680021016 18.55
39.72013913657293 18.5073
39.74381203738292 18.4605
39.76748670593756 18.4881
39.79134812278169 18.4509
39.81502634488497 18.3862
39.83870633896685 18.3817
39.862388106436654 18.3461
39.88625668336918 18.3087
39.90994201572829 18.3033
39.933629125719285 18.2755
39.957503091207826 18.2211
39.9811937746168 18.265
40.00488623990914 18.204
40.02858048850006 18.1532
40.05246165409549 18.12
40.076159487492085 18.05
40.099859108448875 18.0771
40.123560518384345 18.0055
40.1474489070226 17.9916
40.171153913178564 17.9271
40.194860712584955 17.9328
40.2185693066637 17.8742
40.242464941335314 17.8574
40.26617714307655 17.8756
40.289891143772046 17.8867
40.3136069448471 17.7749
40.33750984859743 17.8167
40.3612292688043 17.7593
40.3849504936829 17.7457
40.40867352466194 17.694000000000003
40.43258372059144 17.5998
40.45631038219906 17.647000000000002
40.48003885420956 17.6196
40.503769138055105 17.6061
40.52768664931955 17.6246
40.55142057531802 17.5386
40.57515631746428 17.4535
40.599079334038514 17.4496
40.62281872700477 17.4105
40.64655994043941 17.3829
40.67030297578061 17.4013
40.69423334835778 17.3716
40.71798004609188 17.2741
40.74172857006355 17.253
40.76547892171441 17.2571
40.7894166736039 17.1904
40.813170699248566 17.219
40.83692655691388 17.2088
40.86068424804498 17.1834
40.884629402612525 17.1411
40.908390779366385 17.1657
40.932153993938 17.0768
40.95591904777605 17.0275
40.979871628443995 17.043
41.003640379561936 16.9874
41.02741097430883 17.0073
41.05118341413683 16.9211
41.075143444384416 16.9265
41.098919593177826 16.9205
41.1226975914255 16.8134
41.14647744058318 16.8251
41.170444943946755 16.7807
41.19422851378379 16.7655
41.218013938914645 16.705
41.24198706625173 16.6947
41.26577622087193 16.6734
41.289567235177785 16.6784
41.31336011063129 16.6334
41.337340752422875 16.5551
41.361137369129835 16.5524
41.38493585138705 16.5778
41.40873620066004 16.5456
41.43272438060107 16.473
41.45652848292052 16.4987
41.48033445666918 16.3776
41.50414230331616 16.3354
41.528138045159764 16.3454
41.551949656675205 16.2943
41.575763145513235 16.2683
41.59957851314666 16.217
41.62358184070442 16.2378
41.64740098505737 16.2304
41.6712220126409 16.1251
41.69504492493139 16.1107
41.71905586207357 16.1183
41.74288256296395 16.1816
41.766711153007456 16.1107
41.79054163368412 16.0818
41.814560204340054 16.0578
41.838394485526365 16.0182
41.86223066180303 16.0325
41.88625497706819 15.9558
41.910094962812 15.9186
41.93393684811168 15.9314
41.95778063445365 15.8562
41.981812625263366 15.8722
42.00566023303407 15.8349
42.029509746323676 15.7888
42.05336116662236 15.7899
42.077400857069705 15.7624
42.10125611078846 15.7416
42.12511327600405 15.669
42.14897235421036 15.6451
42.173019768448455 15.7008
42.19688269209613 15.6145
42.22074753323349 15.595
42.24461429335818 15.5722
42.268669455600495 15.5569
42.292540073217886 15.5367
42.31641261433284 15.4827
42.34028708044675 15.4485
42.36435001496739 15.4044
42.38822835065557 15.4748
42.41210861586426 15.3545
42.4359908120986 15.3678
42.46006154323262 15.3024
42.48394762115317 15.3008
42.507835634632315 15.2794
42.531912233047436 15.259
42.55580413732265 15.2593
42.579697981698 15.2072
42.60359376768525 15.1405
42.62767820545945 15.1652
42.65157789440821 15.1471
42.67547952952185 15.0667
42.699383112316 15.0729
42.72347541395347 15.0458
42.74738291190531 14.9778
42.771292362102166 14.975
42.795203766063516 15.0042
42.819303956130405 14.9489
42.843219287476536 14.8626
42.86713657716324 14.8451
42.89105582671383 14.9067
42.91516392983864 14.879000000000001
42.939087119032166 14.7944
42.963012272677304 14.8005
42.98693939230129 14.7349
43.01105543317513 14.6852
43.034986504731386 14.6832
43.05891954686589 14.6949
43.08285456110972 14.6713
43.10697856448665 14.6341
43.130917542983475 14.585
43.15485849820081 14.6097
43.17880143167367 14.5527
43.20293342237094 14.5406
43.226880332449 14.5063
43.25082922540554 14.4757
43.27496722682525 14.4402
43.29892010567796 14.4162
43.32287497204102 14.4131
43.34683182745632 14.3503
43.370977859791836 14.347000000000001
43.39493871351105 14.3189
43.41890156092628 14.3206
43.44286640358341 14.3207
43.46702049182749 14.2833
43.49098934522816 14.2322
43.51496019852649 14.1656
43.5389330532723 14.2229
43.56309522248204 14.1658
43.58707210044314 14.1557
43.61105098451946 14.0791
43.63503187626491 14.0828
43.659202151562134 14.0777
43.68318707902681 14.0497
43.70717401884041 14.0351
43.731162972560874 14.0081
43.75534137913236 13.9582
43.779334381108384 13.9238
43.803329401683186 13.9243
43.82732644241872 13.9535
43.8515130055166 13.8549
43.87551410707659 13.8183
43.89951723350145 13.7964
43.923709934595614 13.8127
43.94771713129917 13.8098
43.97172635758096 13.7526
43.99573761501002 13.7096
44.0199385169922 13.7038
44.04395385732619 13.698
44.067971233533086 13.7212
44.09199064718605 13.6176
44.11619977548961 13.617
44.14022328470671 13.6301
44.16424883610785 13.5941
44.18827643127035 13.62
44.21249381139513 13.5104
44.236525514814076 13.4798
44.26055926674478 13.4966
44.28459506876863 13.4864
44.3088207262813 13.3957
44.33286064928722 13.4128
44.35690262714919 13.394
44.38094666145278 13.3564
44.4051806219871 13.3658
44.42922879003185 13.3058
44.45327901929361 13.2686
44.477331311362136 13.2351
44.501573600619416 13.1878
44.525630039221795 13.152000000000001
44.54968854541895 13.2247
44.573937102200176 13.1917
44.5979997645541 13.1474
44.622064499300315 13.1124
44.64613130803592 13.0832
44.67038823869318 13.0981
44.69445921643748 12.9864
44.718532272981385 13.012
44.742607409926194 13.022
44.76687274034801 12.9985
44.79095205918753 12.9658
44.81503346325094 12.9416
44.839116954143876 12.8991
44.86339071028742 12.9145
44.88747839599524 12.8828
44.91156817336837 12.8541
44.93566004401666 12.8201
44.959942251908146 12.8011
44.984038330325966 12.7193
45.00813650686762 12.7352
45.03223678314731 12.7249
45.05652746888232 12.7375
45.08063196592069 12.7437
45.104738567558705 12.6519
45.128847275414856 12.648
45.15314646515866 12.5576
45.17725940679741 12.5882
45.20137445952892 12.5532
45.22568004865265 12.5864
45.24979934496396 12.5388
45.27392075725247 12.4648
45.29804428714431 12.4804
45.322358426247604 12.4471
45.346486212804315 12.4483
45.370616121861914 12.4476
45.39474815505086 12.3788
45.41907087049246 12.3001
45.4432071734666 12.3108
45.46734560548283 12.3609
45.49148616817604 12.3704
45.51581748638564 12.3389
45.5399623320197 12.2931
45.56410931325473 12.2691
45.58825843173002 12.2772
45.61259837920865 12.2347
45.636751793816 12.1904
45.66090735060093 12.1885
45.68506505120716 12.1239
45.7094136545275 12.1027
45.73357566449271 12.0636
45.75773982322992 12.0585
45.78190613238733 12.0779
45.806263418194064 11.9835
45.83043404997326 12.0422
45.85460683713677 12.0312
45.87897065658495 11.962
45.90314777634752 11.9505
45.92732705646868 11.9436
45.9515084986045 11.87
45.97588104735473 11.8952
46.00006683541565 11.8406
46.02425479047904 11.81
46.04844491420549 11.8691
46.0728262191024 11.8226
46.09702070211635 11.7782
46.12121735879483 11.7733
46.14541619080294 11.7547
46.169806278764455 11.7082
46.194009483459034 11.7106
46.21821486849841 11.6397
46.24242243555223 11.6292
46.266821333570014 11.6092
46.29103328674601 11.5885
46.31524742696538 11.6189
46.33946375590237 11.5887
46.36387149104216 11.5576
46.38809221957392 11.5547
46.41231514186606 11.4992
46.436540259597464 11.4514
46.460956858999374 11.4506
46.48518638983522 11.4263
46.509418121166966 11.3837
46.533652054678114 11.3923
46.55807754555709 11.3334
46.58231590571962 11.3563
46.60655647313217 11.3253
46.630988654873654 11.306
46.655233659129024 11.2415
46.67948087571551 11.2816
46.70373030632484 11.2544
46.72817142736393 11.2241
46.752425308428684 11.2055
46.77668140861147 11.1954
46.80093972960865 11.1815
46.82538981736788 11.1346
46.849652602470904 11.1171
46.87391761349769 11.1379
46.8981848521493 11.0647
46.9226439341274 11.0476
46.946915650573224 11.0301
46.97118959976749 10.9758
46.99546578341598 10.98
47.019933887188216 10.9847
47.04421456235744 10.944
47.06849747711879 10.9034
47.09278263318286 10.9205
47.11725978640143 10.8617
47.14154944775105 10.8637
47.165841355555656 10.8424
47.1901355115306 10.865
47.214621741924994 10.8537
47.23892041698887 10.829
47.26322134538975 10.7829
47.28771440635075 10.7513
47.31201986422527 10.719000000000001
47.33632758061436 10.6869
47.360637557241866 10.6793
47.38513974410611 10.6669
47.40945426407847 10.6292
47.43377104948137 10.5904
47.45809010204344 10.6146
47.48260144275502 10.5972
47.506925052572285 10.6011
47.53125093475548 10.5411
47.55557909103813 10.5266
47.58009961361992 10.485999999999999
47.60443234110732 10.4967
47.62876734791564 10.4824
47.65310463578333 10.4376
47.6776343683373 10.4309
47.7019762413987 10.3795
47.72632040075572 10.4277
47.75066684815169 10.3651
47.77520581885936 10.3347
47.799556865477655 10.3243
47.823910205386 10.3145
47.84826584033272 10.314
47.87281407745551 10.2782
47.89717432569297 10.2941
47.92153687423484 10.2527
47.94609208429692 10.2489
47.97045925671401 10.2481
47.99482873471275 10.1788
48.01920052005013 10.1738
48.04376504619224 10.1375
48.068141469543484 10.1399
48.09252020552573 10.1665
48.11690125590099 10.0959
48.1414751266064 10.0765
48.16586082917454 10.1048
48.19024885144316 10.0701
48.2146391951793 10.0342
48.239222439012764 10.0201
48.26361744916137 9.97382
48.28801478610016 9.981
48.31241445160131 9.97932
48.337007097209366 9.94157
48.36141144338331 9.90358
48.38581812345755 9.92808
48.41022713920929 9.91967
48.434829215320704 9.89058
48.45924292604658 9.87345
48.48365897780325 9.8802
48.50807737237308 9.866430000000001
48.532688907799276 9.82489
48.55711201168574 9.78961
48.581537463754074 9.76356
48.60615611725119 9.76473
48.63058628942721 9.749369999999999
48.65501881516546 9.70316
48.6794536962573 9.69175
48.70408185970339 9.66703
48.72852147531801 9.641739999999999
48.75296345168211 9.63913
48.77740779059232 9.60741
48.80204549302823 9.628039999999999
48.82649458091802 9.607389999999999
48.85094603676547 9.55995
48.87539986237231 9.54548
48.90004713292306 9.513110000000001
48.92450572200832 9.54693
48.94896668628025 9.5081
48.97343002754588 9.49387
48.99808689542115 9.462539999999999
49.02255501470614 9.44053
49.04702551642794 9.42522
49.0714984023988 9.43088
49.096164896893235 9.37009
49.120642575466796 9.36712
49.145122643748394 9.327960000000001
49.16960510355558 9.33395
49.19428125404938 9.29438
49.2187685210852 9.29001
49.243258185121555 9.294889999999999
49.26794160167084 9.280660000000001
49.2924360839405 9.22264
49.31693296869764 9.21518
49.34143225776915 9.2171
49.36612538195438 9.18653
49.39062950396021 9.20228
49.41513603578346 9.18333
49.4396449792564 9.16583
49.46434784069503 9.126619999999999
49.488861631846454 9.11503
49.513377840166804 9.10169
49.537896467493745 9.05899
49.56260909589029 9.012780000000001
49.587132585683285 9.00817
49.611658500018365 9.0079
49.636186840738596 8.96504
49.66090926588511 8.96803
49.685442483902584 8.95862
49.70997813385706 8.94003
49.734516217597076 8.93362
49.75924846937352 8.89808
49.7837914452858 8.891869999999999
49.80833686055187 8.871360000000001
49.83288471702571 8.84277
49.85762682540054 8.85506
49.882179588965734 8.81592
49.9067347993235 8.803460000000001
49.93129245833333 8.762089999999999
49.95604445336378 8.80213
49.98060703442832 8.7275
50.005172069746266 8.71442
50.02993150438364 8.72688
50.05450147301533 8.77403
50.07907390151433 8.7128
50.10364879174981 8.65788
50.12841816587289 8.63679
50.1529980044635 8.62439
50.17758031042124 8.634160000000001
50.20216508562089 8.62697
50.22694442953363 8.610380000000001
50.25153416817468 8.60401
50.27612638170508 8.5693
50.300721072005196 8.531139999999999
50.325510416102105 8.54614
50.350110084975064 8.52168
50.37471223628208 8.47674
50.39931687190919 8.48325
50.424116246675766 8.45117
50.44872587605249 8.43478
50.47333799543065 8.42275
50.49795260670191 8.39582
50.52276204271512 8.39401
50.54738166295838 8.41842
50.57200378079314 8.38589
50.596628398116835 8.32422
50.62144792604559 8.3064
50.646077567609396 8.31937
50.670709714377715 8.31705
50.69553683636198 8.30772
50.72017401885922 8.24634
50.7448137122895 8.265880000000001
50.76945591856022 8.22743
50.79429318636823 8.221910000000001
50.818940443716784 8.2462
50.84359021965163 8.18736
50.868242516085964 8.20283
50.893089960641895 8.15882
50.917747323549435 8.12556
50.94240721271973 8.089189999999999
50.96706963007175 8.086969999999999
50.99192728239342 8.09653
51.01659478166073 8.0793
51.04126481489051 8.06131
51.06593738400761 8.05207
51.090805275207074 8.01495
51.11548294172845 8.01041
51.14016314993547 7.97837
51.164845901758845 7.9913300000000005
51.18972406304274 7.97555
51.21441192780656 7.920560000000001
51.23910234200271 7.961939999999999
51.2637953075678 7.924339999999999
51.288683770237945 7.923589999999999
51.31338186432707 7.88965
51.33808251561888 7.835210000000001
51.362978729967345 7.8787
51.387684521509755 7.82632
51.41239287610203 7.81475
51.437103795691165 7.79311
51.46201036644977 7.79207
51.486726441956634 7.757210000000001
51.51144508832545 7.78653
51.536166307509156 7.741569999999999
51.56108326624387 7.71299
51.58580965706056 7.7168
51.61053862657523 7.71855
51.635270176746864 7.65793
51.66019755512065 7.68513
51.68493429268881 7.659730000000001
51.70967361681515 7.6158399999999995
51.73441552946465 7.60951
51.759353359237934 7.64215
51.7841004750961 7.590960000000001
51.80885018539685 7.5350600000000005
51.833602492111254 7.532789999999999
51.8585508051424 7.5218300000000005
51.883308330926425 7.51567
51.90806845906181 7.51628
51.932831191525715 7.498760000000001
51.95779001977161 7.448589999999999
51.98255798721516 7.44747
52.00732856494335 7.414389999999999
52.03229530577543 7.416689999999999
52.057071130455945 7.36671
52.081849571391054 7.40401
52.106630630568695 7.3832699999999996
52.13160794279417 7.33863
52.15639426492067 7.3364
52.18118321127822 7.356889999999999
52.205974783860896 7.3190100000000005
52.23096269971011 7.28705
52.255759551287994 7.27698
52.280559035098186 7.26408
52.30536115314103 7.254739999999999
52.33035970494467 7.23078
52.35516711807904 7.19871
52.37997717147198 7.227060000000001
52.40478986713005 7.21201
52.42979908731974 7.162889999999999
52.454617094216 7.13823
52.47943774942214 7.157019999999999
52.50426105495102 7.14825
52.529280976059844 7.09599
52.554109609024096 7.07817
52.57894089837482 7.0877
52.60377484613117 7.03378
52.62880550079408 7.07574
52.65364479223379 7.0372699999999995
52.67848674816189 7.001589999999999
52.70352547971946 7.04312
52.72837279155837 6.99728
52.753222773982785 6.9805
52.778075429022984 7.00357
52.80312495150885 6.973210000000001
52.827982978797436 6.97134
52.85284368481815 6.9348399999999994
52.87770707160767 6.8945
52.90276741793998 6.893860000000001
52.92763619336701 6.91257
52.952507655698504 6.85685
52.977381806977576 6.82718
53.00245301017842 6.97917
53.02733256653592 6.86252
53.052214817996074 6.79115
53.077099766608484 6.78959
53.102181859804446 6.76895
53.127072229988265 6.7951
53.15196530349892 6.76415
53.17686108239249 6.74586
53.20195409881522 6.71847
53.22685531582556 6.67917
53.25175924441303 6.6901399999999995
53.27666588664027 6.65412
53.30176985962693 6.62487
53.3266819565689 6.64458
53.35159677336455 6.61367
53.376514312083096 6.6282
53.40162927507703 6.634110000000001
53.42655228516116 6.6019
53.45147802340193 6.59726
53.47660125628886 6.5611
53.50153247842639 6.52468
53.52646643496923 6.5009
53.55140312799818 6.51973
53.576537409691696 6.48845
53.60147960336152 6.52876
53.626424539786164 6.47541
53.65137222105307 6.4775
53.67651758529126 6.49697
53.70147078399681 6.44563
53.72642673383343 6.42497
53.75138543689533 6.38085
53.776541917524526 6.40043
53.801506154876755 6.36564
53.826473151763246 6.32158
53.851442910284916 6.32585
53.87661054126026 6.37869
53.9015858509782 6.35125
53.92656392866066 6.3430800000000005
53.95154477641532 6.34111
53.976723591801296 6.28938
54.00171000771266 6.2754
54.02669920004598 6.28932
54.051691170915745 6.2340599999999995
54.076881204886796 6.20517
54.101878760928514 6.22273
54.12687910187696 6.190169999999999
54.152077577768296 6.1889199999999995
54.1770835166946 6.14754
54.20209224691339 6.12935
54.22710377055121 6.18181
54.25231352511594 6.1365099999999995
54.27733066384342 6.12019
54.30235060239643 6.11337
54.32737334290836 6.09312
54.35259441062629 6.046930000000001
54.377622783395324 6.01147
54.40265396455061 6.0145
54.42768795623251 5.98339
54.45292037169559 5.98947
54.477960012857906 6.00568
54.50300247099511 5.96068
54.52804774825457 5.92612
54.55329154616743 5.90337
54.57834249018678 5.93507
54.6033962597977 5.8779699999999995
54.6284528571545 5.83471
54.653708072335164 5.79255
54.67877035378786 5.82049
54.70383546947698 5.79943
54.72890342156389 5.8105199999999995
54.7541700889442 5.70341
54.77924374251975 5.69395
54.8043202390049 5.71066
54.82959552413022 5.67673
54.8546777351945 5.65085
54.87976279569621 5.6264199999999995
54.90485070780914 5.63715
54.930137506558005 5.64398
54.95523115074295 5.610040000000001
54.98032765308844 5.57855
55.005427015775496 5.54052
55.03072536339621 5.54817
55.05583047570572 5.49996
55.080938454927676 5.49027
55.10604930325027 5.5169
55.131359235107396 5.52238
55.15647585066083 5.43161
55.181595341907496 5.3643
55.20671771104285 5.36618
55.232039262617704 5.31912
55.25716741665048 5.275119999999999
55.28229845518636 5.3051900000000005
55.30743238042802 5.28241
55.33276558731939 5.3101199999999995
55.357905315183636 5.251580000000001
55.383047936390035 5.27168
55.40819345314859 5.19624
55.433538351073295 5.1999
55.458689688238415 5.17528
55.483843927614096 5.07642
55.509197623043605 5.110519999999999
55.53435769621134 5.08573
55.55952067826466 5.0689400000000004
55.5846865714265 5.0522599999999995
55.61005202069737 5.03629
55.63522376553902 4.954940000000001
55.66039842818645 4.96282
55.68557601087004 4.96174
55.7109532500271 4.89516
55.73613670233794 4.92709
