TT I
1.2716486653135266 7.22698
1.2939594142134223 7.01992
1.3162702121660406 6.28167
1.3385810600174564 6.4462
1.3608919586137629 6.59178
1.383202908801069 6.43467
1.405513911425503 5.59901
1.4278249673332093 6.1403300000000005
1.4501343378461518 6.41043
1.4724455028545926 5.83022
1.4947567236847858 5.53958
1.517068001182951 6.01406
1.5393793361953272 5.2929900000000005
1.5616907295681737 6.07952
1.5840021821477681 5.73396
1.60631369478041 4.83285
1.6286252683124185 4.70478
1.6509369035901333 4.54424
1.6732468618895553 4.71358
1.695558623192809 4.40664
1.7178704487808514 5.045730000000001
1.7401823395001077 4.95809
1.7625012545597203 4.43703
1.7848028405262486 4.81864
1.8071218901122095 4.68498
1.8294236121921872 4.644480000000001
1.8517427996910911 4.707330000000001
1.8740620574440425 4.57068
1.8963639900671978 4.56842
1.9186833908139995 4.84392
1.9409854680117449 4.85087
1.9633050151394713 5.065259999999999
1.9856246367570705 5.19452
2.0079269371922672 5.1435
2.03024671027244 4.54448
2.0525491637446027 4.847230000000001
2.074869091674931 4.77212
2.097171701569106 4.74029
2.1194917877373847 5.3045
2.141811954326636 4.55464
2.164114805233074 5.2377400000000005
2.186435135143035 6.16006
2.208738150935709 10.2883
2.231058647554722 18.0818
2.2533792288321184 14.6528
2.275682498336085 7.58184
2.298003251406138 5.71272
2.3203066942619714 5.45567
2.3426276225136022 6.0003
2.3649486396617507 5.78489
2.387252348930071 6.50341
2.4095735463442893 6.54341
2.4318774374315884 6.23054
2.4541988185014043 6.86635
2.476502894794693 6.974880000000001
2.498824462909887 6.38583
2.521146125856138 7.08547
2.5434504863470337 7.7523800000000005
2.5657723414244717 8.00104
2.588076895590662 8.54996
2.610398946189713 8.68937
2.6327210958598384 8.58527
2.6550259469304716 8.45758
2.6773482972090137 8.07669
2.6996533504259 8.18915
2.7219759047039602 8.04855
2.744298562293959 8.172989999999999
2.7666039251246595 8.42752
2.7889267918020164 8.29842
2.8112323652516555 8.571769999999999
2.833555444408179 9.1338
2.8558786311183852 8.99503
2.8781845268938557 9.62503
2.9005079311721484 9.52796
2.9228140460410397 9.62372
2.9451376712799635 9.54242
2.967444008632326 9.56905
2.9897678582247247 10.1975
3.0120918213106695 10.3927
3.0343984987899373 10.6412
3.0567226913198637 11.4116
3.079029599759726 11.6722
3.101354025127254 11.9269
3.123678568232338 12.6247
3.145985829517914 13.124
3.16831061055229 13.5006
3.1906181112775593 14.1956
3.212943133635653 15.1392
3.2352682779763207 14.7498
3.2575761442691227 15.2216
3.2799015350264273 15.9454
3.302209649240067 16.3907
3.3245352898092655 16.9786
3.3468436553365257 17.0366
3.369169549113219 17.6134
3.3914955708171384 18.7353
3.413804319727358 19.369
3.4361305997334863 18.8184
3.4584396084414553 19.0587
3.4807661501462652 19.9497
3.503092824025881 20.8784
3.5254022288463154 21.1461
3.5477291695206588 21.1826
3.5700388426251948 21.7768
3.5923660534916446 23.1946
3.6146934007816114 32.2531
3.637003482731501 62.208
3.6593311053109985 67.3258
3.681641464033634 43.2392
3.7039693653009733 28.0027
3.726297407241705 25.165
3.7486081875460804 25.1995
3.7709365132734978 25.5191
3.793247578841633 26.0665
3.8155761917550093 26.3965
3.8378875459837216 26.8824
3.8602164494827234 27.4765
3.882545499606844 28.2254
3.9048572932539183 28.8005
3.9271866390645718 28.8543
3.9494987298666713 29.4199
3.971828374764527 29.8027
3.9941581705403255 30.1465
4.016470713506008 31.0787
4.038800813471445 32.0031
4.061113662089144 32.3259
4.0834440696459176 33.1636
4.105774632334751 33.4751
4.128087945865126 34.0117
4.150418821249301 34.8828
4.172732448931298 36.0195
4.195063640413578 37.4721
4.2173775856475215 40.3361
4.239709096631102 62.2833
4.262040768704612 155.128
4.284355196706267 201.44099999999997
4.306687193387355 134.68200000000002
4.329001947444346 63.8355
4.35133427213731 45.0677
4.373666762177566 43.2702
4.395982011761091 43.0858
4.418314834921175 44.6808
4.44063041906622 50.1481
4.4629635787515625 56.1919
4.4852969080429785 56.8351
4.5076130004776225 52.6809
4.529946671403969 53.1299
4.552263106909177 55.0907
4.574597122877047 53.8943
4.596931312711224 52.5198
4.619248269273446 52.9648
4.6415828092605835 54.1317
4.663900117405352 55.0079
4.686235010953232 56.3347
4.708552674085913 57.3552
4.730887924602802 58.9091
4.753223354952695 61.066
4.775541557023902 62.9233
4.797877349456786 65.0688
4.820195915032126 66.3293
4.842532072957498 67.8007
4.864868414979744 69.8212
4.88718753227192 72.441
4.909524244902505 74.0966
4.931843734218147 74.834
4.954180820867835 76.8235
4.976518095879839 79.7663
4.998838149695359 82.2327
5.021175803844231 85.9435
5.043496238205739 88.9859
5.065834274903528 93.2073
5.088172504230693 97.8963
5.1104935158799565 103.97399999999999
5.132832132875765 121.76
5.155153533596801 155.23
5.1774925416746225 189.347
5.199814334878411 346.12800000000004
5.2221537374521505 931.319
5.244493338631803 2721.65
5.266815727034316 7990.14
5.289155727832427 13761.2
5.311478517248165 8948.26
5.333818921080011 2612.84
5.356159527788849 475.725
5.3784829252032536 178.822
5.400823940070432 143.243
5.423147747031976 125.85
5.445489173474152 116.819
5.467830807066149 114.08
5.490155234831516 112.475
5.512497285125229 107.06700000000001
5.534822130975162 103.336
5.557164601388673 100.679
5.579489868738879 97.656
5.601832762690846 96.8175
5.6241758697774475 95.5581
5.646501775867269 94.8864
5.668845311622074 93.9575
5.691171647754637 92.65299999999999
5.713515615597765 92.0125
5.735859800852677 91.4897
5.758186788542988 91.72399999999999
5.780531411018185 93.6291
5.802858837297399 93.2562
5.825203900414495 92.9665
5.8475491852224 94.8917
5.869877275883075 95.0545
5.892223006467101 93.695
5.914551544266608 93.32799999999999
5.936897724049891 95.6514
5.959244129804903 101.61200000000001
5.981573344815301 122.46799999999999
6.0039202049061 212.671
6.026249875609095 439.16900000000004
6.04859719346037 928.9019999999999
6.070927323278297 2275.55
6.093275102315365 4726.29
6.115623113320588 5236.82
6.137953938319995 3028.31
6.160302415650845 820.209
6.182633708324452 194.739
6.2049826554078376 104.824
6.227331838745022 87.7587
6.249663839443684 81.9845
6.27201349767565 79.7386
6.294345974611799 82.5919
6.316696111167083 87.9787
6.339046488263839 84.2952
6.361379686074702 74.7927
6.383730546639482 69.9915
6.406064229255215 68.4786
6.428415576718203 68.8858
6.450749747566656 67.8342
6.47310158535871 65.7695
6.495453669698332 64.3306
6.517788579421056 64.092
6.540141159237969 62.5994
6.562476565766648 61.9542
6.5848296444934045 61.6288
6.607182974060425 61.7946
6.6295191323281015 61.5101
6.651872965955752 63.1195
6.6742096296068985 78.6686
6.6965639707294615 105.01100000000001
6.71891856698715 103.64299999999999
6.741255995248479 78.2789
6.763611104154477 63.4966
6.785949046381137 58.8677
6.808304671371482 58.3247
6.8306605557940046 58.7913
6.852999275508618 58.0696
6.875355681171544 56.8426
6.897694923437771 56.0374
6.92005185377892 55.803999999999995
6.9423916220322655 55.4354
6.964749080490181 54.7237
6.987106804399774 54.7034
7.009447368180821 55.0557
7.031805625367033 54.9584
7.054146723727803 54.6392
7.076505517631004 54.2615
7.098864581288365 54.423
7.121206488070854 54.3666
7.143566093607822 54.2451
7.165908543567245 55.135
7.188268694426048 55.3358
7.2106291193438095 54.5506
7.232972390625943 55.0591
7.255333366030969 63.4286
7.277677189091925 94.8173
7.300038718428332 119.74
7.322400526130865 105.537
7.344745183422596 73.8813
7.367107550224791 57.7839
7.389452767901992 54.7428
7.411815697249891 54.3982
7.434161478756298 53.3025
7.456524974096713 53.5784
7.478888753837185 53.4066
7.501235387657368 53.5862
7.523599738562711 53.8003
7.545946944825532 53.7853
7.568311870344528 54.358000000000004
7.5906770845765665 54.126000000000005
7.613025156078678 55.208
7.635390950099687 56.0823
7.657739602662809 55.4842
7.680105979923558 55.0872
7.702472650212829 55.5129
7.724822180948224 55.174
7.747189439655568 55.4211
7.769539560075357 55.1954
7.791907410653562 55.8029
7.81425812420825 55.653
7.836626570110925 55.8742
7.858995315087906 56.6099
7.881346924933401 56.9517
7.903716270417482 57.6415
7.926068482028405 57.6504
7.948438431475253 58.3359
7.9708086843180235 58.9095
7.993161805171116 59.7843
8.015532667162402 60.0095
8.037886398416653 61.3245
8.060257873014221 61.6042
8.082629655331942 62.3931
8.104984308787587 63.0727
8.127356708900503 65.3482
8.149711981398308 70.0363
8.172085002766314 71.9602
8.194458336181368 69.8887
8.216814543847752 67.9443
8.23918850371002 68.6047
8.26154533906492 69.3181
8.283919928836452 70.8943
8.306277395339652 71.7843
8.328652618483376 73.1392
8.351028159736202 74.8098
8.373386579575245 77.3578
8.395762759396959 78.8502
8.418121819038275 83.2625
8.440498640894003 92.1491
8.462875785192262 103.447
8.485235811156207 121.039
8.507613602688501 166.81799999999998
8.529974277114228 246.743
8.552352719347912 365.325
8.574731488360351 621.474
8.59709314210385 1201.64
8.619472567021075 1952.87
8.64183487789147 2294.58
8.664214962183097 1728.81
8.686577933647762 825.46
8.708958680784317 300.9
8.731339760774953 141.28799999999998
8.753703729764451 104.814
8.77608547780821 95.9463
8.798450116065078 92.6863
8.820832535634787 90.25200000000001
8.843215292401656 89.8761
8.865580941199045 89.3999
8.887964374703538 88.7228
8.910330701447199 89.3432
8.932714815164482 90.1884
8.955099270424924 88.4073
8.977466620733543 85.9304
8.999851761421976 83.7558
9.022219798361645 82.8292
9.04460562795561 82.5202
9.066991803441677 82.1767
9.089360876979615 82.3448
9.111747746589993 82.0515
9.13411751544971 81.0366
9.156505082664324 80.6497
9.178875550323522 80.6938
9.20126381862328 80.5647
9.223652438908596 81.1673
9.246023961427412 81.0651
9.26841328802173 81.01899999999999
9.290785518039224 81.0299
9.313175554425882 82.3435
9.335565947154315 83.3298
9.357939245086508 83.5253
9.380330352834827 83.4376
9.40270436697103 83.2524
9.425096193225055 82.9425
9.447488380180165 83.1478
9.469863475295412 83.0491
9.492256385987508 83.6443
9.514632206018318 84.3212
9.537025843935714 84.6211
9.559402392368193 85.5087
9.581796761000229 87.1615
9.604191496441521 88.391
9.626569144158516 91.2764
9.648964615551032 94.0191
9.671343000390081 94.5114
9.693739211225699 92.8719
9.716135793237463 91.8589
9.738515290448102 91.6833
9.760912617143402 93.1583
9.783292860202891 95.0351
9.805690935076182 96.5657
9.828089385495742 97.3715
9.850470754023561 99.1321
9.872869957865444 104.53
9.89525208097539 114.04700000000001
9.917652041736662 122.70700000000001
9.940052382417589 126.728
9.962435644102392 142.91899999999998
9.984836746950979 179.303
10.007220771957746 237.146
10.029622640473708 329.30800000000005
10.052007432299963 507.168
10.074410069984072 820.363
10.096813093716005 1309.12
10.119199042482517 1874.35
10.141602840636468 2031.34
10.163989564971628 1481.41
10.186394141051062 763.62
10.208799107559706 324.66
10.231187001965623 161.536
10.253592751657669 117.96799999999999
10.275981430388155 109.186
10.298387966769793 108.176
10.320794897965431 109.03
10.343184759907361 108.36
10.36559248305461 104.81299999999999
10.387983138083852 102.917
10.410391656691655 107.181
10.432800574501677 118.221
10.455192425893369 133.003
10.47760214443012 157.034
10.499994797678786 201.757
10.522405320453982 290.012
10.54479877906917 419.44199999999995
10.567210109595656 544.01
10.5896218454736 594.3009999999999
10.612016518879773 488.48900000000003
10.634429067781074 317.278
10.656824555333241 178.179
10.679237920773568 113.495
10.701651695961992 92.4088
10.724048411481384 87.3913
10.746463008485165 84.7009
10.768860546937125 83.087
10.791275969274796 82.0353
10.81369180576079 80.9144
10.836090585366925 79.7848
10.858507252467449 78.1577
10.88090686379991 77.4012
10.903324365036394 76.9123
10.925724811614439 76.9081
10.948143150509463 77.4193
10.970561909719066 76.7042
10.992963615930844 75.7565
11.015383218085756 73.6205
11.037785768347074 72.3861
11.06020621697282 71.4411
11.082627090322113 71.3068
11.105030913430326 70.6494
11.12745263854165 70.7364
11.149857314510728 72.8902
11.172279894912576 75.8815
11.194702904450653 75.8747
11.217108866490921 72.8457
11.239532736615194 70.2131
11.26193956033512 68.774
11.284364294577085 67.9009
11.306789462371718 66.5126
11.329197585398376 65.8836
11.351623622610898 65.8206
11.37403261614354 64.7159
11.396459526308487 64.911
11.418869393879497 64.2552
11.441297180532617 63.9356
11.463725406927658 63.8266
11.486136592353875 63.5485
11.508565700543707 63.9192
11.530977768845315 65.0059
11.553407762368774 65.0444
11.575838200059769 64.8419
11.598251599479612 63.6273
11.620682927815501 62.626999999999995
11.64309721895548 62.4001
11.665529441478206 62.0885
11.687962112597958 61.8961
11.710377748130886 62.2069
11.732811318753434 61.7251
11.755227854859067 61.7831
11.777662328529495 61.6196
11.800079768750786 61.621
11.822515149015453 61.6476
11.844950984084935 61.8981
11.867369787303163 61.4375
11.889806534289491 61.6981
11.912226250487029 61.6599
11.934663912939751 61.8601
11.9571020346363 61.9587
11.979523127133968 62.3453
12.001962169624331 62.9252
12.024384183972964 63.8899
12.046824150809913 66.8595
12.069264581333726 71.4507
12.091687985297767 77.235
12.11412934550045 85.4906
12.136553680195208 101.111
12.158995973632788 126.321
12.181438735204349 157.622
12.20386447284199 190.514
12.226308172985636 214.109
12.24873485024193 197.50900000000001
12.271179492516982 153.035
12.293607112949127 113.147
12.316052700916226 85.6868
12.338498763250042 72.044
12.360927805303868 66.3656
12.383374818673879 64.2658
12.405804812803074 63.0438
12.428252780773262 63.0582
12.45070122756722 63.0757
12.473132656675375 63.1161
12.49558206341869 63.6032
12.518014453510101 63.5088
12.540464823770117 63.5757
12.562915677315177 63.6109
12.58534951575545 64.1964
12.607801338171472 65.3065
12.630236146511358 68.7036
12.652688941369085 71.6036
12.675124723177234 71.8969
12.697578494048786 70.0418
12.720032754458185 67.3525
12.742470003354093 66.4188
12.764925245138771 66.703
12.787363476431278 66.7466
12.809819703166806 67.2355
12.83227642391173 68.0968
12.854716135692716 68.663
12.877173846755147 69.9143
12.899614549869717 70.1911
12.9220732548287 70.9653
12.94453245827299 71.407
12.966974655289818 72.319
12.989434858002571 73.2049
13.011878055298721 73.7276
13.034339260862497 74.6262
13.056800969391883 76.0964
13.079245674017244 78.3845
13.101708390774869 81.4119
13.12415410463411 88.6841
13.146617833206086 99.0241
13.169064559883248 109.163
13.191529303857127 122.822
13.213994557076367 145.072
13.236442809902437 183.49200000000002
13.258909083908291 243.87
13.28135835851934 313.285
13.30382565690295 390.11800000000005
13.326293469022952 436.27099999999996
13.348744283242008 424.653
13.371213125129904 332.231
13.39366497011003 231.65400000000002
13.416134845360597 153.29
13.438605238843131 113.41
13.46105863690397 101.995
13.483530069144786 103.7
13.505984506951902 108.446
13.528456981549432 117.375
13.550929978879088 131.57299999999998
13.573385983253365 155.993
13.595860028340867 197.975
13.618317081455832 258.17400000000004
13.64079217790333 326.586
13.663250283359057 374.43
13.685726434770173 385.599
13.708203115221277 328.421
13.730662806148091 241.192
13.75314054697177 167.399
13.775601299246777 115.15899999999999
13.798080104050406 91.4715
13.820559442405358 82.6221
13.843021793671388 79.9896
13.865502201420897 78.5335
13.887965623051947 78.1912
13.910447103807167 77.0799
13.932929122629764 75.6717
13.955394156785959 75.3622
13.977877254034569 74.5049
14.000343367582113 73.7191
14.022827546871707 73.1835
14.045294743423524 72.1308
14.06778000837062 71.6246
14.090265817715476 71.7329
14.112734645763819 71.3319
14.13522154619454 70.9794
14.157691466286913 70.8667
14.180179461423874 70.5923
14.202668005486178 69.8158
14.22513957064374 69.4703
14.247629214846473 69.1361
14.270101881097517 69.1013
14.29259262906496 69.14
14.315083930490205 69.4632
14.337558255389705 69.2705
14.360050666019726 69.4013
14.382526101071944 68.7072
14.405019624534942 67.8837
14.427513705993134 67.5524
14.449990813291825 67.6815
14.47248601302899 67.5878
14.49496423954951 67.8084
14.517460561197822 67.6072
14.539939910570322 67.4974
14.562437357763558 67.7518
14.58493536931253 68.9148
14.607416409993311 69.1815
14.62991555254159 69.8085
14.652397725157423 69.852
14.674898002342799 69.6745
14.697398848433282 69.4004
14.719882725991326 70.3065
14.74238471217934 71.7454
14.764869730765593 74.7536
14.787372860692983 77.7868
14.809876564079925 81.8203
14.83236330125751 86.9163
14.854868153850365 95.3515
14.877356041159485 109.709
14.899862046604186 129.19299999999998
14.922351087688757 156.91
14.944858249632887 188.00799999999998
14.967365991421232 217.75799999999998
14.989856770231246 227.922
15.012365673994204 215.18599999999998
15.03485761569738 178.77200000000002
15.05736768508665 138.49
15.07987833888692 104.287
15.102372032001655 84.0291
15.124883856909658 73.7672
15.14737872204565 70.2948
15.169891721717274 69.0906
15.192405310371893 68.8066
15.214901940621196 68.8174
15.237416709527137 68.7663
15.259914520936249 68.6639
15.282430473753607 67.7929
15.304947020131227 66.9913
15.327446610371178 66.4775
15.349964346154254 65.976
15.372465126703139 65.5386
15.394984055556009 65.3623
15.417486030076159 65.1896
15.44000615566487 64.8012
15.462526881230803 64.8904
15.485030653812652 64.6532
15.507552581617434 64.6697
15.530057557334603 64.8147
15.55258069104857 64.9874
15.575104429329837 64.8315
15.597611216864632 64.6982
15.620136166564563 65.0443
15.6426441664095 66.2783
15.665170331202765 68.54
15.687697105158826 71.4578
15.710206930593545 74.4021
15.732734925158933 78.2934
15.755245972089478 84.4936
15.77777519094324 93.29799999999999
15.800287463046663 107.288
15.822817909869592 128.579
15.84534897229804 152.411
15.867863089299354 177.291
15.890395385222186 193.609
15.912910736597423 194.761
15.935444269699861 176.10299999999998
15.957978423016485 144.641
15.980495633101265 111.95200000000001
16.003031029129367 87.0622
16.02554948280019 71.2005
16.048086125229432 64.8244
16.070623392487107 62.9554
16.09314371869582 62.2995
16.11568223789321 61.3933
16.13820381691126 60.6618
16.160743591742527 60.0567
16.183283996022084 59.1448
16.205807461423195 58.3916
16.228349126881973 57.7912
16.25087385432698 57.4658
16.27341678466365 57.0753
16.29594277784926 57.0121
16.31848697676433 57.0846
16.341031811604868 57.1361
16.36355971058487 57.2927
16.3861058195587 57.0314
16.40863499352978 56.2938
16.431182380342005 55.6191
16.453730407713202 55.1143
16.476261501364792 54.5398
16.498810812136167 54.2767
16.52134319004079 54.6442
16.54389378792203 54.4068
16.566445031001553 54.3928
16.588979342490088 54.0042
16.61153187824822 53.9605
16.634067483263312 53.8331
16.656621315414416 53.7697
16.679175797408888 53.4204
16.701713349928728 53.4554
16.72426913389191 53.6968
16.74680798922351 53.9412
16.76936507887444 53.9688
16.791905240734874 53.6231
16.814463639794468 53.8373
16.837022695210294 53.7173
16.859564824093756 53.8522
16.882125194503903 54.5198
16.904668639217885 55.0663
16.927230328348003 54.9835
16.949792678493612 55.1935
16.972338104193863 54.8005
16.994901778652235 54.5109
17.017448529496576 54.5171
17.040013531998152 54.9633
17.06257920018044 55.5288
17.0851279459922 56.2361
17.107694947817667 56.8438
17.130245028099072 57.5462
17.15281336730298 58.8
17.17536478578733 60.5102
17.19793446610687 62.8291
17.220504818648422 65.9799
17.243058251703697 69.52199999999999
17.265629950971032 74.7814
17.288184731571736 79.4268
17.310757781306908 83.4756
17.33333150794385 82.9283
17.355888317140174 80.0586
17.37846339986244 73.7804
17.401021565958885 67.568
17.42359800851343 62.7981
17.44617513265564 59.8836
17.468735341390783 58.6843
17.491261035594565 57.9151
17.51396340099364 57.8282
17.536490463869136 58.0027
17.559018209820174 57.935
17.58154663977963 57.8256
17.604251766089718 58.1862
17.626781572227713 58.5863
17.64931206518155 58.8001
17.671843245885103 59.2526
17.69455114821572 59.2923
17.717083712612634 59.7383
17.739616967569667 59.8857
17.762150914021706 60.4384
17.78486160749854 60.3466
17.807396945166804 61.1548
17.829932977143503 62.1335
17.85246970436452 63.6038
17.875183204129467 65.1889
17.897721330097664 67.0928
17.920260154126645 69.1365
17.942799677153296 72.09
17.9655159983646 75.7186
17.988056927677544 81.185
18.010598558807683 89.7629
18.033140892692916 100.32
18.05586005052525 112.65899999999999
18.07840379824407 125.029
18.10094825154059 134.678
18.12366954819864 139.753
18.146215420998306 136.708
18.16876200220057 125.12100000000001
18.191309292745153 110.18799999999999
18.214033452627167 96.2131
18.236582170236648 86.6706
18.259131600016456 83.2612
18.281681742907335 84.7743
18.304408781233683 90.3911
18.32696035875955 96.9035
18.349512652227624 102.42
18.372065662579683 105.662
18.394795594587553 105.22200000000001
18.41735004715306 99.3975
18.43990521943684 90.8312
18.46246111238171 81.2304
18.485193953325208 73.0905
18.507751296070428 67.057
18.530309362314178 63.7343
18.552868153000343 62.0386
18.57560391815056 60.869
18.59816416623245 60.3764
18.620725141597372 60.0851
18.643286845190268 59.5292
18.666025549835414 59.1536
18.688588718427933 58.6386
18.711152618092243 58.5124
18.73389353884365 58.3342
18.75645890921984 57.8152
18.77902501351406 57.513000000000005
18.801591852673102 57.5003
18.824335739722738 57.0531
18.846904057212626 57.0536
18.8694731124168 56.7176
18.89204290628315 56.7942
18.914789774966803 56.5374
18.937361054791623 56.0872
18.959933076131318 56.0501
18.982505839934877 55.9674
19.00525570560582 55.8137
19.027829963004184 55.8277
19.05040496572238 55.9607
19.072980714710468 55.9223
19.095733592739563 56.047
19.11831084296757 56.3942
19.140888842324735 56.757
19.16346759176222 56.9852
19.18622349753803 57.1828
19.208803755869358 58.2414
19.231384767143577 59.6127
19.253966532312948 61.2261
19.276725481241822 63.273
19.29930876296784 66.0537
19.3218928014549 69.149
19.34465404436217 72.2924
19.36723960516257 74.3633
19.389825925592426 75.0334
19.412413006605938 73.0539
19.43517731967805 69.2678
19.457765930683355 64.7475
19.48035530514408 60.5203
19.50294544401556 57.0164
19.525712842708348 54.9289
19.54830451925909 53.9328
19.570896963095727 52.9969
19.593490175174704 52.9052
19.616260674962184 52.8424
19.638855432416964 52.5174
19.661450960992624 52.8261
19.68404726164677 52.5564
19.706820878021247 52.2685
19.729418731756834 52.7855
19.752017360452857 52.4317
19.77461676506804 52.6074
19.797393513540218 52.5912
19.819994478951667 52.9929
19.84259622316767 53.494
19.8651987471481 53.7002
19.887978643247177 54.1063
19.91058273574792 54.4486
19.933187610901943 55.2755
19.955969879466828 56.3747
19.97857632894404 57.9057
20.00118356396599 59.9891
20.023791585494575 62.1438
20.046577028914875 64.9397
20.069186632506966 67.2975
20.091797025500632 69.0425
20.114408208858933 69.2367
20.137196842715273 67.8989
20.159809615886765 66.0789
20.18242318232135 63.4922
20.20503754298326 61.589
20.227829382875154 60.9086
20.250445341109344 61.2438
20.27306209647285 62.3461
20.29567964993108 64.0681
20.31847471147704 64.94
20.34109387027612 65.2232
20.363713830075454 64.2213
20.386334591841646 62.1858
20.409132890679302 59.2911
20.431755265564437 56.1653
20.454378445325528 53.5012
20.477002430930366 51.8371
20.499803982716553 50.9348
20.522429589228004 50.3636
20.54505600449589 49.9848
20.567683229489194 49.9695
20.590488049900088 49.778
20.61311690359731 49.3634
20.63574656993626 49.1724
20.658553853717297 48.655
20.681185154618298 48.8353
20.703817271080066 48.4676
20.72645020407368 48.263000000000005
20.749260783967177 48.3161
20.771895359337133 48.1952
20.794530754161617 48.2593
20.817166969412938 48.2025
20.83998086114876 47.8955
20.86261872660049 47.8878
20.885257415405402 47.9913
20.90789692853701 47.8188
20.930714147864748 47.7435
20.953355319030678 47.6548
20.97599731745334 47.8211
20.99864014410749 47.6585
21.021460706796564 47.70399999999999
21.044105199328826 47.9517
21.06675052302631 48.0992
21.089396678865015 48.2628
21.112220600704806 48.6219
21.134868430275347 49.0964
21.15751709492456 49.3192
21.180166595629693 49.6168
21.202993892429635 49.9198
21.22564507473034 50.6212
21.24829709602816 50.6271
21.27112693608965 50.8649
21.293780644891275 50.5295
21.316435195634053 49.7633
21.339090589297417 48.9545
21.361923832041875 48.4355
21.384580921090404 48.0137
21.407238856007325 47.4714
21.429897637773326 47.6027
21.45273429906592 47.6803
21.475394784108598 47.5969
21.498056118951983 47.534
21.520718304578022 47.8516
21.543558400304388 47.8724
21.566222297108816 48.0294
21.58888704765135 48.0948
21.61155265291521 48.3848
21.63439619898156 48.7327
21.657063523335786 48.9023
21.67973170537063 49.4921
21.7024007460706 50.0438
21.72524775840385 50.718
21.747918526116475 51.8236
21.770590155457388 53.2004
21.79326264741238 54.908
21.816113141960237 56.7596
21.838787368860547 59.0395
21.861462461341976 60.976000000000006
21.884315579735777 63.0016
21.90699241312273 63.8301
21.92967011506078 64.2224
21.95234868653799 63.2298
21.9752053151131 61.2315
21.997885635446785 59.1617
22.020566828293532 57.4771
22.04324889464272 56.1389
22.066109049404666 55.5191
22.088792872571794 55.4688
22.111477572219204 55.6358
22.1341631493376 55.5145
22.157026846313123 55.0176
22.179714188221507 53.9695
22.202402410582668 52.7454
22.22509151438863 51.266999999999996
22.24795876962584 50.0368
22.270649646204486 49.4171
22.293341407213727 48.6984
22.316034053646906 48.3537
22.338904883215342 48.0621
22.36159931041458 48.1721
22.38429462602756 47.9728
22.40699083104897 47.7901
22.429865251039757 47.8236
22.452563244831367 47.9759
22.47526213102522 47.9517
22.49813925616515 47.86
22.520839937143307 47.868
22.543541513520587 47.7543
22.56624398629403 47.6357
22.589124730075895 47.6735
22.611829005656723 47.8542
22.63453418063466 47.8987
22.657240256008077 47.9167
22.680124634582935 48.0723
22.70283252079775 48.4527
22.725541310413075 48.5688
22.74825100442868 48.6591
22.771139033969575 49.2042
22.79385054687155 49.5677
22.81656296718292 50.3021
22.83927629590484 51.3197
22.862167992606945 52.3624
22.88488314827121 53.6993
22.907599215359284 54.723
22.93031619487366 55.9898
22.953211574954405 56.6715
22.975930389478226 57.2772
22.998650119445763 57.1721
23.02137076586092 56.1894
23.044269845560063 54.5311
23.06699233506288 52.7248
23.089715744034912 51.0402
23.112617610931565 49.6059
23.135342869061212 48.6499
23.158069049684816 48.0286
23.1807961538087 47.7751
23.20370174880544 47.9516
23.226430710184808 47.9817
23.249160598093425 48.043
23.271891413539002 48.1016
23.294800752937697 47.9674
23.31753343374794 48.2013
23.340267045128353 48.2595
23.36300158808808 48.4536
23.38591468821339 48.7782
23.408651104658304 49.4638
23.431388455719986 50.0874
23.454126742409 51.01
23.4770436196085 52.0951
23.499783787914662 53.4744
23.522524894889884 54.582
23.54526694154616 55.7746
23.56818761219047 56.8018
23.59093154860734 57.2005
23.613676427751283 57.2485
23.636422250635754 55.8977
23.659346731118656 54.063
23.68209445191868 52.0967
23.704843119509587 49.805
23.72759273490623 47.998000000000005
23.750521041644767 46.8295
23.77327256312355 46.0732
23.796025035462787 45.7929
23.818956224555475 45.3383
23.841710609113413 45.2267
23.86446594758979 44.8773
23.887222241002014 44.8386
23.910157285144578 44.4417
23.932915498962537 44.2597
23.955674670778713 44.0938
23.978434801611975 44.1078
24.001373717286125 43.9841
24.024135776723917 43.8901
24.046898798245582 43.7562
24.06966278287146 43.5794
24.092605586582614 43.5479
24.115371508023642 43.3079
24.1381383956401 43.2154
24.16090625045381 43.2062
24.183852958731244 43.1192
24.206622758582608 43.0648
24.229393528706886 42.7996
24.252165270127392 42.8029
24.27511589952438 42.7896
24.297889594216997 42.6307
24.32066426328598 42.493
24.34343990775613 42.6383
24.36639447485003 42.5451
24.38917208083877 42.4411
24.41195066531332 42.3355
24.43490819850244 42.3924
24.457688750692377 42.1285
24.48047028445616 42.2599
24.503252800821233 42.2492
24.526214300784112 42.3708
24.548998793132213 42.4113
24.57178427117417 42.3054
24.59457073593893 42.3171
24.617536219319863 42.1952
24.64032466834748 42.1933
24.663114107195035 42.0557
24.685904536893013 41.7931
24.708874020360852 41.7336
24.731666442613744 41.658
24.754459858818787 41.5851
24.777254270007962 41.5955
24.80022777025625 41.4753
24.82302418230472 41.4893
24.845821592443674 41.4509
24.86862000170663 41.5544
24.891597535453727 41.4731
24.914397953892728 41.6024
24.93719937456671 41.4031
24.96000179851076 41.666000000000004
24.98298338249997 41.763999999999996
25.00578782394922 41.8959
25.028593271784167 42.0796
25.05157790644186 42.4887
25.07438537804115 42.6851
25.097193859145293 42.956
25.120003350792075 43.174
25.142992065061257 43.5313
25.165803588823465 43.7411
25.18861612625217 43.827
25.211429678386736 44.0136
25.234422489079968 43.872
25.257238081693636 44.108999999999995
25.280054692141732 44.2046
25.3028723214652 44.2925
25.325869245420463 44.3373
25.348688923599397 44.4576
25.371509623787006 44.2437
25.394331347025812 43.7987
25.41733240110666 43.2916
25.440156181590016 42.5293
25.46298098826268 42.0937
25.48580682216873 41.5289
25.50881202326435 40.9764
25.53163992281684 40.6073
25.55446885274561 40.3382
25.577298814096377 40.1132
25.600308179121807 40.0729
25.623140214533745 40.2005
25.64597328451537 40.0544
25.66898578564376 39.842
25.691820936010206 39.9542
25.714657124097695 39.7827
25.737494350954734 39.7636
25.760511045684957 39.7036
25.783350361364224 39.79
25.806190718969255 39.8237
25.82903211955018 39.9343
25.852053024868923 39.9476
25.874896522722523 40.0119
25.897741066713106 39.9482
25.920586657892454 40.0209
25.943611790812668 40.2165
25.966459487728237 40.373000000000005
25.989308234998564 40.3929
26.01215803367705 40.7614
26.03518741123814 40.9346
26.05803932412957 40.9586
26.080892291600094 40.8723
26.10374631470478 40.992
26.12677995397268 41.0753
26.14963609978026 41.0427
26.172493304397875 40.5119
26.19535156888223 40.4994
26.218389486949604 39.9777
26.241249882640123 39.7398
26.26411134137826 39.5341
26.28715248187403 39.5799
26.31001607820869 39.4172
26.3328807407756 39.3444
26.35574647063438 39.4759
26.37879191991473 39.2549
26.401659795896734 39.3421
26.424528742360263 39.5838
26.447398760366614 39.6834
26.470448535598294 39.8136
26.49332070826805 39.9931
26.516193955675355 40.4688
26.53906827888316 40.7036
26.562122397260108 40.8695
26.584998883685063 41.31
26.607876449110325 41.4584
26.63075509460056 41.6362
26.65381357334404 41.6913
26.67669439061878 41.4606
26.699576291163382 41.25
26.722459276044212 41.1698
26.745522132402975 40.9807
26.768407297649354 40.5811
26.791293550442003 40.2242
26.814180891848974 40.0926
26.837248143099337 39.8603
26.860137673466657 39.7261
26.88302829566349 39.4863
26.90592001075963 39.3715
26.92899167420566 39.1607
26.951885586870763 38.6876
26.974780595655517 38.5935
26.99785558178161 38.5215
27.020752794605112 38.3547
27.043651106772522 38.1955
27.06655051935668 38.251
27.089629948036183 38.065
27.112531573292053 38.1036
27.135434302194138 38.0303
27.158338135817015 37.8968
27.181422024430987 37.9641
27.204328079372566 37.7081
27.22723524226965 37.7157
27.250143514198573 37.9553
27.273231880156334 37.9008
27.296142382065014 37.8084
27.319053996245536 37.7288
27.341966723775965 37.8453
27.365059584515222 37.8974
27.38797455070062 37.8994
27.410890633481237 37.8814
27.433807833936918 37.8164
27.456905206923906 37.8901
27.47982465472398 37.8973
27.502745223449743 38.024
27.525666914182825 37.9909
27.548768816912457 37.9826
27.571692763693633 38.0369
27.59461783573812 37.6532
27.617723149491244 37.619
27.640650484125285 37.4986
27.66357894728264 37.4726
27.686508540048052 37.4833
27.709618414237887 37.347
27.732550278321757 37.1547
27.755483275279115 37.05
27.778417406196485 37.3133
27.801531858397514 37.2571
27.824468269376716 37.1077
27.847405817586786 37.2137
27.870344504116094 37.5193
27.893463551932008 37.6265
27.916404527281053 37.7499
27.93934664422563 37.8274
27.962289903855886 37.8451
27.98541356491974 38.2254
28.00835912214229 38.1589
28.03130582533231 38.4546
28.054253675581805 38.5199
28.077381967556104 38.609
28.100332124185126 38.3201
28.123283431160893 38.2767
28.146235889577238 38.1328
28.169368830154156 37.8079
28.192323603752033 37.7253
28.215279532083304 37.5391
28.238415973016764 37.2719
28.261374223145094 37.0796
28.284333631303806 36.9465
28.307294198589954 36.814
28.330435319167677 36.3863
28.353398217078915 36.2197
28.376362277420153 35.9926
28.39932750129032 35.8862
28.422473319286713 35.7651
28.44544088262495 35.8272
28.468409612800283 35.5941
28.491379510913497 35.346
28.51453004413313 35.3549
28.53750229057244 35.3396
28.56047570826344 35.1228
28.583450298308804 35.1727
28.606605564586562 34.9786
28.629582511831156 35.1823
28.65256063474956 35.0876
28.675539934446338 34.9566
28.698699951647605 34.9942
28.72168161743193 34.8419
28.74466446331978 34.8584
28.767648490417624 34.8861
28.790813276438353 34.885999999999996
28.813799678527303 34.9914
28.836787265157085 34.8814
28.859955641890075 34.8821
28.882945610203045 34.8699
28.905936766392035 34.7237
28.928929111566863 34.7595
28.952102288520145 34.6805
28.975097024308607 34.4974
28.998092952423807 34.4294
29.021090073977508 34.3246
29.04426806913204 34.3287
29.067267590245258 34.121
29.090268308143695 34.0242
29.11327022394099 33.8688
29.13645305530891 33.8981
29.159457379627167 33.8234
29.18246290519685 33.6956
29.20546963313352 33.8046
29.22865731875826 33.8505
29.25166646419296 33.7343
29.27467681535305 33.6887
29.29768837335608 33.7233
29.320880931312562 33.7665
29.34389491580634 33.7748
29.366910110507334 33.7048
29.38992651653503 33.6489
29.41312396492981 33.6704
29.436142806456754 33.586
29.45916286268059 33.4381
29.48236399319994 33.3276
29.50538649169417 33.1447
29.528410208259935 33.0919
29.55143514402014 32.9612
29.574641196749695 32.8039
29.597668583816574 32.6524
29.6206971934585 32.5242
29.64372702680042 32.5965
29.666938019934474 32.5487
29.689970313635285 32.3923
29.713003834422636 32.4302
29.73603858342347 32.3962
29.759254535188578 32.3431
29.78229175361658 32.2517
29.80533020365064 32.2309
29.82836988641968 32.2615
29.85159081507472 32.2373
29.874632976355343 32.1205
29.89767637376955 32.2044
29.920721008448314 32.0517
29.9439469322847 32.1036
29.96699405457564 32.0368
29.9900424175358 32.0009
30.013092022298157 31.9923
30.03632295963995 31.8659
30.059375061131373 31.8665
30.08242840783577 31.9591
30.105483000888153 31.9647
30.128718970092244 31.7936
30.151776069006917 31.8316
30.17483441768648 31.8775
30.198074175317235 31.8815
30.221135036724256 31.9492
30.24419715131772 31.8543
30.267260520236203 31.7756
30.290505341942243 31.7575
30.313571232750228 31.6987
30.336638381310948 31.7776
30.35970678876503 31.6516
30.38295669299435 31.7545
30.40602763151657 31.7506
30.429099832366074 31.6626
30.452173296685572 31.5196
30.47542830191959 31.451
30.498504306502497 31.483
30.521581577995562 31.7203
30.544660117543582 31.5977
30.56792024229725 31.6423
30.59100133132069 31.6802
30.614083691845494 31.7003
30.637167325018545 31.62
30.660432587840603 31.6622
30.683518779717886 31.6523
30.70660624769615 31.7845
30.729694992924372 31.7147
30.75296541239743 31.659000000000002
30.77605672557558 31.6199
30.799149319462742 31.5548
30.8224236211637 31.3486
30.845518789950724 31.2634
30.868615242910597 31.274
30.891712981195973 31.1605
30.91499247215866 31.0623
30.938092794619365 31.0218
30.96119440587579 30.8927
30.984297307082752 30.7654
31.00758200598383 30.7659
31.030687500658694 30.743000000000002
31.053794288760695 30.6433
31.076902371446767 30.5142
31.100192296997445 30.5839
31.12330298246119 30.5978
31.14641496599209 30.4597
31.169528248749216 30.4666
31.19282341969534 30.4357
31.215939314557186 30.4001
31.239056512134788 30.4461
31.262175013589378 30.4329
31.28547544871168 30.4789
31.30859657161541 30.2591
31.331719001892175 30.3278
31.35484274070538 30.4406
31.378148458819545 30.4957
31.401274828443725 30.4045
31.424402510106933 30.4201
31.447712205419993 30.4545
31.470842524931633 30.4107
31.493974159989783 30.3431
31.51710711176168 30.3596
31.54042212308802 30.2838
31.563557722100917 30.2049
31.586694641341655 30.0878
31.609832881979628 30.0839
31.63315322823208 29.9893
31.656294125521327 29.8135
31.679436347728515 29.7854
31.70257989602529 29.7988
31.725905596152327 29.6194
31.74905181052835 29.5731
31.772199354521323 29.7785
31.79534822930507 29.6856
31.818679302290967 29.588
31.84183085259981 29.6308
31.864983737233473 29.6243
31.88813795736804 29.7258
31.911474422233013 29.5872
31.934631327356435 29.6316
31.9577895715215 29.5141
31.980949155906522 29.5123
32.004291031706956 29.5437
32.027453310562606 29.4775
32.05061693318573 29.3195
32.07396288236386 29.2199
32.09712920658542 29.148000000000003
32.12029687812702 29.0981
32.14346589817093 28.9824
32.166817291729984 28.903000000000002
32.18998902288583 28.8641
32.21316210610336 28.883000000000003
32.23633654256711 28.704
32.259693399663725 28.7991
32.282870556771144 28.6596
32.30604907069099 28.6329
32.329228942610065 28.57
32.35259128243769 28.4597
32.375773884550505 28.4307
32.398957848235646 28.3716
32.422143174682176 28.3524
32.445511016471215 28.2426
32.468699082679954 28.283
32.49188851523011 28.2525
32.51507931531304 28.2107
32.538452678331 28.1839
32.56164622776311 28.123
32.58484114831493 28.0475
32.60803744118015 27.9517
32.631416344731896 28.0091
32.654615396551876 28.0449
32.67781582427913 27.9643
32.701198898634416 27.9339
32.72440209253756 27.9548
32.747606665947124 27.7947
32.77081262006088 27.6348
32.79420126883317 27.6495
32.81740999876112 27.7066
32.840620112999424 27.4597
32.86383161274818 27.4802
32.88722585534586 27.6016
32.91044014056596 27.6293
32.933655814909734 27.5161
32.95687287957963 27.6126
32.98027273544904 27.4739
33.00349259526636 27.3959
33.026713849030116 27.4801
33.04993649794511 27.3464
33.073341986570746 27.3347
33.09656744032826 27.3847
33.11979429286444 27.3576
33.14302254538647 27.3614
33.166433686291185 27.3385
33.18966475336992 27.2736
33.212897224069096 27.136
33.23613109959831 27.136
33.259547912343415 27.1371
33.2827846121627 27.1405
33.306022720453775 27.0903
33.32926223842861 26.9224
33.352684742614166 26.9009
33.37592709463173 26.8887
33.399170859982064 26.813000000000002
33.422597648419426 26.8015
33.44584425514446 26.7241
33.46909227885668 26.6628
33.4923417207723 26.5424
33.51577423505344 26.5389
33.539026528130385 26.4055
33.56228024307245 26.4162
33.585535381098246 26.3207
33.60897364093058 26.3223
33.63223163992385 26.3047
33.6554910656699 26.2304
33.678751919389796 26.1802
33.702195944520106 26.1676
33.72545966903325 26.1336
33.74872482519663 26.0838
33.771991414233746 26.0977
33.79544122444841 25.9909
33.81871069412428 25.9083
33.84198160035767 25.9453
33.86525394437455 25.9094
33.88870955949969 25.8344
33.911984794020626 25.8268
33.93526147001624 25.7772
33.958539588715006 25.7513
33.98200102861669 25.6899
34.0052820477047 25.6022
34.02856451319451 25.6298
34.05203033759056 25.5734
34.07531571090147 25.546
34.09860253431845 25.641
34.121890809074316 25.5376
34.145362493118924 25.4899
34.16865368561615 25.416999999999998
34.191946333164054 25.2825
34.21524043699793 25.3533
34.23871800066799 25.348000000000003
34.26201503218366 25.191999999999997
34.28531352370466 25.1445
34.30861347646881 25.1287
34.33209693978188 25.1242
34.3553998301885 25.119
34.378704185565205 25.0156
34.402010007152356 24.9184
34.42549939016683 24.9908
34.44880815937748 24.8068
34.472118398533134 24.7843
34.49543010887669 24.8388
34.51892543169198 24.7563
34.54224009966052 24.6846
34.56555624255917 24.7042
34.58887386163339 24.5253
34.61237514439016 24.5462
34.6356957311114 24.4778
34.65901779775809 24.4857
34.68252356662995 24.4883
34.705848608458616 24.4608
34.72917513396849 24.4679
34.75250314440949 24.3897
34.77601490857862 24.2772
34.799345904259795 24.2368
34.82267838863559 24.2599
34.846012362958525 24.3053
34.869530142679984 24.2514
34.89286711232212 24.2075
34.91620557568269 24.1578
34.93954553401677 24.0995
34.9630693495876 24.055
34.986412313340814 24.1158
35.00975677584668 24.084
35.033102738362956 23.9742
35.05663261012228 23.9462
35.0799815881786 23.9595
35.10333207003229 23.8435
35.12668405694369 23.8925
35.150220005273056 23.8005
35.17357501786656 23.8583
35.19693153931268 23.7584
35.220289570874385 23.7204
35.24383161619786 23.7084
35.267192683604904 23.7895
35.290555264930376 23.7463
35.314101899412165 23.6598
35.33746752422433 23.6197
35.36083466676374 23.6841
35.38420332829803 23.6058
35.407756095629054 23.6371
35.43112781085063 23.5833
35.45450104888391 23.5419
35.477875810999194 23.5219
35.50143473172161 23.4442
35.52481255774625 23.5635
35.54819191167777 23.4883
35.57157279478914 23.3117
35.595137889488406 23.36
35.61852184675279 23.3282
35.641907337029984 23.2904
35.665294361595684 23.1576
35.68886565090076 23.0704
35.7122557598848 23.1551
35.73564740699838 23.0679
35.759040593519934 23.039
35.78261809810353 23.0228
35.80601437933051 23.0316
35.829412203814705 22.9516
35.85281157283719 22.9388
35.876395313415884 22.9101
35.8997977874528 22.7744
35.92320180988546 22.7353
35.946790244133936 22.7834
35.97019737933222 22.7154
35.993606066789866 22.6508
36.01701630779276 22.7216
36.04061101440684 22.6262
36.06402437852291 22.6122
36.08743930005611 22.7072
36.1108557802951 22.5882
36.13445678011326 22.5744
36.15787639383515 22.4301
36.18129757014299 22.5009
36.20472031032821 22.3914
36.22832762423364 22.2989
36.25175350829375 22.3761
36.275180960119776 22.2723
36.298609981005924 22.2929
36.32222362992669 22.2595
36.34565580510207 22.1749
36.36908955323448 22.142
36.39252487562093 22.1313
36.416144880530226 22.0952
36.43958336764275 22.0879
36.463023432914625 22.0503
36.486465077645676 21.9963
36.51009145956204 22.0789
36.53353627947859 22.0836
36.55698268276811 21.9291
36.58043067073321 21.8656
36.60406345072071 21.826999999999998
36.62751462435344 21.8789
36.65096738658405 21.7582
36.67460498210655 21.8182
36.69806093788647 21.7124
36.72151848619297 21.6173
36.744977628333636 21.6414
36.76862165890998 21.6173
36.79208400512205 21.6237
36.81554794910557 21.5652
36.83901349217101 21.5063
36.862663978991606 21.4811
36.88613273667352 21.4474
36.90960309738324 21.4044
36.933075062434064 21.3529
36.95673202673572 21.3432
36.98020721697122 21.314
37.003684015502365 21.2854
37.027162423645365 21.2741
37.050825886711465 21.2782
37.07430753063053 21.1553
37.09779078812467 21.1314
37.121275660513014 21.1289
37.144945643673694 21.1061
37.16843376245278 21.1708
37.19192350009803 21.0877
37.215414857931435 21.0305
37.239091382563885 20.9691
37.262585997426164 20.9347
37.28608223645736 20.8867
37.309763684451696 20.863000000000003
37.33326318851098 20.8342
37.356764320726555 20.7432
37.380267082425526 20.8319
37.40395510942588 20.7291
37.42746114683234 20.6599
37.45096881771841 20.6641
37.474478123414166 20.671999999999997
37.49817275092816 20.5795
37.52168534303452 20.5573
37.54519957395567 20.432000000000002
37.568715445024665 20.4749
37.592416694607714 20.4891
37.61593586281424 20.4504
37.63945667518264 20.4803
37.66297913304891 20.4417
37.68668702630454 20.3891
37.710212792059274 20.2938
37.733740207334854 20.2575
37.757269273470364 20.1735
37.780983832050374 20.1836
37.80451621684926 20.1623
37.82805025654007 20.1488
37.851585952464795 20.1431
37.8753071980695 20.0163
37.89884622345676 19.9777
37.92238690911902 19.9641
37.94611318753442 19.9296
37.969657210779765 19.9725
37.99320289834801 19.9599
38.016750251586465 19.9115
38.04048325513017 19.8141
38.06403395679343 19.7722
38.087586328183946 19.7728
38.11114037065203 19.824
38.13488012115898 19.7506
38.1584375229181 19.6696
38.181996599821 19.6438
38.205557353221124 19.6476
38.229303872575656 19.6092
38.2528679961576 19.5786
38.27643380031219 19.4965
38.30000128639589 19.5172
38.32375459653193 19.4568
38.34732546371299 19.4536
38.37089801690786 19.4197
38.39447225747609 19.4232
38.418232380377425 19.351
38.441810012983396 19.2931
38.46538933705673 19.2485
38.488970353960084 19.2529
38.51273731166058 19.2048
38.536321731567014 19.1602
38.55990784840681 19.2569
38.58367995004091 19.1984
38.60726947812959 19.0909
38.63086070726198 19.0957
38.654453638806274 19.0525
38.678232613930824 19.0677
38.70182896773327 18.9067
38.72542702806741 18.9386
38.7490267963045 18.8577
38.77281266709232 18.8412
38.79641586862214 18.8283
38.8200207821842 18.8194
38.843627409152944 18.7974
38.86742019782782 18.6995
38.891030269149255 18.685
38.914642058016156 18.7025
38.938255565806124 18.6657
38.96205529464307 18.6606
38.98567225787121 18.6266
39.00929094417078 18.6313
39.03291135492255 18.576
39.05671804624804 18.5448
39.080341923549106 18.5285
39.103967529460334 18.453
39.127594865365744 18.4102
39.15140854155791 18.369
39.17503935514948 18.4634
39.19867190290282 18.3506
39.22249083587951 18.3363
39.24612686969409 18.3255
39.269764641845306 18.3202
39.293404153722804 18.2445
39.317230110864074 18.2166
39.34087311998506 18.1729
39.36451787301696 18.1434
39.388164371352595 18.125
39.41199737518003 18.005
39.43564738196752 18.0507
39.45929913825317 18.0255
39.48295264543308 18.0759
39.506792718520884 17.9597
39.530449745387216 17.942999999999998
39.55410852735203 17.9241
39.57776906581474 17.8831
39.60161623079 17.8491
39.625280300200025 17.8281
39.64894613032202 17.7281
39.67261372255866 17.7964
39.6964680021016 17.7571
39.72013913657293 17.7373
39.74381203738292 17.7546
39.76748670593756 17.7043
39.79134812278169 17.6976
39.81502634488497 17.6456
39.83870633896685 17.6113
39.862388106436654 17.5981
39.88625668336918 17.597
39.90994201572829 17.584
39.933629125719285 17.5253
39.957503091207826 17.4728
39.9811937746168 17.4463
40.00488623990914 17.4049
40.02858048850006 17.3597
40.05246165409549 17.3307
40.076159487492085 17.2565
40.099859108448875 17.3502
40.123560518384345 17.2803
40.1474489070226 17.243
40.171153913178564 17.1599
40.194860712584955 17.14
40.2185693066637 17.134
40.242464941335314 17.1005
40.26617714307655 17.1397
40.289891143772046 17.0782
40.3136069448471 17.086
40.33750984859743 17.0003
40.3612292688043 16.9516
40.3849504936829 16.938
40.40867352466194 16.9264
40.43258372059144 16.9014
40.45631038219906 16.9066
40.48003885420956 16.8297
40.503769138055105 16.7889
40.52768664931955 16.829
40.55142057531802 16.7669
40.57515631746428 16.6886
40.599079334038514 16.7397
40.62281872700477 16.6856
40.64655994043941 16.6804
40.67030297578061 16.6696
40.69423334835778 16.592
40.71798004609188 16.5844
40.74172857006355 16.5931
40.76547892171441 16.5676
40.7894166736039 16.4891
40.813170699248566 16.4204
40.83692655691388 16.4513
40.86068424804498 16.4894
40.884629402612525 16.452
40.908390779366385 16.4244
40.932153993938 16.3577
40.95591904777605 16.2829
40.979871628443995 16.2995
41.003640379561936 16.2742
41.02741097430883 16.2297
41.05118341413683 16.2159
41.075143444384416 16.2043
41.098919593177826 16.1552
41.1226975914255 16.1553
41.14647744058318 16.0932
41.170444943946755 16.0855
41.19422851378379 16.0554
41.218013938914645 15.9914
41.24198706625173 15.9266
41.26577622087193 15.942
41.289567235177785 15.9209
41.31336011063129 15.9257
41.337340752422875 15.8655
41.361137369129835 15.8598
41.38493585138705 15.8842
41.40873620066004 15.8041
41.43272438060107 15.8586
41.45652848292052 15.7417
41.48033445666918 15.7032
41.50414230331616 15.6779
41.528138045159764 15.6889
41.551949656675205 15.6321
41.575763145513235 15.6268
41.59957851314666 15.6073
41.62358184070442 15.5974
41.64740098505737 15.5398
41.6712220126409 15.5282
41.69504492493139 15.5248
41.71905586207357 15.4618
41.74288256296395 15.4276
41.766711153007456 15.4637
41.79054163368412 15.4237
41.814560204340054 15.4141
41.838394485526365 15.3704
41.86223066180303 15.2927
41.88625497706819 15.2456
41.910094962812 15.2946
41.93393684811168 15.2639
41.95778063445365 15.1896
41.981812625263366 15.1703
42.00566023303407 15.2152
42.029509746323676 15.1298
42.05336116662236 15.1135
42.077400857069705 15.1349
42.10125611078846 15.0843
42.12511327600405 15.0947
42.14897235421036 15.0264
42.173019768448455 14.9662
42.19688269209613 14.9713
42.22074753323349 14.9436
42.24461429335818 14.8854
42.268669455600495 14.9092
42.292540073217886 14.878
42.31641261433284 14.8443
42.34028708044675 14.8079
42.36435001496739 14.8187
42.38822835065557 14.7531
42.41210861586426 14.7377
42.4359908120986 14.7246
42.46006154323262 14.6769
42.48394762115317 14.6766
42.507835634632315 14.7035
42.531912233047436 14.5961
42.55580413732265 14.5595
42.579697981698 14.5605
42.60359376768525 14.5337
42.62767820545945 14.5443
42.65157789440821 14.5455
42.67547952952185 14.4931
42.699383112316 14.4548
42.72347541395347 14.435
42.74738291190531 14.4177
42.771292362102166 14.347999999999999
42.795203766063516 14.355
42.819303956130405 14.3273
42.843219287476536 14.3093
42.86713657716324 14.3014
42.89105582671383 14.2891
42.91516392983864 14.259
42.939087119032166 14.2307
42.963012272677304 14.190999999999999
42.98693939230129 14.1735
43.01105543317513 14.1405
43.034986504731386 14.1369
43.05891954686589 14.0866
43.08285456110972 14.0809
43.10697856448665 14.0005
43.130917542983475 13.9815
43.15485849820081 14.0032
43.17880143167367 13.8982
43.20293342237094 13.9294
43.226880332449 13.9197
43.25082922540554 13.9257
43.27496722682525 13.9111
43.29892010567796 13.8249
43.32287497204102 13.8634
43.34683182745632 13.8189
43.370977859791836 13.7875
43.39493871351105 13.7547
43.41890156092628 13.7464
43.44286640358341 13.7171
43.46702049182749 13.7259
43.49098934522816 13.6765
43.51496019852649 13.6525
43.5389330532723 13.5944
43.56309522248204 13.5974
43.58707210044314 13.6016
43.61105098451946 13.4886
43.63503187626491 13.4826
43.659202151562134 13.4873
43.68318707902681 13.4587
43.70717401884041 13.4439
43.731162972560874 13.4048
43.75534137913236 13.4017
43.779334381108384 13.367
43.803329401683186 13.3132
43.82732644241872 13.3128
43.8515130055166 13.3335
43.87551410707659 13.3196
43.89951723350145 13.3026
43.923709934595614 13.2714
43.94771713129917 13.2415
43.97172635758096 13.2167
43.99573761501002 13.1896
44.0199385169922 13.1402
44.04395385732619 13.0999
44.067971233533086 13.1229
44.09199064718605 13.0808
44.11619977548961 12.993
44.14022328470671 13.0098
44.16424883610785 13.025
44.18827643127035 12.9872
44.21249381139513 12.9811
44.236525514814076 12.964
44.26055926674478 12.9121
44.28459506876863 12.9193
44.3088207262813 12.8444
44.33286064928722 12.8605
44.35690262714919 12.8282
44.38094666145278 12.7544
44.4051806219871 12.7877
44.42922879003185 12.7965
44.45327901929361 12.7197
44.477331311362136 12.712
44.501573600619416 12.6966
44.525630039221795 12.6598
44.54968854541895 12.6968
44.573937102200176 12.675999999999998
44.5979997645541 12.6245
44.622064499300315 12.5871
44.64613130803592 12.58
44.67038823869318 12.6328
44.69445921643748 12.5414
44.718532272981385 12.4696
44.742607409926194 12.5138
44.76687274034801 12.4554
44.79095205918753 12.3983
44.81503346325094 12.3997
44.839116954143876 12.353
44.86339071028742 12.3286
44.88747839599524 12.3444
44.91156817336837 12.3081
44.93566004401666 12.3248
44.959942251908146 12.3153
44.984038330325966 12.2625
45.00813650686762 12.239
45.03223678314731 12.2188
45.05652746888232 12.1903
45.08063196592069 12.1633
45.104738567558705 12.1637
45.128847275414856 12.1377
45.15314646515866 12.0496
45.17725940679741 12.0497
45.20137445952892 12.0398
45.22568004865265 12.0619
45.24979934496396 12.0214
45.27392075725247 11.956
45.29804428714431 11.9957
45.322358426247604 11.9802
45.346486212804315 11.9343
45.370616121861914 11.9202
45.39474815505086 11.8693
45.41907087049246 11.8571
45.4432071734666 11.8378
45.46734560548283 11.869000000000002
45.49148616817604 11.8429
45.51581748638564 11.7938
45.5399623320197 11.7648
45.56410931325473 11.7209
45.58825843173002 11.7249
45.61259837920865 11.6752
45.636751793816 11.7059
45.66090735060093 11.6566
45.68506505120716 11.6675
45.7094136545275 11.6501
45.73357566449271 11.5753
45.75773982322992 11.5738
45.78190613238733 11.602
45.806263418194064 11.5016
45.83043404997326 11.517999999999999
45.85460683713677 11.5265
45.87897065658495 11.4571
45.90314777634752 11.4409
45.92732705646868 11.4632
45.9515084986045 11.4208
45.97588104735473 11.3831
46.00006683541565 11.3479
46.02425479047904 11.3564
46.04844491420549 11.3449
46.0728262191024 11.3615
46.09702070211635 11.292
46.12121735879483 11.2793
46.14541619080294 11.2434
46.169806278764455 11.2136
46.194009483459034 11.2355
46.21821486849841 11.2332
46.24242243555223 11.1581
46.266821333570014 11.1652
46.29103328674601 11.1695
46.31524742696538 11.1045
46.33946375590237 11.0831
46.36387149104216 11.08
46.38809221957392 11.0466
46.41231514186606 11.046
46.436540259597464 11.0448
46.460956858999374 11.012
46.48518638983522 10.9669
46.509418121166966 10.946
46.533652054678114 10.9
46.55807754555709 10.8961
46.58231590571962 10.9086
46.60655647313217 10.8752
46.630988654873654 10.841
46.655233659129024 10.7928
46.67948087571551 10.8186
46.70373030632484 10.7853
46.72817142736393 10.7514
46.752425308428684 10.7239
46.77668140861147 10.7568
46.80093972960865 10.6943
46.82538981736788 10.6778
46.849652602470904 10.7069
46.87391761349769 10.6427
46.8981848521493 10.6197
46.9226439341274 10.6308
46.946915650573224 10.589
46.97118959976749 10.564
46.99546578341598 10.5759
47.019933887188216 10.5165
47.04421456235744 10.5459
47.06849747711879 10.4978
47.09278263318286 10.4299
47.11725978640143 10.4503
47.14154944775105 10.4172
47.165841355555656 10.4311
47.1901355115306 10.4224
47.214621741924994 10.4155
47.23892041698887 10.3427
47.26322134538975 10.3157
47.28771440635075 10.2975
47.31201986422527 10.3071
47.33632758061436 10.2725
47.360637557241866 10.294
47.38513974410611 10.2377
47.40945426407847 10.2138
47.43377104948137 10.2323
47.45809010204344 10.2301
47.48260144275502 10.1587
47.506925052572285 10.1409
47.53125093475548 10.0897
47.55557909103813 10.1085
47.58009961361992 10.0916
47.60443234110732 10.0812
47.62876734791564 10.0468
47.65310463578333 10.0157
47.6776343683373 10.0213
47.7019762413987 9.996030000000001
47.72632040075572 9.95838
47.75066684815169 9.93943
47.77520581885936 9.91959
47.799556865477655 9.93876
47.823910205386 9.92238
47.84826584033272 9.934510000000001
47.87281407745551 9.86329
47.89717432569297 9.86075
47.92153687423484 9.85641
47.94609208429692 9.83312
47.97045925671401 9.79916
47.99482873471275 9.78241
48.01920052005013 9.74192
48.04376504619224 9.733039999999999
48.068141469543484 9.75613
48.09252020552573 9.717360000000001
48.11690125590099 9.72822
48.1414751266064 9.66887
48.16586082917454 9.66363
48.19024885144316 9.63718
48.2146391951793 9.61187
48.239222439012764 9.61245
48.26361744916137 9.64109
48.28801478610016 9.6033
48.31241445160131 9.56433
48.337007097209366 9.53327
48.36141144338331 9.51844
48.38581812345755 9.49175
48.41022713920929 9.51045
48.434829215320704 9.482389999999999
48.45924292604658 9.45631
48.48365897780325 9.45088
48.50807737237308 9.42651
48.532688907799276 9.40429
48.55711201168574 9.38539
48.581537463754074 9.399389999999999
48.60615611725119 9.35694
48.63058628942721 9.35073
48.65501881516546 9.328489999999999
48.6794536962573 9.32944
48.70408185970339 9.26708
48.72852147531801 9.26067
48.75296345168211 9.23374
48.77740779059232 9.25025
48.80204549302823 9.25428
48.82649458091802 9.220469999999999
48.85094603676547 9.19305
48.87539986237231 9.12947
48.90004713292306 9.15585
48.92450572200832 9.15739
48.94896668628025 9.13842
48.97343002754588 9.10684
48.99808689542115 9.0823
49.02255501470614 9.09131
49.04702551642794 9.07371
49.0714984023988 9.01563
49.096164896893235 8.98889
49.120642575466796 8.998289999999999
49.145122643748394 8.98456
49.16960510355558 8.97412
49.19428125404938 8.92068
49.2187685210852 8.94905
49.243258185121555 8.92538
49.26794160167084 8.9321
49.2924360839405 8.87007
49.31693296869764 8.839369999999999
49.34143225776915 8.857510000000001
49.36612538195438 8.829839999999999
49.39062950396021 8.78996
49.41513603578346 8.78631
49.4396449792564 8.781930000000001
49.46434784069503 8.766060000000001
49.488861631846454 8.74093
49.513377840166804 8.72287
49.537896467493745 8.70566
49.56260909589029 8.67496
49.587132585683285 8.688039999999999
49.611658500018365 8.66698
49.636186840738596 8.66071
49.66090926588511 8.638069999999999
49.685442483902584 8.5848
49.70997813385706 8.5413
49.734516217597076 8.5285
49.75924846937352 8.55615
49.7837914452858 8.53095
49.80833686055187 8.4762
49.83288471702571 8.51562
49.85762682540054 8.531039999999999
49.882179588965734 8.473310000000001
49.9067347993235 8.41544
49.93129245833333 8.442
49.95604445336378 8.444360000000001
49.98060703442832 8.39832
50.005172069746266 8.37457
50.02993150438364 8.37999
50.05450147301533 8.365680000000001
50.07907390151433 8.38475
50.10364879174981 8.33325
50.12841816587289 8.33515
50.1529980044635 8.307030000000001
50.17758031042124 8.288889999999999
50.20216508562089 8.242230000000001
50.22694442953363 8.2135
50.25153416817468 8.21548
50.27612638170508 8.21809
50.300721072005196 8.211310000000001
50.325510416102105 8.1859
50.350110084975064 8.1643
50.37471223628208 8.12228
50.39931687190919 8.16718
50.424116246675766 8.12455
50.44872587605249 8.12139
50.47333799543065 8.09267
50.49795260670191 8.10522
50.52276204271512 8.065610000000001
50.54738166295838 8.04026
50.57200378079314 8.02855
50.596628398116835 8.000860000000001
50.62144792604559 8.00158
50.646077567609396 8.00445
50.670709714377715 7.991789999999999
50.69553683636198 7.958289999999999
50.72017401885922 7.944660000000001
50.7448137122895 7.918480000000001
50.76945591856022 7.90687
50.79429318636823 7.8750800000000005
50.818940443716784 7.8861
50.84359021965163 7.876760000000001
50.868242516085964 7.842219999999999
50.893089960641895 7.82287
50.917747323549435 7.803139999999999
50.94240721271973 7.76876
50.96706963007175 7.810980000000001
50.99192728239342 7.77625
51.01659478166073 7.775710000000001
51.04126481489051 7.758780000000001
51.06593738400761 7.73203
51.090805275207074 7.7107600000000005
51.11548294172845 7.69677
51.14016314993547 7.684810000000001
51.164845901758845 7.65912
51.18972406304274 7.64725
51.21441192780656 7.624960000000001
51.23910234200271 7.668239999999999
51.2637953075678 7.59013
51.288683770237945 7.545380000000001
51.31338186432707 7.59202
51.33808251561888 7.53132
51.362978729967345 7.517689999999999
51.387684521509755 7.53798
51.41239287610203 7.500710000000001
51.437103795691165 7.423360000000001
51.46201036644977 7.446389999999999
51.486726441956634 7.441560000000001
51.51144508832545 7.450880000000001
51.536166307509156 7.423039999999999
51.56108326624387 7.41328
51.58580965706056 7.42502
51.61053862657523 7.405660000000001
51.635270176746864 7.36221
51.66019755512065 7.3478
51.68493429268881 7.35381
51.70967361681515 7.31959
51.73441552946465 7.3120199999999995
51.759353359237934 7.326860000000001
51.7841004750961 7.25674
51.80885018539685 7.28729
51.833602492111254 7.25282
51.8585508051424 7.24684
51.883308330926425 7.22167
51.90806845906181 7.216289999999999
51.932831191525715 7.18134
51.95779001977161 7.1557
51.98255798721516 7.14439
52.00732856494335 7.13087
52.03229530577543 7.11057
52.057071130455945 7.12517
52.081849571391054 7.103289999999999
52.106630630568695 7.090210000000001
52.13160794279417 7.0869800000000005
52.15639426492067 7.068910000000001
52.18118321127822 7.04432
52.205974783860896 7.00081
52.23096269971011 6.99995
52.255759551287994 7.025530000000001
52.280559035098186 6.99472
52.30536115314103 6.973210000000001
52.33035970494467 6.9275
52.35516711807904 6.90539
52.37997717147198 6.91288
52.40478986713005 6.9614899999999995
52.42979908731974 6.906560000000001
52.454617094216 6.86152
52.47943774942214 6.834960000000001
52.50426105495102 6.821439999999999
52.529280976059844 6.797999999999999
52.554109609024096 6.80912
52.57894089837482 6.821610000000001
52.60377484613117 6.787789999999999
52.62880550079408 6.79522
52.65364479223379 6.744860000000001
52.67848674816189 6.746739999999999
52.70352547971946 6.71714
52.72837279155837 6.7388
52.753222773982785 6.72806
52.778075429022984 6.7258
52.80312495150885 6.73615
52.827982978797436 6.67966
52.85284368481815 6.6269100000000005
52.87770707160767 6.619160000000001
52.90276741793998 6.62524
52.92763619336701 6.6212
52.952507655698504 6.60566
52.977381806977576 6.577889999999999
53.00245301017842 6.59502
53.02733256653592 6.590960000000001
53.052214817996074 6.564539999999999
53.077099766608484 6.526269999999999
53.102181859804446 6.530869999999999
53.127072229988265 6.53445
53.15196530349892 6.5054
53.17686108239249 6.4787099999999995
53.20195409881522 6.45536
53.22685531582556 6.39898
53.25175924441303 6.4215
53.27666588664027 6.38724
53.30176985962693 6.42861
53.3266819565689 6.372719999999999
53.35159677336455 6.3798
53.376514312083096 6.34109
53.40162927507703 6.3723
53.42655228516116 6.36519
53.45147802340193 6.34546
53.47660125628886 6.30629
53.50153247842639 6.315
53.52646643496923 6.282780000000001
53.55140312799818 6.26814
53.576537409691696 6.2582
53.60147960336152 6.21379
53.626424539786164 6.22794
53.65137222105307 6.23093
53.67651758529126 6.23275
53.70147078399681 6.18872
53.72642673383343 6.2018699999999995
53.75138543689533 6.16596
53.776541917524526 6.17357
53.801506154876755 6.176
53.826473151763246 6.14314
53.851442910284916 6.15537
53.87661054126026 6.1287
53.9015858509782 6.098409999999999
53.92656392866066 6.074990000000001
53.95154477641532 6.07954
53.976723591801296 6.05122
54.00171000771266 6.01703
54.02669920004598 6.01955
54.051691170915745 5.986219999999999
54.076881204886796 5.99185
54.101878760928514 5.97577
54.12687910187696 5.94522
54.152077577768296 5.92927
54.1770835166946 5.8857099999999996
54.20209224691339 5.93826
54.22710377055121 5.93926
54.25231352511594 5.901269999999999
54.27733066384342 5.86775
54.30235060239643 5.897880000000001
54.32737334290836 5.86291
54.35259441062629 5.82156
54.377622783395324 5.80808
54.40265396455061 5.78466
54.42768795623251 5.77915
54.45292037169559 5.74896
54.477960012857906 5.76181
54.50300247099511 5.7565
54.52804774825457 5.68889
54.55329154616743 5.68964
54.57834249018678 5.695469999999999
54.6033962597977 5.72211
54.6284528571545 5.66694
54.653708072335164 5.55619
54.67877035378786 5.59853
54.70383546947698 5.5627699999999995
54.72890342156389 5.51757
54.7541700889442 5.536490000000001
54.77924374251975 5.52923
54.8043202390049 5.51474
54.82959552413022 5.49619
54.8546777351945 5.44422
54.87976279569621 5.41646
54.90485070780914 5.43465
54.930137506558005 5.38919
54.95523115074295 5.41504
54.98032765308844 5.35236
55.005427015775496 5.35597
55.03072536339621 5.35811
55.05583047570572 5.29397
55.080938454927676 5.30271
55.10604930325027 5.2338
55.131359235107396 5.26307
55.15647585066083 5.21609
55.181595341907496 5.17724
55.20671771104285 5.1816
55.232039262617704 5.14898
55.25716741665048 5.1134900000000005
55.28229845518636 5.13837
55.30743238042802 5.11996
55.33276558731939 5.10579
55.357905315183636 5.03822
55.383047936390035 5.02379
55.40819345314859 4.97139
55.433538351073295 4.9932300000000005
55.458689688238415 5.00789
55.483843927614096 4.959169999999999
55.509197623043605 4.937819999999999
55.53435769621134 4.9497
55.55952067826466 4.9093800000000005
55.5846865714265 4.79929
55.61005202069737 4.786919999999999
55.63522376553902 4.8596699999999995
55.66039842818645 4.793830000000001
55.68557601087004 4.71955
55.7109532500271 4.72091
55.73613670233794 4.72149
