TT I
1.2716486653135266 7.0956
1.2939594142134223 7.171410000000001
1.3162702121660406 6.4690900000000005
1.3385810600174564 6.55572
1.3608919586137629 5.97085
1.383202908801069 6.05625
1.405513911425503 5.837940000000001
1.4278249673332093 6.17552
1.4501343378461518 5.96189
1.4724455028545926 5.74139
1.4947567236847858 5.86254
1.517068001182951 6.20793
1.5393793361953272 5.99036
1.5616907295681737 5.99116
1.5840021821477681 4.97141
1.60631369478041 4.93885
1.6286252683124185 5.34669
1.6509369035901333 4.30082
1.6732468618895553 5.0205400000000004
1.695558623192809 4.6574
1.7178704487808514 4.31628
1.7401823395001077 4.717
1.7625012545597203 4.72162
1.7848028405262486 4.46269
1.8071218901122095 4.24959
1.8294236121921872 4.07496
1.8517427996910911 4.2579199999999995
1.8740620574440425 4.52698
1.8963639900671978 4.74369
1.9186833908139995 4.42785
1.9409854680117449 4.57271
1.9633050151394713 4.08636
1.9856246367570705 4.23325
2.0079269371922672 4.80682
2.03024671027244 3.8431300000000004
2.0525491637446027 4.2647
2.074869091674931 4.70587
2.097171701569106 4.4413599999999995
2.1194917877373847 5.13307
2.141811954326636 5.41662
2.164114805233074 4.26981
2.186435135143035 4.58473
2.208738150935709 5.028969999999999
2.231058647554722 7.030010000000001
2.2533792288321184 6.712160000000001
2.275682498336085 5.16746
2.298003251406138 4.98264
2.3203066942619714 5.10374
2.3426276225136022 5.5725
2.3649486396617507 5.43732
2.387252348930071 6.13374
2.4095735463442893 5.85884
2.4318774374315884 6.06481
2.4541988185014043 5.87323
2.476502894794693 7.02486
2.498824462909887 6.82718
2.521146125856138 6.693289999999999
2.5434504863470337 7.59713
2.5657723414244717 8.29072
2.588076895590662 8.8809
2.610398946189713 8.81638
2.6327210958598384 8.24205
2.6550259469304716 8.29902
2.6773482972090137 8.8694
2.6996533504259 9.30979
2.7219759047039602 8.86707
2.744298562293959 8.300239999999999
2.7666039251246595 8.14918
2.7889267918020164 8.19251
2.8112323652516555 8.47171
2.833555444408179 8.533660000000001
2.8558786311183852 8.930019999999999
2.8781845268938557 9.09908
2.9005079311721484 9.18459
2.9228140460410397 8.966000000000001
2.9451376712799635 9.56022
2.967444008632326 9.772839999999999
2.9897678582247247 10.2714
3.0120918213106695 10.3596
3.0343984987899373 10.5638
3.0567226913198637 10.8179
3.079029599759726 11.5276
3.101354025127254 12.0504
3.123678568232338 12.7561
3.145985829517914 12.9216
3.16831061055229 13.3859
3.1906181112775593 14.3995
3.212943133635653 14.6187
3.2352682779763207 14.7072
3.2575761442691227 15.1567
3.2799015350264273 15.2322
3.302209649240067 15.8079
3.3245352898092655 16.3405
3.3468436553365257 16.5727
3.369169549113219 17.4334
3.3914955708171384 18.0573
3.413804319727358 18.2205
3.4361305997334863 18.3886
3.4584396084414553 18.2822
3.4807661501462652 19.2718
3.503092824025881 19.5292
3.5254022288463154 19.8359
3.5477291695206588 20.5483
3.5700388426251948 20.8835
3.5923660534916446 20.8065
3.6146934007816114 22.9959
3.637003482731501 27.4632
3.6593311053109985 30.1587
3.681641464033634 26.7733
3.7039693653009733 24.0069
3.726297407241705 23.4002
3.7486081875460804 23.7761
3.7709365132734978 24.6139
3.793247578841633 25.1935
3.8155761917550093 25.7173
3.8378875459837216 25.7478
3.8602164494827234 26.2291
3.882545499606844 26.7218
3.9048572932539183 27.4019
3.9271866390645718 28.0008
3.9494987298666713 28.316999999999997
3.971828374764527 28.8587
3.9941581705403255 29.2468
4.016470713506008 29.8489
4.038800813471445 30.2681
4.061113662089144 30.6778
4.0834440696459176 31.8787
4.105774632334751 32.0365
4.128087945865126 32.3093
4.150418821249301 33.0506
4.172732448931298 33.7909
4.195063640413578 34.4686
4.2173775856475215 35.2789
4.239709096631102 38.0362
4.262040768704612 52.0929
4.284355196706267 63.998999999999995
4.306687193387355 55.8533
4.329001947444346 44.0253
4.35133427213731 40.6364
4.373666762177566 40.4564
4.395982011761091 41.4049
4.418314834921175 42.0696
4.44063041906622 43.3152
4.4629635787515625 45.1566
4.4852969080429785 46.6109
4.5076130004776225 46.4762
4.529946671403969 46.5014
4.552263106909177 47.3424
4.574597122877047 48.4178
4.596931312711224 50.1536
4.619248269273446 50.6333
4.6415828092605835 51.4186
4.663900117405352 53.0217
4.686235010953232 54.47
4.708552674085913 55.3446
4.730887924602802 56.9244
4.753223354952695 58.324
4.775541557023902 59.4594
4.797877349456786 61.0368
4.820195915032126 62.9803
4.842532072957498 64.0518
4.864868414979744 65.93
4.88718753227192 68.3462
4.909524244902505 69.818
4.931843734218147 71.7959
4.954180820867835 74.66199999999999
4.976518095879839 77.4886
4.998838149695359 79.4994
5.021175803844231 82.9861
5.043496238205739 85.6863
5.065834274903528 89.2027
5.088172504230693 93.4589
5.1104935158799565 98.1818
5.132832132875765 105.682
5.155153533596801 118.21600000000001
5.1774925416746225 137.37
5.199814334878411 232.47
5.2221537374521505 803.592
5.244493338631803 2506.44
5.266815727034316 7156.91
5.289155727832427 13520.7
5.311478517248165 9538.67
5.333818921080011 3306.64
5.356159527788849 687.612
5.3784829252032536 211.554
5.400823940070432 145.128
5.423147747031976 123.89200000000001
5.445489173474152 113.184
5.467830807066149 108.139
5.490155234831516 104.265
5.512497285125229 101.094
5.534822130975162 99.1817
5.557164601388673 97.4461
5.579489868738879 94.6204
5.601832762690846 93.1856
5.6241758697774475 92.0354
5.646501775867269 91.3697
5.668845311622074 90.9033
5.691171647754637 90.0981
5.713515615597765 89.0808
5.735859800852677 87.9045
5.758186788542988 87.1948
5.780531411018185 87.2035
5.802858837297399 86.4605
5.825203900414495 86.1888
5.8475491852224 86.1182
5.869877275883075 86.9833
5.892223006467101 88.3204
5.914551544266608 89.1469
5.936897724049891 91.0006
5.959244129804903 95.3867
5.981573344815301 107.28
6.0039202049061 163.89
6.026249875609095 395.838
6.04859719346037 895.493
6.070927323278297 2069.1
6.093275102315365 4550.53
6.115623113320588 5549.28
6.137953938319995 3606.74
6.160302415650845 1073.34
6.182633708324452 237.56
6.2049826554078376 109.38799999999999
6.227331838745022 87.3678
6.249663839443684 80.1644
6.27201349767565 76.1388
6.294345974611799 73.7913
6.316696111167083 72.8964
6.339046488263839 71.6363
6.361379686074702 68.7261
6.383730546639482 66.67399999999999
6.406064229255215 64.9645
6.428415576718203 64.5677
6.450749747566656 63.6089
6.47310158535871 62.5879
6.495453669698332 61.9077
6.517788579421056 61.453
6.540141159237969 60.208999999999996
6.562476565766648 59.6646
6.5848296444934045 58.9734
6.607182974060425 58.6799
6.6295191323281015 58.0288
6.651872965955752 57.7327
6.6742096296068985 58.5889
6.6965639707294615 63.1742
6.71891856698715 64.5906
6.741255995248479 60.2308
6.763611104154477 56.9209
6.785949046381137 55.6408
6.808304671371482 54.5717
6.8306605557940046 54.3104
6.852999275508618 53.8428
6.875355681171544 53.5744
6.897694923437771 53.2045
6.92005185377892 53.0435
6.9423916220322655 53.0389
6.964749080490181 52.6884
6.987106804399774 52.5806
7.009447368180821 52.1062
7.031805625367033 52.0408
7.054146723727803 52.0636
7.076505517631004 51.9889
7.098864581288365 52.1836
7.121206488070854 51.8309
7.143566093607822 51.5221
7.165908543567245 51.3462
7.188268694426048 51.4855
7.2106291193438095 51.2568
7.232972390625943 51.4092
7.255333366030969 51.5611
7.277677189091925 55.8913
7.300038718428332 61.5232
7.322400526130865 61.2065
7.344745183422596 55.9733
7.367107550224791 52.6481
7.389452767901992 51.9127
7.411815697249891 51.893
7.434161478756298 50.9849
7.456524974096713 51.2723
7.478888753837185 51.5409
7.501235387657368 53.0329
7.523599738562711 59.0496
7.545946944825532 69.9146
7.568311870344528 73.2759
7.5906770845765665 65.4937
7.613025156078678 56.7834
7.635390950099687 53.8825
7.657739602662809 52.8799
7.680105979923558 52.7131
7.702472650212829 53.2592
7.724822180948224 53.022
7.747189439655568 53.1719
7.769539560075357 53.3379
7.791907410653562 53.8686
7.81425812420825 53.8685
7.836626570110925 54.2429
7.858995315087906 54.9621
7.881346924933401 54.9669
7.903716270417482 55.3738
7.926068482028405 55.6268
7.948438431475253 56.1434
7.9708086843180235 56.7755
7.993161805171116 57.4201
8.015532667162402 57.6189
8.037886398416653 58.466
8.060257873014221 58.903999999999996
8.082629655331942 59.2762
8.104984308787587 60.3358
8.127356708900503 61.1107
8.149711981398308 62.277
8.172085002766314 63.7059
8.194458336181368 63.8107
8.216814543847752 64.719
8.23918850371002 65.7672
8.26154533906492 66.3804
8.283919928836452 68.3977
8.306277395339652 69.22
8.328652618483376 70.5746
8.351028159736202 71.9602
8.373386579575245 74.4647
8.395762759396959 75.5862
8.418121819038275 77.7677
8.440498640894003 81.6011
8.462875785192262 86.5657
8.485235811156207 94.8484
8.507613602688501 128.75
8.529974277114228 230.105
8.552352719347912 374.19599999999997
8.574731488360351 619.284
8.59709314210385 1093.17
8.619472567021075 1838.39
8.64183487789147 2278.71
8.664214962183097 1971.91
8.686577933647762 1100.08
8.708958680784317 412.861
8.731339760774953 173.56
8.753703729764451 109.26799999999999
8.77608547780821 94.7389
8.798450116065078 91.1415
8.820832535634787 88.2981
8.843215292401656 86.902
8.865580941199045 85.6356
8.887964374703538 84.4002
8.910330701447199 83.8655
8.932714815164482 83.2328
8.955099270424924 82.553
8.977466620733543 81.7603
8.999851761421976 81.0209
9.022219798361645 80.5253
9.04460562795561 80.2249
9.066991803441677 79.6006
9.089360876979615 79.3739
9.111747746589993 79.3787
9.13411751544971 79.1145
9.156505082664324 78.9201
9.178875550323522 79.5294
9.20126381862328 82.1668
9.223652438908596 91.1338
9.246023961427412 106.988
9.26841328802173 113.178
9.290785518039224 103.62
9.313175554425882 89.1852
9.335565947154315 81.9148
9.357939245086508 80.633
9.380330352834827 79.8631
9.40270436697103 80.1348
9.425096193225055 79.5598
9.447488380180165 80.4464
9.469863475295412 80.5766
9.492256385987508 80.9432
9.514632206018318 81.5664
9.537025843935714 81.8814
9.559402392368193 82.5511
9.581796761000229 83.2492
9.604191496441521 83.7722
9.626569144158516 84.5044
9.648964615551032 85.3515
9.671343000390081 86.4953
9.693739211225699 87.307
9.716135793237463 87.5712
9.738515290448102 88.8176
9.760912617143402 89.654
9.783292860202891 90.8764
9.805690935076182 92.0282
9.828089385495742 92.9593
9.850470754023561 94.1525
9.872869957865444 95.7913
9.89525208097539 99.1645
9.917652041736662 103.072
9.940052382417589 106.61399999999999
9.962435644102392 115.22200000000001
9.984836746950979 147.585
10.007220771957746 228.68599999999998
10.029622640473708 351.18
10.052007432299963 517.2
10.074410069984072 776.755
10.096813093716005 1202.39
10.119199042482517 1765.39
10.141602840636468 2085.71
10.163989564971628 1678.53
10.186394141051062 998.877
10.208799107559706 438.664
10.231187001965623 199.735
10.253592751657669 124.964
10.275981430388155 107.335
10.298387966769793 102.975
10.320794897965431 102.054
10.343184759907361 101.12899999999999
10.36559248305461 99.1324
10.387983138083852 98.2453
10.410391656691655 99.0458
10.432800574501677 107.695
10.455192425893369 129.94899999999998
10.47760214443012 162.028
10.499994797678786 202.331
10.522405320453982 272.139
10.54479877906917 381.339
10.567210109595656 507.439
10.5896218454736 585.809
10.612016518879773 568.114
10.634429067781074 399.046
10.656824555333241 228.93599999999998
10.679237920773568 140.77100000000002
10.701651695961992 103.63799999999999
10.724048411481384 92.7502
10.746463008485165 86.3492
10.768860546937125 82.546
10.791275969274796 79.8881
10.81369180576079 78.8513
10.836090585366925 77.6464
10.858507252467449 76.6641
10.88090686379991 75.7298
10.903324365036394 74.7148
10.925724811614439 73.4603
10.948143150509463 73.22800000000001
10.970561909719066 72.6859
10.992963615930844 71.6602
11.015383218085756 70.6731
11.037785768347074 69.9448
11.06020621697282 69.5155
11.082627090322113 68.875
11.105030913430326 67.9563
11.12745263854165 67.7011
11.149857314510728 67.2507
11.172279894912576 67.9642
11.194702904450653 67.5267
11.217108866490921 66.7634
11.239532736615194 65.73
11.26193956033512 65.2626
11.284364294577085 64.9755
11.306789462371718 64.3189
11.329197585398376 64.0783
11.351623622610898 63.9184
11.37403261614354 63.2442
11.396459526308487 62.9783
11.418869393879497 62.6102
11.441297180532617 62.0876
11.463725406927658 61.8608
11.486136592353875 61.3958
11.508565700543707 61.3127
11.530977768845315 61.4992
11.553407762368774 61.1642
11.575838200059769 60.988
11.598251599479612 60.835
11.620682927815501 60.7056
11.64309721895548 60.5066
11.665529441478206 60.3214
11.687962112597958 60.0451
11.710377748130886 60.3327
11.732811318753434 60.2392
11.755227854859067 60.0731
11.777662328529495 60.0605
11.800079768750786 59.7839
11.822515149015453 59.7395
11.844950984084935 60.1883
11.867369787303163 59.8597
11.889806534289491 60.516000000000005
11.912226250487029 61.8791
11.934663912939751 65.3057
11.9571020346363 68.1377
11.979523127133968 68.4963
12.001962169624331 66.5685
12.024384183972964 63.8009
12.046824150809913 64.4169
12.069264581333726 69.4554
12.091687985297767 76.9103
12.11412934550045 86.1755
12.136553680195208 99.0628
12.158995973632788 120.152
12.181438735204349 146.213
12.20386447284199 180.095
12.226308172985636 202.423
12.24873485024193 212.57299999999998
12.271179492516982 174.00099999999998
12.293607112949127 135.16899999999998
12.316052700916226 98.2158
12.338498763250042 73.9289
12.360927805303868 64.6647
12.383374818673879 62.1177
12.405804812803074 61.1494
12.428252780773262 61.4799
12.45070122756722 61.5523
12.473132656675375 61.0947
12.49558206341869 61.4277
12.518014453510101 61.1033
12.540464823770117 61.3589
12.562915677315177 61.2922
12.58534951575545 61.8692
12.607801338171472 62.0554
12.630236146511358 62.6812
12.652688941369085 63.7732
12.675124723177234 64.3484
12.697578494048786 64.4538
12.720032754458185 63.9443
12.742470003354093 64.3806
12.764925245138771 64.6984
12.787363476431278 65.2159
12.809819703166806 65.251
12.83227642391173 65.9736
12.854716135692716 66.5256
12.877173846755147 67.7734
12.899614549869717 67.9845
12.9220732548287 68.8414
12.94453245827299 69.4422
12.966974655289818 70.2933
12.989434858002571 71.0794
13.011878055298721 71.7894
13.034339260862497 72.9508
13.056800969391883 74.3883
13.079245674017244 76.8396
13.101708390774869 78.6707
13.12415410463411 82.4769
13.146617833206086 92.9445
13.169064559883248 108.171
13.191529303857127 126.01799999999999
13.213994557076367 148.42700000000002
13.236442809902437 180.99400000000003
13.258909083908291 229.59
13.28135835851934 292.35
13.30382565690295 367.87800000000004
13.326293469022952 432.98199999999997
13.348744283242008 446.46
13.371213125129904 381.23800000000006
13.39366497011003 279.217
13.416134845360597 184.232
13.438605238843131 127.35
13.46105863690397 102.413
13.483530069144786 99.1383
13.505984506951902 107.265
13.528456981549432 120.28299999999999
13.550929978879088 135.82399999999998
13.573385983253365 156.834
13.595860028340867 189.58900000000003
13.618317081455832 237.493
13.64079217790333 297.828
13.663250283359057 356.591
13.685726434770173 392.13699999999994
13.708203115221277 359.33099999999996
13.730662806148091 287.79400000000004
13.75314054697177 205.72400000000002
13.775601299246777 138.21
13.798080104050406 100.271
13.820559442405358 84.7736
13.843021793671388 79.6942
13.865502201420897 77.6915
13.887965623051947 77.0761
13.910447103807167 76.2663
13.932929122629764 74.6488
13.955394156785959 74.315
13.977877254034569 73.5689
14.000343367582113 72.5931
14.022827546871707 72.1832
14.045294743423524 71.4912
14.06778000837062 71.0906
14.090265817715476 71.1753
14.112734645763819 71.7453
14.13522154619454 73.6565
14.157691466286913 75.5321
14.180179461423874 75.3885
14.202668005486178 73.5116
14.22513957064374 70.87
14.247629214846473 68.829
14.270101881097517 67.9963
14.29259262906496 67.6496
14.315083930490205 67.4935
14.337558255389705 67.3872
14.360050666019726 67.1936
14.382526101071944 66.712
14.405019624534942 66.6881
14.427513705993134 66.3317
14.449990813291825 66.433
14.47248601302899 66.0762
14.49496423954951 66.6686
14.517460561197822 66.5244
14.539939910570322 66.1629
14.562437357763558 66.3678
14.58493536931253 66.7121
14.607416409993311 66.9759
14.62991555254159 67.2891
14.652397725157423 67.2594
14.674898002342799 67.3755
14.697398848433282 67.6731
14.719882725991326 68.2392
14.74238471217934 68.6794
14.764869730765593 70.763
14.787372860692983 74.4914
14.809876564079925 81.2348
14.83236330125751 89.0405
14.854868153850365 98.0094
14.877356041159485 110.57
14.899862046604186 126.22200000000001
14.922351087688757 149.214
14.944858249632887 179.13099999999997
14.967365991421232 208.446
14.989856770231246 228.237
15.012365673994204 227.65400000000002
15.03485761569738 200.769
15.05736768508665 160.566
15.07987833888692 121.911
15.102372032001655 93.8916
15.124883856909658 77.1964
15.14737872204565 70.9585
15.169891721717274 68.8014
15.192405310371893 67.9828
15.214901940621196 67.5524
15.237416709527137 66.7545
15.259914520936249 66.668
15.282430473753607 65.7373
15.304947020131227 65.4614
15.327446610371178 65.0915
15.349964346154254 64.6663
15.372465126703139 64.5363
15.394984055556009 64.2749
15.417486030076159 63.9477
15.44000615566487 63.975
15.462526881230803 63.7058
15.485030653812652 63.7825
15.507552581617434 63.6037
15.530057557334603 63.3687
15.55258069104857 63.4488
15.575104429329837 63.8896
15.597611216864632 63.5907
15.620136166564563 63.7384
15.6426441664095 63.9932
15.665170331202765 65.1102
15.687697105158826 68.6842
15.710206930593545 73.8177
15.732734925158933 79.4757
15.755245972089478 86.7852
15.77777519094324 94.7036
15.800287463046663 105.772
15.822817909869592 122.23100000000001
15.84534897229804 143.674
15.867863089299354 169.488
15.890395385222186 190.821
15.912910736597423 202.93
15.935444269699861 192.797
15.957978423016485 168.581
15.980495633101265 133.606
16.003031029129367 103.839
16.02554948280019 81.1503
16.048086125229432 69.4256
16.070623392487107 64.9098
16.09314371869582 62.9195
16.11568223789321 61.0373
16.13820381691126 59.8317
16.160743591742527 59.0868
16.183283996022084 58.4381
16.205807461423195 57.645
16.228349126881973 57.0455
16.25087385432698 56.9758
16.27341678466365 56.3528
16.29594277784926 56.003
16.31848697676433 55.6481
16.341031811604868 55.1805
16.36355971058487 55.2909
16.3861058195587 55.1628
16.40863499352978 54.5086
16.431182380342005 54.2863
16.453730407713202 53.9962
16.476261501364792 53.6255
16.498810812136167 53.3987
16.52134319004079 53.6639
16.54389378792203 53.4773
16.566445031001553 53.2866
16.588979342490088 53.0978
16.61153187824822 53.0791
16.634067483263312 53.2047
16.656621315414416 52.9242
16.679175797408888 52.633
16.701713349928728 52.7603
16.72426913389191 52.9216
16.74680798922351 52.6884
16.76936507887444 52.7376
16.791905240734874 52.8964
16.814463639794468 52.7178
16.837022695210294 52.883
16.859564824093756 53.0051
16.882125194503903 53.2127
16.904668639217885 53.5652
16.927230328348003 53.7079
16.949792678493612 54.3485
16.972338104193863 54.1367
16.994901778652235 53.9683
17.017448529496576 53.8639
17.040013531998152 54.0717
17.06257920018044 54.1099
17.0851279459922 54.7625
17.107694947817667 55.8824
17.130245028099072 56.993
17.15281336730298 58.5886
17.17536478578733 59.9862
17.19793446610687 62.1795
17.220504818648422 65.0171
17.243058251703697 68.0399
17.265629950971032 72.4368
17.288184731571736 77.0548
17.310757781306908 81.6856
17.33333150794385 83.3612
17.355888317140174 82.4829
17.37846339986244 78.7326
17.401021565958885 72.1423
17.42359800851343 66.0949
17.44617513265564 61.6708
17.468735341390783 58.9257
17.491261035594565 57.5739
17.51396340099364 57.1599
17.536490463869136 57.2458
17.559018209820174 57.1146
17.58154663977963 57.3818
17.604251766089718 57.5679
17.626781572227713 57.7634
17.64931206518155 57.9345
17.671843245885103 58.4823
17.69455114821572 58.3892
17.717083712612634 58.7298
17.739616967569667 59.3652
17.762150914021706 60.0067
17.78486160749854 60.4344
17.807396945166804 60.8143
17.829932977143503 61.1814
17.85246970436452 61.8415
17.875183204129467 63.6955
17.897721330097664 66.7453
17.920260154126645 69.8987
17.942799677153296 73.5459
17.9655159983646 77.3093
17.988056927677544 81.9476
18.010598558807683 88.6299
18.033140892692916 97.8391
18.05586005052525 109.584
18.07840379824407 121.492
18.10094825154059 133.451
18.12366954819864 142.08700000000002
18.146215420998306 143.295
18.16876200220057 137.455
18.191309292745153 123.185
18.214033452627167 108.493
18.236582170236648 95.9097
18.259131600016456 88.1507
18.281681742907335 85.9945
18.304408781233683 88.9977
18.32696035875955 94.1309
18.349512652227624 99.2891
18.372065662579683 105.23100000000001
18.394795594587553 107.773
18.41735004715306 104.978
18.43990521943684 98.6212
18.46246111238171 89.2389
18.485193953325208 79.117
18.507751296070428 71.0759
18.530309362314178 65.8923
18.552868153000343 63.0398
18.57560391815056 61.3332
18.59816416623245 60.8572
18.620725141597372 60.198
18.643286845190268 59.4509
18.666025549835414 58.9509
18.688588718427933 58.2228
18.711152618092243 58.2099
18.73389353884365 57.8371
18.75645890921984 57.6134
18.77902501351406 57.3095
18.801591852673102 57.268
18.824335739722738 56.4994
18.846904057212626 56.5138
18.8694731124168 56.3606
18.89204290628315 56.3445
18.914789774966803 55.9375
18.937361054791623 55.7392
18.959933076131318 55.4829
18.982505839934877 55.4747
19.00525570560582 55.2679
19.027829963004184 55.0684
19.05040496572238 55.287
19.072980714710468 55.0274
19.095733592739563 55.1749
19.11831084296757 55.2536
19.140888842324735 55.8384
19.16346759176222 56.3515
19.18622349753803 57.2634
19.208803755869358 58.0431
19.231384767143577 59.2048
19.253966532312948 60.6122
19.276725481241822 62.8435
19.29930876296784 65.5336
19.3218928014549 68.7473
19.34465404436217 72.2004
19.36723960516257 74.7535
19.389825925592426 76.1253
19.412413006605938 75.1813
19.43517731967805 72.1598
19.457765930683355 67.7531
19.48035530514408 63.5224
19.50294544401556 59.2324
19.525712842708348 56.0655
19.54830451925909 54.2477
19.570896963095727 52.9922
19.593490175174704 52.6268
19.616260674962184 52.5392
19.638855432416964 51.9712
19.661450960992624 52.1675
19.68404726164677 51.9527
19.706820878021247 51.8687
19.729418731756834 52.1572
19.752017360452857 51.8907
19.77461676506804 52.218999999999994
19.797393513540218 51.9832
19.819994478951667 52.1312
19.84259622316767 52.8483
19.8651987471481 53.1774
19.887978643247177 53.6498
19.91058273574792 54.3663
19.933187610901943 55.168
19.955969879466828 56.076
19.97857632894404 57.5819
20.00118356396599 58.9695
20.023791585494575 60.9096
20.046577028914875 63.8856
20.069186632506966 66.6268
20.091797025500632 69.1273
20.114408208858933 70.4341
20.137196842715273 70.8599
20.159809615886765 69.3398
20.18242318232135 66.7391
20.20503754298326 64.222
20.227829382875154 62.5069
20.250445341109344 61.9606
20.27306209647285 62.2654
20.29567964993108 63.3646
20.31847471147704 64.7729
20.34109387027612 65.6154
20.363713830075454 65.5166
20.386334591841646 64.1078
20.409132890679302 61.5554
20.431755265564437 58.1785
20.454378445325528 55.1141
20.477002430930366 52.7748
20.499803982716553 51.1659
20.522429589228004 50.1827
20.54505600449589 49.3912
20.567683229489194 49.4046
20.590488049900088 49.2238
20.61311690359731 48.9994
20.63574656993626 48.6568
20.658553853717297 48.3534
20.681185154618298 48.56100000000001
20.703817271080066 48.2911
20.72645020407368 47.9436
20.749260783967177 48.1129
20.771895359337133 48.1814
20.794530754161617 48.1112
20.817166969412938 48.1978
20.83998086114876 48.0242
20.86261872660049 47.7222
20.885257415405402 47.5407
20.90789692853701 47.5037
20.930714147864748 47.4075
20.953355319030678 47.2298
20.97599731745334 47.3919
20.99864014410749 47.3149
21.021460706796564 47.4016
21.044105199328826 47.5969
21.06675052302631 47.8376
21.089396678865015 47.9611
21.112220600704806 48.2324
21.134868430275347 48.5616
21.15751709492456 48.7777
21.180166595629693 49.1065
21.202993892429635 49.6779
21.22564507473034 50.2174
21.24829709602816 50.2908
21.27112693608965 50.4474
21.293780644891275 50.4779
21.316435195634053 49.8613
21.339090589297417 49.18899999999999
21.361923832041875 48.6633
21.384580921090404 48.0111
21.407238856007325 47.3598
21.429897637773326 47.31
21.45273429906592 47.2671
21.475394784108598 47.2698
21.498056118951983 47.3174
21.520718304578022 47.4473
21.543558400304388 47.4962
21.566222297108816 47.5219
21.58888704765135 47.629
21.61155265291521 47.9162
21.63439619898156 48.3832
21.657063523335786 48.8141
21.67973170537063 49.5711
21.7024007460706 50.1781
21.72524775840385 50.8511
21.747918526116475 51.683
21.770590155457388 52.7078
21.79326264741238 54.1574
21.816113141960237 56.1693
21.838787368860547 58.1357
21.861462461341976 60.1936
21.884315579735777 62.8085
21.90699241312273 64.5113
21.92967011506078 65.2707
21.95234868653799 65.1253
21.9752053151131 63.9161
21.997885635446785 62.0444
22.020566828293532 59.8048
22.04324889464272 57.8203
22.066109049404666 56.4174
22.088792872571794 55.8706
22.111477572219204 55.9032
22.1341631493376 56.0711
22.157026846313123 55.9596
22.179714188221507 55.498999999999995
22.202402410582668 54.3488
22.22509151438863 52.6439
22.24795876962584 51.1638
22.270649646204486 49.9434
22.293341407213727 49.2205
22.316034053646906 48.4726
22.338904883215342 48.0296
22.36159931041458 47.9316
22.38429462602756 47.6847
22.40699083104897 47.5962
22.429865251039757 47.4835
22.452563244831367 47.5437
22.47526213102522 47.5524
22.49813925616515 47.5738
22.520839937143307 47.4922
22.543541513520587 47.4498
22.56624398629403 47.4938
22.589124730075895 47.3857
22.611829005656723 47.4954
22.63453418063466 47.5491
22.657240256008077 47.751999999999995
22.680124634582935 48.0078
22.70283252079775 48.3168
22.725541310413075 48.6705
22.74825100442868 49.0877
22.771139033969575 49.5281
22.79385054687155 49.882
22.81656296718292 50.4374
22.83927629590484 51.1566
22.862167992606945 52.1716
22.88488314827121 53.3464
22.907599215359284 54.5004
22.93031619487366 55.6462
22.953211574954405 56.8985
22.975930389478226 57.8005
22.998650119445763 58.1444
23.02137076586092 57.5344
23.044269845560063 56.3027
23.06699233506288 54.4775
23.089715744034912 52.5126
23.112617610931565 50.9282
23.135342869061212 49.5436
23.158069049684816 48.6739
23.1807961538087 48.0055
23.20370174880544 47.9403
23.226430710184808 47.8191
23.249160598093425 47.7727
23.271891413539002 47.7515
23.294800752937697 47.9651
23.31753343374794 48.3938
23.340267045128353 48.4906
23.36300158808808 49.0818
23.38591468821339 49.3489
23.408651104658304 49.8955
23.431388455719986 50.3388
23.454126742409 51.1868
23.4770436196085 52.0987
23.499783787914662 53.5504
23.522524894889884 54.515
23.54526694154616 55.8317
23.56818761219047 57.1149
23.59093154860734 57.9154
23.613676427751283 58.5302
23.636422250635754 57.9931
23.659346731118656 56.3194
23.68209445191868 54.4621
23.704843119509587 52.0048
23.72759273490623 50.008
23.750521041644767 48.2577
23.77327256312355 46.8407
23.796025035462787 45.9742
23.818956224555475 45.3686
23.841710609113413 45.0122
23.86446594758979 44.9761
23.887222241002014 44.6823
23.910157285144578 44.3272
23.932915498962537 44.3565
23.955674670778713 44.1754
23.978434801611975 43.9672
24.001373717286125 43.7328
24.024135776723917 43.7563
24.046898798245582 43.6838
24.06966278287146 43.4726
24.092605586582614 43.4016
24.115371508023642 43.1589
24.1381383956401 42.9576
24.16090625045381 43.0685
24.183852958731244 42.9539
24.206622758582608 42.7848
24.229393528706886 42.5729
24.252165270127392 42.7137
24.27511589952438 42.7054
24.297889594216997 42.5461
24.32066426328598 42.2553
24.34343990775613 42.2808
24.36639447485003 42.1939
24.38917208083877 42.0708
24.41195066531332 41.9514
24.43490819850244 42.1802
24.457688750692377 42.0245
24.48047028445616 42.0913
24.503252800821233 42.1762
24.526214300784112 42.2151
24.548998793132213 42.1691
24.57178427117417 42.1007
24.59457073593893 42.1399
24.617536219319863 42.0756
24.64032466834748 42.2229
24.663114107195035 42.1834
24.685904536893013 41.839
24.708874020360852 41.5365
24.731666442613744 41.5469
24.754459858818787 41.3635
24.777254270007962 41.3832
24.80022777025625 41.1875
24.82302418230472 41.2072
24.845821592443674 41.2801
24.86862000170663 41.2729
24.891597535453727 41.2406
24.914397953892728 41.4998
24.93719937456671 41.3923
24.96000179851076 41.5292
24.98298338249997 41.633
25.00578782394922 41.9593
25.028593271784167 42.0211
25.05157790644186 42.3733
25.07438537804115 42.5186
25.097193859145293 42.9508
25.120003350792075 43.2771
25.142992065061257 43.6038
25.165803588823465 43.7326
25.18861612625217 44.2105
25.211429678386736 44.3441
25.234422489079968 44.2863
25.257238081693636 44.3446
25.280054692141732 44.408
25.3028723214652 44.5275
25.325869245420463 44.6834
25.348688923599397 44.673
25.371509623787006 44.6743
25.394331347025812 44.4228
25.41733240110666 43.9331
25.440156181590016 43.2227
25.46298098826268 42.5514
25.48580682216873 42.048
25.50881202326435 41.3489
25.53163992281684 40.7984
25.55446885274561 40.4509
25.577298814096377 40.2419
25.600308179121807 40.16
25.623140214533745 40.0994
25.64597328451537 39.9373
25.66898578564376 39.8343
25.691820936010206 39.9123
25.714657124097695 39.7318
25.737494350954734 39.6392
25.760511045684957 39.6714
25.783350361364224 39.6704
25.806190718969255 39.6853
25.82903211955018 39.8795
25.852053024868923 39.9714
25.874896522722523 39.8965
25.897741066713106 39.9454
25.920586657892454 39.8719
25.943611790812668 40.0153
25.966459487728237 40.2438
25.989308234998564 40.3255
26.01215803367705 40.7027
26.03518741123814 40.8362
26.05803932412957 40.9417
26.080892291600094 41.0629
26.10374631470478 41.136
26.12677995397268 41.2492
26.14963609978026 41.3317
26.172493304397875 40.9799
26.19535156888223 40.7808
26.218389486949604 40.2159
26.241249882640123 39.9337
26.26411134137826 39.6493
26.28715248187403 39.5509
26.31001607820869 39.357
26.3328807407756 39.336
26.35574647063438 39.6207
26.37879191991473 39.492
26.401659795896734 39.4257
26.424528742360263 39.6094
26.447398760366614 39.7986
26.470448535598294 39.8914
26.49332070826805 40.1201
26.516193955675355 40.3766
26.53906827888316 40.6883
26.562122397260108 40.8739
26.584998883685063 41.2553
26.607876449110325 41.5958
26.63075509460056 41.8658
26.65381357334404 42.0455
26.67669439061878 41.9111
26.699576291163382 41.9645
26.722459276044212 41.9435
26.745522132402975 41.4858
26.768407297649354 41.2875
26.791293550442003 40.9377
26.814180891848974 40.5628
26.837248143099337 40.2577
26.860137673466657 40.0265
26.88302829566349 39.8736
26.90592001075963 39.6905
26.92899167420566 39.5983
26.951885586870763 39.1645
26.974780595655517 39.0073
26.99785558178161 38.8501
27.020752794605112 38.4937
27.043651106772522 38.301
27.06655051935668 38.3046
27.089629948036183 38.091
27.112531573292053 38.1239
27.135434302194138 38.2156
27.158338135817015 37.924
27.181422024430987 38.0158
27.204328079372566 37.9066
27.22723524226965 37.859
27.250143514198573 38.0146
27.273231880156334 37.8957
27.296142382065014 37.8367
27.319053996245536 37.7513
27.341966723775965 37.7961
27.365059584515222 37.8358
27.38797455070062 37.9546
27.410890633481237 37.9212
27.433807833936918 37.8603
27.456905206923906 37.9973
27.47982465472398 37.9154
27.502745223449743 38.0659
27.525666914182825 38.1291
27.548768816912457 38.0665
27.571692763693633 38.1083
27.59461783573812 37.9427
27.617723149491244 37.7396
27.640650484125285 37.6733
27.66357894728264 37.4651
27.686508540048052 37.4709
27.709618414237887 37.3531
27.732550278321757 37.2949
27.755483275279115 37.244
27.778417406196485 37.288000000000004
27.801531858397514 37.3365
27.824468269376716 37.2631
27.847405817586786 37.2601
27.870344504116094 37.3866
27.893463551932008 37.6521
27.916404527281053 37.748000000000005
27.93934664422563 37.9538
27.962289903855886 38.0515
27.98541356491974 38.3794
28.00835912214229 38.5098
28.03130582533231 38.8403
28.054253675581805 39.0014
28.077381967556104 38.7503
28.100332124185126 38.7755
28.123283431160893 38.7779
28.146235889577238 38.6376
28.169368830154156 38.5523
28.192323603752033 38.3033
28.215279532083304 37.8997
28.238415973016764 37.7085
28.261374223145094 37.5158
28.284333631303806 37.3344
28.307294198589954 37.296
28.330435319167677 36.887
28.353398217078915 36.6968
28.376362277420153 36.2639
28.39932750129032 36.1132
28.422473319286713 35.9507
28.44544088262495 35.8885
28.468409612800283 35.6536
28.491379510913497 35.5323
28.51453004413313 35.4679
28.53750229057244 35.3593
28.56047570826344 35.3056
28.583450298308804 35.2617
28.606605564586562 35.0998
28.629582511831156 35.1667
28.65256063474956 35.1002
28.675539934446338 35.089
28.698699951647605 35.0029
28.72168161743193 34.9032
28.74466446331978 34.8104
28.767648490417624 34.7257
28.790813276438353 34.7332
28.813799678527303 34.8673
28.836787265157085 34.8447
28.859955641890075 34.8388
28.882945610203045 34.8311
28.905936766392035 34.7375
28.928929111566863 34.7514
28.952102288520145 34.7442
28.975097024308607 34.5669
28.998092952423807 34.466
29.021090073977508 34.4066
29.04426806913204 34.3352
29.067267590245258 34.2049
29.090268308143695 34.144
29.11327022394099 34.0439
29.13645305530891 33.8684
29.159457379627167 33.828
29.18246290519685 33.8887
29.20546963313352 33.8619
29.22865731875826 33.736
29.25166646419296 33.777
29.27467681535305 33.5621
29.29768837335608 33.7335
29.320880931312562 33.7497
29.34389491580634 33.8289
29.366910110507334 33.7132
29.38992651653503 33.6304
29.41312396492981 33.7076
29.436142806456754 33.765
29.45916286268059 33.551
29.48236399319994 33.4741
29.50538649169417 33.3577
29.528410208259935 33.2452
29.55143514402014 32.9293
29.574641196749695 32.865
29.597668583816574 32.7613
29.6206971934585 32.5903
29.64372702680042 32.6547
29.666938019934474 32.624
29.689970313635285 32.4648
29.713003834422636 32.3624
29.73603858342347 32.3479
29.759254535188578 32.2463
29.78229175361658 32.1566
29.80533020365064 32.4031
29.82836988641968 32.2421
29.85159081507472 32.1959
29.874632976355343 32.0345
29.89767637376955 32.2308
29.920721008448314 31.955
29.9439469322847 32.1083
29.96699405457564 31.9692
29.9900424175358 32.1062
30.013092022298157 31.9305
30.03632295963995 31.8501
30.059375061131373 31.8521
30.08242840783577 32.0026
30.105483000888153 32.0556
30.128718970092244 31.8811
30.151776069006917 31.8524
30.17483441768648 31.9587
30.198074175317235 31.9537
30.221135036724256 31.9065
30.24419715131772 31.7736
30.267260520236203 31.6425
30.290505341942243 31.7978
30.313571232750228 31.8316
30.336638381310948 31.8567
30.35970678876503 31.6999
30.38295669299435 31.747
30.40602763151657 31.7009
30.429099832366074 31.6137
30.452173296685572 31.5656
30.47542830191959 31.6239
30.498504306502497 31.5938
30.521581577995562 31.5707
30.544660117543582 31.6819
30.56792024229725 31.73
30.59100133132069 31.5806
30.614083691845494 31.6692
30.637167325018545 31.8199
30.660432587840603 31.8383
30.683518779717886 31.6995
30.70660624769615 31.9033
30.729694992924372 31.9183
30.75296541239743 31.9005
30.77605672557558 31.8521
30.799149319462742 31.7541
30.8224236211637 31.7336
30.845518789950724 31.5427
30.868615242910597 31.5752
30.891712981195973 31.355999999999998
30.91499247215866 31.3508
30.938092794619365 31.2499
30.96119440587579 31.1092
30.984297307082752 30.9927
31.00758200598383 30.9783
31.030687500658694 30.8044
31.053794288760695 30.6861
31.076902371446767 30.6338
31.100192296997445 30.7041
31.12330298246119 30.6562
31.14641496599209 30.5465
31.169528248749216 30.5328
31.19282341969534 30.4273
31.215939314557186 30.5052
31.239056512134788 30.5139
31.262175013589378 30.6403
31.28547544871168 30.4522
31.30859657161541 30.4083
31.331719001892175 30.4714
31.35484274070538 30.5412
31.378148458819545 30.5388
31.401274828443725 30.4198
31.424402510106933 30.4301
31.447712205419993 30.4443
31.470842524931633 30.4234
31.493974159989783 30.4565
31.51710711176168 30.4269
31.54042212308802 30.4978
31.563557722100917 30.4738
31.586694641341655 30.2578
31.609832881979628 30.1195
31.63315322823208 30.041
31.656294125521327 30.0047
31.679436347728515 30.0573
31.70257989602529 29.8639
31.725905596152327 29.7961
31.74905181052835 29.7069
31.772199354521323 29.8153
31.79534822930507 29.7643
31.818679302290967 29.7445
31.84183085259981 29.721
31.864983737233473 29.7689
31.88813795736804 29.8575
31.911474422233013 29.7181
31.934631327356435 29.7303
31.9577895715215 29.7382
31.980949155906522 29.6158
32.004291031706956 29.6832
32.027453310562606 29.5757
32.05061693318573 29.469
32.07396288236386 29.4975
32.09712920658542 29.4311
32.12029687812702 29.2579
32.14346589817093 29.1767
32.166817291729984 29.1384
32.18998902288583 29.1429
32.21316210610336 29.0718
32.23633654256711 28.8608
32.259693399663725 28.8503
32.282870556771144 28.6964
32.30604907069099 28.8258
32.329228942610065 28.6937
32.35259128243769 28.5506
32.375773884550505 28.4458
32.398957848235646 28.5688
32.422143174682176 28.3203
32.445511016471215 28.3334
32.468699082679954 28.3453
32.49188851523011 28.2935
32.51507931531304 28.2103
32.538452678331 28.163
32.56164622776311 28.0807
32.58484114831493 27.9737
32.60803744118015 28.0556
32.631416344731896 27.9611
32.654615396551876 28.033
32.67781582427913 27.9318
32.701198898634416 27.913
32.72440209253756 27.8215
32.747606665947124 27.8588
32.77081262006088 27.7704
32.79420126883317 27.7298
32.81740999876112 27.679000000000002
32.840620112999424 27.5993
32.86383161274818 27.5788
32.88722585534586 27.6292
32.91044014056596 27.6346
32.933655814909734 27.6024
32.95687287957963 27.5728
32.98027273544904 27.4909
33.00349259526636 27.5389
33.026713849030116 27.539
33.04993649794511 27.4926
33.073341986570746 27.4183
33.09656744032826 27.4519
33.11979429286444 27.4787
33.14302254538647 27.4369
33.166433686291185 27.3939
33.18966475336992 27.3298
33.212897224069096 27.3007
33.23613109959831 27.2867
33.259547912343415 27.23
33.2827846121627 27.2094
33.306022720453775 27.2451
33.32926223842861 27.0436
33.352684742614166 27.0725
33.37592709463173 27.1171
33.399170859982064 27.0266
33.422597648419426 26.8057
33.44584425514446 26.7931
33.46909227885668 26.7321
33.4923417207723 26.6005
33.51577423505344 26.693
33.539026528130385 26.5957
33.56228024307245 26.4779
33.585535381098246 26.373
33.60897364093058 26.3699
33.63223163992385 26.3984
33.6554910656699 26.2897
33.678751919389796 26.2702
33.702195944520106 26.228
33.72545966903325 26.2256
33.74872482519663 26.1009
33.771991414233746 26.1254
33.79544122444841 26.013
33.81871069412428 25.8904
33.84198160035767 25.9987
33.86525394437455 26.04
33.88870955949969 25.9975
33.911984794020626 26.0275
33.93526147001624 25.9296
33.958539588715006 25.7289
33.98200102861669 25.6861
34.0052820477047 25.6478
34.02856451319451 25.601999999999997
34.05203033759056 25.5957
34.07531571090147 25.6127
34.09860253431845 25.5986
34.121890809074316 25.4985
34.145362493118924 25.4275
34.16865368561615 25.3945
34.191946333164054 25.4061
34.21524043699793 25.4434
34.23871800066799 25.3463
34.26201503218366 25.2434
34.28531352370466 25.1728
34.30861347646881 25.1801
34.33209693978188 25.1237
34.3553998301885 25.1822
34.378704185565205 25.1104
34.402010007152356 25.0675
34.42549939016683 25.0224
34.44880815937748 24.9622
34.472118398533134 25.0116
34.49543010887669 24.8415
34.51892543169198 24.7834
34.54224009966052 24.8577
34.56555624255917 24.8088
34.58887386163339 24.6697
34.61237514439016 24.6073
34.6356957311114 24.6652
34.65901779775809 24.5501
34.68252356662995 24.6037
34.705848608458616 24.5132
34.72917513396849 24.3955
34.75250314440949 24.3818
34.77601490857862 24.3654
34.799345904259795 24.3202
34.82267838863559 24.3565
34.846012362958525 24.2922
34.869530142679984 24.2334
34.89286711232212 24.205
34.91620557568269 24.2355
34.93954553401677 24.1456
34.9630693495876 24.1308
34.986412313340814 24.1384
35.00975677584668 24.1755
35.033102738362956 24.0907
35.05663261012228 23.9369
35.0799815881786 23.9488
35.10333207003229 23.938000000000002
35.12668405694369 23.9268
35.150220005273056 23.9927
35.17357501786656 23.9454
35.19693153931268 23.8964
35.220289570874385 23.8024
35.24383161619786 23.8233
35.267192683604904 23.7963
35.290555264930376 23.7672
35.314101899412165 23.7875
35.33746752422433 23.7286
35.36083466676374 23.7447
35.38420332829803 23.6483
35.407756095629054 23.6196
35.43112781085063 23.6807
35.45450104888391 23.5974
35.477875810999194 23.5887
35.50143473172161 23.4678
35.52481255774625 23.5622
35.54819191167777 23.4788
35.57157279478914 23.4561
35.595137889488406 23.4436
35.61852184675279 23.3448
35.641907337029984 23.3405
35.665294361595684 23.3184
35.68886565090076 23.1725
35.7122557598848 23.2235
35.73564740699838 23.2258
35.759040593519934 23.1472
35.78261809810353 23.079
35.80601437933051 23.048000000000002
35.829412203814705 23.0706
35.85281157283719 22.9741
35.876395313415884 23.0226
35.8997977874528 22.8545
35.92320180988546 22.8911
35.946790244133936 22.7707
35.97019737933222 22.7774
35.993606066789866 22.7656
36.01701630779276 22.794
36.04061101440684 22.7044
36.06402437852291 22.7479
36.08743930005611 22.7084
36.1108557802951 22.6291
36.13445678011326 22.61
36.15787639383515 22.4927
36.18129757014299 22.5121
36.20472031032821 22.386
36.22832762423364 22.4355
36.25175350829375 22.3883
36.275180960119776 22.2619
36.298609981005924 22.359
36.32222362992669 22.3274
36.34565580510207 22.2676
36.36908955323448 22.2027
36.39252487562093 22.1057
36.416144880530226 22.0525
36.43958336764275 22.0663
36.463023432914625 22.1164
36.486465077645676 21.9858
36.51009145956204 22.1249
36.53353627947859 22.1094
36.55698268276811 22.0154
36.58043067073321 21.9938
36.60406345072071 21.8849
36.62751462435344 21.9483
36.65096738658405 21.8582
36.67460498210655 21.8302
36.69806093788647 21.8675
36.72151848619297 21.7225
36.744977628333636 21.7617
36.76862165890998 21.7338
36.79208400512205 21.7308
36.81554794910557 21.6552
36.83901349217101 21.6267
36.862663978991606 21.5588
36.88613273667352 21.4695
36.90960309738324 21.4758
36.933075062434064 21.4365
36.95673202673572 21.3707
36.98020721697122 21.3832
37.003684015502365 21.2771
37.027162423645365 21.2508
37.050825886711465 21.232
37.07430753063053 21.2038
37.09779078812467 21.2018
37.121275660513014 21.1468
37.144945643673694 21.1807
37.16843376245278 21.1364
37.19192350009803 21.0958
37.215414857931435 21.0157
37.239091382563885 20.9456
37.262585997426164 20.9213
37.28608223645736 20.9747
37.309763684451696 20.9323
37.33326318851098 20.8525
37.356764320726555 20.7695
37.380267082425526 20.8161
37.40395510942588 20.7506
37.42746114683234 20.7493
37.45096881771841 20.6551
37.474478123414166 20.6329
37.49817275092816 20.6377
37.52168534303452 20.5785
37.54519957395567 20.5262
37.568715445024665 20.5653
37.592416694607714 20.4647
37.61593586281424 20.4719
37.63945667518264 20.5296
37.66297913304891 20.4421
37.68668702630454 20.4498
37.710212792059274 20.3228
37.733740207334854 20.3241
37.757269273470364 20.2942
37.780983832050374 20.217
37.80451621684926 20.2239
37.82805025654007 20.1798
37.851585952464795 20.1148
37.8753071980695 20.0493
37.89884622345676 20.042
37.92238690911902 20.0885
37.94611318753442 19.9502
37.969657210779765 19.9207
37.99320289834801 19.9706
38.016750251586465 19.9384
38.04048325513017 19.8845
38.06403395679343 19.8881
38.087586328183946 19.8068
38.11114037065203 19.8281
38.13488012115898 19.8338
38.1584375229181 19.6845
38.181996599821 19.6779
38.205557353221124 19.6655
38.229303872575656 19.6274
38.2528679961576 19.6632
38.27643380031219 19.6106
38.30000128639589 19.4976
38.32375459653193 19.5428
38.34732546371299 19.5483
38.37089801690786 19.4704
38.39447225747609 19.4138
38.418232380377425 19.3682
38.441810012983396 19.3851
38.46538933705673 19.337
38.488970353960084 19.3648
38.51273731166058 19.2966
38.536321731567014 19.2229
38.55990784840681 19.214000000000002
38.58367995004091 19.1808
38.60726947812959 19.1151
38.63086070726198 19.1772
38.654453638806274 19.1373
38.678232613930824 19.0505
38.70182896773327 18.948
38.72542702806741 18.9373
38.7490267963045 18.9574
38.77281266709232 18.9078
38.79641586862214 18.867
38.8200207821842 18.845
38.843627409152944 18.8571
38.86742019782782 18.7804
38.891030269149255 18.8029
38.914642058016156 18.685
38.938255565806124 18.7244
38.96205529464307 18.6641
38.98567225787121 18.6391
39.00929094417078 18.6461
39.03291135492255 18.6329
39.05671804624804 18.5857
39.080341923549106 18.5082
39.103967529460334 18.521
39.127594865365744 18.5279
39.15140854155791 18.4694
39.17503935514948 18.403
39.19867190290282 18.3581
39.22249083587951 18.3467
39.24612686969409 18.2996
39.269764641845306 18.2991
39.293404153722804 18.2582
39.317230110864074 18.2383
39.34087311998506 18.173
39.36451787301696 18.2287
39.388164371352595 18.1246
39.41199737518003 18.1059
39.43564738196752 18.105999999999998
39.45929913825317 18.0814
39.48295264543308 18.0205
39.506792718520884 18.0001
39.530449745387216 17.9585
39.55410852735203 17.9156
39.57776906581474 17.994
39.60161623079 17.9655
39.625280300200025 17.939
39.64894613032202 17.8962
39.67261372255866 17.8082
39.6964680021016 17.8929
39.72013913657293 17.7955
39.74381203738292 17.7856
39.76748670593756 17.7587
39.79134812278169 17.7235
39.81502634488497 17.72
39.83870633896685 17.5967
39.862388106436654 17.6201
39.88625668336918 17.5847
39.90994201572829 17.6171
39.933629125719285 17.5402
39.957503091207826 17.477
39.9811937746168 17.5325
40.00488623990914 17.5107
40.02858048850006 17.4284
40.05246165409549 17.4243
40.076159487492085 17.3251
40.099859108448875 17.3174
40.123560518384345 17.2698
40.1474489070226 17.2798
40.171153913178564 17.2022
40.194860712584955 17.2526
40.2185693066637 17.2191
40.242464941335314 17.1394
40.26617714307655 17.1765
40.289891143772046 17.1588
40.3136069448471 17.0808
40.33750984859743 17.0306
40.3612292688043 17.0037
40.3849504936829 17.0153
40.40867352466194 17.0326
40.43258372059144 16.948
40.45631038219906 16.8949
40.48003885420956 16.8792
40.503769138055105 16.8647
40.52768664931955 16.8609
40.55142057531802 16.8183
40.57515631746428 16.7672
40.599079334038514 16.7765
40.62281872700477 16.7326
40.64655994043941 16.7384
40.67030297578061 16.6901
40.69423334835778 16.6212
40.71798004609188 16.6176
40.74172857006355 16.621
40.76547892171441 16.5818
40.7894166736039 16.5643
40.813170699248566 16.4906
40.83692655691388 16.5033
40.86068424804498 16.4891
40.884629402612525 16.4357
40.908390779366385 16.4174
40.932153993938 16.4099
40.95591904777605 16.3282
40.979871628443995 16.3466
41.003640379561936 16.3673
41.02741097430883 16.3071
41.05118341413683 16.2758
41.075143444384416 16.235
41.098919593177826 16.1708
41.1226975914255 16.1648
41.14647744058318 16.1629
41.170444943946755 16.1151
41.19422851378379 16.0965
41.218013938914645 16.0712
41.24198706625173 15.9857
41.26577622087193 15.9683
41.289567235177785 15.9671
41.31336011063129 15.9628
41.337340752422875 15.9161
41.361137369129835 15.898
41.38493585138705 15.8826
41.40873620066004 15.859000000000002
41.43272438060107 15.808
41.45652848292052 15.8046
41.48033445666918 15.7652
41.50414230331616 15.7476
41.528138045159764 15.7418
41.551949656675205 15.7011
41.575763145513235 15.6933
41.59957851314666 15.6558
41.62358184070442 15.5645
41.64740098505737 15.6031
41.6712220126409 15.5288
41.69504492493139 15.5316
41.71905586207357 15.5116
41.74288256296395 15.4518
41.766711153007456 15.392999999999999
41.79054163368412 15.4043
41.814560204340054 15.4721
41.838394485526365 15.4362
41.86223066180303 15.3322
41.88625497706819 15.3579
41.910094962812 15.3204
41.93393684811168 15.2873
41.95778063445365 15.1387
41.981812625263366 15.1753
42.00566023303407 15.2156
42.029509746323676 15.1981
42.05336116662236 15.1537
42.077400857069705 15.1297
42.10125611078846 15.1252
42.12511327600405 15.0694
42.14897235421036 15.0407
42.173019768448455 14.9945
42.19688269209613 14.9563
42.22074753323349 15.0326
42.24461429335818 14.9579
42.268669455600495 14.9403
42.292540073217886 14.9556
42.31641261433284 14.899000000000001
42.34028708044675 14.8581
42.36435001496739 14.8491
42.38822835065557 14.8203
42.41210861586426 14.8156
42.4359908120986 14.7741
42.46006154323262 14.7307
42.48394762115317 14.687000000000001
42.507835634632315 14.6811
42.531912233047436 14.6406
42.55580413732265 14.6662
42.579697981698 14.5895
42.60359376768525 14.5835
42.62767820545945 14.5592
42.65157789440821 14.5316
42.67547952952185 14.5582
42.699383112316 14.5131
42.72347541395347 14.455
42.74738291190531 14.4488
42.771292362102166 14.4026
42.795203766063516 14.3442
42.819303956130405 14.3542
42.843219287476536 14.3254
42.86713657716324 14.2483
42.89105582671383 14.2964
42.91516392983864 14.2569
42.939087119032166 14.2545
42.963012272677304 14.2377
42.98693939230129 14.1782
43.01105543317513 14.1602
43.034986504731386 14.1482
43.05891954686589 14.1045
43.08285456110972 14.1078
43.10697856448665 14.0664
43.130917542983475 13.9718
43.15485849820081 14.007
43.17880143167367 13.9998
43.20293342237094 13.9476
43.226880332449 13.9588
43.25082922540554 13.9596
43.27496722682525 13.8286
43.29892010567796 13.8234
43.32287497204102 13.8403
43.34683182745632 13.8141
43.370977859791836 13.7944
43.39493871351105 13.7587
43.41890156092628 13.7586
43.44286640358341 13.7177
43.46702049182749 13.6858
43.49098934522816 13.6499
43.51496019852649 13.6643
43.5389330532723 13.6105
43.56309522248204 13.5875
43.58707210044314 13.6124
43.61105098451946 13.5359
43.63503187626491 13.493
43.659202151562134 13.5437
43.68318707902681 13.4762
43.70717401884041 13.4676
43.731162972560874 13.4578
43.75534137913236 13.4614
43.779334381108384 13.4402
43.803329401683186 13.3523
43.82732644241872 13.3333
43.8515130055166 13.3157
43.87551410707659 13.3021
43.89951723350145 13.2779
43.923709934595614 13.2736
43.94771713129917 13.2169
43.97172635758096 13.2539
43.99573761501002 13.2377
44.0199385169922 13.2022
44.04395385732619 13.1341
44.067971233533086 13.1417
44.09199064718605 13.0876
44.11619977548961 13.0366
44.14022328470671 13.065
44.16424883610785 13.0852
44.18827643127035 13.0222
44.21249381139513 12.9739
44.236525514814076 12.9205
44.26055926674478 12.9503
44.28459506876863 12.9444
44.3088207262813 12.9304
44.33286064928722 12.8785
44.35690262714919 12.8019
44.38094666145278 12.8308
44.4051806219871 12.8052
44.42922879003185 12.7825
44.45327901929361 12.7828
44.477331311362136 12.7576
44.501573600619416 12.7164
44.525630039221795 12.6787
44.54968854541895 12.6921
44.573937102200176 12.6556
44.5979997645541 12.6431
44.622064499300315 12.5538
44.64613130803592 12.5319
44.67038823869318 12.5877
44.69445921643748 12.5858
44.718532272981385 12.4904
44.742607409926194 12.4861
44.76687274034801 12.4404
44.79095205918753 12.408
44.81503346325094 12.4095
44.839116954143876 12.3754
44.86339071028742 12.3988
44.88747839599524 12.3845
44.91156817336837 12.3517
44.93566004401666 12.3473
44.959942251908146 12.3215
44.984038330325966 12.2667
45.00813650686762 12.2302
45.03223678314731 12.2449
45.05652746888232 12.2188
45.08063196592069 12.2331
45.104738567558705 12.1986
45.128847275414856 12.1931
45.15314646515866 12.0841
45.17725940679741 12.0885
45.20137445952892 12.065999999999999
45.22568004865265 12.0328
45.24979934496396 12.043
45.27392075725247 11.9853
45.29804428714431 11.9813
45.322358426247604 11.9763
45.346486212804315 11.9656
45.370616121861914 11.9712
45.39474815505086 11.89
45.41907087049246 11.876
45.4432071734666 11.8571
45.46734560548283 11.8674
45.49148616817604 11.8558
45.51581748638564 11.8096
45.5399623320197 11.790999999999999
45.56410931325473 11.7455
45.58825843173002 11.7895
45.61259837920865 11.6976
45.636751793816 11.7431
45.66090735060093 11.7203
45.68506505120716 11.6881
45.7094136545275 11.6515
45.73357566449271 11.6058
45.75773982322992 11.5771
45.78190613238733 11.5238
45.806263418194064 11.4961
45.83043404997326 11.5523
45.85460683713677 11.5156
45.87897065658495 11.5552
45.90314777634752 11.5032
45.92732705646868 11.4843
45.9515084986045 11.4387
45.97588104735473 11.44
46.00006683541565 11.4654
46.02425479047904 11.4166
46.04844491420549 11.3547
46.0728262191024 11.3755
46.09702070211635 11.392000000000001
46.12121735879483 11.3528
46.14541619080294 11.2902
46.169806278764455 11.2726
46.194009483459034 11.251
46.21821486849841 11.2173
46.24242243555223 11.1968
46.266821333570014 11.192
46.29103328674601 11.1703
46.31524742696538 11.1656
46.33946375590237 11.0989
46.36387149104216 11.0768
46.38809221957392 11.0532
46.41231514186606 11.0871
46.436540259597464 11.0525
46.460956858999374 11.0142
46.48518638983522 10.9819
46.509418121166966 10.965
46.533652054678114 10.9522
46.55807754555709 10.9314
46.58231590571962 10.9468
46.60655647313217 10.8933
46.630988654873654 10.9232
46.655233659129024 10.8379
46.67948087571551 10.8513
46.70373030632484 10.8207
46.72817142736393 10.8203
46.752425308428684 10.8024
46.77668140861147 10.7723
46.80093972960865 10.7395
46.82538981736788 10.7227
46.849652602470904 10.7198
46.87391761349769 10.6405
46.8981848521493 10.6738
46.9226439341274 10.6443
46.946915650573224 10.5925
46.97118959976749 10.6116
46.99546578341598 10.5937
47.019933887188216 10.5536
47.04421456235744 10.5661
47.06849747711879 10.5537
47.09278263318286 10.5117
47.11725978640143 10.4925
47.14154944775105 10.4291
47.165841355555656 10.4556
47.1901355115306 10.4169
47.214621741924994 10.4276
47.23892041698887 10.3798
47.26322134538975 10.3691
47.28771440635075 10.3723
47.31201986422527 10.3192
47.33632758061436 10.2766
47.360637557241866 10.2776
47.38513974410611 10.2558
47.40945426407847 10.2204
47.43377104948137 10.2057
47.45809010204344 10.1791
47.48260144275502 10.1829
47.506925052572285 10.1863
47.53125093475548 10.1464
47.55557909103813 10.1137
47.58009961361992 10.102
47.60443234110732 10.0964
47.62876734791564 10.0631
47.65310463578333 10.0783
47.6776343683373 10.0219
47.7019762413987 9.9925
47.72632040075572 10.0037
47.75066684815169 9.964360000000001
47.77520581885936 9.91194
47.799556865477655 9.93847
47.823910205386 9.919830000000001
47.84826584033272 9.940389999999999
47.87281407745551 9.89087
47.89717432569297 9.886619999999999
47.92153687423484 9.87164
47.94609208429692 9.86935
47.97045925671401 9.81473
47.99482873471275 9.77009
48.01920052005013 9.749319999999999
48.04376504619224 9.74872
48.068141469543484 9.7755
48.09252020552573 9.727260000000001
48.11690125590099 9.71696
48.1414751266064 9.67415
48.16586082917454 9.66973
48.19024885144316 9.68173
48.2146391951793 9.644630000000001
48.239222439012764 9.655439999999999
48.26361744916137 9.600810000000001
48.28801478610016 9.60481
48.31241445160131 9.60561
48.337007097209366 9.52558
48.36141144338331 9.55884
48.38581812345755 9.54216
48.41022713920929 9.484169999999999
48.434829215320704 9.48926
48.45924292604658 9.44395
48.48365897780325 9.47658
48.50807737237308 9.46181
48.532688907799276 9.40892
48.55711201168574 9.39965
48.581537463754074 9.39104
48.60615611725119 9.40885
48.63058628942721 9.361419999999999
48.65501881516546 9.34281
48.6794536962573 9.279739999999999
48.70408185970339 9.30028
48.72852147531801 9.26315
48.75296345168211 9.26123
48.77740779059232 9.24527
48.80204549302823 9.26783
48.82649458091802 9.226939999999999
48.85094603676547 9.16077
48.87539986237231 9.16141
48.90004713292306 9.22129
48.92450572200832 9.14668
48.94896668628025 9.15272
48.97343002754588 9.14888
48.99808689542115 9.10016
49.02255501470614 9.06189
49.04702551642794 9.06002
49.0714984023988 9.04033
49.096164896893235 9.00548
49.120642575466796 8.97642
49.145122643748394 9.00742
49.16960510355558 8.98898
49.19428125404938 8.95432
49.2187685210852 8.9672
49.243258185121555 8.93116
49.26794160167084 8.89685
49.2924360839405 8.89147
49.31693296869764 8.874939999999999
49.34143225776915 8.83053
49.36612538195438 8.826210000000001
49.39062950396021 8.78407
49.41513603578346 8.80152
49.4396449792564 8.778369999999999
49.46434784069503 8.75731
49.488861631846454 8.69656
49.513377840166804 8.73382
49.537896467493745 8.71285
49.56260909589029 8.68073
49.587132585683285 8.681289999999999
49.611658500018365 8.6652
49.636186840738596 8.62572
49.66090926588511 8.60564
49.685442483902584 8.611419999999999
49.70997813385706 8.57056
49.734516217597076 8.58007
49.75924846937352 8.56863
49.7837914452858 8.55662
49.80833686055187 8.527610000000001
49.83288471702571 8.48483
49.85762682540054 8.50175
49.882179588965734 8.47382
49.9067347993235 8.46487
49.93129245833333 8.439689999999999
49.95604445336378 8.42337
49.98060703442832 8.3868
50.005172069746266 8.39973
50.02993150438364 8.406
50.05450147301533 8.3951
50.07907390151433 8.35414
50.10364879174981 8.32503
50.12841816587289 8.32193
50.1529980044635 8.33329
50.17758031042124 8.290569999999999
50.20216508562089 8.27742
50.22694442953363 8.27886
50.25153416817468 8.268460000000001
50.27612638170508 8.23825
50.300721072005196 8.23933
50.325510416102105 8.18933
50.350110084975064 8.18422
50.37471223628208 8.15824
50.39931687190919 8.14751
50.424116246675766 8.137189999999999
50.44872587605249 8.15972
50.47333799543065 8.076889999999999
50.49795260670191 8.0524
50.52276204271512 8.03684
50.54738166295838 8.013910000000001
50.57200378079314 8.05757
50.596628398116835 8.022269999999999
50.62144792604559 8.05979
50.646077567609396 7.99645
50.670709714377715 7.98711
50.69553683636198 7.96393
50.72017401885922 7.95775
50.7448137122895 7.93273
50.76945591856022 7.93138
50.79429318636823 7.907719999999999
50.818940443716784 7.9131800000000005
50.84359021965163 7.88215
50.868242516085964 7.851539999999999
50.893089960641895 7.8107
50.917747323549435 7.78492
50.94240721271973 7.7881100000000005
50.96706963007175 7.807589999999999
50.99192728239342 7.7610600000000005
51.01659478166073 7.7629
51.04126481489051 7.75754
51.06593738400761 7.724939999999999
51.090805275207074 7.72302
51.11548294172845 7.67855
51.14016314993547 7.6663
51.164845901758845 7.6746300000000005
51.18972406304274 7.66478
51.21441192780656 7.65495
51.23910234200271 7.65106
51.2637953075678 7.63002
51.288683770237945 7.621810000000001
51.31338186432707 7.593139999999999
51.33808251561888 7.5761899999999995
51.362978729967345 7.56498
51.387684521509755 7.55324
51.41239287610203 7.51346
51.437103795691165 7.47849
51.46201036644977 7.47566
51.486726441956634 7.4538199999999994
51.51144508832545 7.45498
51.536166307509156 7.4503699999999995
51.56108326624387 7.419389999999999
51.58580965706056 7.4168199999999995
51.61053862657523 7.39895
51.635270176746864 7.39054
51.66019755512065 7.36115
51.68493429268881 7.334689999999999
51.70967361681515 7.3532399999999996
51.73441552946465 7.33868
51.759353359237934 7.2922
51.7841004750961 7.31498
51.80885018539685 7.29957
51.833602492111254 7.25367
51.8585508051424 7.23038
51.883308330926425 7.21865
51.90806845906181 7.197610000000001
51.932831191525715 7.18803
51.95779001977161 7.15658
51.98255798721516 7.1738
52.00732856494335 7.1326600000000004
52.03229530577543 7.144710000000001
52.057071130455945 7.1229
52.081849571391054 7.139469999999999
52.106630630568695 7.08555
52.13160794279417 7.076630000000001
52.15639426492067 7.07822
52.18118321127822 7.0383
52.205974783860896 7.02066
52.23096269971011 7.0268
52.255759551287994 7.006469999999999
52.280559035098186 7.00102
52.30536115314103 6.959689999999999
52.33035970494467 6.96152
52.35516711807904 6.92747
52.37997717147198 6.93682
52.40478986713005 6.90915
52.42979908731974 6.912310000000001
52.454617094216 6.92502
52.47943774942214 6.84806
52.50426105495102 6.84765
52.529280976059844 6.86751
52.554109609024096 6.8345899999999995
52.57894089837482 6.84805
52.60377484613117 6.826410000000001
52.62880550079408 6.78373
52.65364479223379 6.79329
52.67848674816189 6.76387
52.70352547971946 6.76876
52.72837279155837 6.75633
52.753222773982785 6.68854
52.778075429022984 6.69575
52.80312495150885 6.7071
52.827982978797436 6.689760000000001
52.85284368481815 6.63687
52.87770707160767 6.6367899999999995
52.90276741793998 6.64169
52.92763619336701 6.597289999999999
52.952507655698504 6.61565
52.977381806977576 6.5882
53.00245301017842 6.57038
53.02733256653592 6.58257
53.052214817996074 6.567019999999999
53.077099766608484 6.56228
53.102181859804446 6.51933
53.127072229988265 6.52082
53.15196530349892 6.48921
53.17686108239249 6.509930000000001
53.20195409881522 6.4345
53.22685531582556 6.45682
53.25175924441303 6.44301
53.27666588664027 6.44501
53.30176985962693 6.410480000000001
53.3266819565689 6.40225
53.35159677336455 6.42434
53.376514312083096 6.39692
53.40162927507703 6.35192
53.42655228516116 6.32081
53.45147802340193 6.33704
53.47660125628886 6.31215
53.50153247842639 6.2880400000000005
53.52646643496923 6.30405
53.55140312799818 6.30122
53.576537409691696 6.26399
53.60147960336152 6.262630000000001
53.626424539786164 6.25575
53.65137222105307 6.22476
53.67651758529126 6.2468
53.70147078399681 6.1569400000000005
53.72642673383343 6.1483
53.75138543689533 6.15524
53.776541917524526 6.1711599999999995
53.801506154876755 6.13394
53.826473151763246 6.13362
53.851442910284916 6.09194
53.87661054126026 6.1221
53.9015858509782 6.11332
53.92656392866066 6.085719999999999
53.95154477641532 6.07707
53.976723591801296 6.06451
54.00171000771266 6.079280000000001
54.02669920004598 6.04477
54.051691170915745 6.0148
54.076881204886796 6.02765
54.101878760928514 5.987080000000001
54.12687910187696 5.9703
54.152077577768296 5.971019999999999
54.1770835166946 5.95987
54.20209224691339 5.89694
54.22710377055121 5.90186
54.25231352511594 5.8948
54.27733066384342 5.87124
54.30235060239643 5.88221
54.32737334290836 5.85579
54.35259441062629 5.81274
54.377622783395324 5.81283
54.40265396455061 5.79491
54.42768795623251 5.77872
54.45292037169559 5.7489
54.477960012857906 5.75405
54.50300247099511 5.70911
54.52804774825457 5.74268
54.55329154616743 5.7030199999999995
54.57834249018678 5.70447
54.6033962597977 5.69276
54.6284528571545 5.67205
54.653708072335164 5.588080000000001
54.67877035378786 5.6108400000000005
54.70383546947698 5.54851
54.72890342156389 5.56055
54.7541700889442 5.50798
54.77924374251975 5.5122599999999995
54.8043202390049 5.5206599999999995
54.82959552413022 5.47935
54.8546777351945 5.436
54.87976279569621 5.4288300000000005
54.90485070780914 5.45653
54.930137506558005 5.42702
54.95523115074295 5.4208099999999995
54.98032765308844 5.39853
55.005427015775496 5.3642
55.03072536339621 5.35659
55.05583047570572 5.35186
55.080938454927676 5.31029
55.10604930325027 5.2847
55.131359235107396 5.29306
55.15647585066083 5.1618900000000005
55.181595341907496 5.19203
55.20671771104285 5.17761
55.232039262617704 5.20252
55.25716741665048 5.180619999999999
55.28229845518636 5.18109
55.30743238042802 5.10487
55.33276558731939 5.10289
55.357905315183636 5.08654
55.383047936390035 5.08317
55.40819345314859 5.02546
55.433538351073295 5.023630000000001
55.458689688238415 5.034269999999999
55.483843927614096 4.97746
55.509197623043605 4.95063
55.53435769621134 4.91633
55.55952067826466 4.93674
55.5846865714265 4.85043
55.61005202069737 4.85626
55.63522376553902 4.82546
55.66039842818645 4.8004
55.68557601087004 4.82143
55.7109532500271 4.7053400000000005
55.73613670233794 4.74503
