TT I
1.2716486653135266 8.03013
1.2939594142134223 7.4820899999999995
1.3162702121660406 7.0978699999999995
1.3385810600174564 7.0791699999999995
1.3608919586137629 7.312189999999999
1.383202908801069 6.639310000000001
1.405513911425503 6.36172
1.4278249673332093 6.6165199999999995
1.4501343378461518 6.48488
1.4724455028545926 6.644410000000001
1.4947567236847858 6.90964
1.517068001182951 6.55218
1.5393793361953272 6.3826
1.5616907295681737 6.59779
1.5840021821477681 5.81542
1.60631369478041 5.14596
1.6286252683124185 5.62775
1.6509369035901333 5.65408
1.6732468618895553 6.056719999999999
1.695558623192809 5.09488
1.7178704487808514 5.65453
1.7401823395001077 5.34564
1.7625012545597203 5.12376
1.7848028405262486 5.71681
1.8071218901122095 5.53374
1.8294236121921872 5.307
1.8517427996910911 4.92695
1.8740620574440425 5.29614
1.8963639900671978 5.1147800000000005
1.9186833908139995 5.1153900000000005
1.9409854680117449 4.7830699999999995
1.9633050151394713 5.51178
1.9856246367570705 5.74725
2.0079269371922672 4.7003900000000005
2.03024671027244 4.47374
2.0525491637446027 4.80679
2.074869091674931 4.58505
2.097171701569106 4.812180000000001
2.1194917877373847 4.83274
2.141811954326636 4.94249
2.164114805233074 4.75742
2.186435135143035 5.089090000000001
2.208738150935709 4.59414
2.231058647554722 4.7948699999999995
2.2533792288321184 4.49022
2.275682498336085 4.95276
2.298003251406138 4.98746
2.3203066942619714 4.80777
2.3426276225136022 4.84479
2.3649486396617507 4.7386099999999995
2.387252348930071 4.88563
2.4095735463442893 4.71774
2.4318774374315884 4.0633099999999995
2.4541988185014043 4.7967
2.476502894794693 5.5366599999999995
2.498824462909887 5.1264
2.521146125856138 4.96938
2.5434504863470337 5.173780000000001
2.5657723414244717 5.29169
2.588076895590662 5.74981
2.610398946189713 5.856669999999999
2.6327210958598384 5.0618099999999995
2.6550259469304716 5.3008
2.6773482972090137 5.48008
2.6996533504259 5.71751
2.7219759047039602 6.67932
2.744298562293959 6.64942
2.7666039251246595 6.32953
2.7889267918020164 6.886660000000001
2.8112323652516555 7.041189999999999
2.833555444408179 7.156219999999999
2.8558786311183852 7.746639999999999
2.8781845268938557 8.629010000000001
2.9005079311721484 8.74575
2.9228140460410397 9.10491
2.9451376712799635 9.64374
2.967444008632326 10.0681
2.9897678582247247 9.98061
3.0120918213106695 10.6137
3.0343984987899373 10.7405
3.0567226913198637 11.5014
3.079029599759726 11.8939
3.101354025127254 13.1219
3.123678568232338 13.4637
3.145985829517914 13.0931
3.16831061055229 13.4561
3.1906181112775593 14.875
3.212943133635653 14.9704
3.2352682779763207 15.5035
3.2575761442691227 15.8526
3.2799015350264273 16.3893
3.302209649240067 16.8874
3.3245352898092655 16.9458
3.3468436553365257 17.4206
3.369169549113219 18.038
3.3914955708171384 19.2033
3.413804319727358 19.2476
3.4361305997334863 19.2187
3.4584396084414553 19.9127
3.4807661501462652 20.6899
3.503092824025881 21.1252
3.5254022288463154 21.3421
3.5477291695206588 21.4346
3.5700388426251948 21.9195
3.5923660534916446 22.2767
3.6146934007816114 22.8729
3.637003482731501 23.221999999999998
3.6593311053109985 23.9596
3.681641464033634 24.1191
3.7039693653009733 24.2773
3.726297407241705 24.9001
3.7486081875460804 24.9896
3.7709365132734978 25.54
3.793247578841633 25.7952
3.8155761917550093 26.4931
3.8378875459837216 27.0853
3.8602164494827234 27.2625
3.882545499606844 28.3233
3.9048572932539183 28.6834
3.9271866390645718 29.416
3.9494987298666713 29.6096
3.971828374764527 30.2347
3.9941581705403255 30.5707
4.016470713506008 31.3178
4.038800813471445 31.9265
4.061113662089144 32.7132
4.0834440696459176 33.2972
4.105774632334751 33.5712
4.128087945865126 34.2178
4.150418821249301 35.3405
4.172732448931298 35.8445
4.195063640413578 36.3547
4.2173775856475215 36.7223
4.239709096631102 37.6338
4.262040768704612 38.2999
4.284355196706267 39.062
4.306687193387355 39.439
4.329001947444346 40.7728
4.35133427213731 41.535
4.373666762177566 42.4116
4.395982011761091 43.285
4.418314834921175 44.1486
4.44063041906622 44.838
4.4629635787515625 46.2666
4.4852969080429785 47.4064
4.5076130004776225 48.4907
4.529946671403969 49.4405
4.552263106909177 50.3255
4.574597122877047 51.604
4.596931312711224 53.0434
4.619248269273446 54.6152
4.6415828092605835 55.8393
4.663900117405352 56.4462
4.686235010953232 58.0373
4.708552674085913 59.6297
4.730887924602802 60.9808
4.753223354952695 62.7565
4.775541557023902 64.166
4.797877349456786 66.4294
4.820195915032126 68.3102
4.842532072957498 69.7452
4.864868414979744 72.0573
4.88718753227192 74.4907
4.909524244902505 76.9984
4.931843734218147 79.5023
4.954180820867835 82.2456
4.976518095879839 86.9393
4.998838149695359 90.1839
5.021175803844231 95.6037
5.043496238205739 99.4855
5.065834274903528 105.546
5.088172504230693 112.86399999999999
5.1104935158799565 121.117
5.132832132875765 136.12
5.155153533596801 159.56799999999998
5.1774925416746225 219.66299999999998
5.199814334878411 614.57
5.2221537374521505 2059.17
5.244493338631803 3961.19
5.266815727034316 6026.17
5.289155727832427 9268.07
5.311478517248165 9457.47
5.333818921080011 5271.12
5.356159527788849 1444.87
5.3784829252032536 352.148
5.400823940070432 197.959
5.423147747031976 159.934
5.445489173474152 140.484
5.467830807066149 129.891
5.490155234831516 122.529
5.512497285125229 117.646
5.534822130975162 114.01299999999999
5.557164601388673 111.16799999999999
5.579489868738879 108.348
5.601832762690846 105.771
5.6241758697774475 103.639
5.646501775867269 102.777
5.668845311622074 102.204
5.691171647754637 101.681
5.713515615597765 100.542
5.735859800852677 99.4725
5.758186788542988 98.6438
5.780531411018185 99.1415
5.802858837297399 99.1849
5.825203900414495 99.7307
5.8475491852224 100.5
5.869877275883075 102.089
5.892223006467101 105.26899999999999
5.914551544266608 109.12799999999999
5.936897724049891 115.762
5.959244129804903 127.91
5.981573344815301 162.137
6.0039202049061 320.363
6.026249875609095 812.2539999999999
6.04859719346037 1453.58
6.070927323278297 2101.16
6.093275102315365 3126.86
6.115623113320588 4162.04
6.137953938319995 3834.31
6.160302415650845 1835.11
6.182633708324452 518.0790000000001
6.2049826554078376 178.553
6.227331838745022 116.277
6.249663839443684 98.7853
6.27201349767565 89.8617
6.294345974611799 85.085
6.316696111167083 80.4809
6.339046488263839 77.8675
6.361379686074702 75.2571
6.383730546639482 73.3882
6.406064229255215 71.1661
6.428415576718203 70.7565
6.450749747566656 69.12100000000001
6.47310158535871 68.253
6.495453669698332 67.0906
6.517788579421056 66.1629
6.540141159237969 65.0155
6.562476565766648 64.4541
6.5848296444934045 63.5549
6.607182974060425 62.7893
6.6295191323281015 62.5935
6.651872965955752 61.8372
6.6742096296068985 61.0407
6.6965639707294615 60.7282
6.71891856698715 60.0696
6.741255995248479 59.7593
6.763611104154477 59.3685
6.785949046381137 59.3179
6.808304671371482 58.1919
6.8306605557940046 58.1357
6.852999275508618 57.6965
6.875355681171544 57.1227
6.897694923437771 57.2258
6.92005185377892 57.0242
6.9423916220322655 56.7661
6.964749080490181 55.8745
6.987106804399774 55.8939
7.009447368180821 56.2751
7.031805625367033 55.7213
7.054146723727803 55.5072
7.076505517631004 55.5986
7.098864581288365 55.0559
7.121206488070854 55.0475
7.143566093607822 54.3293
7.165908543567245 54.8477
7.188268694426048 54.8638
7.2106291193438095 54.5107
7.232972390625943 54.3971
7.255333366030969 54.613
7.277677189091925 54.0445
7.300038718428332 54.1736
7.322400526130865 53.9238
7.344745183422596 54.3044
7.367107550224791 54.4621
7.389452767901992 54.8747
7.411815697249891 54.7848
7.434161478756298 54.1426
7.456524974096713 54.4248
7.478888753837185 54.3703
7.501235387657368 55.187
7.523599738562711 58.0479
7.545946944825532 62.4586
7.568311870344528 62.7595
7.5906770845765665 59.4387
7.613025156078678 56.7768
7.635390950099687 56.316
7.657739602662809 56.0645
7.680105979923558 56.106
7.702472650212829 56.6286
7.724822180948224 56.658
7.747189439655568 56.6763
7.769539560075357 56.8547
7.791907410653562 57.5615
7.81425812420825 57.4772
7.836626570110925 57.5328
7.858995315087906 58.5856
7.881346924933401 58.9255
7.903716270417482 59.2239
7.926068482028405 59.5991
7.948438431475253 60.2158
7.9708086843180235 60.6847
7.993161805171116 61.7088
8.015532667162402 62.0614
8.037886398416653 63.4733
8.060257873014221 63.5706
8.082629655331942 64.3399
8.104984308787587 65.0468
8.127356708900503 65.6647
8.149711981398308 66.8437
8.172085002766314 67.3929
8.194458336181368 68.4025
8.216814543847752 69.7351
8.23918850371002 71.3833
8.26154533906492 72.5414
8.283919928836452 74.1385
8.306277395339652 75.3264
8.328652618483376 77.3337
8.351028159736202 79.4163
8.373386579575245 81.8856
8.395762759396959 84.1407
8.418121819038275 87.6015
8.440498640894003 92.9723
8.462875785192262 100.90799999999999
8.485235811156207 119.06
8.507613602688501 200.043
8.529974277114228 405.626
8.552352719347912 622.86
8.574731488360351 791.1439999999999
8.59709314210385 966.2539999999999
8.619472567021075 1269.96
8.64183487789147 1686.31
8.664214962183097 1879.23
8.686577933647762 1467.03
8.708958680784317 753.178
8.731339760774953 307.915
8.753703729764451 153.19
8.77608547780821 114.631
8.798450116065078 104.881
8.820832535634787 99.4823
8.843215292401656 96.765
8.865580941199045 94.0862
8.887964374703538 92.3284
8.910330701447199 91.5629
8.932714815164482 90.3528
8.955099270424924 88.9909
8.977466620733543 87.9322
8.999851761421976 87.0194
9.022219798361645 86.9225
9.04460562795561 87.3181
9.066991803441677 86.5508
9.089360876979615 85.8463
9.111747746589993 85.4267
9.13411751544971 84.9559
9.156505082664324 84.9342
9.178875550323522 85.2789
9.20126381862328 86.3508
9.223652438908596 90.5508
9.246023961427412 96.3908
9.26841328802173 96.2554
9.290785518039224 91.9892
9.313175554425882 88.4443
9.335565947154315 86.4743
9.357939245086508 85.7228
9.380330352834827 86.0945
9.40270436697103 86.4788
9.425096193225055 86.074
9.447488380180165 86.8974
9.469863475295412 87.3724
9.492256385987508 87.3784
9.514632206018318 87.8756
9.537025843935714 88.6352
9.559402392368193 89.3363
9.581796761000229 90.40799999999999
9.604191496441521 90.6928
9.626569144158516 91.3971
9.648964615551032 92.1704
9.671343000390081 92.9026
9.693739211225699 94.19200000000001
9.716135793237463 94.9211
9.738515290448102 96.1526
9.760912617143402 97.8154
9.783292860202891 99.1019
9.805690935076182 100.25399999999999
9.828089385495742 101.241
9.850470754023561 103.72
9.872869957865444 106.024
9.89525208097539 109.186
9.917652041736662 113.381
9.940052382417589 120.039
9.962435644102392 142.513
9.984836746950979 214.979
10.007220771957746 379.38199999999995
10.029622640473708 561.3330000000001
10.052007432299963 686.803
10.074410069984072 772.025
10.096813093716005 926.0010000000001
10.119199042482517 1201.89
10.141602840636468 1545.86
10.163989564971628 1697.04
10.186394141051062 1391.25
10.208799107559706 774.699
10.231187001965623 353.526
10.253592751657669 177.2
10.275981430388155 129.275
10.298387966769793 118.10700000000001
10.320794897965431 114.546
10.343184759907361 111.333
10.36559248305461 109.197
10.387983138083852 109.01100000000001
10.410391656691655 112.55
10.432800574501677 133.231
10.455192425893369 177.25599999999997
10.47760214443012 222.58900000000003
10.499994797678786 252.68900000000002
10.522405320453982 274.306
10.54479877906917 313.403
10.567210109595656 379.355
10.5896218454736 457.60699999999997
10.612016518879773 515.118
10.634429067781074 466.45599999999996
10.656824555333241 319.793
10.679237920773568 191.136
10.701651695961992 121.96
10.724048411481384 99.58200000000001
10.746463008485165 92.5608
10.768860546937125 89.4661
10.791275969274796 86.7032
10.81369180576079 85.2996
10.836090585366925 83.7853
10.858507252467449 82.5387
10.88090686379991 81.2994
10.903324365036394 80.5128
10.925724811614439 78.9655
10.948143150509463 78.6116
10.970561909719066 77.7386
10.992963615930844 77.2264
11.015383218085756 76.0762
11.037785768347074 75.0953
11.06020621697282 74.3887
11.082627090322113 73.91
11.105030913430326 73.3878
11.12745263854165 72.9174
11.149857314510728 72.1141
11.172279894912576 71.7216
11.194702904450653 70.7668
11.217108866490921 69.9069
11.239532736615194 69.6694
11.26193956033512 69.2971
11.284364294577085 69.0082
11.306789462371718 68.7254
11.329197585398376 68.1098
11.351623622610898 68.3934
11.37403261614354 67.6055
11.396459526308487 67.5812
11.418869393879497 66.7779
11.441297180532617 66.6821
11.463725406927658 66.2953
11.486136592353875 65.765
11.508565700543707 65.4758
11.530977768845315 65.4552
11.553407762368774 65.0241
11.575838200059769 64.8196
11.598251599479612 64.9583
11.620682927815501 64.8766
11.64309721895548 64.7218
11.665529441478206 64.623
11.687962112597958 64.2929
11.710377748130886 64.4486
11.732811318753434 64.1718
11.755227854859067 64.3642
11.777662328529495 64.2637
11.800079768750786 63.8123
11.822515149015453 63.7811
11.844950984084935 64.2983
11.867369787303163 63.8994
11.889806534289491 64.1067
11.912226250487029 64.9894
11.934663912939751 66.6839
11.9571020346363 67.4663
11.979523127133968 67.1849
12.001962169624331 67.0024
12.024384183972964 67.4053
12.046824150809913 71.8095
12.069264581333726 82.8248
12.091687985297767 94.7236
12.11412934550045 103.913
12.136553680195208 110.514
12.158995973632788 117.029
12.181438735204349 127.705
12.20386447284199 144.465
12.226308172985636 168.166
12.24873485024193 187.614
12.271179492516982 191.054
12.293607112949127 161.363
12.316052700916226 121.255
12.338498763250042 88.7561
12.360927805303868 72.6687
12.383374818673879 67.5399
12.405804812803074 66.1577
12.428252780773262 65.9672
12.45070122756722 66.0094
12.473132656675375 65.586
12.49558206341869 65.8364
12.518014453510101 65.7319
12.540464823770117 65.613
12.562915677315177 65.8787
12.58534951575545 66.4426
12.607801338171472 66.3146
12.630236146511358 66.6083
12.652688941369085 67.132
12.675124723177234 67.2059
12.697578494048786 67.8011
12.720032754458185 68.1934
12.742470003354093 68.3917
12.764925245138771 69.0139
12.787363476431278 69.6908
12.809819703166806 69.7646
12.83227642391173 70.759
12.854716135692716 71.2814
12.877173846755147 72.4008
12.899614549869717 72.7321
12.9220732548287 73.8718
12.94453245827299 74.4344
12.966974655289818 75.3983
12.989434858002571 76.5794
13.011878055298721 77.1607
13.034339260862497 78.3883
13.056800969391883 79.7944
13.079245674017244 82.8548
13.101708390774869 85.0632
13.12415410463411 92.2118
13.146617833206086 113.215
13.169064559883248 142.77200000000002
13.191529303857127 168.968
13.213994557076367 188.197
13.236442809902437 200.821
13.258909083908291 216.521
13.28135835851934 239.292
13.30382565690295 274.882
13.326293469022952 326.70099999999996
13.348744283242008 379.25800000000004
13.371213125129904 392.274
13.39366497011003 348.215
13.416134845360597 257.024
13.438605238843131 174.418
13.46105863690397 128.014
13.483530069144786 120.759
13.505984506951902 137.453
13.528456981549432 158.786
13.550929978879088 172.92700000000002
13.573385983253365 182.378
13.595860028340867 191.46099999999998
13.618317081455832 207.21200000000002
13.64079217790333 231.528
13.663250283359057 265.426
13.685726434770173 310.994
13.708203115221277 342.671
13.730662806148091 329.26
13.75314054697177 267.325
13.775601299246777 192.705
13.798080104050406 131.029
13.820559442405358 98.8273
13.843021793671388 87.8114
13.865502201420897 84.2182
13.887965623051947 83.2442
13.910447103807167 81.7427
13.932929122629764 80.2844
13.955394156785959 79.5783
13.977877254034569 78.6933
14.000343367582113 77.8555
14.022827546871707 76.9255
14.045294743423524 76.1713
14.06778000837062 75.5575
14.090265817715476 75.6672
14.112734645763819 75.9153
14.13522154619454 75.9034
14.157691466286913 75.7626
14.180179461423874 75.444
14.202668005486178 74.7339
14.22513957064374 73.8049
14.247629214846473 72.9184
14.270101881097517 72.3558
14.29259262906496 72.0756
14.315083930490205 72.0622
14.337558255389705 71.7807
14.360050666019726 71.681
14.382526101071944 71.3497
14.405019624534942 71.0585
14.427513705993134 71.0527
14.449990813291825 71.1684
14.47248601302899 70.84100000000001
14.49496423954951 70.8961
14.517460561197822 71.0465
14.539939910570322 70.8037
14.562437357763558 70.9258
14.58493536931253 71.4296
14.607416409993311 71.2423
14.62991555254159 71.5408
14.652397725157423 71.882
14.674898002342799 71.975
14.697398848433282 72.468
14.719882725991326 73.6348
14.74238471217934 74.3381
14.764869730765593 78.5419
14.787372860692983 86.6802
14.809876564079925 99.085
14.83236330125751 109.835
14.854868153850365 117.571
14.877356041159485 122.13
14.899862046604186 127.368
14.922351087688757 135.111
14.944858249632887 146.743
14.967365991421232 162.874
14.989856770231246 183.08599999999998
15.012365673994204 203.83599999999998
15.03485761569738 209.6
15.05736768508665 190.745
15.07987833888692 156.751
15.102372032001655 120.288
15.124883856909658 92.4103
15.14737872204565 79.3367
15.169891721717274 74.6505
15.192405310371893 73.111
15.214901940621196 71.994
15.237416709527137 71.2973
15.259914520936249 70.8783
15.282430473753607 70.2917
15.304947020131227 69.6194
15.327446610371178 69.3066
15.349964346154254 68.9704
15.372465126703139 68.7993
15.394984055556009 68.4438
15.417486030076159 68.3944
15.44000615566487 68.2031
15.462526881230803 68.0978
15.485030653812652 68.1038
15.507552581617434 67.9133
15.530057557334603 67.7342
15.55258069104857 67.7462
15.575104429329837 68.1772
15.597611216864632 68.0795
15.620136166564563 68.5426
15.6426441664095 69.2857
15.665170331202765 71.7618
15.687697105158826 78.6403
15.710206930593545 88.8196
15.732734925158933 97.6014
15.755245972089478 103.617
15.77777519094324 107.556
15.800287463046663 110.82600000000001
15.822817909869592 115.945
15.84534897229804 123.521
15.867863089299354 135.55
15.890395385222186 150.313
15.912910736597423 168.73
15.935444269699861 181.933
15.957978423016485 179.96900000000002
15.980495633101265 161.026
16.003031029129367 131.602
16.02554948280019 100.337
16.048086125229432 79.9493
16.070623392487107 70.3094
16.09314371869582 66.1527
16.11568223789321 64.0402
16.13820381691126 63.4058
16.160743591742527 62.9539
16.183283996022084 62.1499
16.205807461423195 61.3458
16.228349126881973 60.8039
16.25087385432698 60.5802
16.27341678466365 60.058
16.29594277784926 59.7858
16.31848697676433 59.4246
16.341031811604868 58.7697
16.36355971058487 58.6001
16.3861058195587 58.4129
16.40863499352978 57.8727
16.431182380342005 57.8153
16.453730407713202 57.4649
16.476261501364792 57.3447
16.498810812136167 57.0424
16.52134319004079 57.0878
16.54389378792203 56.9459
16.566445031001553 56.7852
16.588979342490088 56.6039
16.61153187824822 56.5515
16.634067483263312 56.4955
16.656621315414416 56.3912
16.679175797408888 55.8715
16.701713349928728 56.0509
16.72426913389191 56.2327
16.74680798922351 56.0339
16.76936507887444 56.1456
16.791905240734874 56.2261
16.814463639794468 56.0386
16.837022695210294 56.1945
16.859564824093756 56.2412
16.882125194503903 56.2828
16.904668639217885 56.6028
16.927230328348003 56.5248
16.949792678493612 56.8422
16.972338104193863 56.8664
16.994901778652235 56.96
17.017448529496576 57.0259
17.040013531998152 57.2734
17.06257920018044 57.8364
17.0851279459922 59.293
17.107694947817667 61.4359
17.130245028099072 63.2487
17.15281336730298 64.7376
17.17536478578733 65.7466
17.19793446610687 66.4095
17.220504818648422 67.3249
17.243058251703697 68.2901
17.265629950971032 70.4436
17.288184731571736 72.8526
17.310757781306908 76.8218
17.33333150794385 79.6889
17.355888317140174 82.7239
17.37846339986244 82.9267
17.401021565958885 79.5605
17.42359800851343 74.5207
17.44617513265564 69.0506
17.468735341390783 64.9873
17.491261035594565 62.1385
17.51396340099364 61.178999999999995
17.536490463869136 61.0047
17.559018209820174 60.8361
17.58154663977963 61.0212
17.604251766089718 61.081
17.626781572227713 61.3578
17.64931206518155 61.3885
17.671843245885103 61.8121
17.69455114821572 62.0117
17.717083712612634 62.2522
17.739616967569667 62.784
17.762150914021706 63.3409
17.78486160749854 63.5377
17.807396945166804 64.2628
17.829932977143503 65.1752
17.85246970436452 66.6946
17.875183204129467 69.9578
17.897721330097664 75.7745
17.920260154126645 80.9772
17.942799677153296 85.20299999999999
17.9655159983646 87.4826
17.988056927677544 89.2817
18.010598558807683 91.2818
18.033140892692916 94.7787
18.05586005052525 98.9394
18.07840379824407 104.425
18.10094825154059 112.59700000000001
18.12366954819864 123.193
18.146215420998306 135.326
18.16876200220057 142.88
18.191309292745153 141.29
18.214033452627167 131.566
18.236582170236648 116.46799999999999
18.259131600016456 101.574
18.281681742907335 92.0191
18.304408781233683 88.4011
18.32696035875955 88.5013
18.349512652227624 90.7694
18.372065662579683 95.4124
18.394795594587553 99.9495
18.41735004715306 103.241
18.43990521943684 103.256
18.46246111238171 98.3755
18.485193953325208 89.9244
18.507751296070428 80.9991
18.530309362314178 73.7277
18.552868153000343 68.322
18.57560391815056 65.5241
18.59816416623245 64.2502
18.620725141597372 63.5241
18.643286845190268 62.8457
18.666025549835414 62.4899
18.688588718427933 61.8371
18.711152618092243 61.7674
18.73389353884365 61.3703
18.75645890921984 60.8963
18.77902501351406 60.7469
18.801591852673102 60.4399
18.824335739722738 60.0569
18.846904057212626 60.0373
18.8694731124168 59.7788
18.89204290628315 59.6453
18.914789774966803 59.3331
18.937361054791623 59.2369
18.959933076131318 58.788000000000004
18.982505839934877 58.5655
19.00525570560582 58.832
19.027829963004184 58.4414
19.05040496572238 58.4353
19.072980714710468 58.6876
19.095733592739563 58.8489
19.11831084296757 59.4109
19.140888842324735 60.5508
19.16346759176222 61.4677
19.18622349753803 62.3163
19.208803755869358 62.9318
19.231384767143577 63.3851
19.253966532312948 63.8964
19.276725481241822 64.4614
19.29930876296784 65.3323
19.3218928014549 66.4231
19.34465404436217 68.0926
19.36723960516257 70.1403
19.389825925592426 72.2761
19.412413006605938 74.2908
19.43517731967805 74.9523
19.457765930683355 73.8753
19.48035530514408 70.5359
19.50294544401556 66.4375
19.525712842708348 62.1531
19.54830451925909 59.047
19.570896963095727 56.9435
19.593490175174704 55.9515
19.616260674962184 55.7539
19.638855432416964 55.3668
19.661450960992624 55.3495
19.68404726164677 55.2754
19.706820878021247 55.1043
19.729418731756834 55.1596
19.752017360452857 54.8887
19.77461676506804 54.9746
19.797393513540218 55.2549
19.819994478951667 55.6174
19.84259622316767 56.715
19.8651987471481 57.7967
19.887978643247177 58.3266
19.91058273574792 58.7643
19.933187610901943 59.5649
19.955969879466828 59.9824
19.97857632894404 60.3293
20.00118356396599 60.6038
20.023791585494575 61.278999999999996
20.046577028914875 62.8657
20.069186632506966 64.9771
20.091797025500632 67.3759
20.114408208858933 69.4924
20.137196842715273 71.6915
20.159809615886765 72.9981
20.18242318232135 71.8487
20.20503754298326 69.5227
20.227829382875154 67.0765
20.250445341109344 64.6639
20.27306209647285 62.9785
20.29567964993108 62.4628
20.31847471147704 62.9719
20.34109387027612 63.9523
20.363713830075454 65.0831
20.386334591841646 66.0554
20.409132890679302 65.903
20.431755265564437 63.7595
20.454378445325528 60.9239
20.477002430930366 57.783
20.499803982716553 55.3331
20.522429589228004 53.7063
20.54505600449589 52.5386
20.567683229489194 52.3591
20.590488049900088 51.8805
20.61311690359731 51.8262
20.63574656993626 51.604
20.658553853717297 51.2281
20.681185154618298 51.1853
20.703817271080066 51.075
20.72645020407368 50.6978
20.749260783967177 50.6818
20.771895359337133 50.7649
20.794530754161617 50.5644
20.817166969412938 50.3158
20.83998086114876 50.2662
20.86261872660049 50.4956
20.885257415405402 50.3249
20.90789692853701 50.123000000000005
20.930714147864748 50.0788
20.953355319030678 50.1988
20.97599731745334 50.4154
20.99864014410749 50.4264
21.021460706796564 50.3197
21.044105199328826 50.4999
21.06675052302631 50.7449
21.089396678865015 50.805
21.112220600704806 51.0543
21.134868430275347 50.9723
21.15751709492456 50.9616
21.180166595629693 51.0508
21.202993892429635 51.3522
21.22564507473034 51.5876
21.24829709602816 51.8684
21.27112693608965 52.3392
21.293780644891275 52.9313
21.316435195634053 52.8057
21.339090589297417 52.411
21.361923832041875 52.04
21.384580921090404 51.067
21.407238856007325 50.4508
21.429897637773326 50.3746
21.45273429906592 49.9669
21.475394784108598 49.9177
21.498056118951983 49.7957
21.520718304578022 50.1308
21.543558400304388 50.3006
21.566222297108816 50.2676
21.58888704765135 50.5485
21.61155265291521 50.8899
21.63439619898156 52.0019
21.657063523335786 52.7158
21.67973170537063 53.56399999999999
21.7024007460706 54.1667
21.72524775840385 54.6261
21.747918526116475 55.0649
21.770590155457388 55.4174
21.79326264741238 55.912
21.816113141960237 56.6301
21.838787368860547 57.7294
21.861462461341976 59.0021
21.884315579735777 60.9348
21.90699241312273 62.2504
21.92967011506078 63.9484
21.95234868653799 65.515
21.9752053151131 66.2477
21.997885635446785 65.7486
22.020566828293532 64.3987
22.04324889464272 62.0
22.066109049404666 59.4465
22.088792872571794 57.4549
22.111477572219204 56.864
22.1341631493376 56.4437
22.157026846313123 56.7492
22.179714188221507 57.1011
22.202402410582668 57.1849
22.22509151438863 55.9991
22.24795876962584 54.91
22.270649646204486 53.6528
22.293341407213727 52.3966
22.316034053646906 51.5253
22.338904883215342 51.0547
22.36159931041458 50.582
22.38429462602756 50.4201
22.40699083104897 50.086999999999996
22.429865251039757 49.9228
22.452563244831367 50.0232
22.47526213102522 50.2182
22.49813925616515 50.2371
22.520839937143307 50.0703
22.543541513520587 50.192
22.56624398629403 49.9318
22.589124730075895 50.0428
22.611829005656723 50.1569
22.63453418063466 50.1299
22.657240256008077 50.5567
22.680124634582935 51.1048
22.70283252079775 51.7908
22.725541310413075 52.3489
22.74825100442868 52.6118
22.771139033969575 52.961999999999996
22.79385054687155 52.894
22.81656296718292 53.0067
22.83927629590484 53.2719
22.862167992606945 53.6029
22.88488314827121 54.15
22.907599215359284 54.5376
22.93031619487366 55.0168
22.953211574954405 55.7339
22.975930389478226 56.7722
22.998650119445763 57.7902
23.02137076586092 58.4952
23.044269845560063 58.6806
23.06699233506288 58.2297
23.089715744034912 57.0289
23.112617610931565 55.1989
23.135342869061212 53.4386
23.158069049684816 52.1569
23.1807961538087 51.1129
23.20370174880544 50.655
23.226430710184808 50.6094
23.249160598093425 50.5639
23.271891413539002 50.5642
23.294800752937697 51.0941
23.31753343374794 51.7301
23.340267045128353 52.1164
23.36300158808808 52.4976
23.38591468821339 52.5102
23.408651104658304 52.5405
23.431388455719986 52.6434
23.454126742409 52.7622
23.4770436196085 53.1539
23.499783787914662 53.6292
23.522524894889884 53.9158
23.54526694154616 54.3377
23.56818761219047 55.178000000000004
23.59093154860734 56.1716
23.613676427751283 57.3416
23.636422250635754 58.1017
23.659346731118656 58.2379
23.68209445191868 57.857
23.704843119509587 56.3832
23.72759273490623 54.2875
23.750521041644767 52.326
23.77327256312355 50.5711
23.796025035462787 49.0073
23.818956224555475 48.1038
23.841710609113413 47.6884
23.86446594758979 47.3281
23.887222241002014 47.0497
23.910157285144578 46.6765
23.932915498962537 46.7503
23.955674670778713 46.6737
23.978434801611975 46.3996
24.001373717286125 46.1884
24.024135776723917 46.0824
24.046898798245582 45.9493
24.06966278287146 45.9164
24.092605586582614 45.5592
24.115371508023642 45.4314
24.1381383956401 45.3425
24.16090625045381 45.2529
24.183852958731244 45.1559
24.206622758582608 45.1387
24.229393528706886 44.9549
24.252165270127392 44.9504
24.27511589952438 44.9318
24.297889594216997 44.7873
24.32066426328598 44.708999999999996
24.34343990775613 44.6692
24.36639447485003 44.5112
24.38917208083877 44.3844
24.41195066531332 44.3181
24.43490819850244 44.6413
24.457688750692377 44.2341
24.48047028445616 44.169
24.503252800821233 44.2593
24.526214300784112 44.3166
24.548998793132213 44.2493
24.57178427117417 43.9879
24.59457073593893 44.1429
24.617536219319863 44.1124
24.64032466834748 44.2762
24.663114107195035 44.1166
24.685904536893013 43.9084
24.708874020360852 43.9951
24.731666442613744 43.7493
24.754459858818787 43.5373
24.777254270007962 43.6342
24.80022777025625 43.5509
24.82302418230472 43.5331
24.845821592443674 43.6639
24.86862000170663 43.6135
24.891597535453727 43.6122
24.914397953892728 43.7978
24.93719937456671 43.6752
24.96000179851076 43.8383
24.98298338249997 44.1158
25.00578782394922 44.1288
25.028593271784167 44.2862
25.05157790644186 44.6087
25.07438537804115 44.5371
25.097193859145293 44.7265
25.120003350792075 44.9419
25.142992065061257 45.0883
25.165803588823465 45.2886
25.18861612625217 45.4331
25.211429678386736 45.608999999999995
25.234422489079968 45.9452
25.257238081693636 45.8831
25.280054692141732 45.843
25.3028723214652 45.6021
25.325869245420463 45.5918
25.348688923599397 45.6964
25.371509623787006 45.696000000000005
25.394331347025812 45.7133
25.41733240110666 45.7692
25.440156181590016 45.5842
25.46298098826268 45.2285
25.48580682216873 44.695
25.50881202326435 43.9744
25.53163992281684 43.2972
25.55446885274561 42.8382
25.577298814096377 42.4741
25.600308179121807 42.3049
25.623140214533745 42.2406
25.64597328451537 42.0216
25.66898578564376 41.7665
25.691820936010206 41.861999999999995
25.714657124097695 41.7844
25.737494350954734 41.8723
25.760511045684957 41.7619
25.783350361364224 41.8749
25.806190718969255 41.9007
25.82903211955018 42.0569
25.852053024868923 42.0542
25.874896522722523 41.9783
25.897741066713106 41.9295
25.920586657892454 41.841
25.943611790812668 41.9863
25.966459487728237 42.0622
25.989308234998564 41.8514
26.01215803367705 42.1543
26.03518741123814 42.2942
26.05803932412957 42.2448
26.080892291600094 42.2402
26.10374631470478 42.4588
26.12677995397268 42.7019
26.14963609978026 42.8723
26.172493304397875 42.8114
26.19535156888223 42.8845
26.218389486949604 42.4925
26.241249882640123 42.3869
26.26411134137826 41.973
26.28715248187403 41.8799
26.31001607820869 41.6582
26.3328807407756 41.5306
26.35574647063438 41.788000000000004
26.37879191991473 41.5137
26.401659795896734 41.6787
26.424528742360263 41.6909
26.447398760366614 41.7777
26.470448535598294 41.708
26.49332070826805 41.8569
26.516193955675355 42.1666
26.53906827888316 42.1302
26.562122397260108 42.123999999999995
26.584998883685063 42.3124
26.607876449110325 42.5529
26.63075509460056 42.7348
26.65381357334404 42.8606
26.67669439061878 42.9581
26.699576291163382 43.0469
26.722459276044212 43.3598
26.745522132402975 43.2949
26.768407297649354 43.1243
26.791293550442003 42.6276
26.814180891848974 42.3683
26.837248143099337 41.9245
26.860137673466657 41.8644
26.88302829566349 41.523999999999994
26.90592001075963 41.4808
26.92899167420566 41.5249
26.951885586870763 40.9909
26.974780595655517 40.8868
26.99785558178161 40.701
27.020752794605112 40.4318
27.043651106772522 40.2589
27.06655051935668 40.1589
27.089629948036183 40.0655
27.112531573292053 40.075
27.135434302194138 40.0781
27.158338135817015 39.8509
27.181422024430987 39.8272
27.204328079372566 39.7983
27.22723524226965 39.6793
27.250143514198573 39.76
27.273231880156334 39.9266
27.296142382065014 39.6289
27.319053996245536 39.5432
27.341966723775965 39.6089
27.365059584515222 39.6875
27.38797455070062 39.7317
27.410890633481237 39.5928
27.433807833936918 39.5613
27.456905206923906 39.5749
27.47982465472398 39.5312
27.502745223449743 39.5932
27.525666914182825 39.6142
27.548768816912457 39.5141
27.571692763693633 39.5306
27.59461783573812 39.5418
27.617723149491244 39.439
27.640650484125285 39.6126
27.66357894728264 39.5408
27.686508540048052 39.573
27.709618414237887 39.4587
27.732550278321757 39.2584
27.755483275279115 39.3453
27.778417406196485 39.3436
27.801531858397514 39.2358
27.824468269376716 39.1233
27.847405817586786 39.1058
27.870344504116094 39.1823
27.893463551932008 39.2638
27.916404527281053 39.3978
27.93934664422563 39.2933
27.962289903855886 39.3813
27.98541356491974 39.5445
28.00835912214229 39.6231
28.03130582533231 39.6087
28.054253675581805 39.7963
28.077381967556104 39.8117
28.100332124185126 39.864000000000004
28.123283431160893 40.0141
28.146235889577238 39.9884
28.169368830154156 39.906
28.192323603752033 39.8089
28.215279532083304 39.5016
28.238415973016764 39.2837
28.261374223145094 39.0834
28.284333631303806 38.9394
28.307294198589954 38.8231
28.330435319167677 38.5086
28.353398217078915 38.3895
28.376362277420153 38.1502
28.39932750129032 37.9666
28.422473319286713 37.7601
28.44544088262495 37.723
28.468409612800283 37.304
28.491379510913497 37.0406
28.51453004413313 37.0476
28.53750229057244 37.0654
28.56047570826344 37.0335
28.583450298308804 36.9461
28.606605564586562 36.7635
28.629582511831156 36.8801
28.65256063474956 36.7344
28.675539934446338 36.6222
28.698699951647605 36.6402
28.72168161743193 36.5268
28.74466446331978 36.5941
28.767648490417624 36.454
28.790813276438353 36.4206
28.813799678527303 36.4977
28.836787265157085 36.2515
28.859955641890075 36.2519
28.882945610203045 36.3906
28.905936766392035 36.214
28.928929111566863 36.1661
28.952102288520145 36.2749
28.975097024308607 36.1502
28.998092952423807 36.1063
29.021090073977508 36.1
29.04426806913204 36.0414
29.067267590245258 35.8845
29.090268308143695 35.881
29.11327022394099 35.7377
29.13645305530891 35.5315
29.159457379627167 35.6146
29.18246290519685 35.4409
29.20546963313352 35.3672
29.22865731875826 35.2374
29.25166646419296 35.2757
29.27467681535305 35.0856
29.29768837335608 35.229
29.320880931312562 35.2325
29.34389491580634 35.1908
29.366910110507334 34.998000000000005
29.38992651653503 35.1015
29.41312396492981 35.1605
29.436142806456754 35.0197
29.45916286268059 34.9745
29.48236399319994 34.9441
29.50538649169417 34.881
29.528410208259935 34.9343
29.55143514402014 34.7225
29.574641196749695 34.5269
29.597668583816574 34.4943
29.6206971934585 34.2869
29.64372702680042 34.2657
29.666938019934474 34.1311
29.689970313635285 34.0456
29.713003834422636 33.8732
29.73603858342347 33.9286
29.759254535188578 33.8472
29.78229175361658 33.8021
29.80533020365064 33.7355
29.82836988641968 33.8131
29.85159081507472 33.6765
29.874632976355343 33.672
29.89767637376955 33.7179
29.920721008448314 33.6035
29.9439469322847 33.5233
29.96699405457564 33.4681
29.9900424175358 33.5891
30.013092022298157 33.5948
30.03632295963995 33.483000000000004
30.059375061131373 33.5178
30.08242840783577 33.4483
30.105483000888153 33.3402
30.128718970092244 33.288000000000004
30.151776069006917 33.2984
30.17483441768648 33.3541
30.198074175317235 33.376999999999995
30.221135036724256 33.2454
30.24419715131772 33.2303
30.267260520236203 33.1429
30.290505341942243 33.3251
30.313571232750228 33.399
30.336638381310948 33.4061
30.35970678876503 33.2992
30.38295669299435 33.1004
30.40602763151657 33.2508
30.429099832366074 33.2414
30.452173296685572 33.1142
30.47542830191959 33.0338
30.498504306502497 32.9721
30.521581577995562 33.0696
30.544660117543582 33.0249
30.56792024229725 33.0151
30.59100133132069 32.9283
30.614083691845494 32.9804
30.637167325018545 33.0378
30.660432587840603 33.052
30.683518779717886 32.9167
30.70660624769615 33.1034
30.729694992924372 33.0696
30.75296541239743 33.0135
30.77605672557558 33.0405
30.799149319462742 33.0703
30.8224236211637 33.0091
30.845518789950724 33.0101
30.868615242910597 32.9681
30.891712981195973 32.6844
30.91499247215866 32.644
30.938092794619365 32.6681
30.96119440587579 32.4738
30.984297307082752 32.4332
31.00758200598383 32.2835
31.030687500658694 32.1582
31.053794288760695 32.1728
31.076902371446767 32.1077
31.100192296997445 32.1901
31.12330298246119 32.1133
31.14641496599209 32.0044
31.169528248749216 31.9519
31.19282341969534 31.8724
31.215939314557186 31.9926
31.239056512134788 31.974
31.262175013589378 31.816999999999997
31.28547544871168 31.8169
31.30859657161541 31.714000000000002
31.331719001892175 31.7783
31.35484274070538 31.8193
31.378148458819545 31.6745
31.401274828443725 31.7453
31.424402510106933 31.7234
31.447712205419993 31.7797
31.470842524931633 31.5055
31.493974159989783 31.5537
31.51710711176168 31.5888
31.54042212308802 31.6166
31.563557722100917 31.6957
31.586694641341655 31.605999999999998
31.609832881979628 31.436
31.63315322823208 31.4653
31.656294125521327 31.3639
31.679436347728515 31.281
31.70257989602529 31.208000000000002
31.725905596152327 31.1587
31.74905181052835 31.1256
31.772199354521323 31.180999999999997
31.79534822930507 31.0888
31.818679302290967 30.9259
31.84183085259981 30.8905
31.864983737233473 30.9787
31.88813795736804 31.0015
31.911474422233013 30.8375
31.934631327356435 30.965999999999998
31.9577895715215 30.8965
31.980949155906522 30.9121
32.004291031706956 30.9401
32.027453310562606 30.8171
32.05061693318573 30.7728
32.07396288236386 30.7812
32.09712920658542 30.6431
32.12029687812702 30.5588
32.14346589817093 30.5558
32.166817291729984 30.3775
32.18998902288583 30.2785
32.21316210610336 30.2845
32.23633654256711 30.201999999999998
32.259693399663725 30.1834
32.282870556771144 30.1044
32.30604907069099 30.1047
32.329228942610065 29.9743
32.35259128243769 29.8683
32.375773884550505 29.8806
32.398957848235646 29.8302
32.422143174682176 29.7567
32.445511016471215 29.6858
32.468699082679954 29.5686
32.49188851523011 29.5745
32.51507931531304 29.5161
32.538452678331 29.464000000000002
32.56164622776311 29.4121
32.58484114831493 29.320999999999998
32.60803744118015 29.3455
32.631416344731896 29.3346
32.654615396551876 29.2464
32.67781582427913 29.1714
32.701198898634416 29.1617
32.72440209253756 29.0842
32.747606665947124 29.1211
32.77081262006088 29.07
32.79420126883317 29.0301
32.81740999876112 28.9786
32.840620112999424 28.9572
32.86383161274818 28.8035
32.88722585534586 28.8728
32.91044014056596 28.9955
32.933655814909734 28.8858
32.95687287957963 28.8834
32.98027273544904 28.7583
33.00349259526636 28.7733
33.026713849030116 28.7126
33.04993649794511 28.6434
33.073341986570746 28.6255
33.09656744032826 28.5215
33.11979429286444 28.5031
33.14302254538647 28.5284
33.166433686291185 28.44
33.18966475336992 28.4596
33.212897224069096 28.4452
33.23613109959831 28.3721
33.259547912343415 28.3783
33.2827846121627 28.3779
33.306022720453775 28.2841
33.32926223842861 28.2019
33.352684742614166 28.1416
33.37592709463173 28.1671
33.399170859982064 28.1277
33.422597648419426 28.139
33.44584425514446 28.0166
33.46909227885668 27.9705
33.4923417207723 27.8207
33.51577423505344 27.8026
33.539026528130385 27.7209
33.56228024307245 27.6456
33.585535381098246 27.6213
33.60897364093058 27.6102
33.63223163992385 27.5726
33.6554910656699 27.4369
33.678751919389796 27.4819
33.702195944520106 27.4004
33.72545966903325 27.3486
33.74872482519663 27.2523
33.771991414233746 27.2297
33.79544122444841 27.2685
33.81871069412428 27.0907
33.84198160035767 27.1039
33.86525394437455 27.1311
33.88870955949969 27.0424
33.911984794020626 27.1343
33.93526147001624 27.0387
33.958539588715006 27.0095
33.98200102861669 26.9066
34.0052820477047 26.8872
34.02856451319451 26.8413
34.05203033759056 26.8446
34.07531571090147 26.8118
34.09860253431845 26.7491
34.121890809074316 26.6696
34.145362493118924 26.6815
34.16865368561615 26.5267
34.191946333164054 26.4495
34.21524043699793 26.4313
34.23871800066799 26.5144
34.26201503218366 26.4216
34.28531352370466 26.4017
34.30861347646881 26.2802
34.33209693978188 26.2868
34.3553998301885 26.194000000000003
34.378704185565205 26.2022
34.402010007152356 26.1574
34.42549939016683 26.1684
34.44880815937748 26.0221
34.472118398533134 26.0132
34.49543010887669 26.0651
34.51892543169198 25.8969
34.54224009966052 25.8598
34.56555624255917 25.8373
34.58887386163339 25.7517
34.61237514439016 25.7277
34.6356957311114 25.7386
34.65901779775809 25.6719
34.68252356662995 25.6392
34.705848608458616 25.5515
34.72917513396849 25.5334
34.75250314440949 25.5239
34.77601490857862 25.4945
34.799345904259795 25.4358
34.82267838863559 25.3758
34.846012362958525 25.433000000000003
34.869530142679984 25.3574
34.89286711232212 25.3154
34.91620557568269 25.2752
34.93954553401677 25.1676
34.9630693495876 25.195999999999998
34.986412313340814 25.1569
35.00975677584668 25.1996
35.033102738362956 25.0834
35.05663261012228 25.1314
35.0799815881786 25.1062
35.10333207003229 25.0117
35.12668405694369 25.0339
35.150220005273056 25.0139
35.17357501786656 25.035999999999998
35.19693153931268 24.991999999999997
35.220289570874385 24.8639
35.24383161619786 24.8283
35.267192683604904 24.7774
35.290555264930376 24.7199
35.314101899412165 24.7226
35.33746752422433 24.6877
35.36083466676374 24.7481
35.38420332829803 24.68
35.407756095629054 24.6229
35.43112781085063 24.6415
35.45450104888391 24.6014
35.477875810999194 24.5116
35.50143473172161 24.4232
35.52481255774625 24.6113
35.54819191167777 24.4896
35.57157279478914 24.4551
35.595137889488406 24.3502
35.61852184675279 24.3222
35.641907337029984 24.2763
35.665294361595684 24.2359
35.68886565090076 24.2275
35.7122557598848 24.2036
35.73564740699838 24.1556
35.759040593519934 24.1208
35.78261809810353 24.1524
35.80601437933051 24.0743
35.829412203814705 23.9307
35.85281157283719 23.9542
35.876395313415884 24.0069
35.8997977874528 23.9021
35.92320180988546 23.8277
35.946790244133936 23.7723
35.97019737933222 23.8063
35.993606066789866 23.7949
36.01701630779276 23.705
36.04061101440684 23.6428
36.06402437852291 23.656
36.08743930005611 23.601
36.1108557802951 23.5414
36.13445678011326 23.5056
36.15787639383515 23.4989
36.18129757014299 23.4707
36.20472031032821 23.3676
36.22832762423364 23.3807
36.25175350829375 23.3387
36.275180960119776 23.2712
36.298609981005924 23.3157
36.32222362992669 23.3071
36.34565580510207 23.2737
36.36908955323448 23.2197
36.39252487562093 23.0697
36.416144880530226 23.0187
36.43958336764275 23.0175
36.463023432914625 23.1098
36.486465077645676 22.9295
36.51009145956204 23.0253
36.53353627947859 22.9938
36.55698268276811 23.0026
36.58043067073321 22.9917
36.60406345072071 22.7642
36.62751462435344 22.7861
36.65096738658405 22.7689
36.67460498210655 22.7378
36.69806093788647 22.7787
36.72151848619297 22.6391
36.744977628333636 22.7076
36.76862165890998 22.6321
36.79208400512205 22.6394
36.81554794910557 22.5211
36.83901349217101 22.445999999999998
36.862663978991606 22.451999999999998
36.88613273667352 22.4528
36.90960309738324 22.4029
36.933075062434064 22.3567
36.95673202673572 22.3352
36.98020721697122 22.3013
37.003684015502365 22.2051
37.027162423645365 22.2217
37.050825886711465 22.2333
37.07430753063053 22.0769
37.09779078812467 22.1405
37.121275660513014 22.1145
37.144945643673694 22.0529
37.16843376245278 22.0569
37.19192350009803 22.0361
37.215414857931435 21.9719
37.239091382563885 21.9147
37.262585997426164 21.8782
37.28608223645736 21.9116
37.309763684451696 21.7262
37.33326318851098 21.781999999999996
37.356764320726555 21.7721
37.380267082425526 21.7888
37.40395510942588 21.737
37.42746114683234 21.636
37.45096881771841 21.5417
37.474478123414166 21.6134
37.49817275092816 21.5466
37.52168534303452 21.5252
37.54519957395567 21.4966
37.568715445024665 21.4018
37.592416694607714 21.436999999999998
37.61593586281424 21.4166
37.63945667518264 21.3868
37.66297913304891 21.3578
37.68668702630454 21.3154
37.710212792059274 21.2035
37.733740207334854 21.2418
37.757269273470364 21.114
37.780983832050374 21.1434
37.80451621684926 21.1746
37.82805025654007 21.0947
37.851585952464795 21.0484
37.8753071980695 20.984
37.89884622345676 20.9733
37.92238690911902 20.9096
37.94611318753442 20.7939
37.969657210779765 20.8669
37.99320289834801 20.8846
38.016750251586465 20.8151
38.04048325513017 20.7221
38.06403395679343 20.7141
38.087586328183946 20.6842
38.11114037065203 20.6281
38.13488012115898 20.656999999999996
38.1584375229181 20.5794
38.181996599821 20.5075
38.205557353221124 20.4952
38.229303872575656 20.4972
38.2528679961576 20.5021
38.27643380031219 20.3786
38.30000128639589 20.3655
38.32375459653193 20.3757
38.34732546371299 20.3594
38.37089801690786 20.2218
38.39447225747609 20.2438
38.418232380377425 20.2256
38.441810012983396 20.229
38.46538933705673 20.1888
38.488970353960084 20.1774
38.51273731166058 20.135
38.536321731567014 20.0196
38.55990784840681 19.9562
38.58367995004091 19.9734
38.60726947812959 19.8973
38.63086070726198 19.9767
38.654453638806274 19.9922
38.678232613930824 19.8729
38.70182896773327 19.8562
38.72542702806741 19.7529
38.7490267963045 19.7873
38.77281266709232 19.7702
38.79641586862214 19.7345
38.8200207821842 19.6637
38.843627409152944 19.7324
38.86742019782782 19.6559
38.891030269149255 19.645
38.914642058016156 19.5968
38.938255565806124 19.5534
38.96205529464307 19.5264
38.98567225787121 19.5213
39.00929094417078 19.5183
39.03291135492255 19.456
39.05671804624804 19.4783
39.080341923549106 19.3845
39.103967529460334 19.3978
39.127594865365744 19.2239
39.15140854155791 19.2147
39.17503935514948 19.2188
39.19867190290282 19.2316
39.22249083587951 19.1872
39.24612686969409 19.1885
39.269764641845306 19.2063
39.293404153722804 19.1265
39.317230110864074 19.0239
39.34087311998506 18.9662
39.36451787301696 18.9575
39.388164371352595 18.8822
39.41199737518003 18.8568
39.43564738196752 18.8795
39.45929913825317 18.8275
39.48295264543308 18.8094
39.506792718520884 18.7801
39.530449745387216 18.7759
39.55410852735203 18.7571
39.57776906581474 18.7472
39.60161623079 18.6505
39.625280300200025 18.7292
39.64894613032202 18.573
39.67261372255866 18.5738
39.6964680021016 18.4934
39.72013913657293 18.5475
39.74381203738292 18.5932
39.76748670593756 18.5062
39.79134812278169 18.4075
39.81502634488497 18.421
39.83870633896685 18.3374
39.862388106436654 18.3174
39.88625668336918 18.3663
39.90994201572829 18.3109
39.933629125719285 18.2695
39.957503091207826 18.2811
39.9811937746168 18.2887
40.00488623990914 18.188
40.02858048850006 18.163
40.05246165409549 18.1309
40.076159487492085 18.0563
40.099859108448875 18.0872
40.123560518384345 18.1036
40.1474489070226 18.0461
40.171153913178564 17.9793
40.194860712584955 17.9395
40.2185693066637 17.9135
40.242464941335314 17.8469
40.26617714307655 17.8515
40.289891143772046 17.7951
40.3136069448471 17.8447
40.33750984859743 17.8364
40.3612292688043 17.789
40.3849504936829 17.7265
40.40867352466194 17.7704
40.43258372059144 17.6828
40.45631038219906 17.6829
40.48003885420956 17.6121
40.503769138055105 17.6185
40.52768664931955 17.575
40.55142057531802 17.535
40.57515631746428 17.4985
40.599079334038514 17.4651
40.62281872700477 17.391
40.64655994043941 17.3538
40.67030297578061 17.3818
40.69423334835778 17.3644
40.71798004609188 17.3894
40.74172857006355 17.2865
40.76547892171441 17.2939
40.7894166736039 17.2386
40.813170699248566 17.1784
40.83692655691388 17.1742
40.86068424804498 17.2542
40.884629402612525 17.1878
40.908390779366385 17.1486
40.932153993938 17.093
40.95591904777605 17.035
40.979871628443995 17.0438
41.003640379561936 17.0106
41.02741097430883 16.9808
41.05118341413683 16.936
41.075143444384416 16.9513
41.098919593177826 16.9184
41.1226975914255 16.9063
41.14647744058318 16.8247
41.170444943946755 16.7939
41.19422851378379 16.7729
41.218013938914645 16.7459
41.24198706625173 16.7109
41.26577622087193 16.6601
41.289567235177785 16.6523
41.31336011063129 16.6326
41.337340752422875 16.6485
41.361137369129835 16.6386
41.38493585138705 16.5926
41.40873620066004 16.4917
41.43272438060107 16.4297
41.45652848292052 16.4684
41.48033445666918 16.4314
41.50414230331616 16.4598
41.528138045159764 16.4334
41.551949656675205 16.3725
41.575763145513235 16.3286
41.59957851314666 16.2416
41.62358184070442 16.2762
41.64740098505737 16.2288
41.6712220126409 16.1639
41.69504492493139 16.2074
41.71905586207357 16.2347
41.74288256296395 16.1758
41.766711153007456 16.1212
41.79054163368412 16.0914
41.814560204340054 16.1
41.838394485526365 16.0765
41.86223066180303 15.9992
41.88625497706819 15.9764
41.910094962812 15.9829
41.93393684811168 15.9191
41.95778063445365 15.8571
41.981812625263366 15.85
42.00566023303407 15.8258
42.029509746323676 15.7994
42.05336116662236 15.7595
42.077400857069705 15.7863
42.10125611078846 15.749
42.12511327600405 15.6857
42.14897235421036 15.6529
42.173019768448455 15.6749
42.19688269209613 15.6192
42.22074753323349 15.6173
42.24461429335818 15.6201
42.268669455600495 15.5304
42.292540073217886 15.5081
42.31641261433284 15.5536
42.34028708044675 15.4988
42.36435001496739 15.4834
42.38822835065557 15.4497
42.41210861586426 15.3858
42.4359908120986 15.4165
42.46006154323262 15.3991
42.48394762115317 15.3107
42.507835634632315 15.2864
42.531912233047436 15.2866
42.55580413732265 15.2473
42.579697981698 15.2612
42.60359376768525 15.1753
42.62767820545945 15.2148
42.65157789440821 15.1493
42.67547952952185 15.1231
42.699383112316 15.1077
42.72347541395347 15.0427
42.74738291190531 14.9863
42.771292362102166 15.0196
42.795203766063516 15.0079
42.819303956130405 14.9562
42.843219287476536 14.9006
42.86713657716324 14.9349
42.89105582671383 14.8536
42.91516392983864 14.8276
42.939087119032166 14.8557
42.963012272677304 14.8017
42.98693939230129 14.8323
43.01105543317513 14.7462
43.034986504731386 14.7049
43.05891954686589 14.6879
43.08285456110972 14.712
43.10697856448665 14.6878
43.130917542983475 14.6472
43.15485849820081 14.6482
43.17880143167367 14.6067
43.20293342237094 14.573
43.226880332449 14.492
43.25082922540554 14.5016
43.27496722682525 14.4733
43.29892010567796 14.4337
43.32287497204102 14.437000000000001
43.34683182745632 14.3783
43.370977859791836 14.3926
43.39493871351105 14.3818
43.41890156092628 14.3767
43.44286640358341 14.3182
43.46702049182749 14.322000000000001
43.49098934522816 14.2427
43.51496019852649 14.23
43.5389330532723 14.22
43.56309522248204 14.1777
43.58707210044314 14.1593
43.61105098451946 14.1363
43.63503187626491 14.1348
43.659202151562134 14.1332
43.68318707902681 14.1095
43.70717401884041 14.0385
43.731162972560874 14.0062
43.75534137913236 13.9832
43.779334381108384 14.0164
43.803329401683186 13.9398
43.82732644241872 13.9354
43.8515130055166 13.9679
43.87551410707659 13.8492
43.89951723350145 13.8589
43.923709934595614 13.8096
43.94771713129917 13.8297
43.97172635758096 13.7776
43.99573761501002 13.7595
44.0199385169922 13.7421
44.04395385732619 13.6978
44.067971233533086 13.6967
44.09199064718605 13.6926
44.11619977548961 13.6599
44.14022328470671 13.6273
44.16424883610785 13.5808
44.18827643127035 13.5798
44.21249381139513 13.581
44.236525514814076 13.4831
44.26055926674478 13.4904
44.28459506876863 13.5297
44.3088207262813 13.4092
44.33286064928722 13.3648
44.35690262714919 13.3987
44.38094666145278 13.3499
44.4051806219871 13.3084
44.42922879003185 13.2801
44.45327901929361 13.2863
44.477331311362136 13.2398
44.501573600619416 13.2516
44.525630039221795 13.2069
44.54968854541895 13.2061
44.573937102200176 13.1745
44.5979997645541 13.1661
44.622064499300315 13.1593
44.64613130803592 13.1151
44.67038823869318 13.1396
44.69445921643748 13.0684
44.718532272981385 13.0508
44.742607409926194 13.0248
44.76687274034801 12.9989
44.79095205918753 12.9616
44.81503346325094 12.9446
44.839116954143876 12.9532
44.86339071028742 12.9337
44.88747839599524 12.8887
44.91156817336837 12.8293
44.93566004401666 12.8442
44.959942251908146 12.8221
44.984038330325966 12.8251
45.00813650686762 12.7345
45.03223678314731 12.7538
45.05652746888232 12.6941
45.08063196592069 12.6807
45.104738567558705 12.659
45.128847275414856 12.6781
45.15314646515866 12.6274
45.17725940679741 12.6114
45.20137445952892 12.6113
45.22568004865265 12.607999999999999
45.24979934496396 12.5743
45.27392075725247 12.5165
45.29804428714431 12.4801
45.322358426247604 12.4993
45.346486212804315 12.4363
45.370616121861914 12.4297
45.39474815505086 12.4007
45.41907087049246 12.4006
45.4432071734666 12.3435
45.46734560548283 12.3289
45.49148616817604 12.3209
45.51581748638564 12.3344
45.5399623320197 12.3008
45.56410931325473 12.2536
45.58825843173002 12.2949
45.61259837920865 12.2364
45.636751793816 12.2284
45.66090735060093 12.1417
45.68506505120716 12.1266
45.7094136545275 12.109000000000002
45.73357566449271 12.0867
45.75773982322992 12.094000000000001
45.78190613238733 12.0673
45.806263418194064 12.0009
45.83043404997326 12.0117
45.85460683713677 11.966
45.87897065658495 11.9719
45.90314777634752 11.9347
45.92732705646868 12.017000000000001
45.9515084986045 11.9284
45.97588104735473 11.8832
46.00006683541565 11.8685
46.02425479047904 11.8723
46.04844491420549 11.882
46.0728262191024 11.7988
46.09702070211635 11.7769
46.12121735879483 11.7728
46.14541619080294 11.7632
46.169806278764455 11.7437
46.194009483459034 11.7428
46.21821486849841 11.6919
46.24242243555223 11.6554
46.266821333570014 11.65
46.29103328674601 11.5909
46.31524742696538 11.6063
46.33946375590237 11.5795
46.36387149104216 11.5674
46.38809221957392 11.5373
46.41231514186606 11.5303
46.436540259597464 11.5086
46.460956858999374 11.4611
46.48518638983522 11.4478
46.509418121166966 11.4044
46.533652054678114 11.3968
46.55807754555709 11.3777
46.58231590571962 11.3761
46.60655647313217 11.3567
46.630988654873654 11.3035
46.655233659129024 11.3049
46.67948087571551 11.2743
46.70373030632484 11.2555
46.72817142736393 11.1943
46.752425308428684 11.23
46.77668140861147 11.1807
46.80093972960865 11.1311
46.82538981736788 11.1737
46.849652602470904 11.1205
46.87391761349769 11.1294
46.8981848521493 11.1062
46.9226439341274 11.0809
46.946915650573224 11.0433
46.97118959976749 11.0418
46.99546578341598 11.0605
47.019933887188216 10.975999999999999
47.04421456235744 10.9957
47.06849747711879 10.9865
47.09278263318286 10.9476
47.11725978640143 10.9423
47.14154944775105 10.8906
47.165841355555656 10.8968
47.1901355115306 10.8614
47.214621741924994 10.8491
47.23892041698887 10.7981
47.26322134538975 10.8199
47.28771440635075 10.7529
47.31201986422527 10.7656
47.33632758061436 10.7352
47.360637557241866 10.7164
47.38513974410611 10.7167
47.40945426407847 10.6665
47.43377104948137 10.6693
47.45809010204344 10.6743
47.48260144275502 10.652000000000001
47.506925052572285 10.5826
47.53125093475548 10.5638
47.55557909103813 10.538
47.58009961361992 10.5359
47.60443234110732 10.4847
47.62876734791564 10.5285
47.65310463578333 10.4827
47.6776343683373 10.4928
47.7019762413987 10.4224
47.72632040075572 10.4064
47.75066684815169 10.382
47.77520581885936 10.3708
47.799556865477655 10.3643
47.823910205386 10.3815
47.84826584033272 10.3669
47.87281407745551 10.2961
47.89717432569297 10.327
47.92153687423484 10.3256
47.94609208429692 10.2666
47.97045925671401 10.2355
47.99482873471275 10.1949
48.01920052005013 10.2252
48.04376504619224 10.1793
48.068141469543484 10.1893
48.09252020552573 10.1913
48.11690125590099 10.1563
48.1414751266064 10.1461
48.16586082917454 10.1092
48.19024885144316 10.0803
48.2146391951793 10.0719
48.239222439012764 10.0168
48.26361744916137 10.0283
48.28801478610016 10.0191
48.31241445160131 9.999310000000001
48.337007097209366 10.0007
48.36141144338331 9.94431
48.38581812345755 9.91136
48.41022713920929 9.964319999999999
48.434829215320704 9.9261
48.45924292604658 9.88996
48.48365897780325 9.86663
48.50807737237308 9.86258
48.532688907799276 9.84385
48.55711201168574 9.844510000000001
48.581537463754074 9.78064
48.60615611725119 9.8027
48.63058628942721 9.7655
48.65501881516546 9.78817
48.6794536962573 9.74732
48.70408185970339 9.693480000000001
48.72852147531801 9.66666
48.75296345168211 9.65658
48.77740779059232 9.64927
48.80204549302823 9.628060000000001
48.82649458091802 9.59961
48.85094603676547 9.60052
48.87539986237231 9.605780000000001
48.90004713292306 9.586269999999999
48.92450572200832 9.51757
48.94896668628025 9.50367
48.97343002754588 9.4757
48.99808689542115 9.48696
49.02255501470614 9.47915
49.04702551642794 9.427430000000001
49.0714984023988 9.428939999999999
49.096164896893235 9.41136
49.120642575466796 9.36897
49.145122643748394 9.37904
49.16960510355558 9.32803
49.19428125404938 9.32843
49.2187685210852 9.30521
49.243258185121555 9.31738
49.26794160167084 9.25036
49.2924360839405 9.26248
49.31693296869764 9.265139999999999
49.34143225776915 9.22669
49.36612538195438 9.20571
49.39062950396021 9.21152
49.41513603578346 9.188310000000001
49.4396449792564 9.165560000000001
49.46434784069503 9.13621
49.488861631846454 9.13847
49.513377840166804 9.11031
49.537896467493745 9.140130000000001
49.56260909589029 9.0678
49.587132585683285 9.04755
49.611658500018365 9.05371
49.636186840738596 8.99982
49.66090926588511 9.02496
49.685442483902584 8.98903
49.70997813385706 8.96151
49.734516217597076 8.94285
49.75924846937352 8.93518
49.7837914452858 8.93233
49.80833686055187 8.89118
49.83288471702571 8.88534
49.85762682540054 8.86758
49.882179588965734 8.83897
49.9067347993235 8.81076
49.93129245833333 8.81954
49.95604445336378 8.8005
49.98060703442832 8.79026
50.005172069746266 8.75988
50.02993150438364 8.73415
50.05450147301533 8.75258
50.07907390151433 8.70422
50.10364879174981 8.67844
50.12841816587289 8.68757
50.1529980044635 8.682
50.17758031042124 8.658760000000001
50.20216508562089 8.63342
50.22694442953363 8.618030000000001
50.25153416817468 8.593910000000001
50.27612638170508 8.5419
50.300721072005196 8.52319
50.325510416102105 8.54598
50.350110084975064 8.52099
50.37471223628208 8.51482
50.39931687190919 8.51248
50.424116246675766 8.46302
50.44872587605249 8.43277
50.47333799543065 8.443999999999999
50.49795260670191 8.42561
50.52276204271512 8.41998
50.54738166295838 8.41383
50.57200378079314 8.394689999999999
50.596628398116835 8.36829
50.62144792604559 8.35641
50.646077567609396 8.34296
50.670709714377715 8.32429
50.69553683636198 8.32468
50.72017401885922 8.28582
50.7448137122895 8.29885
50.76945591856022 8.27561
50.79429318636823 8.25308
50.818940443716784 8.227210000000001
50.84359021965163 8.173760000000001
50.868242516085964 8.2068
50.893089960641895 8.1623
50.917747323549435 8.14506
50.94240721271973 8.15662
50.96706963007175 8.134960000000001
50.99192728239342 8.11829
51.01659478166073 8.14023
51.04126481489051 8.094330000000001
51.06593738400761 8.08066
51.090805275207074 8.05528
51.11548294172845 8.0242
51.14016314993547 8.040189999999999
51.164845901758845 8.03009
51.18972406304274 7.98826
51.21441192780656 7.9493100000000005
51.23910234200271 7.95972
51.2637953075678 7.942010000000001
51.288683770237945 7.91195
51.31338186432707 7.89935
51.33808251561888 7.88818
51.362978729967345 7.88473
51.387684521509755 7.8601399999999995
51.41239287610203 7.8472
51.437103795691165 7.836410000000001
51.46201036644977 7.81071
51.486726441956634 7.77405
51.51144508832545 7.79652
51.536166307509156 7.7804
51.56108326624387 7.75783
51.58580965706056 7.741789999999999
51.61053862657523 7.697210000000001
51.635270176746864 7.716060000000001
51.66019755512065 7.68849
51.68493429268881 7.66438
51.70967361681515 7.6307100000000005
51.73441552946465 7.639530000000001
51.759353359237934 7.59474
51.7841004750961 7.55745
51.80885018539685 7.58502
51.833602492111254 7.595960000000001
51.8585508051424 7.543010000000001
51.883308330926425 7.53375
51.90806845906181 7.5003899999999994
51.932831191525715 7.4907699999999995
51.95779001977161 7.542160000000001
51.98255798721516 7.484789999999999
52.00732856494335 7.4493100000000005
52.03229530577543 7.46546
52.057071130455945 7.387510000000001
52.081849571391054 7.4086300000000005
52.106630630568695 7.44268
52.13160794279417 7.372039999999999
52.15639426492067 7.35509
52.18118321127822 7.338260000000001
52.205974783860896 7.334230000000001
52.23096269971011 7.323119999999999
52.255759551287994 7.28627
52.280559035098186 7.26612
52.30536115314103 7.26935
52.33035970494467 7.24476
52.35516711807904 7.227710000000001
52.37997717147198 7.20078
52.40478986713005 7.23313
52.42979908731974 7.207389999999999
52.454617094216 7.1744699999999995
52.47943774942214 7.20247
52.50426105495102 7.17086
52.529280976059844 7.132960000000001
52.554109609024096 7.12213
52.57894089837482 7.1094
52.60377484613117 7.074
52.62880550079408 7.0982199999999995
52.65364479223379 7.091080000000001
52.67848674816189 7.05293
52.70352547971946 7.022939999999999
52.72837279155837 7.00643
52.753222773982785 6.97773
52.778075429022984 7.005
52.80312495150885 6.97893
52.827982978797436 6.980360000000001
52.85284368481815 6.97125
52.87770707160767 6.89458
52.90276741793998 6.94463
52.92763619336701 6.94648
52.952507655698504 6.900710000000001
52.977381806977576 6.90153
53.00245301017842 6.85153
53.02733256653592 6.83253
53.052214817996074 6.852710000000001
53.077099766608484 6.83546
53.102181859804446 6.78302
53.127072229988265 6.818910000000001
53.15196530349892 6.80784
53.17686108239249 6.782430000000001
53.20195409881522 6.754060000000001
53.22685531582556 6.743810000000001
53.25175924441303 6.7094
53.27666588664027 6.671710000000001
53.30176985962693 6.71552
53.3266819565689 6.69658
53.35159677336455 6.6813199999999995
53.376514312083096 6.678789999999999
53.40162927507703 6.654539999999999
53.42655228516116 6.63225
53.45147802340193 6.59368
53.47660125628886 6.5724800000000005
53.50153247842639 6.58997
53.52646643496923 6.568980000000001
53.55140312799818 6.570689999999999
53.576537409691696 6.52303
53.60147960336152 6.55056
53.626424539786164 6.53311
53.65137222105307 6.48804
53.67651758529126 6.49797
53.70147078399681 6.44581
53.72642673383343 6.46474
53.75138543689533 6.4659
53.776541917524526 6.46221
53.801506154876755 6.42398
53.826473151763246 6.42111
53.851442910284916 6.39749
53.87661054126026 6.35588
53.9015858509782 6.3472
53.92656392866066 6.332319999999999
53.95154477641532 6.35971
53.976723591801296 6.3304800000000006
54.00171000771266 6.347119999999999
54.02669920004598 6.28945
54.051691170915745 6.26834
54.076881204886796 6.21975
54.101878760928514 6.20274
54.12687910187696 6.2196
54.152077577768296 6.20934
54.1770835166946 6.144340000000001
54.20209224691339 6.14923
54.22710377055121 6.14806
54.25231352511594 6.1454699999999995
54.27733066384342 6.08449
54.30235060239643 6.04614
54.32737334290836 6.06542
54.35259441062629 5.9699599999999995
54.377622783395324 6.00555
54.40265396455061 6.01357
54.42768795623251 6.02853
54.45292037169559 5.983140000000001
54.477960012857906 5.9660400000000005
54.50300247099511 5.918080000000001
54.52804774825457 5.90797
54.55329154616743 5.86788
54.57834249018678 5.84002
54.6033962597977 5.82338
54.6284528571545 5.8154699999999995
54.653708072335164 5.80663
54.67877035378786 5.75667
54.70383546947698 5.76435
54.72890342156389 5.7053400000000005
54.7541700889442 5.70177
54.77924374251975 5.7195800000000006
54.8043202390049 5.69448
54.82959552413022 5.66866
54.8546777351945 5.6543
54.87976279569621 5.631069999999999
54.90485070780914 5.57313
54.930137506558005 5.59168
54.95523115074295 5.59756
54.98032765308844 5.51928
55.005427015775496 5.51384
55.03072536339621 5.53391
55.05583047570572 5.48494
55.080938454927676 5.468719999999999
55.10604930325027 5.47024
55.131359235107396 5.46134
55.15647585066083 5.3513
55.181595341907496 5.3556
55.20671771104285 5.30187
55.232039262617704 5.2975699999999994
55.25716741665048 5.2722
55.28229845518636 5.26506
55.30743238042802 5.19461
55.33276558731939 5.15935
55.357905315183636 5.159269999999999
55.383047936390035 5.1279900000000005
55.40819345314859 5.10821
55.433538351073295 5.13042
55.458689688238415 5.114730000000001
55.483843927614096 5.07
55.509197623043605 5.0263800000000005
55.53435769621134 5.03929
55.55952067826466 5.005669999999999
55.5846865714265 4.962269999999999
55.61005202069737 4.951630000000001
55.63522376553902 4.9547
55.66039842818645 4.9144
55.68557601087004 4.95704
55.7109532500271 4.8894
55.73613670233794 4.881530000000001
