TT I
1.2716486653135266 7.49061
1.2939594142134223 7.23807
1.3162702121660406 6.706110000000001
1.3385810600174564 6.8474
1.3608919586137629 7.016260000000001
1.383202908801069 7.02849
1.405513911425503 6.1803
1.4278249673332093 5.88755
1.4501343378461518 6.4023
1.4724455028545926 5.74619
1.4947567236847858 6.43717
1.517068001182951 6.0531
1.5393793361953272 5.4829099999999995
1.5616907295681737 5.13154
1.5840021821477681 5.5900300000000005
1.60631369478041 5.76789
1.6286252683124185 5.53176
1.6509369035901333 5.65687
1.6732468618895553 5.3204199999999995
1.695558623192809 4.8859699999999995
1.7178704487808514 4.95669
1.7401823395001077 4.89388
1.7625012545597203 4.8745
1.7848028405262486 4.85145
1.8071218901122095 4.897930000000001
1.8294236121921872 5.276330000000001
1.8517427996910911 4.85232
1.8740620574440425 4.97002
1.8963639900671978 5.44567
1.9186833908139995 5.073919999999999
1.9409854680117449 5.40474
1.9633050151394713 5.17696
1.9856246367570705 4.7552900000000005
2.0079269371922672 4.98487
2.03024671027244 4.3886
2.0525491637446027 4.41364
2.074869091674931 4.67202
2.097171701569106 4.125780000000001
2.1194917877373847 4.6292599999999995
2.141811954326636 4.79641
2.164114805233074 4.51342
2.186435135143035 5.97227
2.208738150935709 9.8263
2.231058647554722 16.5365
2.2533792288321184 13.0811
2.275682498336085 7.453360000000001
2.298003251406138 5.59353
2.3203066942619714 5.663119999999999
2.3426276225136022 5.23759
2.3649486396617507 5.05398
2.387252348930071 5.32648
2.4095735463442893 5.25405
2.4318774374315884 5.45505
2.4541988185014043 5.87073
2.476502894794693 6.37542
2.498824462909887 6.13738
2.521146125856138 6.787539999999999
2.5434504863470337 6.0963400000000005
2.5657723414244717 6.4838
2.588076895590662 7.21152
2.610398946189713 6.931719999999999
2.6327210958598384 6.49985
2.6550259469304716 6.73013
2.6773482972090137 7.01859
2.6996533504259 7.453360000000001
2.7219759047039602 6.721419999999999
2.744298562293959 7.30478
2.7666039251246595 7.20332
2.7889267918020164 7.848210000000001
2.8112323652516555 7.83895
2.833555444408179 8.172369999999999
2.8558786311183852 7.47889
2.8781845268938557 8.70612
2.9005079311721484 8.55917
2.9228140460410397 8.948369999999999
2.9451376712799635 9.815669999999999
2.967444008632326 9.73537
2.9897678582247247 10.1341
3.0120918213106695 10.7636
3.0343984987899373 11.0244
3.0567226913198637 11.2759
3.079029599759726 11.4682
3.101354025127254 12.2163
3.123678568232338 12.7644
3.145985829517914 13.045
3.16831061055229 13.5687
3.1906181112775593 13.9321
3.212943133635653 14.872
3.2352682779763207 15.0733
3.2575761442691227 15.7896
3.2799015350264273 15.8996
3.302209649240067 16.2395
3.3245352898092655 17.308
3.3468436553365257 17.4473
3.369169549113219 17.8831
3.3914955708171384 18.5971
3.413804319727358 18.57
3.4361305997334863 18.9376
3.4584396084414553 19.5205
3.4807661501462652 20.1205
3.503092824025881 20.9203
3.5254022288463154 21.1937
3.5477291695206588 21.4684
3.5700388426251948 22.3806
3.5923660534916446 23.6332
3.6146934007816114 31.3661
3.637003482731501 56.4416
3.6593311053109985 60.5807
3.681641464033634 40.254
3.7039693653009733 27.6425
3.726297407241705 25.9003
3.7486081875460804 25.4695
3.7709365132734978 26.0027
3.793247578841633 26.5579
3.8155761917550093 26.4157
3.8378875459837216 26.7277
3.8602164494827234 27.7432
3.882545499606844 28.7121
3.9048572932539183 29.581999999999997
3.9271866390645718 29.7151
3.9494987298666713 30.2424
3.971828374764527 30.3255
3.9941581705403255 31.1468
4.016470713506008 32.0349
4.038800813471445 32.4843
4.061113662089144 32.9889
4.0834440696459176 34.2961
4.105774632334751 34.1169
4.128087945865126 35.2659
4.150418821249301 36.1336
4.172732448931298 37.0032
4.195063640413578 38.2837
4.2173775856475215 40.6556
4.239709096631102 58.0299
4.262040768704612 138.697
4.284355196706267 179.127
4.306687193387355 124.146
4.329001947444346 62.3053
4.35133427213731 46.0392
4.373666762177566 45.0534
4.395982011761091 44.8614
4.418314834921175 45.7229
4.44063041906622 50.3206
4.4629635787515625 56.286
4.4852969080429785 56.6639
4.5076130004776225 52.9892
4.529946671403969 53.0366
4.552263106909177 53.5888
4.574597122877047 53.5865
4.596931312711224 53.8908
4.619248269273446 55.0224
4.6415828092605835 56.0582
4.663900117405352 57.2012
4.686235010953232 58.6648
4.708552674085913 59.7717
4.730887924602802 61.4736
4.753223354952695 63.1618
4.775541557023902 64.773
4.797877349456786 66.1263
4.820195915032126 68.1992
4.842532072957498 69.7915
4.864868414979744 72.2212
4.88718753227192 74.8839
4.909524244902505 76.5949
4.931843734218147 78.085
4.954180820867835 81.2941
4.976518095879839 84.5585
4.998838149695359 88.1627
5.021175803844231 92.167
5.043496238205739 96.1018
5.065834274903528 101.52799999999999
5.088172504230693 107.764
5.1104935158799565 115.77799999999999
5.132832132875765 136.689
5.155153533596801 172.1
5.1774925416746225 243.512
5.199814334878411 611.944
5.2221537374521505 1624.08
5.244493338631803 3707.28
5.266815727034316 7520.32
5.289155727832427 11373.7
5.311478517248165 8808.31
5.333818921080011 3389.23
5.356159527788849 724.179
5.3784829252032536 220.835
5.400823940070432 162.497
5.423147747031976 139.946
5.445489173474152 127.383
5.467830807066149 121.51
5.490155234831516 117.182
5.512497285125229 112.051
5.534822130975162 109.288
5.557164601388673 106.664
5.579489868738879 103.598
5.601832762690846 102.31700000000001
5.6241758697774475 101.581
5.646501775867269 100.546
5.668845311622074 98.85
5.691171647754637 98.7441
5.713515615597765 97.2575
5.735859800852677 96.6757
5.758186788542988 96.6751
5.780531411018185 97.3649
5.802858837297399 96.97
5.825203900414495 97.4221
5.8475491852224 98.6388
5.869877275883075 98.4502
5.892223006467101 99.5569
5.914551544266608 101.53200000000001
5.936897724049891 106.92200000000001
5.959244129804903 117.14299999999999
5.981573344815301 158.56
6.0039202049061 327.274
6.026249875609095 680.7339999999999
6.04859719346037 1279.01
6.070927323278297 2350.26
6.093275102315365 3975.04
6.115623113320588 4833.26
6.137953938319995 3358.05
6.160302415650845 1152.1
6.182633708324452 286.83299999999997
6.2049826554078376 127.665
6.227331838745022 99.9591
6.249663839443684 89.9863
6.27201349767565 85.3505
6.294345974611799 86.521
6.316696111167083 90.2918
6.339046488263839 86.5589
6.361379686074702 77.538
6.383730546639482 73.309
6.406064229255215 71.3325
6.428415576718203 70.797
6.450749747566656 69.2453
6.47310158535871 67.8096
6.495453669698332 67.2739
6.517788579421056 66.5033
6.540141159237969 65.0434
6.562476565766648 64.6999
6.5848296444934045 64.20100000000001
6.607182974060425 64.3195
6.6295191323281015 63.86
6.651872965955752 65.1622
6.6742096296068985 77.5378
6.6965639707294615 100.135
6.71891856698715 100.429
6.741255995248479 78.926
6.763611104154477 64.9974
6.785949046381137 60.5197
6.808304671371482 59.6507
6.8306605557940046 59.9095
6.852999275508618 58.9063
6.875355681171544 57.9574
6.897694923437771 57.8196
6.92005185377892 57.7356
6.9423916220322655 57.6157
6.964749080490181 56.9062
6.987106804399774 57.2329
7.009447368180821 56.8613
7.031805625367033 56.4508
7.054146723727803 56.6531
7.076505517631004 56.1684
7.098864581288365 56.3459
7.121206488070854 56.0722
7.143566093607822 56.0679
7.165908543567245 56.4593
7.188268694426048 56.0791
7.2106291193438095 56.2457
7.232972390625943 56.9556
7.255333366030969 63.1246
7.277677189091925 89.8067
7.300038718428332 114.316
7.322400526130865 101.03
7.344745183422596 73.3381
7.367107550224791 59.3845
7.389452767901992 56.6756
7.411815697249891 56.0759
7.434161478756298 55.273999999999994
7.456524974096713 55.1102
7.478888753837185 55.0904
7.501235387657368 55.5736
7.523599738562711 55.6138
7.545946944825532 55.8271
7.568311870344528 56.5218
7.5906770845765665 56.3704
7.613025156078678 57.0601
7.635390950099687 57.6738
7.657739602662809 57.7102
7.680105979923558 57.2334
7.702472650212829 57.7156
7.724822180948224 57.1629
7.747189439655568 57.5588
7.769539560075357 57.6192
7.791907410653562 58.2409
7.81425812420825 57.725
7.836626570110925 58.2711
7.858995315087906 59.1328
7.881346924933401 59.0652
7.903716270417482 59.5408
7.926068482028405 60.2342
7.948438431475253 60.9819
7.9708086843180235 61.3442
7.993161805171116 61.8936
8.015532667162402 62.2106
8.037886398416653 63.4398
8.060257873014221 63.9341
8.082629655331942 64.4851
8.104984308787587 65.5385
8.127356708900503 68.0889
8.149711981398308 71.69800000000001
8.172085002766314 73.2868
8.194458336181368 71.6478
8.216814543847752 70.6099
8.23918850371002 71.56
8.26154533906492 72.4472
8.283919928836452 74.5175
8.306277395339652 75.5208
8.328652618483376 76.7419
8.351028159736202 79.2666
8.373386579575245 81.8703
8.395762759396959 83.8776
8.418121819038275 88.0708
8.440498640894003 97.5497
8.462875785192262 112.42200000000001
8.485235811156207 146.39600000000002
8.507613602688501 227.08900000000003
8.529974277114228 345.57
8.552352719347912 505.423
8.574731488360351 764.235
8.59709314210385 1190.62
8.619472567021075 1713.3
8.64183487789147 2086.34
8.664214962183097 1844.95
8.686577933647762 1042.06
8.708958680784317 414.24199999999996
8.731339760774953 179.38299999999998
8.753703729764451 118.586
8.77608547780821 104.40100000000001
8.798450116065078 99.8788
8.820832535634787 96.4423
8.843215292401656 94.4466
8.865580941199045 92.9756
8.887964374703538 91.9873
8.910330701447199 92.1193
8.932714815164482 92.4777
8.955099270424924 91.2734
8.977466620733543 89.0428
8.999851761421976 87.6448
9.022219798361645 86.1905
9.04460562795561 86.1995
9.066991803441677 85.7437
9.089360876979615 85.6527
9.111747746589993 85.4316
9.13411751544971 85.0575
9.156505082664324 84.6011
9.178875550323522 84.7263
9.20126381862328 84.303
9.223652438908596 84.7
9.246023961427412 84.9242
9.26841328802173 84.5497
9.290785518039224 84.5031
9.313175554425882 85.5513
9.335565947154315 86.0325
9.357939245086508 85.8454
9.380330352834827 85.9917
9.40270436697103 85.7362
9.425096193225055 85.6032
9.447488380180165 86.4971
9.469863475295412 87.1324
9.492256385987508 87.6188
9.514632206018318 88.1002
9.537025843935714 88.3488
9.559402392368193 89.1689
9.581796761000229 90.8314
9.604191496441521 91.72
9.626569144158516 93.9223
9.648964615551032 96.2643
9.671343000390081 97.26899999999999
9.693739211225699 97.0547
9.716135793237463 96.2095
9.738515290448102 96.3052
9.760912617143402 97.6698
9.783292860202891 98.9676
9.805690935076182 100.36200000000001
9.828089385495742 101.721
9.850470754023561 103.65700000000001
9.872869957865444 109.022
9.89525208097539 118.10700000000001
9.917652041736662 127.318
9.940052382417589 137.643
9.962435644102392 173.37
9.984836746950979 237.824
10.007220771957746 323.487
10.029622640473708 443.01
10.052007432299963 621.08
10.074410069984072 873.045
10.096813093716005 1215.67
10.119199042482517 1596.77
10.141602840636468 1847.82
10.163989564971628 1633.33
10.186394141051062 1003.05
10.208799107559706 459.685
10.231187001965623 209.521
10.253592751657669 135.128
10.275981430388155 118.28299999999999
10.298387966769793 115.039
10.320794897965431 114.97399999999999
10.343184759907361 113.319
10.36559248305461 110.435
10.387983138083852 110.179
10.410391656691655 119.805
10.432800574501677 137.83
10.455192425893369 158.865
10.47760214443012 188.671
10.499994797678786 233.02599999999998
10.522405320453982 300.363
10.54479877906917 387.017
10.567210109595656 489.94199999999995
10.5896218454736 541.972
10.612016518879773 512.231
10.634429067781074 362.588
10.656824555333241 215.12900000000002
10.679237920773568 130.313
10.701651695961992 99.6555
10.724048411481384 92.2725
10.746463008485165 89.8597
10.768860546937125 87.8587
10.791275969274796 85.5644
10.81369180576079 84.7519
10.836090585366925 83.54899999999999
10.858507252467449 82.1014
10.88090686379991 81.0248
10.903324365036394 80.1951
10.925724811614439 79.6471
10.948143150509463 80.5128
10.970561909719066 79.5981
10.992963615930844 78.3151
11.015383218085756 76.6932
11.037785768347074 75.5015
11.06020621697282 74.7291
11.082627090322113 74.2328
11.105030913430326 73.8281
11.12745263854165 73.7125
11.149857314510728 74.751
11.172279894912576 77.7946
11.194702904450653 77.6774
11.217108866490921 75.4544
11.239532736615194 72.8657
11.26193956033512 71.7507
11.284364294577085 70.7257
11.306789462371718 69.4682
11.329197585398376 68.7178
11.351623622610898 68.8216
11.37403261614354 67.8395
11.396459526308487 68.0239
11.418869393879497 67.5731
11.441297180532617 67.1985
11.463725406927658 66.6791
11.486136592353875 66.4756
11.508565700543707 66.5637
11.530977768845315 67.4837
11.553407762368774 67.4529
11.575838200059769 67.4664
11.598251599479612 66.1406
11.620682927815501 65.3138
11.64309721895548 64.987
11.665529441478206 64.7739
11.687962112597958 64.764
11.710377748130886 64.4547
11.732811318753434 64.6143
11.755227854859067 64.5336
11.777662328529495 64.4073
11.800079768750786 64.4202
11.822515149015453 64.0188
11.844950984084935 64.1746
11.867369787303163 64.0018
11.889806534289491 64.1122
11.912226250487029 64.4559
11.934663912939751 64.7751
11.9571020346363 64.6323
11.979523127133968 65.1445
12.001962169624331 66.5815
12.024384183972964 69.0829
12.046824150809913 73.9977
12.069264581333726 80.0739
12.091687985297767 87.2453
12.11412934550045 96.5655
12.136553680195208 110.208
12.158995973632788 129.076
12.181438735204349 150.972
12.20386447284199 175.84599999999998
12.226308172985636 200.202
12.24873485024193 202.894
12.271179492516982 171.72299999999998
12.293607112949127 132.406
12.316052700916226 96.54700000000001
12.338498763250042 77.7071
12.360927805303868 70.1758
12.383374818673879 67.6405
12.405804812803074 66.3297
12.428252780773262 66.0651
12.45070122756722 66.0991
12.473132656675375 65.7565
12.49558206341869 66.07
12.518014453510101 66.3873
12.540464823770117 66.3394
12.562915677315177 66.5117
12.58534951575545 67.0984
12.607801338171472 68.1521
12.630236146511358 70.8675
12.652688941369085 73.4824
12.675124723177234 74.1457
12.697578494048786 72.6087
12.720032754458185 70.1712
12.742470003354093 69.5222
12.764925245138771 69.7597
12.787363476431278 69.8846
12.809819703166806 70.3328
12.83227642391173 71.116
12.854716135692716 71.8215
12.877173846755147 72.9086
12.899614549869717 73.4638
12.9220732548287 74.3724
12.94453245827299 74.6939
12.966974655289818 75.7161
12.989434858002571 76.6932
13.011878055298721 77.5745
13.034339260862497 78.7207
13.056800969391883 80.2818
13.079245674017244 83.3003
13.101708390774869 88.6718
13.12415410463411 100.333
13.146617833206086 114.182
13.169064559883248 128.376
13.191529303857127 145.174
13.213994557076367 169.035
13.236442809902437 203.16099999999997
13.258909083908291 247.09
13.28135835851934 295.497
13.30382565690295 352.958
13.326293469022952 400.972
13.348744283242008 420.94599999999997
13.371213125129904 369.61199999999997
13.39366497011003 277.047
13.416134845360597 186.24400000000003
13.438605238843131 133.101
13.46105863690397 116.4
13.483530069144786 118.434
13.505984506951902 125.81200000000001
13.528456981549432 137.414
13.550929978879088 152.783
13.573385983253365 174.745
13.595860028340867 205.597
13.618317081455832 244.662
13.64079217790333 288.374
13.663250283359057 333.74800000000005
13.685726434770173 359.88300000000004
13.708203115221277 345.51199999999994
13.730662806148091 277.514
13.75314054697177 201.293
13.775601299246777 135.23
13.798080104050406 102.024
13.820559442405358 88.1981
13.843021793671388 84.2824
13.865502201420897 82.4725
13.887965623051947 81.9448
13.910447103807167 80.9937
13.932929122629764 79.7458
13.955394156785959 79.2436
13.977877254034569 78.1046
14.000343367582113 77.1462
14.022827546871707 76.6903
14.045294743423524 75.9416
14.06778000837062 75.1175
14.090265817715476 74.9573
14.112734645763819 74.6045
14.13522154619454 74.2389
14.157691466286913 74.0843
14.180179461423874 73.9728
14.202668005486178 73.0841
14.22513957064374 72.9301
14.247629214846473 72.5108
14.270101881097517 72.1459
14.29259262906496 72.3134
14.315083930490205 72.69800000000001
14.337558255389705 72.7264
14.360050666019726 72.5286
14.382526101071944 71.571
14.405019624534942 71.2381
14.427513705993134 70.9632
14.449990813291825 70.9385
14.47248601302899 70.5982
14.49496423954951 70.8842
14.517460561197822 71.1415
14.539939910570322 70.8314
14.562437357763558 70.9869
14.58493536931253 71.8171
14.607416409993311 72.288
14.62991555254159 72.7035
14.652397725157423 73.1171
14.674898002342799 72.908
14.697398848433282 73.09899999999999
14.719882725991326 74.5309
14.74238471217934 77.2105
14.764869730765593 82.2106
14.787372860692983 86.3751
14.809876564079925 91.9708
14.83236330125751 98.3834
14.854868153850365 107.45299999999999
14.877356041159485 120.13799999999999
14.899862046604186 135.02
14.922351087688757 155.379
14.944858249632887 176.301
14.967365991421232 199.51
14.989856770231246 215.636
15.012365673994204 216.715
15.03485761569738 193.729
15.05736768508665 153.126
15.07987833888692 120.251
15.102372032001655 93.6702
15.124883856909658 79.5338
15.14737872204565 74.5312
15.169891721717274 72.5809
15.192405310371893 72.3538
15.214901940621196 72.2021
15.237416709527137 71.8703
15.259914520936249 71.7989
15.282430473753607 71.0931
15.304947020131227 70.1721
15.327446610371178 69.4918
15.349964346154254 69.0127
15.372465126703139 68.61399999999999
15.394984055556009 68.4725
15.417486030076159 68.3511
15.44000615566487 68.0649
15.462526881230803 67.9989
15.485030653812652 68.0785
15.507552581617434 68.0874
15.530057557334603 68.0217
15.55258069104857 67.8466
15.575104429329837 68.334
15.597611216864632 68.2134
15.620136166564563 68.8622
15.6426441664095 71.4056
15.665170331202765 75.37
15.687697105158826 78.899
15.710206930593545 83.2338
15.732734925158933 87.9076
15.755245972089478 94.2823
15.77777519094324 103.361
15.800287463046663 114.773
15.822817909869592 129.336
15.84534897229804 144.29
15.867863089299354 164.92700000000002
15.890395385222186 180.78099999999998
15.912910736597423 192.507
15.935444269699861 187.388
15.957978423016485 161.866
15.980495633101265 130.865
16.003031029129367 101.954
16.02554948280019 80.7231
16.048086125229432 69.8314
16.070623392487107 66.4552
16.09314371869582 65.3037
16.11568223789321 64.4067
16.13820381691126 63.3495
16.160743591742527 62.643
16.183283996022084 61.9859
16.205807461423195 61.3828
16.228349126881973 60.7637
16.25087385432698 60.724
16.27341678466365 59.9912
16.29594277784926 59.8612
16.31848697676433 59.843999999999994
16.341031811604868 59.7795
16.36355971058487 59.6679
16.3861058195587 59.5493
16.40863499352978 58.615
16.431182380342005 57.835
16.453730407713202 57.3498
16.476261501364792 57.3363
16.498810812136167 57.0347
16.52134319004079 57.1867
16.54389378792203 57.0988
16.566445031001553 57.0092
16.588979342490088 56.7848
16.61153187824822 56.8637
16.634067483263312 56.5588
16.656621315414416 56.5189
16.679175797408888 56.0625
16.701713349928728 56.203
16.72426913389191 56.3954
16.74680798922351 56.3389
16.76936507887444 56.353
16.791905240734874 56.3027
16.814463639794468 56.1868
16.837022695210294 56.3777
16.859564824093756 56.5807
16.882125194503903 57.0143
16.904668639217885 57.5105
16.927230328348003 57.3012
16.949792678493612 57.5998
16.972338104193863 57.2588
16.994901778652235 57.143
17.017448529496576 57.4655
17.040013531998152 57.8709
17.06257920018044 58.9879
17.0851279459922 59.6846
17.107694947817667 60.6074
17.130245028099072 61.5906
17.15281336730298 62.7689
17.17536478578733 64.7392
17.19793446610687 67.0471
17.220504818648422 69.3994
17.243058251703697 71.5877
17.265629950971032 75.142
17.288184731571736 79.0041
17.310757781306908 82.8158
17.33333150794385 84.6558
17.355888317140174 83.7063
17.37846339986244 79.3087
17.401021565958885 73.5586
17.42359800851343 68.1561
17.44617513265564 64.2884
17.468735341390783 61.9651
17.491261035594565 61.0023
17.51396340099364 60.6416
17.536490463869136 60.8471
17.559018209820174 60.9289
17.58154663977963 60.9239
17.604251766089718 61.1786
17.626781572227713 61.4947
17.64931206518155 61.5735
17.671843245885103 61.9719
17.69455114821572 62.3703
17.717083712612634 62.5395
17.739616967569667 62.8878
17.762150914021706 63.269
17.78486160749854 63.4441
17.807396945166804 64.439
17.829932977143503 66.2839
17.85246970436452 68.6239
17.875183204129467 70.8864
17.897721330097664 73.1176
17.920260154126645 75.9319
17.942799677153296 79.1198
17.9655159983646 82.9049
17.988056927677544 87.9245
18.010598558807683 94.9042
18.033140892692916 102.552
18.05586005052525 110.3
18.07840379824407 119.992
18.10094825154059 130.286
18.12366954819864 139.82399999999998
18.146215420998306 143.017
18.16876200220057 137.067
18.191309292745153 124.594
18.214033452627167 111.00200000000001
18.236582170236648 97.3636
18.259131600016456 91.072
18.281681742907335 89.55799999999999
18.304408781233683 91.7489
18.32696035875955 95.2237
18.349512652227624 99.5085
18.372065662579683 103.848
18.394795594587553 105.861
18.41735004715306 104.359
18.43990521943684 98.0916
18.46246111238171 89.2631
18.485193953325208 79.2703
18.507751296070428 71.9817
18.530309362314178 67.7567
18.552868153000343 65.1918
18.57560391815056 63.8113
18.59816416623245 63.7783
18.620725141597372 62.9943
18.643286845190268 62.398
18.666025549835414 62.1352
18.688588718427933 61.4781
18.711152618092243 61.5033
18.73389353884365 61.0434
18.75645890921984 60.6981
18.77902501351406 60.4499
18.801591852673102 60.325
18.824335739722738 59.808
18.846904057212626 59.6204
18.8694731124168 59.4537
18.89204290628315 59.3983
18.914789774966803 59.2878
18.937361054791623 59.0437
18.959933076131318 58.6398
18.982505839934877 58.6071
19.00525570560582 58.7887
19.027829963004184 58.4669
19.05040496572238 58.7403
19.072980714710468 59.0584
19.095733592739563 59.4482
19.11831084296757 59.4291
19.140888842324735 59.9406
19.16346759176222 60.1425
19.18622349753803 60.8397
19.208803755869358 61.9663
19.231384767143577 63.1795
19.253966532312948 64.5126
19.276725481241822 65.9535
19.29930876296784 67.9764
19.3218928014549 70.1387
19.34465404436217 72.7915
19.36723960516257 75.0204
19.389825925592426 76.8198
19.412413006605938 76.8184
19.43517731967805 74.2799
19.457765930683355 70.2478
19.48035530514408 65.4281
19.50294544401556 61.4267
19.525712842708348 58.5738
19.54830451925909 56.9315
19.570896963095727 55.9518
19.593490175174704 55.6185
19.616260674962184 55.4959
19.638855432416964 55.1999
19.661450960992624 55.169
19.68404726164677 55.1455
19.706820878021247 54.9027
19.729418731756834 55.0387
19.752017360452857 54.9668
19.77461676506804 55.3199
19.797393513540218 55.7248
19.819994478951667 55.951
19.84259622316767 56.4549
19.8651987471481 56.92
19.887978643247177 57.2328
19.91058273574792 57.6154
19.933187610901943 58.4908
19.955969879466828 59.6571
19.97857632894404 60.9223
20.00118356396599 62.4959
20.023791585494575 64.0789
20.046577028914875 66.1853
20.069186632506966 68.2106
20.091797025500632 69.9733
20.114408208858933 71.4338
20.137196842715273 72.2041
20.159809615886765 70.9499
20.18242318232135 68.4609
20.20503754298326 66.0205
20.227829382875154 64.3845
20.250445341109344 63.5009
20.27306209647285 63.6193
20.29567964993108 64.5804
20.31847471147704 65.5147
20.34109387027612 66.5544
20.363713830075454 66.778
20.386334591841646 65.8441
20.409132890679302 63.4901
20.431755265564437 60.2969
20.454378445325528 57.6236
20.477002430930366 55.1651
20.499803982716553 53.6754
20.522429589228004 52.7949
20.54505600449589 52.4225
20.567683229489194 52.2172
20.590488049900088 51.7296
20.61311690359731 51.6833
20.63574656993626 51.433
20.658553853717297 51.0936
20.681185154618298 50.9973
20.703817271080066 50.9615
20.72645020407368 50.555
20.749260783967177 50.5089
20.771895359337133 50.3528
20.794530754161617 50.4174
20.817166969412938 50.2144
20.83998086114876 50.2078
20.86261872660049 50.2103
20.885257415405402 50.1622
20.90789692853701 50.3064
20.930714147864748 50.1082
20.953355319030678 50.2677
20.97599731745334 50.3135
20.99864014410749 50.0294
21.021460706796564 50.1778
21.044105199328826 50.2721
21.06675052302631 50.5053
21.089396678865015 50.7993
21.112220600704806 50.9461
21.134868430275347 51.3219
21.15751709492456 51.4423
21.180166595629693 51.6647
21.202993892429635 52.1885
21.22564507473034 52.4721
21.24829709602816 52.6471
21.27112693608965 52.8287
21.293780644891275 53.0682
21.316435195634053 52.6188
21.339090589297417 51.8031
21.361923832041875 51.1765
21.384580921090404 50.463
21.407238856007325 50.0518
21.429897637773326 50.0161
21.45273429906592 49.9178
21.475394784108598 49.9059
21.498056118951983 49.8464
21.520718304578022 50.0304
21.543558400304388 50.0979
21.566222297108816 50.5569
21.58888704765135 50.8861
21.61155265291521 51.3211
21.63439619898156 51.659
21.657063523335786 51.9953
21.67973170537063 52.5217
21.7024007460706 53.055
21.72524775840385 53.849
21.747918526116475 54.6737
21.770590155457388 55.8758
21.79326264741238 57.1455
21.816113141960237 58.6296
21.838787368860547 60.3005
21.861462461341976 61.823
21.884315579735777 63.4623
21.90699241312273 65.0057
21.92967011506078 66.1015
21.95234868653799 66.3152
21.9752053151131 65.3371
21.997885635446785 63.5032
22.020566828293532 61.5275
22.04324889464272 59.4124
22.066109049404666 57.7967
22.088792872571794 57.2039
22.111477572219204 57.1492
22.1341631493376 57.2964
22.157026846313123 57.3201
22.179714188221507 56.9927
22.202402410582668 55.9678
22.22509151438863 54.6163
22.24795876962584 53.0977
22.270649646204486 52.1714
22.293341407213727 51.2553
22.316034053646906 50.8192
22.338904883215342 50.6372
22.36159931041458 50.4904
22.38429462602756 50.3555
22.40699083104897 50.1623
22.429865251039757 50.2475
22.452563244831367 50.3445
22.47526213102522 50.1278
22.49813925616515 50.0924
22.520839937143307 50.0959
22.543541513520587 50.1002
22.56624398629403 49.9256
22.589124730075895 50.0811
22.611829005656723 50.3556
22.63453418063466 50.5004
22.657240256008077 50.6382
22.680124634582935 50.8862
22.70283252079775 51.1131
22.725541310413075 51.3981
22.74825100442868 51.6004
22.771139033969575 52.2421
22.79385054687155 52.5804
22.81656296718292 53.0057
22.83927629590484 53.8827
22.862167992606945 54.55
22.88488314827121 55.4241
22.907599215359284 56.0109
22.93031619487366 57.0275
22.953211574954405 57.8967
22.975930389478226 59.0286
22.998650119445763 59.318000000000005
23.02137076586092 58.8618
23.044269845560063 57.9658
23.06699233506288 56.2636
23.089715744034912 54.3897
23.112617610931565 52.7298
23.135342869061212 51.4927
23.158069049684816 50.7263
23.1807961538087 50.4189
23.20370174880544 50.398
23.226430710184808 50.4681
23.249160598093425 50.7719
23.271891413539002 50.6666
23.294800752937697 50.5845
23.31753343374794 50.9036
23.340267045128353 50.9989
23.36300158808808 51.5556
23.38591468821339 51.6792
23.408651104658304 52.1607
23.431388455719986 52.7756
23.454126742409 53.2802
23.4770436196085 54.0431
23.499783787914662 54.9985
23.522524894889884 55.762
23.54526694154616 56.6274
23.56818761219047 57.6922
23.59093154860734 58.3606
23.613676427751283 59.0855
23.636422250635754 58.6367
23.659346731118656 57.3404
23.68209445191868 55.6173
23.704843119509587 53.3616
23.72759273490623 51.0854
23.750521041644767 49.6963
23.77327256312355 48.6318
23.796025035462787 48.0199
23.818956224555475 47.6202
23.841710609113413 47.4671
23.86446594758979 47.2403
23.887222241002014 46.9012
23.910157285144578 46.5689
23.932915498962537 46.534
23.955674670778713 46.3283
23.978434801611975 46.074
24.001373717286125 46.217
24.024135776723917 45.825
24.046898798245582 45.8729
24.06966278287146 45.7407
24.092605586582614 45.5724
24.115371508023642 45.4245
24.1381383956401 45.2769
24.16090625045381 45.218
24.183852958731244 45.1933
24.206622758582608 45.1171
24.229393528706886 44.8669
24.252165270127392 44.9639
24.27511589952438 44.9364
24.297889594216997 44.725
24.32066426328598 44.5478
24.34343990775613 44.4981
24.36639447485003 44.3966
24.38917208083877 44.3873
24.41195066531332 44.2677
24.43490819850244 44.4631
24.457688750692377 44.2332
24.48047028445616 44.0689
24.503252800821233 44.2074
24.526214300784112 44.2827
24.548998793132213 44.2313
24.57178427117417 44.1499
24.59457073593893 44.2435
24.617536219319863 44.0947
24.64032466834748 44.1772
24.663114107195035 44.1785
24.685904536893013 43.795
24.708874020360852 43.7425
24.731666442613744 43.677
24.754459858818787 43.5963
24.777254270007962 43.496
24.80022777025625 43.4966
24.82302418230472 43.3969
24.845821592443674 43.5585
24.86862000170663 43.4682
24.891597535453727 43.3522
24.914397953892728 43.5652
24.93719937456671 43.5454
24.96000179851076 43.8515
24.98298338249997 43.9036
25.00578782394922 43.9889
25.028593271784167 44.1666
25.05157790644186 44.5172
25.07438537804115 44.5225
25.097193859145293 44.8211
25.120003350792075 45.0188
25.142992065061257 45.3445
25.165803588823465 45.6071
25.18861612625217 45.8376
25.211429678386736 46.0721
25.234422489079968 46.0772
25.257238081693636 45.9708
25.280054692141732 45.964
25.3028723214652 45.851000000000006
25.325869245420463 46.0624
25.348688923599397 45.9936
25.371509623787006 46.1992
25.394331347025812 45.9426
25.41733240110666 45.437
25.440156181590016 45.0856
25.46298098826268 44.3916
25.48580682216873 43.7397
25.50881202326435 43.0815
25.53163992281684 42.5601
25.55446885274561 42.4185
25.577298814096377 42.0506
25.600308179121807 42.0245
25.623140214533745 42.0894
25.64597328451537 41.9153
25.66898578564376 41.6086
25.691820936010206 41.7379
25.714657124097695 41.8104
25.737494350954734 41.8489
25.760511045684957 41.6654
25.783350361364224 41.7028
25.806190718969255 41.7779
25.82903211955018 41.8476
25.852053024868923 41.7634
25.874896522722523 41.9849
25.897741066713106 41.9523
25.920586657892454 41.9565
25.943611790812668 42.1581
25.966459487728237 42.0343
25.989308234998564 42.0321
26.01215803367705 42.4596
26.03518741123814 42.4651
26.05803932412957 42.6162
26.080892291600094 42.6078
26.10374631470478 42.7466
26.12677995397268 42.7933
26.14963609978026 42.8276
26.172493304397875 42.6409
26.19535156888223 42.4916
26.218389486949604 42.0594
26.241249882640123 41.8458
26.26411134137826 41.5689
26.28715248187403 41.4872
26.31001607820869 41.3511
26.3328807407756 41.2674
26.35574647063438 41.4329
26.37879191991473 41.2876
26.401659795896734 41.3405
26.424528742360263 41.5265
26.447398760366614 41.645
26.470448535598294 41.925
26.49332070826805 42.0673
26.516193955675355 42.3052
26.53906827888316 42.4175
26.562122397260108 42.4845
26.584998883685063 42.6591
26.607876449110325 42.9258
26.63075509460056 43.1255
26.65381357334404 43.3583
26.67669439061878 43.3262
26.699576291163382 43.2748
26.722459276044212 43.1625
26.745522132402975 42.8733
26.768407297649354 42.6704
26.791293550442003 42.2637
26.814180891848974 42.0263
26.837248143099337 41.7169
26.860137673466657 41.583
26.88302829566349 41.3312
26.90592001075963 41.158
26.92899167420566 40.9842
26.951885586870763 40.6596
26.974780595655517 40.4443
26.99785558178161 40.4809
27.020752794605112 40.2997
27.043651106772522 39.9543
27.06655051935668 39.9985
27.089629948036183 39.8688
27.112531573292053 39.7931
27.135434302194138 39.8621
27.158338135817015 39.7911
27.181422024430987 39.8452
27.204328079372566 39.6676
27.22723524226965 39.7194
27.250143514198573 39.8214
27.273231880156334 39.7102
27.296142382065014 39.5122
27.319053996245536 39.53
27.341966723775965 39.6388
27.365059584515222 39.639
27.38797455070062 39.5734
27.410890633481237 39.646
27.433807833936918 39.6123
27.456905206923906 39.6092
27.47982465472398 39.4916
27.502745223449743 39.6427
27.525666914182825 39.7984
27.548768816912457 39.7557
27.571692763693633 39.7394
27.59461783573812 39.6148
27.617723149491244 39.4236
27.640650484125285 39.3189
27.66357894728264 39.2071
27.686508540048052 39.2733
27.709618414237887 39.0723
27.732550278321757 39.0465
27.755483275279115 39.1108
27.778417406196485 38.9652
27.801531858397514 38.954
27.824468269376716 38.9894
27.847405817586786 39.1099
27.870344504116094 39.2353
27.893463551932008 39.2687
27.916404527281053 39.4677
27.93934664422563 39.4333
27.962289903855886 39.4608
27.98541356491974 39.6529
28.00835912214229 39.7041
28.03130582533231 40.0354
28.054253675581805 40.1121
28.077381967556104 40.0851
28.100332124185126 40.0546
28.123283431160893 40.1345
28.146235889577238 39.9092
28.169368830154156 39.7013
28.192323603752033 39.407
28.215279532083304 39.3092
28.238415973016764 39.0501
28.261374223145094 38.8622
28.284333631303806 38.7018
28.307294198589954 38.5
28.330435319167677 38.1502
28.353398217078915 38.0568
28.376362277420153 37.7771
28.39932750129032 37.5349
28.422473319286713 37.3767
28.44544088262495 37.4551
28.468409612800283 37.327
28.491379510913497 37.0679
28.51453004413313 37.0177
28.53750229057244 36.946999999999996
28.56047570826344 36.9658
28.583450298308804 36.8213
28.606605564586562 36.5679
28.629582511831156 36.7484
28.65256063474956 36.6408
28.675539934446338 36.6671
28.698699951647605 36.5713
28.72168161743193 36.4758
28.74466446331978 36.5292
28.767648490417624 36.5627
28.790813276438353 36.455
28.813799678527303 36.5382
28.836787265157085 36.3777
28.859955641890075 36.3334
28.882945610203045 36.3403
28.905936766392035 36.1613
28.928929111566863 36.2153
28.952102288520145 36.1421
28.975097024308607 36.0811
28.998092952423807 35.9731
29.021090073977508 35.8735
29.04426806913204 35.889
29.067267590245258 35.5788
29.090268308143695 35.5413
29.11327022394099 35.4907
29.13645305530891 35.3827
29.159457379627167 35.3862
29.18246290519685 35.3826
29.20546963313352 35.2721
29.22865731875826 35.2502
29.25166646419296 35.2592
29.27467681535305 35.1539
29.29768837335608 35.2544
29.320880931312562 35.2343
29.34389491580634 35.1491
29.366910110507334 35.1237
29.38992651653503 35.1088
29.41312396492981 35.1247
29.436142806456754 35.078
29.45916286268059 35.0407
29.48236399319994 34.8924
29.50538649169417 34.7531
29.528410208259935 34.7097
29.55143514402014 34.4812
29.574641196749695 34.4491
29.597668583816574 34.2618
29.6206971934585 34.0813
29.64372702680042 34.0557
29.666938019934474 34.0107
29.689970313635285 33.9275
29.713003834422636 33.891
29.73603858342347 33.8564
29.759254535188578 33.7767
29.78229175361658 33.7201
29.80533020365064 33.7762
29.82836988641968 33.7383
29.85159081507472 33.7158
29.874632976355343 33.5752
29.89767637376955 33.6789
29.920721008448314 33.5618
29.9439469322847 33.5494
29.96699405457564 33.5092
29.9900424175358 33.523
30.013092022298157 33.3997
30.03632295963995 33.3936
30.059375061131373 33.4435
30.08242840783577 33.4418
30.105483000888153 33.482
30.128718970092244 33.2066
30.151776069006917 33.2433
30.17483441768648 33.3561
30.198074175317235 33.2687
30.221135036724256 33.3966
30.24419715131772 33.202
30.267260520236203 33.1701
30.290505341942243 33.2868
30.313571232750228 33.332
30.336638381310948 33.3026
30.35970678876503 33.2465
30.38295669299435 33.1071
30.40602763151657 33.0724
30.429099832366074 33.1164
30.452173296685572 32.9602
30.47542830191959 32.9365
30.498504306502497 32.8691
30.521581577995562 32.9585
30.544660117543582 33.0485
30.56792024229725 33.0749
30.59100133132069 32.8775
30.614083691845494 32.9666
30.637167325018545 33.0706
30.660432587840603 33.1156
30.683518779717886 33.0028
30.70660624769615 33.1034
30.729694992924372 33.1552
30.75296541239743 33.1069
30.77605672557558 33.0535
30.799149319462742 33.0009
30.8224236211637 32.8122
30.845518789950724 32.6983
30.868615242910597 32.692
30.891712981195973 32.5192
30.91499247215866 32.5278
30.938092794619365 32.4458
30.96119440587579 32.4578
30.984297307082752 32.2818
31.00758200598383 32.2103
31.030687500658694 32.0831
31.053794288760695 32.0682
31.076902371446767 32.0401
31.100192296997445 31.9453
31.12330298246119 31.9847
31.14641496599209 31.8222
31.169528248749216 31.8678
31.19282341969534 31.7573
31.215939314557186 31.8759
31.239056512134788 31.8862
31.262175013589378 31.7222
31.28547544871168 31.7446
31.30859657161541 31.6359
31.331719001892175 31.756999999999998
31.35484274070538 31.750999999999998
31.378148458819545 31.7163
31.401274828443725 31.7974
31.424402510106933 31.7282
31.447712205419993 31.7676
31.470842524931633 31.6871
31.493974159989783 31.7501
31.51710711176168 31.5898
31.54042212308802 31.5921
31.563557722100917 31.6492
31.586694641341655 31.4734
31.609832881979628 31.3568
31.63315322823208 31.3406
31.656294125521327 31.1577
31.679436347728515 31.1252
31.70257989602529 31.1203
31.725905596152327 31.0673
31.74905181052835 31.0076
31.772199354521323 31.0313
31.79534822930507 31.0765
31.818679302290967 31.0104
31.84183085259981 31.0388
31.864983737233473 30.9103
31.88813795736804 30.9611
31.911474422233013 30.9748
31.934631327356435 30.9711
31.9577895715215 30.8367
31.980949155906522 30.8841
32.004291031706956 30.8428
32.027453310562606 30.7399
32.05061693318573 30.6328
32.07396288236386 30.6697
32.09712920658542 30.5565
32.12029687812702 30.3983
32.14346589817093 30.3259
32.166817291729984 30.4106
32.18998902288583 30.263
32.21316210610336 30.0788
32.23633654256711 30.0532
32.259693399663725 30.0745
32.282870556771144 30.0497
32.30604907069099 29.9494
32.329228942610065 29.9172
32.35259128243769 29.8044
32.375773884550505 29.7591
32.398957848235646 29.7531
32.422143174682176 29.7339
32.445511016471215 29.5845
32.468699082679954 29.5787
32.49188851523011 29.5441
32.51507931531304 29.4126
32.538452678331 29.4044
32.56164622776311 29.2887
32.58484114831493 29.3177
32.60803744118015 29.2674
32.631416344731896 29.226
32.654615396551876 29.2557
32.67781582427913 29.2424
32.701198898634416 29.1359
32.72440209253756 29.0852
32.747606665947124 29.1265
32.77081262006088 28.9723
32.79420126883317 28.9452
32.81740999876112 28.9597
32.840620112999424 28.8626
32.86383161274818 28.881999999999998
32.88722585534586 28.8848
32.91044014056596 28.8499
32.933655814909734 28.7592
32.95687287957963 28.8235
32.98027273544904 28.7178
33.00349259526636 28.6584
33.026713849030116 28.6956
33.04993649794511 28.6381
33.073341986570746 28.5614
33.09656744032826 28.5795
33.11979429286444 28.5115
33.14302254538647 28.5199
33.166433686291185 28.4523
33.18966475336992 28.3963
33.212897224069096 28.3326
33.23613109959831 28.4231
33.259547912343415 28.3252
33.2827846121627 28.2618
33.306022720453775 28.1835
33.32926223842861 28.1847
33.352684742614166 28.1512
33.37592709463173 28.1679
33.399170859982064 28.0578
33.422597648419426 27.9511
33.44584425514446 27.9463
33.46909227885668 27.8631
33.4923417207723 27.7203
33.51577423505344 27.79
33.539026528130385 27.6545
33.56228024307245 27.6283
33.585535381098246 27.5008
33.60897364093058 27.5539
33.63223163992385 27.5368
33.6554910656699 27.5033
33.678751919389796 27.4679
33.702195944520106 27.3172
33.72545966903325 27.3739
33.74872482519663 27.2542
33.771991414233746 27.2019
33.79544122444841 27.1945
33.81871069412428 27.1152
33.84198160035767 27.0918
33.86525394437455 27.1202
33.88870955949969 26.9859
33.911984794020626 27.0385
33.93526147001624 27.0259
33.958539588715006 26.9886
33.98200102861669 26.8084
34.0052820477047 26.779
34.02856451319451 26.8005
34.05203033759056 26.6945
34.07531571090147 26.6883
34.09860253431845 26.7033
34.121890809074316 26.581999999999997
34.145362493118924 26.6357
34.16865368561615 26.5854
34.191946333164054 26.4286
34.21524043699793 26.5321
34.23871800066799 26.4762
34.26201503218366 26.3474
34.28531352370466 26.3408
34.30861347646881 26.2556
34.33209693978188 26.2508
34.3553998301885 26.2199
34.378704185565205 26.1536
34.402010007152356 26.1175
34.42549939016683 26.0645
34.44880815937748 26.03
34.472118398533134 25.9905
34.49543010887669 25.9154
34.51892543169198 25.7672
34.54224009966052 25.8667
34.56555624255917 25.8415
34.58887386163339 25.6792
34.61237514439016 25.6511
34.6356957311114 25.7448
34.65901779775809 25.6919
34.68252356662995 25.6333
34.705848608458616 25.5557
34.72917513396849 25.5134
34.75250314440949 25.4941
34.77601490857862 25.3959
34.799345904259795 25.4525
34.82267838863559 25.3674
34.846012362958525 25.3257
34.869530142679984 25.2827
34.89286711232212 25.2
34.91620557568269 25.1804
34.93954553401677 25.1695
34.9630693495876 25.1274
34.986412313340814 25.2022
35.00975677584668 25.2332
35.033102738362956 25.0597
35.05663261012228 25.049
35.0799815881786 24.9361
35.10333207003229 24.9681
35.12668405694369 25.0007
35.150220005273056 24.9999
35.17357501786656 24.879
35.19693153931268 24.8841
35.220289570874385 24.8286
35.24383161619786 24.8282
35.267192683604904 24.8016
35.290555264930376 24.7969
35.314101899412165 24.7463
35.33746752422433 24.6558
35.36083466676374 24.7103
35.38420332829803 24.7678
35.407756095629054 24.6358
35.43112781085063 24.5985
35.45450104888391 24.5581
35.477875810999194 24.6238
35.50143473172161 24.4962
35.52481255774625 24.5092
35.54819191167777 24.4811
35.57157279478914 24.4161
35.595137889488406 24.4037
35.61852184675279 24.3295
35.641907337029984 24.3454
35.665294361595684 24.2956
35.68886565090076 24.1768
35.7122557598848 24.1278
35.73564740699838 24.2362
35.759040593519934 24.1368
35.78261809810353 24.0797
35.80601437933051 23.9889
35.829412203814705 24.0331
35.85281157283719 23.8823
35.876395313415884 23.8699
35.8997977874528 23.8399
35.92320180988546 23.8107
35.946790244133936 23.6548
35.97019737933222 23.6584
35.993606066789866 23.6854
36.01701630779276 23.7228
36.04061101440684 23.6381
36.06402437852291 23.6255
36.08743930005611 23.6406
36.1108557802951 23.4692
36.13445678011326 23.4977
36.15787639383515 23.4271
36.18129757014299 23.4405
36.20472031032821 23.3885
36.22832762423364 23.2745
36.25175350829375 23.3136
36.275180960119776 23.2804
36.298609981005924 23.3059
36.32222362992669 23.3222
36.34565580510207 23.2449
36.36908955323448 23.1877
36.39252487562093 23.0309
36.416144880530226 23.0193
36.43958336764275 23.0357
36.463023432914625 23.0644
36.486465077645676 22.9791
36.51009145956204 23.0852
36.53353627947859 22.9653
36.55698268276811 22.9046
36.58043067073321 22.8679
36.60406345072071 22.8081
36.62751462435344 22.8146
36.65096738658405 22.7951
36.67460498210655 22.6711
36.69806093788647 22.6415
36.72151848619297 22.6443
36.744977628333636 22.6755
36.76862165890998 22.5112
36.79208400512205 22.5149
36.81554794910557 22.4793
36.83901349217101 22.4006
36.862663978991606 22.3678
36.88613273667352 22.4508
36.90960309738324 22.4141
36.933075062434064 22.2868
36.95673202673572 22.3712
36.98020721697122 22.3311
37.003684015502365 22.2131
37.027162423645365 22.2008
37.050825886711465 22.162
37.07430753063053 22.1069
37.09779078812467 22.0052
37.121275660513014 22.0444
37.144945643673694 21.9944
37.16843376245278 21.9762
37.19192350009803 22.0049
37.215414857931435 21.9523
37.239091382563885 21.8354
37.262585997426164 21.8436
37.28608223645736 21.838
37.309763684451696 21.7579
37.33326318851098 21.7638
37.356764320726555 21.6613
37.380267082425526 21.7342
37.40395510942588 21.6235
37.42746114683234 21.5976
37.45096881771841 21.5624
37.474478123414166 21.5754
37.49817275092816 21.5063
37.52168534303452 21.474
37.54519957395567 21.4084
37.568715445024665 21.4007
37.592416694607714 21.381999999999998
37.61593586281424 21.3874
37.63945667518264 21.375
37.66297913304891 21.2833
37.68668702630454 21.3125
37.710212792059274 21.2113
37.733740207334854 21.1981
37.757269273470364 21.138
37.780983832050374 21.1019
37.80451621684926 21.0818
37.82805025654007 21.0119
37.851585952464795 20.9869
37.8753071980695 20.96
37.89884622345676 20.8823
37.92238690911902 20.8751
37.94611318753442 20.8689
37.969657210779765 20.8461
37.99320289834801 20.8133
38.016750251586465 20.7373
38.04048325513017 20.6829
38.06403395679343 20.7291
38.087586328183946 20.6837
38.11114037065203 20.6479
38.13488012115898 20.6614
38.1584375229181 20.5993
38.181996599821 20.5744
38.205557353221124 20.5237
38.229303872575656 20.5051
38.2528679961576 20.4704
38.27643380031219 20.405
38.30000128639589 20.3578
38.32375459653193 20.4192
38.34732546371299 20.3417
38.37089801690786 20.2633
38.39447225747609 20.2027
38.418232380377425 20.1934
38.441810012983396 20.2171
38.46538933705673 20.1409
38.488970353960084 20.1436
38.51273731166058 20.1053
38.536321731567014 20.0468
38.55990784840681 19.9791
38.58367995004091 19.9571
38.60726947812959 19.9068
38.63086070726198 19.9254
38.654453638806274 19.9613
38.678232613930824 19.861
38.70182896773327 19.8257
38.72542702806741 19.743
38.7490267963045 19.7842
38.77281266709232 19.6962
38.79641586862214 19.7048
38.8200207821842 19.7059
38.843627409152944 19.6781
38.86742019782782 19.5931
38.891030269149255 19.5913
38.914642058016156 19.58
38.938255565806124 19.5543
38.96205529464307 19.459
38.98567225787121 19.4148
39.00929094417078 19.4265
39.03291135492255 19.4324
39.05671804624804 19.5089
39.080341923549106 19.3961
39.103967529460334 19.3248
39.127594865365744 19.2502
39.15140854155791 19.2517
39.17503935514948 19.2125
39.19867190290282 19.1952
39.22249083587951 19.1296
39.24612686969409 19.079
39.269764641845306 19.1083
39.293404153722804 19.0698
39.317230110864074 18.9608
39.34087311998506 18.9554
39.36451787301696 19.0098
39.388164371352595 18.9018
39.41199737518003 18.9074
39.43564738196752 18.8612
39.45929913825317 18.847
39.48295264543308 18.8301
39.506792718520884 18.7835
39.530449745387216 18.7938
39.55410852735203 18.7066
39.57776906581474 18.7283
39.60161623079 18.6652
39.625280300200025 18.629
39.64894613032202 18.5616
39.67261372255866 18.6104
39.6964680021016 18.5443
39.72013913657293 18.546
39.74381203738292 18.5339
39.76748670593756 18.4638
39.79134812278169 18.3947
39.81502634488497 18.3834
39.83870633896685 18.4031
39.862388106436654 18.3514
39.88625668336918 18.3736
39.90994201572829 18.3656
39.933629125719285 18.2369
39.957503091207826 18.2374
39.9811937746168 18.2993
40.00488623990914 18.1971
40.02858048850006 18.1573
40.05246165409549 18.128
40.076159487492085 18.1241
40.099859108448875 18.0632
40.123560518384345 18.0405
40.1474489070226 18.0622
40.171153913178564 18.0206
40.194860712584955 17.9436
40.2185693066637 17.8753
40.242464941335314 17.8307
40.26617714307655 17.8453
40.289891143772046 17.8334
40.3136069448471 17.8287
40.33750984859743 17.82
40.3612292688043 17.724
40.3849504936829 17.6579
40.40867352466194 17.6288
40.43258372059144 17.6164
40.45631038219906 17.6942
40.48003885420956 17.6272
40.503769138055105 17.5814
40.52768664931955 17.5779
40.55142057531802 17.5564
40.57515631746428 17.4888
40.599079334038514 17.4492
40.62281872700477 17.3947
40.64655994043941 17.37
40.67030297578061 17.3628
40.69423334835778 17.3561
40.71798004609188 17.3153
40.74172857006355 17.2386
40.76547892171441 17.2788
40.7894166736039 17.2776
40.813170699248566 17.2073
40.83692655691388 17.2258
40.86068424804498 17.2385
40.884629402612525 17.1713
40.908390779366385 17.1549
40.932153993938 17.0828
40.95591904777605 17.1048
40.979871628443995 17.0663
41.003640379561936 17.0762
41.02741097430883 16.9945
41.05118341413683 16.9903
41.075143444384416 16.9162
41.098919593177826 16.8977
41.1226975914255 16.8632
41.14647744058318 16.8941
41.170444943946755 16.7919
41.19422851378379 16.8015
41.218013938914645 16.7591
41.24198706625173 16.6713
41.26577622087193 16.6894
41.289567235177785 16.6323
41.31336011063129 16.5994
41.337340752422875 16.5656
41.361137369129835 16.6226
41.38493585138705 16.5623
41.40873620066004 16.5092
41.43272438060107 16.5377
41.45652848292052 16.4373
41.48033445666918 16.4146
41.50414230331616 16.4507
41.528138045159764 16.3962
41.551949656675205 16.3259
41.575763145513235 16.3162
41.59957851314666 16.3061
41.62358184070442 16.2603
41.64740098505737 16.2341
41.6712220126409 16.2002
41.69504492493139 16.2036
41.71905586207357 16.1437
41.74288256296395 16.0907
41.766711153007456 16.1317
41.79054163368412 16.1193
41.814560204340054 16.0902
41.838394485526365 16.0677
41.86223066180303 16.0158
41.88625497706819 16.0394
41.910094962812 15.9624
41.93393684811168 15.9118
41.95778063445365 15.8374
41.981812625263366 15.8942
42.00566023303407 15.8534
42.029509746323676 15.8087
42.05336116662236 15.7955
42.077400857069705 15.7966
42.10125611078846 15.7663
42.12511327600405 15.7298
42.14897235421036 15.6881
42.173019768448455 15.642000000000001
42.19688269209613 15.668
42.22074753323349 15.6327
42.24461429335818 15.5686
42.268669455600495 15.5514
42.292540073217886 15.5451
42.31641261433284 15.5326
42.34028708044675 15.4677
42.36435001496739 15.4395
42.38822835065557 15.4786
42.41210861586426 15.4049
42.4359908120986 15.3907
42.46006154323262 15.3776
42.48394762115317 15.3223
42.507835634632315 15.324000000000002
42.531912233047436 15.2268
42.55580413732265 15.2225
42.579697981698 15.219000000000001
42.60359376768525 15.1816
42.62767820545945 15.1791
42.65157789440821 15.1654
42.67547952952185 15.1229
42.699383112316 15.1086
42.72347541395347 15.0377
42.74738291190531 15.0164
42.771292362102166 15.0194
42.795203766063516 14.9923
42.819303956130405 14.9593
42.843219287476536 14.959000000000001
42.86713657716324 14.935
42.89105582671383 14.8674
42.91516392983864 14.8507
42.939087119032166 14.8358
42.963012272677304 14.8008
42.98693939230129 14.751
43.01105543317513 14.754000000000001
43.034986504731386 14.7309
43.05891954686589 14.6682
43.08285456110972 14.613
43.10697856448665 14.6487
43.130917542983475 14.6008
43.15485849820081 14.623
43.17880143167367 14.519
43.20293342237094 14.5199
43.226880332449 14.5376
43.25082922540554 14.498
43.27496722682525 14.446
43.29892010567796 14.4537
43.32287497204102 14.4292
43.34683182745632 14.3939
43.370977859791836 14.3549
43.39493871351105 14.3504
43.41890156092628 14.3179
43.44286640358341 14.2637
43.46702049182749 14.2773
43.49098934522816 14.2577
43.51496019852649 14.2132
43.5389330532723 14.1849
43.56309522248204 14.175999999999998
43.58707210044314 14.1954
43.61105098451946 14.0451
43.63503187626491 14.0878
43.659202151562134 14.0537
43.68318707902681 14.0831
43.70717401884041 14.0593
43.731162972560874 13.985999999999999
43.75534137913236 13.9689
43.779334381108384 13.9855
43.803329401683186 13.9481
43.82732644241872 13.9382
43.8515130055166 13.8965
43.87551410707659 13.8528
43.89951723350145 13.8694
43.923709934595614 13.8065
43.94771713129917 13.784
43.97172635758096 13.7562
43.99573761501002 13.763
44.0199385169922 13.7272
44.04395385732619 13.6849
44.067971233533086 13.7174
44.09199064718605 13.685
44.11619977548961 13.6176
44.14022328470671 13.5612
44.16424883610785 13.6003
44.18827643127035 13.6001
44.21249381139513 13.5419
44.236525514814076 13.5077
44.26055926674478 13.482000000000001
44.28459506876863 13.4397
44.3088207262813 13.3668
44.33286064928722 13.4133
44.35690262714919 13.4117
44.38094666145278 13.2911
44.4051806219871 13.3819
44.42922879003185 13.3154
44.45327901929361 13.2827
44.477331311362136 13.2663
44.501573600619416 13.2361
44.525630039221795 13.2198
44.54968854541895 13.2158
44.573937102200176 13.1885
44.5979997645541 13.2137
44.622064499300315 13.1505
44.64613130803592 13.0623
44.67038823869318 13.0722
44.69445921643748 13.0466
44.718532272981385 12.9691
44.742607409926194 12.9529
44.76687274034801 12.9582
44.79095205918753 12.9345
44.81503346325094 12.9377
44.839116954143876 12.9025
44.86339071028742 12.9164
44.88747839599524 12.8749
44.91156817336837 12.8324
44.93566004401666 12.8456
44.959942251908146 12.8435
44.984038330325966 12.7752
45.00813650686762 12.7336
45.03223678314731 12.742
45.05652746888232 12.6973
45.08063196592069 12.685
45.104738567558705 12.6207
45.128847275414856 12.6431
45.15314646515866 12.612
45.17725940679741 12.6515
45.20137445952892 12.5702
45.22568004865265 12.6065
45.24979934496396 12.5674
45.27392075725247 12.5226
45.29804428714431 12.4862
45.322358426247604 12.4536
45.346486212804315 12.4577
45.370616121861914 12.475
45.39474815505086 12.4545
45.41907087049246 12.3747
45.4432071734666 12.3413
45.46734560548283 12.3328
45.49148616817604 12.3511
45.51581748638564 12.3005
45.5399623320197 12.2521
45.56410931325473 12.2786
45.58825843173002 12.265999999999998
45.61259837920865 12.2283
45.636751793816 12.2119
45.66090735060093 12.1583
45.68506505120716 12.1245
45.7094136545275 12.1103
45.73357566449271 12.0599
45.75773982322992 12.1052
45.78190613238733 12.0775
45.806263418194064 12.0207
45.83043404997326 12.0262
45.85460683713677 12.0072
45.87897065658495 11.9907
45.90314777634752 11.9375
45.92732705646868 11.9593
45.9515084986045 11.8834
45.97588104735473 11.8781
46.00006683541565 11.8655
46.02425479047904 11.8435
46.04844491420549 11.7838
46.0728262191024 11.8569
46.09702070211635 11.8265
46.12121735879483 11.7351
46.14541619080294 11.7093
46.169806278764455 11.7212
46.194009483459034 11.7224
46.21821486849841 11.683
46.24242243555223 11.677
46.266821333570014 11.6349
46.29103328674601 11.6232
46.31524742696538 11.6421
46.33946375590237 11.5831
46.36387149104216 11.5912
46.38809221957392 11.5062
46.41231514186606 11.5016
46.436540259597464 11.4965
46.460956858999374 11.4492
46.48518638983522 11.4513
46.509418121166966 11.4468
46.533652054678114 11.3841
46.55807754555709 11.3524
46.58231590571962 11.3728
46.60655647313217 11.3253
46.630988654873654 11.3102
46.655233659129024 11.2793
46.67948087571551 11.2211
46.70373030632484 11.2301
46.72817142736393 11.2285
46.752425308428684 11.2044
46.77668140861147 11.165999999999999
46.80093972960865 11.130999999999998
46.82538981736788 11.1351
46.849652602470904 11.0963
46.87391761349769 11.0829
46.8981848521493 11.083
46.9226439341274 11.0453
46.946915650573224 10.9898
46.97118959976749 10.985
46.99546578341598 10.9928
47.019933887188216 10.953
47.04421456235744 10.9826
47.06849747711879 10.9663
47.09278263318286 10.9026
47.11725978640143 10.8533
47.14154944775105 10.8909
47.165841355555656 10.8489
47.1901355115306 10.8168
47.214621741924994 10.8074
47.23892041698887 10.799000000000001
47.26322134538975 10.7434
47.28771440635075 10.7559
47.31201986422527 10.7058
47.33632758061436 10.6925
47.360637557241866 10.6996
47.38513974410611 10.7137
47.40945426407847 10.6748
47.43377104948137 10.6573
47.45809010204344 10.6201
47.48260144275502 10.5951
47.506925052572285 10.5644
47.53125093475548 10.542
47.55557909103813 10.5818
47.58009961361992 10.5154
47.60443234110732 10.4655
47.62876734791564 10.5055
47.65310463578333 10.4408
47.6776343683373 10.4454
47.7019762413987 10.4605
47.72632040075572 10.3961
47.75066684815169 10.4019
47.77520581885936 10.3696
47.799556865477655 10.3625
47.823910205386 10.3403
47.84826584033272 10.3148
47.87281407745551 10.2606
47.89717432569297 10.2833
47.92153687423484 10.2771
47.94609208429692 10.2288
47.97045925671401 10.1982
47.99482873471275 10.1933
48.01920052005013 10.171
48.04376504619224 10.2033
48.068141469543484 10.1488
48.09252020552573 10.131
48.11690125590099 10.0825
48.1414751266064 10.083
48.16586082917454 10.0919
48.19024885144316 10.0762
48.2146391951793 10.0348
48.239222439012764 10.039
48.26361744916137 10.0105
48.28801478610016 10.0116
48.31241445160131 10.0003
48.337007097209366 9.95932
48.36141144338331 9.9567
48.38581812345755 9.895
48.41022713920929 9.918619999999999
48.434829215320704 9.89879
48.45924292604658 9.91531
48.48365897780325 9.89825
48.50807737237308 9.81738
48.532688907799276 9.80025
48.55711201168574 9.77785
48.581537463754074 9.76752
48.60615611725119 9.76765
48.63058628942721 9.75795
48.65501881516546 9.73207
48.6794536962573 9.71032
48.70408185970339 9.6999
48.72852147531801 9.67607
48.75296345168211 9.68175
48.77740779059232 9.65156
48.80204549302823 9.643289999999999
48.82649458091802 9.57905
48.85094603676547 9.57057
48.87539986237231 9.55189
48.90004713292306 9.54376
48.92450572200832 9.51318
48.94896668628025 9.453619999999999
48.97343002754588 9.47536
48.99808689542115 9.47834
49.02255501470614 9.48877
49.04702551642794 9.44252
49.0714984023988 9.44791
49.096164896893235 9.42723
49.120642575466796 9.36182
49.145122643748394 9.37519
49.16960510355558 9.362739999999999
49.19428125404938 9.329410000000001
49.2187685210852 9.33394
49.243258185121555 9.31886
49.26794160167084 9.28328
49.2924360839405 9.24648
49.31693296869764 9.24521
49.34143225776915 9.22447
49.36612538195438 9.18795
49.39062950396021 9.193489999999999
49.41513603578346 9.1604
49.4396449792564 9.145010000000001
49.46434784069503 9.13279
49.488861631846454 9.11171
49.513377840166804 9.119660000000001
49.537896467493745 9.072189999999999
49.56260909589029 9.0328
49.587132585683285 9.062380000000001
49.611658500018365 9.03814
49.636186840738596 8.98024
49.66090926588511 8.97868
49.685442483902584 8.95697
49.70997813385706 8.93257
49.734516217597076 8.9274
49.75924846937352 8.92356
49.7837914452858 8.90348
49.80833686055187 8.88321
49.83288471702571 8.85796
49.85762682540054 8.87538
49.882179588965734 8.80804
49.9067347993235 8.80162
49.93129245833333 8.78306
49.95604445336378 8.75469
49.98060703442832 8.76965
50.005172069746266 8.74306
50.02993150438364 8.71754
50.05450147301533 8.73903
50.07907390151433 8.6735
50.10364879174981 8.655560000000001
50.12841816587289 8.62812
50.1529980044635 8.65435
50.17758031042124 8.60725
50.20216508562089 8.58067
50.22694442953363 8.5963
50.25153416817468 8.566189999999999
50.27612638170508 8.574489999999999
50.300721072005196 8.53539
50.325510416102105 8.52755
50.350110084975064 8.52782
50.37471223628208 8.53355
50.39931687190919 8.4646
50.424116246675766 8.46982
50.44872587605249 8.461210000000001
50.47333799543065 8.419310000000001
50.49795260670191 8.39675
50.52276204271512 8.37388
50.54738166295838 8.40373
50.57200378079314 8.42624
50.596628398116835 8.32837
50.62144792604559 8.32615
50.646077567609396 8.33812
50.670709714377715 8.33256
50.69553683636198 8.27053
50.72017401885922 8.24841
50.7448137122895 8.27735
50.76945591856022 8.254669999999999
50.79429318636823 8.220369999999999
50.818940443716784 8.24879
50.84359021965163 8.21873
50.868242516085964 8.197289999999999
50.893089960641895 8.1879
50.917747323549435 8.12658
50.94240721271973 8.125
50.96706963007175 8.11989
50.99192728239342 8.11686
51.01659478166073 8.085180000000001
51.04126481489051 8.05294
51.06593738400761 8.06201
51.090805275207074 8.03764
51.11548294172845 8.01972
51.14016314993547 8.00351
51.164845901758845 7.992310000000001
51.18972406304274 7.97725
51.21441192780656 7.921530000000001
51.23910234200271 7.932060000000001
51.2637953075678 7.9077399999999995
51.288683770237945 7.91909
51.31338186432707 7.9116800000000005
51.33808251561888 7.8783199999999995
51.362978729967345 7.85325
51.387684521509755 7.85027
51.41239287610203 7.83767
51.437103795691165 7.80087
51.46201036644977 7.757000000000001
51.486726441956634 7.76629
51.51144508832545 7.76415
51.536166307509156 7.73641
51.56108326624387 7.7021
51.58580965706056 7.6884
51.61053862657523 7.6943399999999995
51.635270176746864 7.686139999999999
51.66019755512065 7.65499
51.68493429268881 7.60825
51.70967361681515 7.63553
51.73441552946465 7.64038
51.759353359237934 7.5994
51.7841004750961 7.593380000000001
51.80885018539685 7.58133
51.833602492111254 7.573989999999999
51.8585508051424 7.53348
51.883308330926425 7.47438
51.90806845906181 7.50604
51.932831191525715 7.47899
51.95779001977161 7.45719
51.98255798721516 7.44722
52.00732856494335 7.429460000000001
52.03229530577543 7.39193
52.057071130455945 7.4139
52.081849571391054 7.42063
52.106630630568695 7.38638
52.13160794279417 7.35917
52.15639426492067 7.3608
52.18118321127822 7.33652
52.205974783860896 7.31054
52.23096269971011 7.286410000000001
52.255759551287994 7.287310000000001
52.280559035098186 7.24337
52.30536115314103 7.24874
52.33035970494467 7.236269999999999
52.35516711807904 7.215660000000001
52.37997717147198 7.21528
52.40478986713005 7.21915
52.42979908731974 7.215660000000001
52.454617094216 7.16705
52.47943774942214 7.158189999999999
52.50426105495102 7.12604
52.529280976059844 7.10977
52.554109609024096 7.104030000000001
52.57894089837482 7.0967899999999995
52.60377484613117 7.085610000000001
52.62880550079408 7.07667
52.65364479223379 7.033460000000001
52.67848674816189 7.0015
52.70352547971946 7.0077
52.72837279155837 7.009469999999999
52.753222773982785 6.973310000000001
52.778075429022984 6.9764
52.80312495150885 6.95217
52.827982978797436 6.96893
52.85284368481815 6.94004
52.87770707160767 6.93363
52.90276741793998 6.9002300000000005
52.92763619336701 6.89757
52.952507655698504 6.892289999999999
52.977381806977576 6.8809
53.00245301017842 6.84508
53.02733256653592 6.83363
53.052214817996074 6.83165
53.077099766608484 6.81566
53.102181859804446 6.7743
53.127072229988265 6.7977300000000005
53.15196530349892 6.79957
53.17686108239249 6.7505
53.20195409881522 6.717910000000001
53.22685531582556 6.72934
53.25175924441303 6.6835
53.27666588664027 6.707260000000001
53.30176985962693 6.68633
53.3266819565689 6.62403
53.35159677336455 6.63932
53.376514312083096 6.63967
53.40162927507703 6.61658
53.42655228516116 6.60388
53.45147802340193 6.58668
53.47660125628886 6.55638
53.50153247842639 6.53483
53.52646643496923 6.5421
53.55140312799818 6.5441199999999995
53.576537409691696 6.5343800000000005
53.60147960336152 6.52031
53.626424539786164 6.47611
53.65137222105307 6.480519999999999
53.67651758529126 6.46542
53.70147078399681 6.445
53.72642673383343 6.38964
53.75138543689533 6.4265099999999995
53.776541917524526 6.429069999999999
53.801506154876755 6.42235
53.826473151763246 6.3791199999999995
53.851442910284916 6.347180000000001
53.87661054126026 6.33016
53.9015858509782 6.33405
53.92656392866066 6.33558
53.95154477641532 6.32786
53.976723591801296 6.27645
54.00171000771266 6.27575
54.02669920004598 6.2431
54.051691170915745 6.27923
54.076881204886796 6.22274
54.101878760928514 6.20769
54.12687910187696 6.1904900000000005
54.152077577768296 6.19106
54.1770835166946 6.17955
54.20209224691339 6.16295
54.22710377055121 6.17499
54.25231352511594 6.11154
54.27733066384342 6.10035
54.30235060239643 6.08836
54.32737334290836 6.05035
54.35259441062629 6.01932
54.377622783395324 6.0364
54.40265396455061 6.04788
54.42768795623251 5.98054
54.45292037169559 5.9659699999999996
54.477960012857906 5.99448
54.50300247099511 5.9459
54.52804774825457 5.95259
54.55329154616743 5.916919999999999
54.57834249018678 5.91104
54.6033962597977 5.87787
54.6284528571545 5.8669400000000005
54.653708072335164 5.8567599999999995
54.67877035378786 5.83056
54.70383546947698 5.7983
54.72890342156389 5.7847800000000005
54.7541700889442 5.7492
54.77924374251975 5.74787
54.8043202390049 5.72586
54.82959552413022 5.661230000000001
54.8546777351945 5.6683900000000005
54.87976279569621 5.64941
54.90485070780914 5.6519900000000005
54.930137506558005 5.61434
54.95523115074295 5.62438
54.98032765308844 5.5549599999999995
55.005427015775496 5.51259
55.03072536339621 5.54859
55.05583047570572 5.5401
55.080938454927676 5.51001
55.10604930325027 5.4699800000000005
55.131359235107396 5.50138
55.15647585066083 5.45448
55.181595341907496 5.42395
55.20671771104285 5.4116599999999995
55.232039262617704 5.36391
55.25716741665048 5.37518
55.28229845518636 5.33084
55.30743238042802 5.2712900000000005
55.33276558731939 5.29031
55.357905315183636 5.30904
55.383047936390035 5.24106
55.40819345314859 5.26576
55.433538351073295 5.15367
55.458689688238415 5.21338
55.483843927614096 5.13776
55.509197623043605 5.11862
55.53435769621134 5.103269999999999
55.55952067826466 5.04574
55.5846865714265 5.00645
55.61005202069737 5.01503
55.63522376553902 5.02877
55.66039842818645 4.987419999999999
55.68557601087004 4.98378
55.7109532500271 4.95245
55.73613670233794 4.96617
