TT I
1.2716486653135266 8.11922
1.2939594142134223 7.78147
1.3162702121660406 7.9695
1.3385810600174564 7.35722
1.3608919586137629 6.59927
1.383202908801069 6.815060000000001
1.405513911425503 6.77434
1.4278249673332093 6.71877
1.4501343378461518 6.1566
1.4724455028545926 6.36027
1.4947567236847858 6.107480000000001
1.517068001182951 6.34588
1.5393793361953272 6.42491
1.5616907295681737 6.57349
1.5840021821477681 5.68119
1.60631369478041 5.75654
1.6286252683124185 5.1909
1.6509369035901333 5.0685199999999995
1.6732468618895553 5.27315
1.695558623192809 5.05549
1.7178704487808514 5.23567
1.7401823395001077 5.48024
1.7625012545597203 5.37028
1.7848028405262486 5.00283
1.8071218901122095 5.54605
1.8294236121921872 5.19463
1.8517427996910911 5.51347
1.8740620574440425 5.29079
1.8963639900671978 5.38774
1.9186833908139995 5.021719999999999
1.9409854680117449 5.10784
1.9633050151394713 5.36592
1.9856246367570705 4.99196
2.0079269371922672 4.97229
2.03024671027244 4.90803
2.0525491637446027 5.26904
2.074869091674931 4.72547
2.097171701569106 4.64893
2.1194917877373847 4.91445
2.141811954326636 4.69324
2.164114805233074 4.8173900000000005
2.186435135143035 4.53236
2.208738150935709 4.9580400000000004
2.231058647554722 4.0567
2.2533792288321184 4.482130000000001
2.275682498336085 4.6778
2.298003251406138 4.80106
2.3203066942619714 4.75357
2.3426276225136022 4.88695
2.3649486396617507 4.4966800000000005
2.387252348930071 4.628430000000001
2.4095735463442893 4.42566
2.4318774374315884 5.40448
2.4541988185014043 5.1763
2.476502894794693 5.08519
2.498824462909887 4.50036
2.521146125856138 4.63509
2.5434504863470337 4.76034
2.5657723414244717 5.02602
2.588076895590662 5.41021
2.610398946189713 6.39856
2.6327210958598384 5.732819999999999
2.6550259469304716 5.8926300000000005
2.6773482972090137 6.17351
2.6996533504259 6.09279
2.7219759047039602 6.54154
2.744298562293959 7.23275
2.7666039251246595 6.98287
2.7889267918020164 6.85565
2.8112323652516555 7.24569
2.833555444408179 7.36785
2.8558786311183852 7.41153
2.8781845268938557 7.744860000000001
2.9005079311721484 8.73967
2.9228140460410397 7.99943
2.9451376712799635 8.66622
2.967444008632326 9.09947
2.9897678582247247 9.186110000000001
3.0120918213106695 10.4993
3.0343984987899373 10.8678
3.0567226913198637 11.0796
3.079029599759726 11.2515
3.101354025127254 12.377
3.123678568232338 12.4431
3.145985829517914 13.0726
3.16831061055229 13.593
3.1906181112775593 14.0346
3.212943133635653 14.779000000000002
3.2352682779763207 15.302999999999999
3.2575761442691227 15.5146
3.2799015350264273 15.456
3.302209649240067 15.9135
3.3245352898092655 16.8681
3.3468436553365257 17.5091
3.369169549113219 18.1009
3.3914955708171384 18.6268
3.413804319727358 19.2273
3.4361305997334863 19.5593
3.4584396084414553 19.5007
3.4807661501462652 20.0718
3.503092824025881 20.5624
3.5254022288463154 21.0588
3.5477291695206588 21.4063
3.5700388426251948 21.4924
3.5923660534916446 22.2357
3.6146934007816114 22.5859
3.637003482731501 23.2092
3.6593311053109985 23.6735
3.681641464033634 23.948
3.7039693653009733 24.3366
3.726297407241705 25.4697
3.7486081875460804 25.5303
3.7709365132734978 26.3949
3.793247578841633 26.6062
3.8155761917550093 26.8298
3.8378875459837216 27.2108
3.8602164494827234 27.8682
3.882545499606844 28.7578
3.9048572932539183 29.1945
3.9271866390645718 29.551
3.9494987298666713 30.0924
3.971828374764527 30.9499
3.9941581705403255 30.7981
4.016470713506008 31.5649
4.038800813471445 32.3136
4.061113662089144 33.1098
4.0834440696459176 33.9978
4.105774632334751 34.3777
4.128087945865126 34.8006
4.150418821249301 35.3369
4.172732448931298 36.317
4.195063640413578 37.1334
4.2173775856475215 38.2753
4.239709096631102 38.8787
4.262040768704612 38.9716
4.284355196706267 39.4585
4.306687193387355 40.5106
4.329001947444346 41.7318
4.35133427213731 43.1317
4.373666762177566 43.9125
4.395982011761091 44.5386
4.418314834921175 45.3051
4.44063041906622 46.0188
4.4629635787515625 47.1733
4.4852969080429785 48.567
4.5076130004776225 50.1003
4.529946671403969 52.115
4.552263106909177 52.9735
4.574597122877047 54.1038
4.596931312711224 54.6761
4.619248269273446 55.8925
4.6415828092605835 57.4984
4.663900117405352 58.4421
4.686235010953232 59.8517
4.708552674085913 61.2493
4.730887924602802 63.1515
4.753223354952695 65.145
4.775541557023902 66.6225
4.797877349456786 68.3224
4.820195915032126 70.2582
4.842532072957498 71.6693
4.864868414979744 74.6795
4.88718753227192 76.7453
4.909524244902505 79.6071
4.931843734218147 81.7269
4.954180820867835 84.9604
4.976518095879839 88.7826
4.998838149695359 92.1554
5.021175803844231 96.3294
5.043496238205739 100.775
5.065834274903528 107.565
5.088172504230693 115.419
5.1104935158799565 124.521
5.132832132875765 141.211
5.155153533596801 169.169
5.1774925416746225 284.096
5.199814334878411 888.915
5.2221537374521505 2218.28
5.244493338631803 3972.83
5.266815727034316 6635.27
5.289155727832427 10561.3
5.311478517248165 9325.37
5.333818921080011 4318.81
5.356159527788849 1024.55
5.3784829252032536 278.078
5.400823940070432 184.771
5.423147747031976 153.81799999999998
5.445489173474152 137.835
5.467830807066149 129.494
5.490155234831516 123.902
5.512497285125229 118.415
5.534822130975162 114.995
5.557164601388673 112.71700000000001
5.579489868738879 109.3
5.601832762690846 107.055
5.6241758697774475 105.531
5.646501775867269 104.633
5.668845311622074 104.186
5.691171647754637 103.762
5.713515615597765 101.71700000000001
5.735859800852677 100.765
5.758186788542988 100.90299999999999
5.780531411018185 101.889
5.802858837297399 101.529
5.825203900414495 102.094
5.8475491852224 103.524
5.869877275883075 104.72399999999999
5.892223006467101 107.2
5.914551544266608 110.711
5.936897724049891 118.012
5.959244129804903 133.546
5.981573344815301 196.53
6.0039202049061 446.52099999999996
6.026249875609095 903.825
6.04859719346037 1422.37
6.070927323278297 2216.91
6.093275102315365 3586.84
6.115623113320588 4583.89
6.137953938319995 3687.9
6.160302415650845 1463.87
6.182633708324452 383.74699999999996
6.2049826554078376 151.607
6.227331838745022 110.413
6.249663839443684 97.2224
6.27201349767565 89.6821
6.294345974611799 85.2506
6.316696111167083 81.1761
6.339046488263839 78.9129
6.361379686074702 76.7724
6.383730546639482 74.8086
6.406064229255215 73.0345
6.428415576718203 72.5308
6.450749747566656 71.1249
6.47310158535871 69.9776
6.495453669698332 68.3123
6.517788579421056 67.7334
6.540141159237969 66.6344
6.562476565766648 66.2725
6.5848296444934045 65.8718
6.607182974060425 64.6633
6.6295191323281015 64.0429
6.651872965955752 63.3031
6.6742096296068985 62.5571
6.6965639707294615 62.1621
6.71891856698715 61.4263
6.741255995248479 60.6877
6.763611104154477 60.6266
6.785949046381137 60.3373
6.808304671371482 59.6393
6.8306605557940046 60.3852
6.852999275508618 59.5239
6.875355681171544 58.8492
6.897694923437771 58.6995
6.92005185377892 58.5363
6.9423916220322655 57.8863
6.964749080490181 57.5858
6.987106804399774 57.6419
7.009447368180821 57.2833
7.031805625367033 57.2645
7.054146723727803 57.2416
7.076505517631004 56.9589
7.098864581288365 56.6674
7.121206488070854 56.321000000000005
7.143566093607822 56.3392
7.165908543567245 56.7163
7.188268694426048 56.4333
7.2106291193438095 56.1878
7.232972390625943 55.9918
7.255333366030969 55.7717
7.277677189091925 55.4335
7.300038718428332 55.6074
7.322400526130865 55.8153
7.344745183422596 55.9349
7.367107550224791 55.8315
7.389452767901992 56.3155
7.411815697249891 56.073
7.434161478756298 55.4446
7.456524974096713 55.7529
7.478888753837185 55.8216
7.501235387657368 56.2755
7.523599738562711 56.1525
7.545946944825532 56.7042
7.568311870344528 57.0826
7.5906770845765665 57.1812
7.613025156078678 57.1762
7.635390950099687 57.6472
7.657739602662809 57.0904
7.680105979923558 57.3186
7.702472650212829 57.9718
7.724822180948224 57.9504
7.747189439655568 58.4624
7.769539560075357 58.4127
7.791907410653562 58.7752
7.81425812420825 58.9596
7.836626570110925 59.4874
7.858995315087906 60.1511
7.881346924933401 60.2127
7.903716270417482 60.9691
7.926068482028405 61.5145
7.948438431475253 61.5857
7.9708086843180235 62.5729
7.993161805171116 63.1263
8.015532667162402 63.9294
8.037886398416653 65.0306
8.060257873014221 65.4164
8.082629655331942 65.8779
8.104984308787587 66.8682
8.127356708900503 67.9865
8.149711981398308 68.9589
8.172085002766314 70.1927
8.194458336181368 70.6887
8.216814543847752 72.0767
8.23918850371002 73.1054
8.26154533906492 74.1883
8.283919928836452 76.1714
8.306277395339652 77.471
8.328652618483376 79.2767
8.351028159736202 81.8515
8.373386579575245 84.6979
8.395762759396959 87.0165
8.418121819038275 90.7032
8.440498640894003 96.7376
8.462875785192262 110.443
8.485235811156207 161.46200000000002
8.507613602688501 290.16900000000004
8.529974277114228 454.342
8.552352719347912 588.071
8.574731488360351 751.925
8.59709314210385 1055.79
8.619472567021075 1518.38
8.64183487789147 1953.97
8.664214962183097 1954.0
8.686577933647762 1235.26
8.708958680784317 543.976
8.731339760774953 225.873
8.753703729764451 133.416
8.77608547780821 111.875
8.798450116065078 105.008
8.820832535634787 100.311
8.843215292401656 98.1106
8.865580941199045 96.1676
8.887964374703538 94.6418
8.910330701447199 93.38
8.932714815164482 92.5798
8.955099270424924 90.9699
8.977466620733543 90.4472
8.999851761421976 89.4649
9.022219798361645 88.806
9.04460562795561 88.3944
9.066991803441677 88.2229
9.089360876979615 87.8052
9.111747746589993 87.4275
9.13411751544971 86.8107
9.156505082664324 86.8523
9.178875550323522 86.6324
9.20126381862328 86.6407
9.223652438908596 87.135
9.246023961427412 87.4099
9.26841328802173 86.8352
9.290785518039224 87.1408
9.313175554425882 87.6731
9.335565947154315 87.8668
9.357939245086508 88.0182
9.380330352834827 88.5795
9.40270436697103 88.1743
9.425096193225055 88.2617
9.447488380180165 89.072
9.469863475295412 89.4606
9.492256385987508 89.6149
9.514632206018318 90.3377
9.537025843935714 90.9284
9.559402392368193 91.6559
9.581796761000229 92.7022
9.604191496441521 93.3368
9.626569144158516 94.4926
9.648964615551032 94.8457
9.671343000390081 95.7391
9.693739211225699 96.6828
9.716135793237463 97.68799999999999
9.738515290448102 98.8179
9.760912617143402 99.9069
9.783292860202891 101.61200000000001
9.805690935076182 103.42
9.828089385495742 104.611
9.850470754023561 106.85700000000001
9.872869957865444 109.29899999999999
9.89525208097539 112.94200000000001
9.917652041736662 118.365
9.940052382417589 135.88
9.962435644102392 197.817
9.984836746950979 304.04200000000003
10.007220771957746 421.546
10.029622640473708 521.904
10.052007432299963 633.054
10.074410069984072 796.3539999999999
10.096813093716005 1058.64
10.119199042482517 1445.92
10.141602840636468 1790.44
10.163989564971628 1745.93
10.186394141051062 1183.19
10.208799107559706 565.464
10.231187001965623 257.437
10.253592751657669 151.463
10.275981430388155 125.037
10.298387966769793 118.08
10.320794897965431 115.241
10.343184759907361 113.04299999999999
10.36559248305461 111.84899999999999
10.387983138083852 114.95700000000001
10.410391656691655 131.123
10.432800574501677 159.131
10.455192425893369 188.488
10.47760214443012 212.71099999999998
10.499994797678786 237.715
10.522405320453982 279.663
10.54479877906917 348.87300000000005
10.567210109595656 433.619
10.5896218454736 534.42
10.612016518879773 534.21
10.634429067781074 420.64599999999996
10.656824555333241 254.968
10.679237920773568 153.46200000000002
10.701651695961992 108.51899999999999
10.724048411481384 96.4469
10.746463008485165 92.4744
10.768860546937125 90.6691
10.791275969274796 88.3564
10.81369180576079 86.9197
10.836090585366925 85.5864
10.858507252467449 84.1466
10.88090686379991 82.898
10.903324365036394 82.2013
10.925724811614439 81.1093
10.948143150509463 80.8646
10.970561909719066 79.7195
10.992963615930844 78.7883
11.015383218085756 78.0362
11.037785768347074 76.9916
11.06020621697282 76.2242
11.082627090322113 75.7068
11.105030913430326 75.0757
11.12745263854165 74.2095
11.149857314510728 73.6706
11.172279894912576 73.6808
11.194702904450653 72.5718
11.217108866490921 71.762
11.239532736615194 71.3833
11.26193956033512 71.206
11.284364294577085 70.8286
11.306789462371718 70.2473
11.329197585398376 69.8937
11.351623622610898 70.1784
11.37403261614354 69.2843
11.396459526308487 69.0493
11.418869393879497 68.7296
11.441297180532617 68.3181
11.463725406927658 67.9554
11.486136592353875 67.4032
11.508565700543707 67.183
11.530977768845315 67.3209
11.553407762368774 66.9429
11.575838200059769 66.8892
11.598251599479612 66.16
11.620682927815501 66.3133
11.64309721895548 66.5451
11.665529441478206 66.1467
11.687962112597958 65.9065
11.710377748130886 66.0431
11.732811318753434 65.7429
11.755227854859067 65.7266
11.777662328529495 65.6022
11.800079768750786 65.2513
11.822515149015453 65.3605
11.844950984084935 66.0614
11.867369787303163 65.8117
11.889806534289491 65.5315
11.912226250487029 66.0841
11.934663912939751 66.2489
11.9571020346363 66.4443
11.979523127133968 66.8787
12.001962169624331 68.7296
12.024384183972964 72.5852
12.046824150809913 79.977
12.069264581333726 88.604
12.091687985297767 94.6036
12.11412934550045 100.081
12.136553680195208 109.523
12.158995973632788 122.012
12.181438735204349 139.995
12.20386447284199 164.88400000000001
12.226308172985636 191.546
12.24873485024193 207.33
12.271179492516982 188.19
12.293607112949127 145.262
12.316052700916226 103.87899999999999
12.338498763250042 79.6283
12.360927805303868 70.4051
12.383374818673879 68.1993
12.405804812803074 67.2478
12.428252780773262 67.308
12.45070122756722 67.3928
12.473132656675375 67.2964
12.49558206341869 67.421
12.518014453510101 67.503
12.540464823770117 67.4768
12.562915677315177 67.6885
12.58534951575545 68.0498
12.607801338171472 67.9695
12.630236146511358 68.3114
12.652688941369085 68.4091
12.675124723177234 68.6422
12.697578494048786 69.73
12.720032754458185 69.6419
12.742470003354093 70.3416
12.764925245138771 70.9901
12.787363476431278 71.3857
12.809819703166806 71.6325
12.83227642391173 72.5426
12.854716135692716 73.2137
12.877173846755147 74.3803
12.899614549869717 74.9609
12.9220732548287 76.0241
12.94453245827299 76.5497
12.966974655289818 77.3742
12.989434858002571 78.6452
13.011878055298721 79.4702
13.034339260862497 80.6954
13.056800969391883 82.5626
13.079245674017244 86.2514
13.101708390774869 93.5043
13.12415410463411 110.334
13.146617833206086 131.695
13.169064559883248 148.505
13.191529303857127 161.529
13.213994557076367 175.22099999999998
13.236442809902437 196.15900000000002
13.258909083908291 227.33900000000003
13.28135835851934 266.472
13.30382565690295 317.545
13.326293469022952 381.414
13.348744283242008 418.952
13.371213125129904 393.50300000000004
13.39366497011003 312.091
13.416134845360597 212.665
13.438605238843131 150.316
13.46105863690397 129.855
13.483530069144786 134.338
13.505984506951902 144.653
13.528456981549432 154.563
13.550929978879088 162.054
13.573385983253365 174.06400000000002
13.595860028340867 195.19799999999998
13.618317081455832 224.329
13.64079217790333 260.051
13.663250283359057 306.789
13.685726434770173 348.259
13.708203115221277 357.35
13.730662806148091 307.789
13.75314054697177 230.96200000000002
13.775601299246777 158.268
13.798080104050406 112.569
13.820559442405358 93.4936
13.843021793671388 87.6144
13.865502201420897 85.0399
13.887965623051947 84.4175
13.910447103807167 83.2275
13.932929122629764 81.5608
13.955394156785959 81.0152
13.977877254034569 80.2524
14.000343367582113 79.1674
14.022827546871707 78.447
14.045294743423524 77.5538
14.06778000837062 76.9903
14.090265817715476 76.8466
14.112734645763819 76.2009
14.13522154619454 75.5038
14.157691466286913 75.5276
14.180179461423874 75.3532
14.202668005486178 74.7729
14.22513957064374 74.3687
14.247629214846473 74.2835
14.270101881097517 73.9521
14.29259262906496 73.4934
14.315083930490205 73.5304
14.337558255389705 73.3167
14.360050666019726 73.193
14.382526101071944 72.7886
14.405019624534942 72.6613
14.427513705993134 72.3184
14.449990813291825 72.5371
14.47248601302899 72.5045
14.49496423954951 72.5533
14.517460561197822 72.6022
14.539939910570322 72.335
14.562437357763558 72.7015
14.58493536931253 73.0222
14.607416409993311 72.8478
14.62991555254159 73.154
14.652397725157423 73.8381
14.674898002342799 73.9882
14.697398848433282 74.5022
14.719882725991326 76.7367
14.74238471217934 80.8814
14.764869730765593 88.5944
14.787372860692983 95.5433
14.809876564079925 102.274
14.83236330125751 106.948
14.854868153850365 111.338
14.877356041159485 119.081
14.899862046604186 129.726
14.922351087688757 144.007
14.944858249632887 162.276
14.967365991421232 185.015
14.989856770231246 207.642
15.012365673994204 222.845
15.03485761569738 208.968
15.05736768508665 173.84
15.07987833888692 135.322
15.102372032001655 103.54700000000001
15.124883856909658 84.5451
15.14737872204565 77.5283
15.169891721717274 75.0344
15.192405310371893 74.1356
15.214901940621196 73.4687
15.237416709527137 72.5744
15.259914520936249 72.0986
15.282430473753607 71.7018
15.304947020131227 71.0466
15.327446610371178 70.7072
15.349964346154254 70.2959
15.372465126703139 70.1557
15.394984055556009 70.0622
15.417486030076159 70.0127
15.44000615566487 69.468
15.462526881230803 69.3979
15.485030653812652 69.4649
15.507552581617434 69.093
15.530057557334603 69.2691
15.55258069104857 69.4262
15.575104429329837 69.726
15.597611216864632 70.0177
15.620136166564563 71.2755
15.6426441664095 74.8671
15.665170331202765 80.6404
15.687697105158826 86.4118
15.710206930593545 91.9453
15.732734925158933 95.4306
15.755245972089478 98.5395
15.77777519094324 103.59299999999999
15.800287463046663 111.029
15.822817909869592 121.605
15.84534897229804 134.67
15.867863089299354 152.095
15.890395385222186 170.86
15.912910736597423 189.24200000000002
15.935444269699861 194.095
15.957978423016485 178.657
15.980495633101265 148.05700000000002
16.003031029129367 115.133
16.02554948280019 87.5703
16.048086125229432 73.906
16.070623392487107 68.2182
16.09314371869582 65.9541
16.11568223789321 64.6814
16.13820381691126 64.0296
16.160743591742527 63.5126
16.183283996022084 63.1471
16.205807461423195 62.2796
16.228349126881973 61.8449
16.25087385432698 61.666000000000004
16.27341678466365 61.111000000000004
16.29594277784926 60.9798
16.31848697676433 60.501000000000005
16.341031811604868 59.7455
16.36355971058487 59.4525
16.3861058195587 59.4504
16.40863499352978 58.9664
16.431182380342005 58.9332
16.453730407713202 58.4838
16.476261501364792 58.3877
16.498810812136167 58.0881
16.52134319004079 58.3062
16.54389378792203 58.2156
16.566445031001553 57.9985
16.588979342490088 57.6131
16.61153187824822 57.7546
16.634067483263312 57.6098
16.656621315414416 57.4019
16.679175797408888 57.042
16.701713349928728 57.0966
16.72426913389191 57.3636
16.74680798922351 57.239
16.76936507887444 57.0979
16.791905240734874 57.247
16.814463639794468 57.2673
16.837022695210294 57.3382
16.859564824093756 57.4746
16.882125194503903 57.6839
16.904668639217885 57.7101
16.927230328348003 57.528999999999996
16.949792678493612 57.7147
16.972338104193863 57.8009
16.994901778652235 57.9094
17.017448529496576 58.3635
17.040013531998152 59.3927
17.06257920018044 60.4746
17.0851279459922 62.0171
17.107694947817667 63.2214
17.130245028099072 63.7434
17.15281336730298 64.6097
17.17536478578733 65.6023
17.19793446610687 66.9276
17.220504818648422 68.8912
17.243058251703697 70.5851
17.265629950971032 73.7401
17.288184731571736 77.4788
17.310757781306908 81.8165
17.33333150794385 84.8631
17.355888317140174 85.8037
17.37846339986244 83.0979
17.401021565958885 78.0242
17.42359800851343 71.8903
17.44617513265564 67.3396
17.468735341390783 64.0545
17.491261035594565 62.6226
17.51396340099364 62.18
17.536490463869136 61.9491
17.559018209820174 62.0188
17.58154663977963 62.1332
17.604251766089718 62.3105
17.626781572227713 62.6923
17.64931206518155 62.7393
17.671843245885103 63.2996
17.69455114821572 63.2601
17.717083712612634 63.6697
17.739616967569667 64.0329
17.762150914021706 64.6949
17.78486160749854 65.0622
17.807396945166804 66.3921
17.829932977143503 68.6946
17.85246970436452 72.1683
17.875183204129467 75.6522
17.897721330097664 78.5017
17.920260154126645 80.7114
17.942799677153296 82.8474
17.9655159983646 84.7947
17.988056927677544 88.0538
18.010598558807683 92.9931
18.033140892692916 98.8718
18.05586005052525 105.475
18.07840379824407 114.53299999999999
18.10094825154059 126.654
18.12366954819864 139.025
18.146215420998306 145.655
18.16876200220057 145.762
18.191309292745153 134.243
18.214033452627167 120.0
18.236582170236648 104.34299999999999
18.259131600016456 94.5016
18.281681742907335 90.0181
18.304408781233683 90.0144
18.32696035875955 92.6964
18.349512652227624 96.8502
18.372065662579683 102.611
18.394795594587553 106.556
18.41735004715306 107.102
18.43990521943684 103.21
18.46246111238171 95.102
18.485193953325208 84.4241
18.507751296070428 75.918
18.530309362314178 70.5951
18.552868153000343 67.5123
18.57560391815056 65.8034
18.59816416623245 65.0969
18.620725141597372 64.6954
18.643286845190268 63.9895
18.666025549835414 63.5452
18.688588718427933 62.9087
18.711152618092243 62.6399
18.73389353884365 62.4685
18.75645890921984 62.0888
18.77902501351406 61.6042
18.801591852673102 61.7796
18.824335739722738 61.0877
18.846904057212626 60.9863
18.8694731124168 60.5259
18.89204290628315 60.7668
18.914789774966803 60.5817
18.937361054791623 60.3615
18.959933076131318 59.8131
18.982505839934877 59.8631
19.00525570560582 60.0993
19.027829963004184 59.6969
19.05040496572238 60.1232
19.072980714710468 60.4177
19.095733592739563 61.1659
19.11831084296757 61.548
19.140888842324735 61.8896
19.16346759176222 62.191
19.18622349753803 62.4876
19.208803755869358 63.0323
19.231384767143577 63.793
19.253966532312948 64.6755
19.276725481241822 65.6944
19.29930876296784 67.2454
19.3218928014549 69.0932
19.34465404436217 71.3444
19.36723960516257 73.942
19.389825925592426 76.2746
19.412413006605938 77.5817
19.43517731967805 76.4357
19.457765930683355 73.598
19.48035530514408 68.863
19.50294544401556 64.2989
19.525712842708348 60.7466
19.54830451925909 58.6279
19.570896963095727 57.2151
19.593490175174704 56.4132
19.616260674962184 56.4863
19.638855432416964 56.2875
19.661450960992624 56.6517
19.68404726164677 56.3438
19.706820878021247 56.0921
19.729418731756834 56.3719
19.752017360452857 56.2841
19.77461676506804 56.7749
19.797393513540218 57.1373
19.819994478951667 57.5766
19.84259622316767 58.2995
19.8651987471481 58.7475
19.887978643247177 58.6766
19.91058273574792 59.0479
19.933187610901943 59.8084
19.955969879466828 60.5668
19.97857632894404 61.5373
20.00118356396599 62.4868
20.023791585494575 63.956
20.046577028914875 66.2376
20.069186632506966 68.4309
20.091797025500632 70.6639
20.114408208858933 72.4888
20.137196842715273 73.72800000000001
20.159809615886765 73.2818
20.18242318232135 70.7916
20.20503754298326 68.175
20.227829382875154 65.7967
20.250445341109344 64.6502
20.27306209647285 64.1693
20.29567964993108 64.35300000000001
20.31847471147704 65.5293
20.34109387027612 66.9611
20.363713830075454 67.7531
20.386334591841646 67.5933
20.409132890679302 65.6673
20.431755265564437 62.5862
20.454378445325528 59.662
20.477002430930366 57.0754
20.499803982716553 55.285
20.522429589228004 53.8537
20.54505600449589 53.2642
20.567683229489194 53.193000000000005
20.590488049900088 52.8715
20.61311690359731 52.7016
20.63574656993626 52.5834
20.658553853717297 52.023999999999994
20.681185154618298 52.2057
20.703817271080066 51.8364
20.72645020407368 51.6079
20.749260783967177 51.4726
20.771895359337133 51.4805
20.794530754161617 51.4998
20.817166969412938 51.367
20.83998086114876 51.3444
20.86261872660049 51.3418
20.885257415405402 51.1404
20.90789692853701 51.0589
20.930714147864748 51.1409
20.953355319030678 51.2886
20.97599731745334 51.4872
20.99864014410749 51.2706
21.021460706796564 51.3702
21.044105199328826 51.4521
21.06675052302631 51.4492
21.089396678865015 51.7208
21.112220600704806 51.8176
21.134868430275347 52.1033
21.15751709492456 52.0852
21.180166595629693 52.3374
21.202993892429635 52.6522
21.22564507473034 52.9714
21.24829709602816 53.4957
21.27112693608965 53.8037
21.293780644891275 54.1889
21.316435195634053 53.5104
21.339090589297417 52.9013
21.361923832041875 52.4514
21.384580921090404 51.6189
21.407238856007325 51.1799
21.429897637773326 51.0928
21.45273429906592 51.0006
21.475394784108598 51.0211
21.498056118951983 50.7516
21.520718304578022 51.1273
21.543558400304388 51.4356
21.566222297108816 51.9649
21.58888704765135 52.3794
21.61155265291521 52.797
21.63439619898156 53.6061
21.657063523335786 53.6989
21.67973170537063 54.0407
21.7024007460706 54.5134
21.72524775840385 54.9188
21.747918526116475 55.5756
21.770590155457388 56.5884
21.79326264741238 57.3985
21.816113141960237 58.6923
21.838787368860547 60.2324
21.861462461341976 61.6886
21.884315579735777 63.5094
21.90699241312273 65.0587
21.92967011506078 66.6472
21.95234868653799 67.4008
21.9752053151131 67.2292
21.997885635446785 65.6318
22.020566828293532 63.3783
22.04324889464272 61.0173
22.066109049404666 58.9368
22.088792872571794 58.0504
22.111477572219204 57.912
22.1341631493376 58.056999999999995
22.157026846313123 58.3437
22.179714188221507 58.4527
22.202402410582668 57.7892
22.22509151438863 56.3897
22.24795876962584 54.7815
22.270649646204486 53.7086
22.293341407213727 52.6924
22.316034053646906 51.97
22.338904883215342 51.5439
22.36159931041458 51.4585
22.38429462602756 51.2072
22.40699083104897 51.0098
22.429865251039757 50.9756
22.452563244831367 51.0104
22.47526213102522 51.016000000000005
22.49813925616515 51.0626
22.520839937143307 51.1686
22.543541513520587 51.1736
22.56624398629403 51.1006
22.589124730075895 51.0874
22.611829005656723 51.6
22.63453418063466 51.5918
22.657240256008077 51.9885
22.680124634582935 52.3865
22.70283252079775 52.5359
22.725541310413075 52.8647
22.74825100442868 52.8503
22.771139033969575 53.0141
22.79385054687155 53.218999999999994
22.81656296718292 53.663000000000004
22.83927629590484 54.2465
22.862167992606945 54.9686
22.88488314827121 55.4967
22.907599215359284 56.2061
22.93031619487366 57.0554
22.953211574954405 58.0455
22.975930389478226 59.2627
22.998650119445763 60.0667
23.02137076586092 60.1515
23.044269845560063 59.3509
23.06699233506288 58.3093
23.089715744034912 56.4919
23.112617610931565 54.7731
23.135342869061212 53.2221
23.158069049684816 52.2016
23.1807961538087 51.5705
23.20370174880544 51.4912
23.226430710184808 51.7466
23.249160598093425 51.883
23.271891413539002 51.9793
23.294800752937697 52.2309
23.31753343374794 52.4633
23.340267045128353 52.4151
23.36300158808808 52.7967
23.38591468821339 52.8348
23.408651104658304 53.0149
23.431388455719986 53.1911
23.454126742409 53.8194
23.4770436196085 54.4327
23.499783787914662 55.1662
23.522524894889884 55.7111
23.54526694154616 56.406000000000006
23.56818761219047 57.6806
23.59093154860734 58.6596
23.613676427751283 59.8003
23.636422250635754 59.7458
23.659346731118656 59.0365
23.68209445191868 57.6515
23.704843119509587 55.248000000000005
23.72759273490623 53.1541
23.750521041644767 51.474
23.77327256312355 50.1636
23.796025035462787 49.2608
23.818956224555475 48.6143
23.841710609113413 48.32
23.86446594758979 48.2663
23.887222241002014 47.79
23.910157285144578 47.5731
23.932915498962537 47.5641
23.955674670778713 47.3581
23.978434801611975 47.3003
24.001373717286125 47.0628
24.024135776723917 46.8128
24.046898798245582 46.9098
24.06966278287146 46.6322
24.092605586582614 46.4409
24.115371508023642 46.2222
24.1381383956401 46.1207
24.16090625045381 46.0055
24.183852958731244 46.2136
24.206622758582608 46.0539
24.229393528706886 45.71
24.252165270127392 45.81
24.27511589952438 45.8145
24.297889594216997 45.5283
24.32066426328598 45.3274
24.34343990775613 45.2844
24.36639447485003 45.2849
24.38917208083877 45.2026
24.41195066531332 45.1244
24.43490819850244 45.2178
24.457688750692377 45.1074
24.48047028445616 45.0418
24.503252800821233 45.0692
24.526214300784112 45.2765
24.548998793132213 45.1181
24.57178427117417 44.7871
24.59457073593893 44.9525
24.617536219319863 44.9486
24.64032466834748 45.0968
24.663114107195035 44.9889
24.685904536893013 44.8277
24.708874020360852 44.6535
24.731666442613744 44.6216
24.754459858818787 44.4944
24.777254270007962 44.456
24.80022777025625 44.4734
24.82302418230472 44.3998
24.845821592443674 44.3371
24.86862000170663 44.3899
24.891597535453727 44.1754
24.914397953892728 44.6248
24.93719937456671 44.5063
24.96000179851076 44.5713
24.98298338249997 44.8984
25.00578782394922 45.0434
25.028593271784167 45.0831
25.05157790644186 45.2173
25.07438537804115 45.3056
25.097193859145293 45.5036
25.120003350792075 45.8059
25.142992065061257 46.0801
25.165803588823465 46.3324
25.18861612625217 46.5742
25.211429678386736 46.6237
25.234422489079968 46.6448
25.257238081693636 46.6702
25.280054692141732 46.7431
25.3028723214652 46.5303
25.325869245420463 46.57899999999999
25.348688923599397 46.7396
25.371509623787006 46.9475
25.394331347025812 46.8957
25.41733240110666 46.5721
25.440156181590016 46.0048
25.46298098826268 45.5261
25.48580682216873 44.9747
25.50881202326435 44.13399999999999
25.53163992281684 43.6211
25.55446885274561 43.3982
25.577298814096377 42.9573
25.600308179121807 42.9176
25.623140214533745 43.0172
25.64597328451537 42.8903
25.66898578564376 42.5533
25.691820936010206 42.5801
25.714657124097695 42.6024
25.737494350954734 42.6269
25.760511045684957 42.5464
25.783350361364224 42.5202
25.806190718969255 42.4538
25.82903211955018 42.6058
25.852053024868923 42.5592
25.874896522722523 42.5406
25.897741066713106 42.4613
25.920586657892454 42.667
25.943611790812668 42.7263
25.966459487728237 42.7912
25.989308234998564 42.792
26.01215803367705 43.0397
26.03518741123814 43.1154
26.05803932412957 43.3052
26.080892291600094 43.2237
26.10374631470478 43.5397
26.12677995397268 43.7258
26.14963609978026 43.7894
26.172493304397875 43.5748
26.19535156888223 43.3764
26.218389486949604 43.1152
26.241249882640123 42.8735
26.26411134137826 42.6727
26.28715248187403 42.5748
26.31001607820869 42.2408
26.3328807407756 42.063
26.35574647063438 42.3326
26.37879191991473 42.208
26.401659795896734 42.1706
26.424528742360263 42.3314
26.447398760366614 42.4989
26.470448535598294 42.5212
26.49332070826805 42.659
26.516193955675355 42.8783
26.53906827888316 42.8531
26.562122397260108 43.0086
26.584998883685063 43.2843
26.607876449110325 43.4056
26.63075509460056 43.5818
26.65381357334404 43.9285
26.67669439061878 44.165
26.699576291163382 44.1897
26.722459276044212 44.08
26.745522132402975 43.8283
26.768407297649354 43.6295
26.791293550442003 43.1056
26.814180891848974 42.8351
26.837248143099337 42.4173
26.860137673466657 42.527
26.88302829566349 42.2574
26.90592001075963 41.9977
26.92899167420566 41.8588
26.951885586870763 41.5542
26.974780595655517 41.419
26.99785558178161 41.2611
27.020752794605112 41.0546
27.043651106772522 40.8239
27.06655051935668 40.8501
27.089629948036183 40.7248
27.112531573292053 40.5957
27.135434302194138 40.67
27.158338135817015 40.5675
27.181422024430987 40.5523
27.204328079372566 40.4299
27.22723524226965 40.472
27.250143514198573 40.4196
27.273231880156334 40.427
27.296142382065014 40.3531
27.319053996245536 40.309
27.341966723775965 40.4037
27.365059584515222 40.3714
27.38797455070062 40.195
27.410890633481237 40.1715
27.433807833936918 40.1876
27.456905206923906 40.2834
27.47982465472398 40.2192
27.502745223449743 40.3044
27.525666914182825 40.4324
27.548768816912457 40.4797
27.571692763693633 40.3721
27.59461783573812 40.2028
27.617723149491244 40.1796
27.640650484125285 40.2195
27.66357894728264 40.243
27.686508540048052 40.1701
27.709618414237887 40.0689
27.732550278321757 39.8543
27.755483275279115 39.7939
27.778417406196485 39.763000000000005
27.801531858397514 40.0166
27.824468269376716 39.729
27.847405817586786 39.7021
27.870344504116094 39.8793
27.893463551932008 39.9213
27.916404527281053 40.1524
27.93934664422563 40.1302
27.962289903855886 40.0348
27.98541356491974 40.3065
28.00835912214229 40.3784
28.03130582533231 40.5504
28.054253675581805 40.6516
28.077381967556104 40.6913
28.100332124185126 40.7589
28.123283431160893 40.8181
28.146235889577238 40.7406
28.169368830154156 40.5018
28.192323603752033 40.3212
28.215279532083304 39.9696
28.238415973016764 39.719
28.261374223145094 39.6856
28.284333631303806 39.4702
28.307294198589954 39.3102
28.330435319167677 39.1224
28.353398217078915 38.8176
28.376362277420153 38.5876
28.39932750129032 38.4264
28.422473319286713 38.2339
28.44544088262495 38.2113
28.468409612800283 37.8886
28.491379510913497 37.781
28.51453004413313 37.7068
28.53750229057244 37.6943
28.56047570826344 37.61
28.583450298308804 37.6297
28.606605564586562 37.3689
28.629582511831156 37.3941
28.65256063474956 37.2644
28.675539934446338 37.3671
28.698699951647605 37.2503
28.72168161743193 37.1593
28.74466446331978 37.1882
28.767648490417624 37.1461
28.790813276438353 37.0846
28.813799678527303 37.0335
28.836787265157085 37.0652
28.859955641890075 36.9856
28.882945610203045 37.0546
28.905936766392035 36.8608
28.928929111566863 37.0178
28.952102288520145 36.8583
28.975097024308607 36.8378
28.998092952423807 36.7005
29.021090073977508 36.656
29.04426806913204 36.5897
29.067267590245258 36.3545
29.090268308143695 36.2613
29.11327022394099 36.2255
29.13645305530891 36.1173
29.159457379627167 35.9743
29.18246290519685 36.094
29.20546963313352 36.0562
29.22865731875826 35.8999
29.25166646419296 36.0007
29.27467681535305 35.8058
29.29768837335608 35.9985
29.320880931312562 35.8713
29.34389491580634 35.8549
29.366910110507334 35.7617
29.38992651653503 35.8072
29.41312396492981 35.7796
29.436142806456754 35.7695
29.45916286268059 35.6783
29.48236399319994 35.649
29.50538649169417 35.6192
29.528410208259935 35.4503
29.55143514402014 35.1963
29.574641196749695 35.0968
29.597668583816574 34.9745
29.6206971934585 34.8049
29.64372702680042 34.8736
29.666938019934474 34.7291
29.689970313635285 34.7008
29.713003834422636 34.5943
29.73603858342347 34.5341
29.759254535188578 34.4437
29.78229175361658 34.3787
29.80533020365064 34.4457
29.82836988641968 34.4504
29.85159081507472 34.4047
29.874632976355343 34.3623
29.89767637376955 34.2832
29.920721008448314 34.1471
29.9439469322847 34.1526
29.96699405457564 34.1283
29.9900424175358 34.2251
30.013092022298157 34.1999
30.03632295963995 34.0069
30.059375061131373 34.0762
30.08242840783577 34.1146
30.105483000888153 34.0749
30.128718970092244 33.9914
30.151776069006917 33.8792
30.17483441768648 33.9595
30.198074175317235 33.9155
30.221135036724256 33.9004
30.24419715131772 33.9595
30.267260520236203 33.9019
30.290505341942243 34.0083
30.313571232750228 34.0356
30.336638381310948 33.9953
30.35970678876503 33.8496
30.38295669299435 33.7832
30.40602763151657 33.7526
30.429099832366074 33.6685
30.452173296685572 33.6989
30.47542830191959 33.6069
30.498504306502497 33.5645
30.521581577995562 33.7384
30.544660117543582 33.7856
30.56792024229725 33.6464
30.59100133132069 33.6198
30.614083691845494 33.6157
30.637167325018545 33.6378
30.660432587840603 33.7195
30.683518779717886 33.6523
30.70660624769615 33.7131
30.729694992924372 33.6411
30.75296541239743 33.7216
30.77605672557558 33.7119
30.799149319462742 33.7192
30.8224236211637 33.5937
30.845518789950724 33.4607
30.868615242910597 33.4631
30.891712981195973 33.2084
30.91499247215866 33.1459
30.938092794619365 33.1844
30.96119440587579 33.1208
30.984297307082752 32.978
31.00758200598383 32.9126
31.030687500658694 32.7918
31.053794288760695 32.733000000000004
31.076902371446767 32.5635
31.100192296997445 32.5988
31.12330298246119 32.513000000000005
31.14641496599209 32.4468
31.169528248749216 32.579
31.19282341969534 32.3985
31.215939314557186 32.4755
31.239056512134788 32.4541
31.262175013589378 32.4025
31.28547544871168 32.2751
31.30859657161541 32.3021
31.331719001892175 32.3887
31.35484274070538 32.4246
31.378148458819545 32.4182
31.401274828443725 32.3301
31.424402510106933 32.3503
31.447712205419993 32.4996
31.470842524931633 32.2689
31.493974159989783 32.3807
31.51710711176168 32.3303
31.54042212308802 32.243
31.563557722100917 32.2128
31.586694641341655 32.1765
31.609832881979628 32.0425
31.63315322823208 31.9992
31.656294125521327 31.9095
31.679436347728515 31.8215
31.70257989602529 31.7939
31.725905596152327 31.5973
31.74905181052835 31.5611
31.772199354521323 31.6405
31.79534822930507 31.6286
31.818679302290967 31.6068
31.84183085259981 31.5842
31.864983737233473 31.4729
31.88813795736804 31.4916
31.911474422233013 31.4276
31.934631327356435 31.528000000000002
31.9577895715215 31.3738
31.980949155906522 31.4617
32.004291031706956 31.4167
32.027453310562606 31.3037
32.05061693318573 31.3033
32.07396288236386 31.3289
32.09712920658542 31.178
32.12029687812702 31.072
32.14346589817093 31.0125
32.166817291729984 30.9838
32.18998902288583 30.9516
32.21316210610336 30.8791
32.23633654256711 30.656999999999996
32.259693399663725 30.6319
32.282870556771144 30.5774
32.30604907069099 30.5386
32.329228942610065 30.5199
32.35259128243769 30.3931
32.375773884550505 30.353
32.398957848235646 30.4112
32.422143174682176 30.3132
32.445511016471215 30.0933
32.468699082679954 30.1321
32.49188851523011 30.0945
32.51507931531304 29.9949
32.538452678331 29.9587
32.56164622776311 29.9798
32.58484114831493 29.9134
32.60803744118015 29.8782
32.631416344731896 29.9111
32.654615396551876 29.8079
32.67781582427913 29.7924
32.701198898634416 29.7255
32.72440209253756 29.595
32.747606665947124 29.6382
32.77081262006088 29.4924
32.79420126883317 29.4978
32.81740999876112 29.5474
32.840620112999424 29.3981
32.86383161274818 29.2845
32.88722585534586 29.3878
32.91044014056596 29.4077
32.933655814909734 29.3388
32.95687287957963 29.3763
32.98027273544904 29.2897
33.00349259526636 29.2499
33.026713849030116 29.2864
33.04993649794511 29.1643
33.073341986570746 29.0174
33.09656744032826 29.072
33.11979429286444 29.1088
33.14302254538647 29.1435
33.166433686291185 29.07
33.18966475336992 29.0393
33.212897224069096 29.0255
33.23613109959831 28.9443
33.259547912343415 28.9206
33.2827846121627 28.9218
33.306022720453775 28.8358
33.32926223842861 28.7002
33.352684742614166 28.7071
33.37592709463173 28.6642
33.399170859982064 28.5963
33.422597648419426 28.5548
33.44584425514446 28.4435
33.46909227885668 28.4299
33.4923417207723 28.3703
33.51577423505344 28.3558
33.539026528130385 28.2669
33.56228024307245 28.2123
33.585535381098246 28.0043
33.60897364093058 28.0121
33.63223163992385 27.99
33.6554910656699 27.9142
33.678751919389796 27.9891
33.702195944520106 27.8442
33.72545966903325 27.8887
33.74872482519663 27.779
33.771991414233746 27.7785
33.79544122444841 27.8133
33.81871069412428 27.6579
33.84198160035767 27.6154
33.86525394437455 27.63
33.88870955949969 27.5772
33.911984794020626 27.5489
33.93526147001624 27.5625
33.958539588715006 27.480999999999998
33.98200102861669 27.4632
34.0052820477047 27.3277
34.02856451319451 27.3034
34.05203033759056 27.2685
34.07531571090147 27.2625
34.09860253431845 27.2658
34.121890809074316 27.145
34.145362493118924 27.1128
34.16865368561615 27.0546
34.191946333164054 26.9214
34.21524043699793 26.9668
34.23871800066799 26.9181
34.26201503218366 26.8422
34.28531352370466 26.7929
34.30861347646881 26.7935
34.33209693978188 26.7867
34.3553998301885 26.7339
34.378704185565205 26.6637
34.402010007152356 26.6798
34.42549939016683 26.6665
34.44880815937748 26.5148
34.472118398533134 26.5166
34.49543010887669 26.4895
34.51892543169198 26.3302
34.54224009966052 26.2427
34.56555624255917 26.3458
34.58887386163339 26.2939
34.61237514439016 26.2051
34.6356957311114 26.1113
34.65901779775809 26.2103
34.68252356662995 26.131
34.705848608458616 26.1515
34.72917513396849 26.0968
34.75250314440949 25.9594
34.77601490857862 25.8862
34.799345904259795 25.8209
34.82267838863559 25.8115
34.846012362958525 25.7978
34.869530142679984 25.7892
34.89286711232212 25.7725
34.91620557568269 25.8038
34.93954553401677 25.7362
34.9630693495876 25.6766
34.986412313340814 25.6855
35.00975677584668 25.7297
35.033102738362956 25.6397
35.05663261012228 25.5561
35.0799815881786 25.574
35.10333207003229 25.5177
35.12668405694369 25.4734
35.150220005273056 25.3835
35.17357501786656 25.3682
35.19693153931268 25.3218
35.220289570874385 25.1975
35.24383161619786 25.2934
35.267192683604904 25.2421
35.290555264930376 25.2288
35.314101899412165 25.2187
35.33746752422433 25.2047
35.36083466676374 25.1345
35.38420332829803 25.0946
35.407756095629054 25.0801
35.43112781085063 25.0908
35.45450104888391 25.0775
35.477875810999194 25.0519
35.50143473172161 24.9393
35.52481255774625 25.0201
35.54819191167777 24.976
35.57157279478914 24.9831
35.595137889488406 24.8699
35.61852184675279 24.808000000000003
35.641907337029984 24.6642
35.665294361595684 24.7239
35.68886565090076 24.6959
35.7122557598848 24.668000000000003
35.73564740699838 24.695999999999998
35.759040593519934 24.589000000000002
35.78261809810353 24.6114
35.80601437933051 24.4548
35.829412203814705 24.4883
35.85281157283719 24.4134
35.876395313415884 24.4505
35.8997977874528 24.3217
35.92320180988546 24.2531
35.946790244133936 24.2642
35.97019737933222 24.1912
35.993606066789866 24.2284
36.01701630779276 24.1609
36.04061101440684 24.0733
36.06402437852291 24.0615
36.08743930005611 24.0228
36.1108557802951 23.9991
36.13445678011326 24.0076
36.15787639383515 23.914
36.18129757014299 23.9323
36.20472031032821 23.8209
36.22832762423364 23.756
36.25175350829375 23.734
36.275180960119776 23.715999999999998
36.298609981005924 23.7244
36.32222362992669 23.7213
36.34565580510207 23.6174
36.36908955323448 23.5778
36.39252487562093 23.4587
36.416144880530226 23.493000000000002
36.43958336764275 23.4955
36.463023432914625 23.4828
36.486465077645676 23.3738
36.51009145956204 23.4621
36.53353627947859 23.4738
36.55698268276811 23.4312
36.58043067073321 23.3248
36.60406345072071 23.2451
36.62751462435344 23.2606
36.65096738658405 23.1969
36.67460498210655 23.1469
36.69806093788647 23.1936
36.72151848619297 23.0974
36.744977628333636 23.0264
36.76862165890998 22.9435
36.79208400512205 23.0809
36.81554794910557 23.0837
36.83901349217101 22.8615
36.862663978991606 22.862
36.88613273667352 22.8701
36.90960309738324 22.8584
36.933075062434064 22.8144
36.95673202673572 22.7701
36.98020721697122 22.686999999999998
37.003684015502365 22.634
37.027162423645365 22.6454
37.050825886711465 22.5964
37.07430753063053 22.5485
37.09779078812467 22.5072
37.121275660513014 22.518
37.144945643673694 22.4252
37.16843376245278 22.453000000000003
37.19192350009803 22.3993
37.215414857931435 22.3479
37.239091382563885 22.2891
37.262585997426164 22.2308
37.28608223645736 22.2545
37.309763684451696 22.2055
37.33326318851098 22.1921
37.356764320726555 22.1333
37.380267082425526 22.1838
37.40395510942588 22.0646
37.42746114683234 22.0448
37.45096881771841 21.9276
37.474478123414166 21.9923
37.49817275092816 21.9423
37.52168534303452 21.9624
37.54519957395567 21.8042
37.568715445024665 21.7817
37.592416694607714 21.8285
37.61593586281424 21.8176
37.63945667518264 21.826999999999998
37.66297913304891 21.7515
37.68668702630454 21.7412
37.710212792059274 21.7169
37.733740207334854 21.633000000000003
37.757269273470364 21.593000000000004
37.780983832050374 21.5239
37.80451621684926 21.4377
37.82805025654007 21.483
37.851585952464795 21.4724
37.8753071980695 21.3861
37.89884622345676 21.2763
37.92238690911902 21.2851
37.94611318753442 21.2453
37.969657210779765 21.2586
37.99320289834801 21.1897
38.016750251586465 21.1162
38.04048325513017 21.2139
38.06403395679343 21.1193
38.087586328183946 21.0472
38.11114037065203 21.0203
38.13488012115898 21.0098
38.1584375229181 20.9855
38.181996599821 20.9084
38.205557353221124 20.8795
38.229303872575656 20.8615
38.2528679961576 20.8429
38.27643380031219 20.8119
38.30000128639589 20.8098
38.32375459653193 20.7896
38.34732546371299 20.7553
38.37089801690786 20.6717
38.39447225747609 20.6457
38.418232380377425 20.5797
38.441810012983396 20.6102
38.46538933705673 20.5531
38.488970353960084 20.5515
38.51273731166058 20.4551
38.536321731567014 20.4115
38.55990784840681 20.3943
38.58367995004091 20.3809
38.60726947812959 20.3285
38.63086070726198 20.292
38.654453638806274 20.2367
38.678232613930824 20.2216
38.70182896773327 20.2383
38.72542702806741 20.1405
38.7490267963045 20.1161
38.77281266709232 20.0765
38.79641586862214 20.0681
38.8200207821842 20.0524
38.843627409152944 20.058
38.86742019782782 19.9752
38.891030269149255 19.9083
38.914642058016156 19.8691
38.938255565806124 19.9061
38.96205529464307 19.8215
38.98567225787121 19.8409
39.00929094417078 19.8237
39.03291135492255 19.8411
39.05671804624804 19.8125
39.080341923549106 19.6551
39.103967529460334 19.7149
39.127594865365744 19.625999999999998
39.15140854155791 19.5872
39.17503935514948 19.6147
39.19867190290282 19.5755
39.22249083587951 19.5294
39.24612686969409 19.526
39.269764641845306 19.5078
39.293404153722804 19.4176
39.317230110864074 19.3717
39.34087311998506 19.301
39.36451787301696 19.2617
39.388164371352595 19.2271
39.41199737518003 19.2604
39.43564738196752 19.1978
39.45929913825317 19.2624
39.48295264543308 19.1523
39.506792718520884 19.1018
39.530449745387216 19.1277
39.55410852735203 19.0811
39.57776906581474 19.0514
39.60161623079 18.9564
39.625280300200025 18.9998
39.64894613032202 18.9566
39.67261372255866 18.8935
39.6964680021016 18.9099
39.72013913657293 18.8975
39.74381203738292 18.8909
39.76748670593756 18.8554
39.79134812278169 18.8477
39.81502634488497 18.758
39.83870633896685 18.7049
39.862388106436654 18.7071
39.88625668336918 18.6662
39.90994201572829 18.6946
39.933629125719285 18.5649
39.957503091207826 18.5711
39.9811937746168 18.5888
40.00488623990914 18.4479
40.02858048850006 18.4241
40.05246165409549 18.4132
40.076159487492085 18.407
40.099859108448875 18.4275
40.123560518384345 18.3853
40.1474489070226 18.3127
40.171153913178564 18.26
40.194860712584955 18.2529
40.2185693066637 18.3204
40.242464941335314 18.2344
40.26617714307655 18.1604
40.289891143772046 18.2046
40.3136069448471 18.2059
40.33750984859743 18.1712
40.3612292688043 18.0994
40.3849504936829 18.0593
40.40867352466194 18.1124
40.43258372059144 18.0378
40.45631038219906 17.9962
40.48003885420956 17.956
40.503769138055105 17.9308
40.52768664931955 17.8763
40.55142057531802 17.8413
40.57515631746428 17.7847
40.599079334038514 17.808
40.62281872700477 17.7613
40.64655994043941 17.7033
40.67030297578061 17.6778
40.69423334835778 17.664
40.71798004609188 17.7098
40.74172857006355 17.6075
40.76547892171441 17.6584
40.7894166736039 17.5577
40.813170699248566 17.5584
40.83692655691388 17.4924
40.86068424804498 17.493
40.884629402612525 17.5347
40.908390779366385 17.4872
40.932153993938 17.3563
40.95591904777605 17.3663
40.979871628443995 17.3312
41.003640379561936 17.3168
41.02741097430883 17.3657
41.05118341413683 17.2646
41.075143444384416 17.2299
41.098919593177826 17.218
41.1226975914255 17.1517
41.14647744058318 17.1298
41.170444943946755 17.154
41.19422851378379 17.1725
41.218013938914645 17.0627
41.24198706625173 16.9903
41.26577622087193 16.9674
41.289567235177785 16.9784
41.31336011063129 16.9089
41.337340752422875 16.9056
41.361137369129835 16.8639
41.38493585138705 16.8442
41.40873620066004 16.8508
41.43272438060107 16.8648
41.45652848292052 16.7516
41.48033445666918 16.7373
41.50414230331616 16.6906
41.528138045159764 16.6817
41.551949656675205 16.5866
41.575763145513235 16.5577
41.59957851314666 16.624000000000002
41.62358184070442 16.6002
41.64740098505737 16.5889
41.6712220126409 16.523
41.69504492493139 16.4343
41.71905586207357 16.4886
41.74288256296395 16.4015
41.766711153007456 16.4719
41.79054163368412 16.3525
41.814560204340054 16.3505
41.838394485526365 16.3283
41.86223066180303 16.253
41.88625497706819 16.2834
41.910094962812 16.268
41.93393684811168 16.2547
41.95778063445365 16.1247
41.981812625263366 16.1835
42.00566023303407 16.09
42.029509746323676 16.0977
42.05336116662236 16.1026
42.077400857069705 16.0902
42.10125611078846 16.0779
42.12511327600405 16.0335
42.14897235421036 15.9945
42.173019768448455 15.9858
42.19688269209613 15.9386
42.22074753323349 15.9371
42.24461429335818 15.8428
42.268669455600495 15.8203
42.292540073217886 15.8006
42.31641261433284 15.7861
42.34028708044675 15.7899
42.36435001496739 15.763
42.38822835065557 15.732999999999999
42.41210861586426 15.6763
42.4359908120986 15.6295
42.46006154323262 15.6371
42.48394762115317 15.5487
42.507835634632315 15.6439
42.531912233047436 15.6008
42.55580413732265 15.5425
42.579697981698 15.5489
42.60359376768525 15.4734
42.62767820545945 15.4457
42.65157789440821 15.4325
42.67547952952185 15.402999999999999
42.699383112316 15.3916
42.72347541395347 15.3354
42.74738291190531 15.2471
42.771292362102166 15.2889
42.795203766063516 15.2454
42.819303956130405 15.2257
42.843219287476536 15.1944
42.86713657716324 15.2229
42.89105582671383 15.2106
42.91516392983864 15.1756
42.939087119032166 15.1189
42.963012272677304 15.0862
42.98693939230129 15.1006
43.01105543317513 14.9945
43.034986504731386 15.020999999999999
43.05891954686589 14.9593
43.08285456110972 14.9842
43.10697856448665 14.9225
43.130917542983475 14.8956
43.15485849820081 14.8874
43.17880143167367 14.8345
43.20293342237094 14.822000000000001
43.226880332449 14.7669
43.25082922540554 14.8164
43.27496722682525 14.7979
43.29892010567796 14.714
43.32287497204102 14.7197
43.34683182745632 14.6082
43.370977859791836 14.6158
43.39493871351105 14.6226
43.41890156092628 14.6048
43.44286640358341 14.5664
43.46702049182749 14.5491
43.49098934522816 14.5052
43.51496019852649 14.5011
43.5389330532723 14.4623
43.56309522248204 14.4535
43.58707210044314 14.4348
43.61105098451946 14.3821
43.63503187626491 14.3544
43.659202151562134 14.3144
43.68318707902681 14.3167
43.70717401884041 14.2899
43.731162972560874 14.2923
43.75534137913236 14.2506
43.779334381108384 14.2461
43.803329401683186 14.1774
43.82732644241872 14.2284
43.8515130055166 14.1678
43.87551410707659 14.075999999999999
43.89951723350145 14.0946
43.923709934595614 14.0377
43.94771713129917 14.0302
43.97172635758096 14.0218
43.99573761501002 14.0489
44.0199385169922 13.994000000000002
44.04395385732619 14.0169
44.067971233533086 13.9576
44.09199064718605 13.9342
44.11619977548961 13.9032
44.14022328470671 13.7921
44.16424883610785 13.8313
44.18827643127035 13.8516
44.21249381139513 13.7979
44.236525514814076 13.7836
44.26055926674478 13.7552
44.28459506876863 13.722999999999999
44.3088207262813 13.6994
44.33286064928722 13.6671
44.35690262714919 13.6634
44.38094666145278 13.5974
44.4051806219871 13.6144
44.42922879003185 13.5424
44.45327901929361 13.505
44.477331311362136 13.512
44.501573600619416 13.4963
44.525630039221795 13.4744
44.54968854541895 13.4639
44.573937102200176 13.449000000000002
44.5979997645541 13.4164
44.622064499300315 13.3983
44.64613130803592 13.3664
44.67038823869318 13.365
44.69445921643748 13.3187
44.718532272981385 13.3022
44.742607409926194 13.2787
44.76687274034801 13.2428
44.79095205918753 13.1736
44.81503346325094 13.2077
44.839116954143876 13.1753
44.86339071028742 13.1192
44.88747839599524 13.1214
44.91156817336837 13.1019
44.93566004401666 13.0914
44.959942251908146 13.0976
44.984038330325966 13.0151
45.00813650686762 12.9644
45.03223678314731 12.9779
45.05652746888232 12.9562
45.08063196592069 12.9431
45.104738567558705 12.9317
45.128847275414856 12.9185
45.15314646515866 12.8637
45.17725940679741 12.8674
45.20137445952892 12.8481
45.22568004865265 12.7764
45.24979934496396 12.7931
45.27392075725247 12.7695
45.29804428714431 12.7461
45.322358426247604 12.7306
45.346486212804315 12.7207
45.370616121861914 12.6906
45.39474815505086 12.6114
45.41907087049246 12.5686
45.4432071734666 12.5787
45.46734560548283 12.5812
45.49148616817604 12.6409
45.51581748638564 12.5603
45.5399623320197 12.4859
45.56410931325473 12.4959
45.58825843173002 12.4496
45.61259837920865 12.362
45.636751793816 12.3927
45.66090735060093 12.3862
45.68506505120716 12.3656
45.7094136545275 12.3485
45.73357566449271 12.3102
45.75773982322992 12.341
45.78190613238733 12.3521
45.806263418194064 12.2445
45.83043404997326 12.2454
45.85460683713677 12.2473
45.87897065658495 12.2101
45.90314777634752 12.1789
45.92732705646868 12.1747
45.9515084986045 12.1548
45.97588104735473 12.1494
46.00006683541565 12.1396
46.02425479047904 12.0962
46.04844491420549 12.0239
46.0728262191024 12.036
46.09702070211635 11.9833
46.12121735879483 11.9848
46.14541619080294 11.9647
46.169806278764455 11.9445
46.194009483459034 11.9042
46.21821486849841 11.8907
46.24242243555223 11.8468
46.266821333570014 11.8595
46.29103328674601 11.8354
46.31524742696538 11.8364
46.33946375590237 11.7853
46.36387149104216 11.7478
46.38809221957392 11.7181
46.41231514186606 11.7144
46.436540259597464 11.7125
46.460956858999374 11.6921
46.48518638983522 11.6708
46.509418121166966 11.6199
46.533652054678114 11.6115
46.55807754555709 11.6057
46.58231590571962 11.5923
46.60655647313217 11.5635
46.630988654873654 11.5479
46.655233659129024 11.4897
46.67948087571551 11.4575
46.70373030632484 11.4604
46.72817142736393 11.4521
46.752425308428684 11.4126
46.77668140861147 11.3989
46.80093972960865 11.3585
46.82538981736788 11.3684
46.849652602470904 11.3169
46.87391761349769 11.2858
46.8981848521493 11.2753
46.9226439341274 11.2669
46.946915650573224 11.2572
46.97118959976749 11.2301
46.99546578341598 11.2088
47.019933887188216 11.1689
47.04421456235744 11.1443
47.06849747711879 11.1392
47.09278263318286 11.1405
47.11725978640143 11.1138
47.14154944775105 11.0979
47.165841355555656 11.0534
47.1901355115306 11.0334
47.214621741924994 11.0652
47.23892041698887 11.0169
47.26322134538975 10.975
47.28771440635075 10.9185
47.31201986422527 10.9489
47.33632758061436 10.9287
47.360637557241866 10.8935
47.38513974410611 10.9003
47.40945426407847 10.8751
47.43377104948137 10.8226
47.45809010204344 10.8077
47.48260144275502 10.7983
47.506925052572285 10.7901
47.53125093475548 10.7379
47.55557909103813 10.7363
47.58009961361992 10.6722
47.60443234110732 10.6395
47.62876734791564 10.664000000000001
47.65310463578333 10.6917
47.6776343683373 10.6742
47.7019762413987 10.5764
47.72632040075572 10.5721
47.75066684815169 10.5445
47.77520581885936 10.5435
47.799556865477655 10.5438
47.823910205386 10.5334
47.84826584033272 10.5389
47.87281407745551 10.4471
47.89717432569297 10.4497
47.92153687423484 10.5126
47.94609208429692 10.4106
47.97045925671401 10.3581
47.99482873471275 10.3808
48.01920052005013 10.3908
48.04376504619224 10.345
48.068141469543484 10.3762
48.09252020552573 10.322000000000001
48.11690125590099 10.2852
48.1414751266064 10.2745
48.16586082917454 10.2616
48.19024885144316 10.2242
48.2146391951793 10.2219
48.239222439012764 10.2048
48.26361744916137 10.2313
48.28801478610016 10.2235
48.31241445160131 10.1732
48.337007097209366 10.1613
48.36141144338331 10.1228
48.38581812345755 10.0841
48.41022713920929 10.0746
48.434829215320704 10.0723
48.45924292604658 10.0714
48.48365897780325 10.0441
48.50807737237308 10.052999999999999
48.532688907799276 9.99767
48.55711201168574 9.9805
48.581537463754074 9.977160000000001
48.60615611725119 9.956560000000001
48.63058628942721 9.92587
48.65501881516546 9.933530000000001
48.6794536962573 9.93363
48.70408185970339 9.88605
48.72852147531801 9.83761
48.75296345168211 9.804780000000001
48.77740779059232 9.82504
48.80204549302823 9.81603
48.82649458091802 9.79984
48.85094603676547 9.77073
48.87539986237231 9.74757
48.90004713292306 9.70534
48.92450572200832 9.73131
48.94896668628025 9.67687
48.97343002754588 9.646360000000001
48.99808689542115 9.652999999999999
49.02255501470614 9.64227
49.04702551642794 9.612639999999999
49.0714984023988 9.60379
49.096164896893235 9.55325
49.120642575466796 9.531830000000001
49.145122643748394 9.52214
49.16960510355558 9.509960000000001
49.19428125404938 9.472430000000001
49.2187685210852 9.48983
49.243258185121555 9.48825
49.26794160167084 9.41542
49.2924360839405 9.416030000000001
49.31693296869764 9.36125
49.34143225776915 9.37266
49.36612538195438 9.357610000000001
49.39062950396021 9.382819999999999
49.41513603578346 9.32087
49.4396449792564 9.28529
49.46434784069503 9.322519999999999
49.488861631846454 9.27246
49.513377840166804 9.24809
49.537896467493745 9.256860000000001
49.56260909589029 9.2174
49.587132585683285 9.20182
49.611658500018365 9.19077
49.636186840738596 9.14185
49.66090926588511 9.14814
49.685442483902584 9.14894
49.70997813385706 9.11943
49.734516217597076 9.1047
49.75924846937352 9.073080000000001
49.7837914452858 9.08248
49.80833686055187 9.05064
49.83288471702571 9.00639
49.85762682540054 9.016639999999999
49.882179588965734 8.98146
49.9067347993235 8.96808
49.93129245833333 8.968689999999999
49.95604445336378 8.944239999999999
49.98060703442832 8.93246
50.005172069746266 8.93142
50.02993150438364 8.89775
50.05450147301533 8.916889999999999
50.07907390151433 8.853019999999999
50.10364879174981 8.82602
50.12841816587289 8.81822
50.1529980044635 8.80735
50.17758031042124 8.811169999999999
50.20216508562089 8.80021
50.22694442953363 8.76582
50.25153416817468 8.76815
50.27612638170508 8.71872
50.300721072005196 8.69614
50.325510416102105 8.692210000000001
50.350110084975064 8.66721
50.37471223628208 8.67895
50.39931687190919 8.63604
50.424116246675766 8.61938
50.44872587605249 8.556460000000001
50.47333799543065 8.57569
50.49795260670191 8.5742
50.52276204271512 8.56357
50.54738166295838 8.58115
50.57200378079314 8.524230000000001
50.596628398116835 8.52022
50.62144792604559 8.478010000000001
50.646077567609396 8.467
50.670709714377715 8.46133
50.69553683636198 8.41737
50.72017401885922 8.42629
50.7448137122895 8.42724
50.76945591856022 8.40316
50.79429318636823 8.38786
50.818940443716784 8.3801
50.84359021965163 8.34056
50.868242516085964 8.35562
50.893089960641895 8.34868
50.917747323549435 8.30095
50.94240721271973 8.26816
50.96706963007175 8.25313
50.99192728239342 8.2611
51.01659478166073 8.25606
51.04126481489051 8.20572
51.06593738400761 8.185410000000001
51.090805275207074 8.17912
51.11548294172845 8.18552
51.14016314993547 8.1575
51.164845901758845 8.14478
51.18972406304274 8.13671
51.21441192780656 8.09788
51.23910234200271 8.11448
51.2637953075678 8.08333
51.288683770237945 8.05406
51.31338186432707 8.03097
51.33808251561888 8.018289999999999
51.362978729967345 8.009310000000001
51.387684521509755 7.981089999999999
51.41239287610203 7.9474100000000005
51.437103795691165 7.94555
51.46201036644977 7.91097
51.486726441956634 7.8817
51.51144508832545 7.907710000000001
51.536166307509156 7.88548
51.56108326624387 7.82751
51.58580965706056 7.846139999999999
51.61053862657523 7.8429199999999994
51.635270176746864 7.814989999999999
51.66019755512065 7.7965
51.68493429268881 7.778230000000001
51.70967361681515 7.763139999999999
51.73441552946465 7.73185
51.759353359237934 7.769410000000001
51.7841004750961 7.75064
51.80885018539685 7.70604
51.833602492111254 7.678319999999999
51.8585508051424 7.668810000000001
51.883308330926425 7.67634
51.90806845906181 7.65005
51.932831191525715 7.63925
51.95779001977161 7.611739999999999
51.98255798721516 7.60037
52.00732856494335 7.55305
52.03229530577543 7.52692
52.057071130455945 7.54546
52.081849571391054 7.56015
52.106630630568695 7.52625
52.13160794279417 7.449439999999999
52.15639426492067 7.492430000000001
52.18118321127822 7.48402
52.205974783860896 7.43107
52.23096269971011 7.4119
52.255759551287994 7.4557
52.280559035098186 7.38294
52.30536115314103 7.37448
52.33035970494467 7.38748
52.35516711807904 7.37144
52.37997717147198 7.383439999999999
52.40478986713005 7.35716
52.42979908731974 7.31157
52.454617094216 7.288889999999999
52.47943774942214 7.272289999999999
52.50426105495102 7.28895
52.529280976059844 7.297110000000001
52.554109609024096 7.26732
52.57894089837482 7.21263
52.60377484613117 7.20489
52.62880550079408 7.20495
52.65364479223379 7.16153
52.67848674816189 7.15793
52.70352547971946 7.15055
52.72837279155837 7.163589999999999
52.753222773982785 7.138139999999999
52.778075429022984 7.127160000000001
52.80312495150885 7.108960000000001
52.827982978797436 7.068569999999999
52.85284368481815 7.072039999999999
52.87770707160767 7.004160000000001
52.90276741793998 7.02395
52.92763619336701 7.021
52.952507655698504 6.9675899999999995
52.977381806977576 6.939
53.00245301017842 6.957210000000001
53.02733256653592 6.9663699999999995
53.052214817996074 6.99287
53.077099766608484 6.9246
53.102181859804446 6.9041
53.127072229988265 6.890280000000001
53.15196530349892 6.89008
53.17686108239249 6.89012
53.20195409881522 6.8398
53.22685531582556 6.85838
53.25175924441303 6.8475399999999995
53.27666588664027 6.791710000000001
53.30176985962693 6.78684
53.3266819565689 6.7781199999999995
53.35159677336455 6.79149
53.376514312083096 6.783530000000001
53.40162927507703 6.78609
53.42655228516116 6.7603800000000005
53.45147802340193 6.697260000000001
53.47660125628886 6.679810000000001
53.50153247842639 6.7325
53.52646643496923 6.672999999999999
53.55140312799818 6.671889999999999
53.576537409691696 6.6274
53.60147960336152 6.63858
53.626424539786164 6.61601
53.65137222105307 6.5620199999999995
53.67651758529126 6.5475699999999994
53.70147078399681 6.551769999999999
53.72642673383343 6.5148
53.75138543689533 6.551880000000001
53.776541917524526 6.55462
53.801506154876755 6.505719999999999
53.826473151763246 6.44699
53.851442910284916 6.42525
53.87661054126026 6.42577
53.9015858509782 6.43427
53.92656392866066 6.410480000000001
53.95154477641532 6.41414
53.976723591801296 6.38455
54.00171000771266 6.375780000000001
54.02669920004598 6.4196800000000005
54.051691170915745 6.38094
54.076881204886796 6.36859
54.101878760928514 6.35168
54.12687910187696 6.34853
54.152077577768296 6.32855
54.1770835166946 6.28394
54.20209224691339 6.26588
54.22710377055121 6.24087
54.25231352511594 6.2504800000000005
54.27733066384342 6.22083
54.30235060239643 6.21206
54.32737334290836 6.20257
54.35259441062629 6.157030000000001
54.377622783395324 6.15564
54.40265396455061 6.18935
54.42768795623251 6.090380000000001
54.45292037169559 6.08171
54.477960012857906 6.02885
54.50300247099511 6.02958
54.52804774825457 6.01689
54.55329154616743 5.9737
54.57834249018678 6.00623
54.6033962597977 5.94418
54.6284528571545 5.93807
54.653708072335164 5.9474599999999995
54.67877035378786 5.90006
54.70383546947698 5.87485
54.72890342156389 5.87907
54.7541700889442 5.80514
54.77924374251975 5.83486
54.8043202390049 5.86033
54.82959552413022 5.778630000000001
54.8546777351945 5.72199
54.87976279569621 5.73147
54.90485070780914 5.7533
54.930137506558005 5.71468
54.95523115074295 5.7195599999999995
54.98032765308844 5.64007
55.005427015775496 5.6805699999999995
55.03072536339621 5.62162
55.05583047570572 5.5637099999999995
55.080938454927676 5.5496300000000005
55.10604930325027 5.58509
55.131359235107396 5.53736
55.15647585066083 5.492290000000001
55.181595341907496 5.5149
55.20671771104285 5.419490000000001
55.232039262617704 5.43834
55.25716741665048 5.39036
55.28229845518636 5.36632
55.30743238042802 5.328880000000001
55.33276558731939 5.3153
55.357905315183636 5.31647
55.383047936390035 5.283530000000001
55.40819345314859 5.24944
55.433538351073295 5.269080000000001
55.458689688238415 5.2320400000000005
55.483843927614096 5.17037
55.509197623043605 5.13314
55.53435769621134 5.109319999999999
55.55952067826466 5.13289
55.5846865714265 5.0793
55.61005202069737 4.99374
55.63522376553902 5.047619999999999
55.66039842818645 5.04702
55.68557601087004 5.02345
55.7109532500271 4.98435
55.73613670233794 4.9946
