TT I
1.2716486653135266 7.344180000000001
1.2939594142134223 7.02957
1.3162702121660406 6.41066
1.3385810600174564 6.33637
1.3608919586137629 6.83247
1.383202908801069 6.37501
1.405513911425503 5.78631
1.4278249673332093 6.08071
1.4501343378461518 6.32348
1.4724455028545926 5.7945199999999994
1.4947567236847858 5.63676
1.517068001182951 5.97359
1.5393793361953272 6.04509
1.5616907295681737 6.35482
1.5840021821477681 5.15842
1.60631369478041 4.79735
1.6286252683124185 5.2876199999999995
1.6509369035901333 5.40449
1.6732468618895553 5.43564
1.695558623192809 5.13828
1.7178704487808514 5.52821
1.7401823395001077 4.89807
1.7625012545597203 4.83809
1.7848028405262486 5.47999
1.8071218901122095 5.31825
1.8294236121921872 5.15039
1.8517427996910911 4.85219
1.8740620574440425 4.569459999999999
1.8963639900671978 4.36977
1.9186833908139995 4.66706
1.9409854680117449 4.249619999999999
1.9633050151394713 5.1096699999999995
1.9856246367570705 4.41894
2.0079269371922672 4.67632
2.03024671027244 4.56007
2.0525491637446027 4.63777
2.074869091674931 4.39867
2.097171701569106 3.7720599999999997
2.1194917877373847 4.95466
2.141811954326636 4.8723
2.164114805233074 4.44334
2.186435135143035 5.11412
2.208738150935709 10.5218
2.231058647554722 20.9978
2.2533792288321184 15.8831
2.275682498336085 8.08348
2.298003251406138 5.886480000000001
2.3203066942619714 5.55057
2.3426276225136022 5.08853
2.3649486396617507 5.72286
2.387252348930071 6.1335
2.4095735463442893 5.41935
2.4318774374315884 5.13207
2.4541988185014043 6.0631
2.476502894794693 5.91672
2.498824462909887 6.52604
2.521146125856138 6.4663
2.5434504863470337 6.49898
2.5657723414244717 6.58827
2.588076895590662 7.4226399999999995
2.610398946189713 7.792619999999999
2.6327210958598384 7.108
2.6550259469304716 7.55197
2.6773482972090137 7.80757
2.6996533504259 8.08095
2.7219759047039602 8.16645
2.744298562293959 8.18422
2.7666039251246595 8.006780000000001
2.7889267918020164 8.01415
2.8112323652516555 7.599019999999999
2.833555444408179 8.43147
2.8558786311183852 8.14365
2.8781845268938557 9.30408
2.9005079311721484 8.89817
2.9228140460410397 8.9726
2.9451376712799635 9.227260000000001
2.967444008632326 9.26535
2.9897678582247247 9.56668
3.0120918213106695 10.2596
3.0343984987899373 10.6083
3.0567226913198637 10.8604
3.079029599759726 11.3832
3.101354025127254 12.6822
3.123678568232338 13.2385
3.145985829517914 13.1666
3.16831061055229 13.2057
3.1906181112775593 13.8497
3.212943133635653 14.6121
3.2352682779763207 14.9713
3.2575761442691227 15.3968
3.2799015350264273 15.5707
3.302209649240067 16.4978
3.3245352898092655 16.8516
3.3468436553365257 17.0414
3.369169549113219 17.887999999999998
3.3914955708171384 18.6186
3.413804319727358 19.0583
3.4361305997334863 18.7545
3.4584396084414553 19.8207
3.4807661501462652 20.2326
3.503092824025881 20.9001
3.5254022288463154 21.0054
3.5477291695206588 21.5365
3.5700388426251948 22.3717
3.5923660534916446 23.6491
3.6146934007816114 33.6219
3.637003482731501 65.15899999999999
3.6593311053109985 70.6482
3.681641464033634 44.8869
3.7039693653009733 28.5845
3.726297407241705 25.839000000000002
3.7486081875460804 25.7993
3.7709365132734978 25.9176
3.793247578841633 26.2908
3.8155761917550093 26.7757
3.8378875459837216 27.3126
3.8602164494827234 27.8547
3.882545499606844 28.1521
3.9048572932539183 29.0254
3.9271866390645718 29.4623
3.9494987298666713 29.6112
3.971828374764527 30.8844
3.9941581705403255 31.1126
4.016470713506008 31.6336
4.038800813471445 32.3702
4.061113662089144 32.2527
4.0834440696459176 33.5029
4.105774632334751 33.5155
4.128087945865126 34.1255
4.150418821249301 35.1046
4.172732448931298 36.7038
4.195063640413578 38.0287
4.2173775856475215 40.9294
4.239709096631102 63.2722
4.262040768704612 167.856
4.284355196706267 217.423
4.306687193387355 143.018
4.329001947444346 65.6399
4.35133427213731 45.9026
4.373666762177566 43.9953
4.395982011761091 43.9462
4.418314834921175 45.3
4.44063041906622 50.6309
4.4629635787515625 57.9509
4.4852969080429785 58.5422
4.5076130004776225 52.6757
4.529946671403969 51.19
4.552263106909177 52.1278
4.574597122877047 52.4347
4.596931312711224 53.3867
4.619248269273446 54.0513
4.6415828092605835 54.6905
4.663900117405352 56.208999999999996
4.686235010953232 57.3893
4.708552674085913 58.6793
4.730887924602802 60.3385
4.753223354952695 61.6001
4.775541557023902 63.5276
4.797877349456786 64.9714
4.820195915032126 67.0432
4.842532072957498 67.9735
4.864868414979744 70.0927
4.88718753227192 72.7516
4.909524244902505 74.7752
4.931843734218147 76.4369
4.954180820867835 78.8949
4.976518095879839 82.1095
4.998838149695359 84.8042
5.021175803844231 88.7636
5.043496238205739 92.2501
5.065834274903528 96.8925
5.088172504230693 101.745
5.1104935158799565 108.542
5.132832132875765 127.595
5.155153533596801 165.516
5.1774925416746225 210.53900000000002
5.199814334878411 443.423
5.2221537374521505 1234.07
5.244493338631803 3188.24
5.266815727034316 8028.86
5.289155727832427 12317.1
5.311478517248165 8458.57
5.333818921080011 2949.67
5.356159527788849 618.7080000000001
5.3784829252032536 198.195
5.400823940070432 148.68200000000002
5.423147747031976 131.025
5.445489173474152 120.95200000000001
5.467830807066149 115.91
5.490155234831516 112.227
5.512497285125229 108.00299999999999
5.534822130975162 105.685
5.557164601388673 103.251
5.579489868738879 100.198
5.601832762690846 99.2523
5.6241758697774475 98.006
5.646501775867269 97.5951
5.668845311622074 96.602
5.691171647754637 95.5769
5.713515615597765 94.3091
5.735859800852677 93.5204
5.758186788542988 93.014
5.780531411018185 94.1768
5.802858837297399 93.9234
5.825203900414495 93.5097
5.8475491852224 94.6162
5.869877275883075 95.1339
5.892223006467101 95.9328
5.914551544266608 97.0382
5.936897724049891 100.499
5.959244129804903 107.736
5.981573344815301 136.13299999999998
6.0039202049061 257.875
6.026249875609095 543.951
6.04859719346037 1101.32
6.070927323278297 2332.21
6.093275102315365 4464.06
6.115623113320588 5550.2
6.137953938319995 3383.17
6.160302415650845 1064.58
6.182633708324452 250.718
6.2049826554078376 116.15
6.227331838745022 93.9152
6.249663839443684 85.8865
6.27201349767565 82.5394
6.294345974611799 85.3263
6.316696111167083 91.7032
6.339046488263839 88.0699
6.361379686074702 77.44
6.383730546639482 71.5867
6.406064229255215 69.4168
6.428415576718203 69.22800000000001
6.450749747566656 68.0181
6.47310158535871 66.6847
6.495453669698332 65.7488
6.517788579421056 65.0328
6.540141159237969 64.3285
6.562476565766648 63.4597
6.5848296444934045 62.9758
6.607182974060425 62.7172
6.6295191323281015 63.0487
6.651872965955752 64.8074
6.6742096296068985 81.5539
6.6965639707294615 112.311
6.71891856698715 110.81700000000001
6.741255995248479 82.0646
6.763611104154477 64.9515
6.785949046381137 60.0401
6.808304671371482 58.9865
6.8306605557940046 58.5469
6.852999275508618 57.3873
6.875355681171544 57.1841
6.897694923437771 57.1531
6.92005185377892 56.6029
6.9423916220322655 56.6609
6.964749080490181 56.1658
6.987106804399774 55.7616
7.009447368180821 55.9336
7.031805625367033 55.5572
7.054146723727803 55.4531
7.076505517631004 55.6244
7.098864581288365 55.5254
7.121206488070854 55.1126
7.143566093607822 55.3748
7.165908543567245 55.5742
7.188268694426048 55.3635
7.2106291193438095 54.9749
7.232972390625943 56.0396
7.255333366030969 65.1196
7.277677189091925 98.8465
7.300038718428332 131.195
7.322400526130865 112.51700000000001
7.344745183422596 77.1667
7.367107550224791 59.308
7.389452767901992 55.8998
7.411815697249891 55.4007
7.434161478756298 54.4037
7.456524974096713 54.3001
7.478888753837185 53.8481
7.501235387657368 54.6243
7.523599738562711 54.8458
7.545946944825532 55.2391
7.568311870344528 55.6635
7.5906770845765665 55.489
7.613025156078678 56.6126
7.635390950099687 57.6763
7.657739602662809 56.6903
7.680105979923558 56.0114
7.702472650212829 56.3923
7.724822180948224 56.1325
7.747189439655568 56.6197
7.769539560075357 56.6419
7.791907410653562 56.9548
7.81425812420825 56.8622
7.836626570110925 57.0751
7.858995315087906 58.1555
7.881346924933401 58.0592
7.903716270417482 58.7535
7.926068482028405 59.0222
7.948438431475253 59.51
7.9708086843180235 60.131
7.993161805171116 60.9947
8.015532667162402 61.2559
8.037886398416653 62.2728
8.060257873014221 62.5755
8.082629655331942 63.2298
8.104984308787587 64.2221
8.127356708900503 66.5131
8.149711981398308 71.2508
8.172085002766314 73.0502
8.194458336181368 70.7549
8.216814543847752 69.5655
8.23918850371002 70.0113
8.26154533906492 70.639
8.283919928836452 72.535
8.306277395339652 73.673
8.328652618483376 75.13600000000001
8.351028159736202 76.9664
8.373386579575245 79.2943
8.395762759396959 81.3343
8.418121819038275 85.8199
8.440498640894003 96.1696
8.462875785192262 109.17
8.485235811156207 131.40200000000002
8.507613602688501 189.58700000000002
8.529974277114228 289.536
8.552352719347912 435.858
8.574731488360351 712.975
8.59709314210385 1242.44
8.619472567021075 1873.57
8.64183487789147 2206.18
8.664214962183097 1780.69
8.686577933647762 957.584
8.708958680784317 367.01800000000003
8.731339760774953 161.461
8.753703729764451 111.65799999999999
8.77608547780821 99.7271
8.798450116065078 95.7843
8.820832535634787 93.2091
8.843215292401656 91.8204
8.865580941199045 90.5679
8.887964374703538 89.7656
8.910330701447199 90.1201
8.932714815164482 90.9099
8.955099270424924 89.9026
8.977466620733543 87.7372
8.999851761421976 85.68
9.022219798361645 84.7515
9.04460562795561 84.0495
9.066991803441677 83.8847
9.089360876979615 83.7378
9.111747746589993 83.7319
9.13411751544971 83.0059
9.156505082664324 82.935
9.178875550323522 82.74600000000001
9.20126381862328 82.9735
9.223652438908596 83.3574
9.246023961427412 83.1514
9.26841328802173 82.4877
9.290785518039224 82.5047
9.313175554425882 83.3707
9.335565947154315 83.5833
9.357939245086508 83.9121
9.380330352834827 84.1273
9.40270436697103 84.4239
9.425096193225055 83.947
9.447488380180165 85.0882
9.469863475295412 85.0271
9.492256385987508 85.7282
9.514632206018318 86.3127
9.537025843935714 86.4017
9.559402392368193 87.1551
9.581796761000229 88.2271
9.604191496441521 89.2247
9.626569144158516 91.8681
9.648964615551032 95.2055
9.671343000390081 96.3882
9.693739211225699 95.4102
9.716135793237463 93.5326
9.738515290448102 93.8167
9.760912617143402 94.9404
9.783292860202891 96.3935
9.805690935076182 97.7966
9.828089385495742 98.7869
9.850470754023561 100.87
9.872869957865444 107.072
9.89525208097539 117.61200000000001
9.917652041736662 127.62100000000001
9.940052382417589 133.41299999999998
9.962435644102392 154.067
9.984836746950979 202.891
10.007220771957746 271.714
10.029622640473708 379.41
10.052007432299963 568.883
10.074410069984072 855.6360000000001
10.096813093716005 1275.57
10.119199042482517 1718.97
10.141602840636468 1902.18
10.163989564971628 1541.48
10.186394141051062 871.1560000000001
10.208799107559706 382.98900000000003
10.231187001965623 183.048
10.253592751657669 125.641
10.275981430388155 113.301
10.298387966769793 111.65899999999999
10.320794897965431 113.05
10.343184759907361 111.985
10.36559248305461 107.93
10.387983138083852 106.104
10.410391656691655 111.995
10.432800574501677 125.92299999999999
10.455192425893369 143.612
10.47760214443012 170.72400000000002
10.499994797678786 216.361
10.522405320453982 296.436
10.54479877906917 410.87199999999996
10.567210109595656 524.081
10.5896218454736 567.261
10.612016518879773 501.7
10.634429067781074 334.99800000000005
10.656824555333241 192.101
10.679237920773568 119.624
10.701651695961992 95.8434
10.724048411481384 89.84899999999999
10.746463008485165 87.2801
10.768860546937125 85.5331
10.791275969274796 83.656
10.81369180576079 82.6476
10.836090585366925 81.402
10.858507252467449 80.3878
10.88090686379991 79.4827
10.903324365036394 79.2007
10.925724811614439 78.1586
10.948143150509463 78.7007
10.970561909719066 78.4185
10.992963615930844 76.6892
11.015383218085756 74.6891
11.037785768347074 73.5372
11.06020621697282 73.1896
11.082627090322113 72.637
11.105030913430326 72.0816
11.12745263854165 72.1908
11.149857314510728 74.0041
11.172279894912576 77.8695
11.194702904450653 78.107
11.217108866490921 74.9856
11.239532736615194 72.033
11.26193956033512 70.8351
11.284364294577085 69.7349
11.306789462371718 68.3348
11.329197585398376 67.0174
11.351623622610898 67.2276
11.37403261614354 66.4388
11.396459526308487 66.3535
11.418869393879497 65.7448
11.441297180532617 65.3938
11.463725406927658 65.1279
11.486136592353875 64.9929
11.508565700543707 65.0466
11.530977768845315 66.2126
11.553407762368774 66.8626
11.575838200059769 66.4602
11.598251599479612 65.1502
11.620682927815501 64.2252
11.64309721895548 63.8121
11.665529441478206 63.3017
11.687962112597958 63.0739
11.710377748130886 63.3861
11.732811318753434 63.1504
11.755227854859067 63.1094
11.777662328529495 63.1736
11.800079768750786 62.9119
11.822515149015453 62.8331
11.844950984084935 62.8678
11.867369787303163 62.7677
11.889806534289491 63.0645
11.912226250487029 63.2047
11.934663912939751 63.3603
11.9571020346363 63.599
11.979523127133968 63.5551
12.001962169624331 64.7152
12.024384183972964 66.1051
12.046824150809913 70.0768
12.069264581333726 75.2551
12.091687985297767 81.5127
12.11412934550045 91.1862
12.136553680195208 106.073
12.158995973632788 128.541
12.181438735204349 155.191
12.20386447284199 183.965
12.226308172985636 201.375
12.24873485024193 198.657
12.271179492516982 160.56799999999998
12.293607112949127 120.59899999999999
12.316052700916226 90.524
12.338498763250042 75.232
12.360927805303868 68.6002
12.383374818673879 65.9117
12.405804812803074 64.6199
12.428252780773262 64.5561
12.45070122756722 64.6131
12.473132656675375 64.3796
12.49558206341869 64.7773
12.518014453510101 64.6866
12.540464823770117 64.8266
12.562915677315177 64.8314
12.58534951575545 65.7333
12.607801338171472 66.8073
12.630236146511358 70.327
12.652688941369085 73.5482
12.675124723177234 74.089
12.697578494048786 72.1593
12.720032754458185 68.8161
12.742470003354093 68.1883
12.764925245138771 68.3308
12.787363476431278 68.3721
12.809819703166806 68.7273
12.83227642391173 69.5383
12.854716135692716 70.1718
12.877173846755147 71.3652
12.899614549869717 71.7228
12.9220732548287 72.5093
12.94453245827299 73.2529
12.966974655289818 74.1192
12.989434858002571 74.7784
13.011878055298721 75.5447
13.034339260862497 76.6118
13.056800969391883 77.9574
13.079245674017244 80.3903
13.101708390774869 84.2842
13.12415410463411 93.1862
13.146617833206086 105.55
13.169064559883248 117.361
13.191529303857127 132.624
13.213994557076367 157.21
13.236442809902437 196.082
13.258909083908291 250.21400000000003
13.28135835851934 310.066
13.30382565690295 375.655
13.326293469022952 429.124
13.348744283242008 426.376
13.371213125129904 351.269
13.39366497011003 256.44599999999997
13.416134845360597 170.00900000000001
13.438605238843131 122.11200000000001
13.46105863690397 108.111
13.483530069144786 109.999
13.505984506951902 115.934
13.528456981549432 126.272
13.550929978879088 142.387
13.573385983253365 166.52
13.595860028340867 205.951
13.618317081455832 254.239
13.64079217790333 306.847
13.663250283359057 348.66
13.685726434770173 365.82800000000003
13.708203115221277 335.329
13.730662806148091 254.685
13.75314054697177 179.59099999999998
13.775601299246777 125.005
13.798080104050406 96.1699
13.820559442405358 85.4422
13.843021793671388 82.1576
13.865502201420897 80.6326
13.887965623051947 80.2688
13.910447103807167 79.1457
13.932929122629764 77.656
13.955394156785959 77.1573
13.977877254034569 76.565
14.000343367582113 75.5637
14.022827546871707 74.7917
14.045294743423524 74.0046
14.06778000837062 73.5215
14.090265817715476 73.4217
14.112734645763819 73.2823
14.13522154619454 72.7318
14.157691466286913 72.5764
14.180179461423874 72.5187
14.202668005486178 71.8403
14.22513957064374 71.3026
14.247629214846473 70.8423
14.270101881097517 70.7471
14.29259262906496 70.8423
14.315083930490205 71.4643
14.337558255389705 71.5468
14.360050666019726 71.2759
14.382526101071944 70.3444
14.405019624534942 69.6692
14.427513705993134 69.1848
14.449990813291825 69.3463
14.47248601302899 69.2136
14.49496423954951 69.1464
14.517460561197822 69.1974
14.539939910570322 68.9891
14.562437357763558 69.4356
14.58493536931253 70.2884
14.607416409993311 70.9152
14.62991555254159 71.6704
14.652397725157423 71.5041
14.674898002342799 71.2116
14.697398848433282 70.932
14.719882725991326 72.2722
14.74238471217934 73.9141
14.764869730765593 78.2447
14.787372860692983 81.779
14.809876564079925 86.4586
14.83236330125751 92.1658
14.854868153850365 101.18
14.877356041159485 115.507
14.899862046604186 133.977
14.922351087688757 157.764
14.944858249632887 184.794
14.967365991421232 208.074
14.989856770231246 221.685
15.012365673994204 216.74200000000002
15.03485761569738 184.773
15.05736768508665 144.606
15.07987833888692 110.771
15.102372032001655 88.9855
15.124883856909658 76.6415
15.14737872204565 72.3619
15.169891721717274 70.8501
15.192405310371893 70.5964
15.214901940621196 71.0623
15.237416709527137 70.5416
15.259914520936249 70.6951
15.282430473753607 70.0415
15.304947020131227 69.0546
15.327446610371178 68.2039
15.349964346154254 67.461
15.372465126703139 67.1914
15.394984055556009 67.0893
15.417486030076159 66.6944
15.44000615566487 66.3147
15.462526881230803 66.5083
15.485030653812652 66.5937
15.507552581617434 66.4246
15.530057557334603 66.4755
15.55258069104857 66.5687
15.575104429329837 66.9431
15.597611216864632 66.6394
15.620136166564563 67.0872
15.6426441664095 68.4057
15.665170331202765 71.4976
15.687697105158826 74.7461
15.710206930593545 78.1107
15.732734925158933 82.6828
15.755245972089478 89.3079
15.77777519094324 98.7678
15.800287463046663 112.07700000000001
15.822817909869592 130.85399999999998
15.84534897229804 150.263
15.867863089299354 172.238
15.890395385222186 189.75
15.912910736597423 194.58700000000002
15.935444269699861 181.335
15.957978423016485 152.592
15.980495633101265 120.34299999999999
16.003031029129367 94.8458
16.02554948280019 75.6539
16.048086125229432 67.4672
16.070623392487107 64.6594
16.09314371869582 63.8174
16.11568223789321 63.1841
16.13820381691126 62.3056
16.160743591742527 61.6207
16.183283996022084 60.7426
16.205807461423195 59.716
16.228349126881973 58.9849
16.25087385432698 59.2962
16.27341678466365 58.5218
16.29594277784926 58.6267
16.31848697676433 58.5155
16.341031811604868 58.6423
16.36355971058487 58.9059
16.3861058195587 58.3833
16.40863499352978 57.4676
16.431182380342005 56.8944
16.453730407713202 56.3744
16.476261501364792 56.0249
16.498810812136167 55.8296
16.52134319004079 55.8143
16.54389378792203 55.7989
16.566445031001553 55.6048
16.588979342490088 55.5337
16.61153187824822 55.3928
16.634067483263312 55.2732
16.656621315414416 55.2018
16.679175797408888 54.9369
16.701713349928728 55.0656
16.72426913389191 55.0645
16.74680798922351 55.0274
16.76936507887444 55.0984
16.791905240734874 55.1974
16.814463639794468 54.9949
16.837022695210294 54.9667
16.859564824093756 55.2394
16.882125194503903 55.8323
16.904668639217885 56.5612
16.927230328348003 56.3527
16.949792678493612 56.6469
16.972338104193863 56.3036
16.994901778652235 56.0137
17.017448529496576 56.2395
17.040013531998152 56.4203
17.06257920018044 57.1209
17.0851279459922 57.8845
17.107694947817667 58.6245
17.130245028099072 59.2147
17.15281336730298 60.821000000000005
17.17536478578733 62.5184
17.19793446610687 64.9734
17.220504818648422 67.8007
17.243058251703697 70.9143
17.265629950971032 75.0871
17.288184731571736 78.9221
17.310757781306908 82.2924
17.33333150794385 83.8726
17.355888317140174 81.5447
17.37846339986244 76.7024
17.401021565958885 71.0266
17.42359800851343 65.898
17.44617513265564 62.1061
17.468735341390783 60.3577
17.491261035594565 59.5712
17.51396340099364 59.3917
17.536490463869136 59.5184
17.559018209820174 59.351000000000006
17.58154663977963 59.6057
17.604251766089718 59.6657
17.626781572227713 59.9876
17.64931206518155 60.1663
17.671843245885103 60.7545
17.69455114821572 60.8865
17.717083712612634 61.2561
17.739616967569667 61.5739
17.762150914021706 61.9814
17.78486160749854 62.1451
17.807396945166804 62.6344
17.829932977143503 63.8572
17.85246970436452 65.8297
17.875183204129467 67.8759
17.897721330097664 69.8399
17.920260154126645 72.342
17.942799677153296 75.7045
17.9655159983646 79.6048
17.988056927677544 84.899
18.010598558807683 92.9952
18.033140892692916 102.545
18.05586005052525 112.469
18.07840379824407 123.084
18.10094825154059 134.382
18.12366954819864 141.297
18.146215420998306 141.019
18.16876200220057 132.325
18.191309292745153 117.302
18.214033452627167 102.833
18.236582170236648 91.67200000000001
18.259131600016456 87.3479
18.281681742907335 88.0951
18.304408781233683 91.9597
18.32696035875955 96.8305
18.349512652227624 101.59100000000001
18.372065662579683 105.464
18.394795594587553 106.366
18.41735004715306 102.73
18.43990521943684 95.5517
18.46246111238171 86.4222
18.485193953325208 76.9692
18.507751296070428 70.0555
18.530309362314178 66.0772
18.552868153000343 63.7494
18.57560391815056 62.3781
18.59816416623245 62.1319
18.620725141597372 61.4968
18.643286845190268 61.2526
18.666025549835414 60.8828
18.688588718427933 60.0629
18.711152618092243 60.0063
18.73389353884365 59.8591
18.75645890921984 59.3925
18.77902501351406 59.0893
18.801591852673102 58.9566
18.824335739722738 58.413000000000004
18.846904057212626 58.3823
18.8694731124168 58.1473
18.89204290628315 58.0663
18.914789774966803 57.7358
18.937361054791623 57.7188
18.959933076131318 57.3424
18.982505839934877 57.548
19.00525570560582 57.4607
19.027829963004184 57.3235
19.05040496572238 57.3828
19.072980714710468 57.53
19.095733592739563 57.7064
19.11831084296757 58.0081
19.140888842324735 58.3771
19.16346759176222 58.6562
19.18622349753803 59.118
19.208803755869358 60.1709
19.231384767143577 61.3822
19.253966532312948 62.8992
19.276725481241822 65.0198
19.29930876296784 67.2739
19.3218928014549 70.0589
19.34465404436217 72.9074
19.36723960516257 75.202
19.389825925592426 76.2401
19.412413006605938 75.3102
19.43517731967805 72.0948
19.457765930683355 67.4218
19.48035530514408 63.0591
19.50294544401556 59.2277
19.525712842708348 56.7702
19.54830451925909 55.7124
19.570896963095727 54.5316
19.593490175174704 54.172
19.616260674962184 54.3798
19.638855432416964 54.0549
19.661450960992624 54.216
19.68404726164677 54.0044
19.706820878021247 53.6027
19.729418731756834 53.9282
19.752017360452857 53.7345
19.77461676506804 53.9924
19.797393513540218 54.1734
19.819994478951667 54.4764
19.84259622316767 54.7976
19.8651987471481 55.3382
19.887978643247177 55.6648
19.91058273574792 56.0952
19.933187610901943 56.7504
19.955969879466828 57.9952
19.97857632894404 59.6691
20.00118356396599 61.2755
20.023791585494575 63.3903
20.046577028914875 65.9711
20.069186632506966 67.9366
20.091797025500632 69.7844
20.114408208858933 70.6068
20.137196842715273 70.0909
20.159809615886765 68.4797
20.18242318232135 65.8052
20.20503754298326 63.8592
20.227829382875154 62.6629
20.250445341109344 62.5751
20.27306209647285 63.3216
20.29567964993108 64.3213
20.31847471147704 65.0502
20.34109387027612 65.5824
20.363713830075454 65.5729
20.386334591841646 63.9023
20.409132890679302 61.4684
20.431755265564437 58.3417
20.454378445325528 55.519
20.477002430930366 53.7486
20.499803982716553 52.4036
20.522429589228004 51.5925
20.54505600449589 51.1062
20.567683229489194 51.0199
20.590488049900088 50.8327
20.61311690359731 50.4103
20.63574656993626 50.2729
20.658553853717297 49.8436
20.681185154618298 49.9232
20.703817271080066 49.7607
20.72645020407368 49.4053
20.749260783967177 49.3464
20.771895359337133 49.3737
20.794530754161617 49.2006
20.817166969412938 48.9925
20.83998086114876 49.1141
20.86261872660049 49.0307
20.885257415405402 49.1839
20.90789692853701 48.9866
20.930714147864748 48.9731
20.953355319030678 49.1552
20.97599731745334 49.1722
20.99864014410749 48.9658
21.021460706796564 48.8612
21.044105199328826 49.2015
21.06675052302631 49.3332
21.089396678865015 49.5917
21.112220600704806 50.0234
21.134868430275347 50.2646
21.15751709492456 50.5179
21.180166595629693 50.7205
21.202993892429635 51.1592
21.22564507473034 51.411
21.24829709602816 51.6414
21.27112693608965 51.8244
21.293780644891275 51.7739
21.316435195634053 51.0405
21.339090589297417 50.1954
21.361923832041875 49.9012
21.384580921090404 49.1498
21.407238856007325 48.6222
21.429897637773326 48.8856
21.45273429906592 48.7463
21.475394784108598 48.7497
21.498056118951983 48.7408
21.520718304578022 49.0378
21.543558400304388 49.0584
21.566222297108816 49.3521
21.58888704765135 49.519
21.61155265291521 49.8466
21.63439619898156 50.2428
21.657063523335786 50.3769
21.67973170537063 50.8853
21.7024007460706 51.4469
21.72524775840385 52.2085
21.747918526116475 53.3588
21.770590155457388 54.5528
21.79326264741238 56.0499
21.816113141960237 57.9128
21.838787368860547 59.7711
21.861462461341976 61.3817
21.884315579735777 63.1786
21.90699241312273 64.2613
21.92967011506078 65.0415
21.95234868653799 64.8925
21.9752053151131 63.5669
21.997885635446785 61.5693
22.020566828293532 59.6089
22.04324889464272 57.9401
22.066109049404666 56.7531
22.088792872571794 56.1581
22.111477572219204 56.3788
22.1341631493376 56.4767
22.157026846313123 56.1062
22.179714188221507 55.391999999999996
22.202402410582668 54.3375
22.22509151438863 52.8555
22.24795876962584 51.619
22.270649646204486 50.6933
22.293341407213727 50.0173
22.316034053646906 49.5482
22.338904883215342 49.3325
22.36159931041458 49.2722
22.38429462602756 49.1802
22.40699083104897 49.0041
22.429865251039757 49.0984
22.452563244831367 49.2238
22.47526213102522 49.2221
22.49813925616515 49.0306
22.520839937143307 48.8405
22.543541513520587 49.0478
22.56624398629403 48.957
22.589124730075895 48.7695
22.611829005656723 49.1408
22.63453418063466 49.1332
22.657240256008077 49.2639
22.680124634582935 49.5319
22.70283252079775 49.8435
22.725541310413075 49.9255
22.74825100442868 50.1228
22.771139033969575 50.7408
22.79385054687155 50.9135
22.81656296718292 51.593
22.83927629590484 52.4283
22.862167992606945 53.5405
22.88488314827121 54.629
22.907599215359284 55.5003
22.93031619487366 56.6791
22.953211574954405 57.4533
22.975930389478226 58.0431
22.998650119445763 58.42
23.02137076586092 57.4366
23.044269845560063 56.2556
23.06699233506288 54.4518
23.089715744034912 52.8057
23.112617610931565 51.1748
23.135342869061212 50.0749
23.158069049684816 49.4332
23.1807961538087 49.1197
23.20370174880544 49.1302
23.226430710184808 49.0403
23.249160598093425 49.1194
23.271891413539002 49.1672
23.294800752937697 49.3116
23.31753343374794 49.4728
23.340267045128353 49.5278
23.36300158808808 50.0371
23.38591468821339 50.3685
23.408651104658304 50.7154
23.431388455719986 51.3539
23.454126742409 52.2654
23.4770436196085 53.2628
23.499783787914662 54.6073
23.522524894889884 55.4129
23.54526694154616 56.5463
23.56818761219047 57.5046
23.59093154860734 57.8604
23.613676427751283 58.1238
23.636422250635754 57.4177
23.659346731118656 55.7702
23.68209445191868 53.6589
23.704843119509587 51.5462
23.72759273490623 49.648999999999994
23.750521041644767 48.4386
23.77327256312355 47.4106
23.796025035462787 46.8111
23.818956224555475 46.4706
23.841710609113413 46.2289
23.86446594758979 45.976000000000006
23.887222241002014 45.8386
23.910157285144578 45.4952
23.932915498962537 45.4643
23.955674670778713 45.3502
23.978434801611975 45.1916
24.001373717286125 45.0432
24.024135776723917 44.9516
24.046898798245582 44.7534
24.06966278287146 44.6724
24.092605586582614 44.4521
24.115371508023642 44.3385
24.1381383956401 44.3078
24.16090625045381 44.2718
24.183852958731244 44.1974
24.206622758582608 44.0506
24.229393528706886 43.8159
24.252165270127392 43.9744
24.27511589952438 43.8431
24.297889594216997 43.6255
24.32066426328598 43.48
24.34343990775613 43.5417
24.36639447485003 43.5021
24.38917208083877 43.416000000000004
24.41195066531332 43.408
24.43490819850244 43.3243
24.457688750692377 43.3023
24.48047028445616 43.2499
24.503252800821233 43.3658
24.526214300784112 43.3761
24.548998793132213 43.3939
24.57178427117417 43.1371
24.59457073593893 43.376999999999995
24.617536219319863 43.3196
24.64032466834748 43.2312
24.663114107195035 43.0938
24.685904536893013 42.6692
24.708874020360852 42.6634
24.731666442613744 42.7158
24.754459858818787 42.7156
24.777254270007962 42.6464
24.80022777025625 42.635
24.82302418230472 42.4762
24.845821592443674 42.5215
24.86862000170663 42.495
24.891597535453727 42.4838
24.914397953892728 42.4275
24.93719937456671 42.3358
24.96000179851076 42.6101
24.98298338249997 42.7143
25.00578782394922 43.2819
25.028593271784167 43.2575
25.05157790644186 43.4951
25.07438537804115 43.6821
25.097193859145293 43.9421
25.120003350792075 44.03
25.142992065061257 44.343999999999994
25.165803588823465 44.6161
25.18861612625217 44.8131
25.211429678386736 44.8811
25.234422489079968 45.0395
25.257238081693636 45.181000000000004
25.280054692141732 45.167
25.3028723214652 45.032
25.325869245420463 45.0443
25.348688923599397 45.1942
25.371509623787006 45.187
25.394331347025812 44.826
25.41733240110666 44.3226
25.440156181590016 43.5815
25.46298098826268 43.1105
25.48580682216873 42.5391
25.50881202326435 42.0152
25.53163992281684 41.6703
25.55446885274561 41.3444
25.577298814096377 41.133
25.600308179121807 41.0912
25.623140214533745 41.0828
25.64597328451537 41.1194
25.66898578564376 40.9211
25.691820936010206 40.9623
25.714657124097695 40.8123
25.737494350954734 40.7642
25.760511045684957 40.815
25.783350361364224 40.7496
25.806190718969255 40.7171
25.82903211955018 40.9836
25.852053024868923 40.9553
25.874896522722523 40.986999999999995
25.897741066713106 40.8854
25.920586657892454 41.0132
25.943611790812668 41.1233
25.966459487728237 41.1776
25.989308234998564 41.3598
26.01215803367705 41.5932
26.03518741123814 41.6213
26.05803932412957 41.8424
26.080892291600094 41.8501
26.10374631470478 41.8731
26.12677995397268 42.0487
26.14963609978026 41.9383
26.172493304397875 41.4984
26.19535156888223 41.3356
26.218389486949604 41.0461
26.241249882640123 40.7319
26.26411134137826 40.6269
26.28715248187403 40.6107
26.31001607820869 40.3443
26.3328807407756 40.1542
26.35574647063438 40.4045
26.37879191991473 40.2518
26.401659795896734 40.3897
26.424528742360263 40.5474
26.447398760366614 40.6591
26.470448535598294 40.7414
26.49332070826805 41.0862
26.516193955675355 41.4898
26.53906827888316 41.7279
26.562122397260108 41.7287
26.584998883685063 41.9662
26.607876449110325 42.3083
26.63075509460056 42.3385
26.65381357334404 42.4295
26.67669439061878 42.4366
26.699576291163382 42.2496
26.722459276044212 42.1941
26.745522132402975 41.9665
26.768407297649354 41.6571
26.791293550442003 41.1411
26.814180891848974 40.9559
26.837248143099337 40.7042
26.860137673466657 40.6977
26.88302829566349 40.2943
26.90592001075963 40.257
26.92899167420566 40.0595
26.951885586870763 39.6665
26.974780595655517 39.5048
26.99785558178161 39.5292
27.020752794605112 39.3379
27.043651106772522 39.22
27.06655051935668 39.2138
27.089629948036183 38.9689
27.112531573292053 38.9854
27.135434302194138 39.0347
27.158338135817015 38.876
27.181422024430987 38.9762
27.204328079372566 38.6977
27.22723524226965 38.8242
27.250143514198573 38.8522
27.273231880156334 38.7926
27.296142382065014 38.7016
27.319053996245536 38.5672
27.341966723775965 38.6818
27.365059584515222 38.7789
27.38797455070062 38.81
27.410890633481237 38.7463
27.433807833936918 38.7285
27.456905206923906 38.7392
27.47982465472398 38.8439
27.502745223449743 38.8182
27.525666914182825 38.9446
27.548768816912457 38.8115
27.571692763693633 38.6029
27.59461783573812 38.5615
27.617723149491244 38.4512
27.640650484125285 38.4108
27.66357894728264 38.3064
27.686508540048052 38.3082
27.709618414237887 38.3722
27.732550278321757 38.1667
27.755483275279115 38.0189
27.778417406196485 38.1039
27.801531858397514 38.0298
27.824468269376716 37.9657
27.847405817586786 38.0543
27.870344504116094 38.2716
27.893463551932008 38.3739
27.916404527281053 38.5733
27.93934664422563 38.6627
27.962289903855886 38.7086
27.98541356491974 38.8439
28.00835912214229 38.91
28.03130582533231 39.2357
28.054253675581805 39.2637
28.077381967556104 39.2579
28.100332124185126 39.2813
28.123283431160893 39.0469
28.146235889577238 39.073
28.169368830154156 38.8398
28.192323603752033 38.5375
28.215279532083304 38.2837
28.238415973016764 38.1413
28.261374223145094 38.0131
28.284333631303806 37.9595
28.307294198589954 37.7943
28.330435319167677 37.3718
28.353398217078915 37.0236
28.376362277420153 36.9455
28.39932750129032 36.8219
28.422473319286713 36.5946
28.44544088262495 36.6342
28.468409612800283 36.4518
28.491379510913497 36.1697
28.51453004413313 36.1608
28.53750229057244 36.2006
28.56047570826344 36.1171
28.583450298308804 36.1423
28.606605564586562 35.8246
28.629582511831156 35.9712
28.65256063474956 35.9111
28.675539934446338 35.8743
28.698699951647605 35.9122
28.72168161743193 35.7721
28.74466446331978 35.7769
28.767648490417624 35.7324
28.790813276438353 35.7405
28.813799678527303 35.6242
28.836787265157085 35.6844
28.859955641890075 35.7318
28.882945610203045 35.6137
28.905936766392035 35.5097
28.928929111566863 35.5461
28.952102288520145 35.5428
28.975097024308607 35.413000000000004
28.998092952423807 35.2283
29.021090073977508 35.2031
29.04426806913204 35.0134
29.067267590245258 34.8721
29.090268308143695 34.8718
29.11327022394099 34.751999999999995
29.13645305530891 34.6958
29.159457379627167 34.6541
29.18246290519685 34.5676
29.20546963313352 34.5681
29.22865731875826 34.6188
29.25166646419296 34.5036
29.27467681535305 34.3484
29.29768837335608 34.4872
29.320880931312562 34.5614
29.34389491580634 34.5708
29.366910110507334 34.3743
29.38992651653503 34.3842
29.41312396492981 34.4102
29.436142806456754 34.2787
29.45916286268059 34.2567
29.48236399319994 34.1494
29.50538649169417 33.9606
29.528410208259935 33.9443
29.55143514402014 33.7926
29.574641196749695 33.6729
29.597668583816574 33.4801
29.6206971934585 33.2898
29.64372702680042 33.3622
29.666938019934474 33.3378
29.689970313635285 33.1795
29.713003834422636 33.207
29.73603858342347 33.1882
29.759254535188578 33.0928
29.78229175361658 32.9955
29.80533020365064 33.0882
29.82836988641968 33.1312
29.85159081507472 33.0504
29.874632976355343 32.9564
29.89767637376955 33.0349
29.920721008448314 32.9049
29.9439469322847 32.7957
29.96699405457564 32.797
29.9900424175358 32.7184
30.013092022298157 32.7431
30.03632295963995 32.7586
30.059375061131373 32.8034
30.08242840783577 32.6764
30.105483000888153 32.7141
30.128718970092244 32.6267
30.151776069006917 32.5991
30.17483441768648 32.6803
30.198074175317235 32.6741
30.221135036724256 32.5936
30.24419715131772 32.6647
30.267260520236203 32.5254
30.290505341942243 32.5244
30.313571232750228 32.5325
30.336638381310948 32.5233
30.35970678876503 32.3973
30.38295669299435 32.4336
30.40602763151657 32.4553
30.429099832366074 32.4344
30.452173296685572 32.3395
30.47542830191959 32.3226
30.498504306502497 32.2239
30.521581577995562 32.3702
30.544660117543582 32.4434
30.56792024229725 32.4505
30.59100133132069 32.4282
30.614083691845494 32.3921
30.637167325018545 32.3543
30.660432587840603 32.4097
30.683518779717886 32.3815
30.70660624769615 32.4541
30.729694992924372 32.4519
30.75296541239743 32.4172
30.77605672557558 32.3303
30.799149319462742 32.2815
30.8224236211637 32.1733
30.845518789950724 32.0283
30.868615242910597 32.066
30.891712981195973 31.9144
30.91499247215866 31.739
30.938092794619365 31.7113
30.96119440587579 31.6668
30.984297307082752 31.5796
31.00758200598383 31.4912
31.030687500658694 31.5173
31.053794288760695 31.4207
31.076902371446767 31.3333
31.100192296997445 31.3971
31.12330298246119 31.3027
31.14641496599209 31.165
31.169528248749216 31.1968
31.19282341969534 31.1583
31.215939314557186 31.1836
31.239056512134788 31.2861
31.262175013589378 31.1611
31.28547544871168 31.1032
31.30859657161541 31.0045
31.331719001892175 31.0521
31.35484274070538 31.1099
31.378148458819545 31.0917
31.401274828443725 31.1706
31.424402510106933 31.1431
31.447712205419993 31.1654
31.470842524931633 30.9409
31.493974159989783 30.9877
31.51710711176168 30.9675
31.54042212308802 31.0013
31.563557722100917 31.008000000000003
31.586694641341655 30.7805
31.609832881979628 30.7678
31.63315322823208 30.6922
31.656294125521327 30.5799
31.679436347728515 30.4669
31.70257989602529 30.5133
31.725905596152327 30.3827
31.74905181052835 30.2653
31.772199354521323 30.3687
31.79534822930507 30.4155
31.818679302290967 30.4527
31.84183085259981 30.3598
31.864983737233473 30.4103
31.88813795736804 30.3423
31.911474422233013 30.2616
31.934631327356435 30.241999999999997
31.9577895715215 30.2784
31.980949155906522 30.3361
32.004291031706956 30.1184
32.027453310562606 30.0684
32.05061693318573 30.0316
32.07396288236386 30.0696
32.09712920658542 29.8717
32.12029687812702 29.7765
32.14346589817093 29.7203
32.166817291729984 29.7484
32.18998902288583 29.54
32.21316210610336 29.5334
32.23633654256711 29.3941
32.259693399663725 29.4854
32.282870556771144 29.3309
32.30604907069099 29.3114
32.329228942610065 29.3226
32.35259128243769 29.1655
32.375773884550505 29.1475
32.398957848235646 29.1057
32.422143174682176 29.0618
32.445511016471215 28.9196
32.468699082679954 28.939
32.49188851523011 28.9139
32.51507931531304 28.892
32.538452678331 28.8214
32.56164622776311 28.701
32.58484114831493 28.7085
32.60803744118015 28.7159
32.631416344731896 28.7193
32.654615396551876 28.5851
32.67781582427913 28.5775
32.701198898634416 28.5277
32.72440209253756 28.5177
32.747606665947124 28.4479
32.77081262006088 28.3642
32.79420126883317 28.2877
32.81740999876112 28.302
32.840620112999424 28.2412
32.86383161274818 28.1977
32.88722585534586 28.2118
32.91044014056596 28.2497
32.933655814909734 28.2486
32.95687287957963 28.2532
32.98027273544904 28.039
33.00349259526636 28.1489
33.026713849030116 28.1607
33.04993649794511 27.9872
33.073341986570746 28.0139
33.09656744032826 27.9806
33.11979429286444 28.0079
33.14302254538647 28.0096
33.166433686291185 27.9837
33.18966475336992 27.8436
33.212897224069096 27.6853
33.23613109959831 27.7351
33.259547912343415 27.7455
33.2827846121627 27.7223
33.306022720453775 27.6114
33.32926223842861 27.6124
33.352684742614166 27.519000000000002
33.37592709463173 27.5595
33.399170859982064 27.5006
33.422597648419426 27.5253
33.44584425514446 27.2719
33.46909227885668 27.2194
33.4923417207723 27.1016
33.51577423505344 27.1758
33.539026528130385 27.0842
33.56228024307245 27.0383
33.585535381098246 26.9215
33.60897364093058 26.8559
33.63223163992385 26.8946
33.6554910656699 26.7696
33.678751919389796 26.8246
33.702195944520106 26.7484
33.72545966903325 26.7806
33.74872482519663 26.6952
33.771991414233746 26.7109
33.79544122444841 26.6506
33.81871069412428 26.5651
33.84198160035767 26.5461
33.86525394437455 26.5352
33.88870955949969 26.4236
33.911984794020626 26.3546
33.93526147001624 26.4628
33.958539588715006 26.3635
33.98200102861669 26.2888
34.0052820477047 26.228
34.02856451319451 26.1963
34.05203033759056 26.1206
34.07531571090147 26.1904
34.09860253431845 26.1232
34.121890809074316 26.0314
34.145362493118924 26.0594
34.16865368561615 25.9448
34.191946333164054 25.9303
34.21524043699793 25.9559
34.23871800066799 25.9362
34.26201503218366 25.8674
34.28531352370466 25.7742
34.30861347646881 25.6052
34.33209693978188 25.6372
34.3553998301885 25.6385
34.378704185565205 25.5506
34.402010007152356 25.5284
34.42549939016683 25.5786
34.44880815937748 25.4443
34.472118398533134 25.4756
34.49543010887669 25.3465
34.51892543169198 25.3176
34.54224009966052 25.2633
34.56555624255917 25.313000000000002
34.58887386163339 25.1947
34.61237514439016 25.1346
34.6356957311114 25.15
34.65901779775809 25.0812
34.68252356662995 25.1053
34.705848608458616 25.0554
34.72917513396849 25.0802
34.75250314440949 24.9639
34.77601490857862 24.9009
34.799345904259795 24.8522
34.82267838863559 24.8458
34.846012362958525 24.872
34.869530142679984 24.8569
34.89286711232212 24.7763
34.91620557568269 24.7762
34.93954553401677 24.745
34.9630693495876 24.6442
34.986412313340814 24.7114
35.00975677584668 24.7012
35.033102738362956 24.5581
35.05663261012228 24.4958
35.0799815881786 24.5344
35.10333207003229 24.465
35.12668405694369 24.5262
35.150220005273056 24.4378
35.17357501786656 24.316
35.19693153931268 24.3483
35.220289570874385 24.2682
35.24383161619786 24.2374
35.267192683604904 24.2241
35.290555264930376 24.1373
35.314101899412165 24.1961
35.33746752422433 24.1209
35.36083466676374 24.2116
35.38420332829803 24.0706
35.407756095629054 24.1199
35.43112781085063 24.0872
35.45450104888391 24.1165
35.477875810999194 24.127
35.50143473172161 23.9688
35.52481255774625 23.9372
35.54819191167777 23.9765
35.57157279478914 23.9332
35.595137889488406 23.8303
35.61852184675279 23.8449
35.641907337029984 23.7024
35.665294361595684 23.7414
35.68886565090076 23.7309
35.7122557598848 23.6652
35.73564740699838 23.7122
35.759040593519934 23.6336
35.78261809810353 23.5895
35.80601437933051 23.5669
35.829412203814705 23.5262
35.85281157283719 23.418000000000003
35.876395313415884 23.5053
35.8997977874528 23.3853
35.92320180988546 23.2798
35.946790244133936 23.2869
35.97019737933222 23.2684
35.993606066789866 23.1945
36.01701630779276 23.2142
36.04061101440684 23.2012
36.06402437852291 23.1779
36.08743930005611 23.0791
36.1108557802951 23.0633
36.13445678011326 23.0038
36.15787639383515 23.0253
36.18129757014299 22.9799
36.20472031032821 22.9354
36.22832762423364 22.8411
36.25175350829375 22.8545
36.275180960119776 22.8338
36.298609981005924 22.8365
36.32222362992669 22.8039
36.34565580510207 22.7384
36.36908955323448 22.7015
36.39252487562093 22.6044
36.416144880530226 22.5279
36.43958336764275 22.5212
36.463023432914625 22.5441
36.486465077645676 22.5185
36.51009145956204 22.5848
36.53353627947859 22.4804
36.55698268276811 22.4571
36.58043067073321 22.41
36.60406345072071 22.3451
36.62751462435344 22.3206
36.65096738658405 22.3521
36.67460498210655 22.228
36.69806093788647 22.2437
36.72151848619297 22.217
36.744977628333636 22.1844
36.76862165890998 22.0845
36.79208400512205 22.0933
36.81554794910557 22.1061
36.83901349217101 21.9933
36.862663978991606 22.0065
36.88613273667352 21.9826
36.90960309738324 21.9519
36.933075062434064 21.8762
36.95673202673572 21.796999999999997
36.98020721697122 21.8464
37.003684015502365 21.7392
37.027162423645365 21.7133
37.050825886711465 21.7016
37.07430753063053 21.5902
37.09779078812467 21.6491
37.121275660513014 21.6528
37.144945643673694 21.5965
37.16843376245278 21.5607
37.19192350009803 21.4935
37.215414857931435 21.4936
37.239091382563885 21.3928
37.262585997426164 21.3341
37.28608223645736 21.3437
37.309763684451696 21.3041
37.33326318851098 21.2788
37.356764320726555 21.2398
37.380267082425526 21.2584
37.40395510942588 21.1866
37.42746114683234 21.2235
37.45096881771841 21.0835
37.474478123414166 21.1132
37.49817275092816 21.1139
37.52168534303452 21.0851
37.54519957395567 20.9675
37.568715445024665 21.0263
37.592416694607714 20.8986
37.61593586281424 20.8925
37.63945667518264 20.9272
37.66297913304891 20.8268
37.68668702630454 20.8198
37.710212792059274 20.6941
37.733740207334854 20.7465
37.757269273470364 20.6911
37.780983832050374 20.6554
37.80451621684926 20.6812
37.82805025654007 20.614
37.851585952464795 20.5702
37.8753071980695 20.5474
37.89884622345676 20.5345
37.92238690911902 20.372
37.94611318753442 20.3841
37.969657210779765 20.4343
37.99320289834801 20.3805
38.016750251586465 20.3522
38.04048325513017 20.2731
38.06403395679343 20.2441
38.087586328183946 20.2161
38.11114037065203 20.1745
38.13488012115898 20.1934
38.1584375229181 20.1362
38.181996599821 20.0695
38.205557353221124 20.1003
38.229303872575656 20.0479
38.2528679961576 19.9938
38.27643380031219 19.9501
38.30000128639589 19.9101
38.32375459653193 19.9442
38.34732546371299 19.9078
38.37089801690786 19.7922
38.39447225747609 19.8403
38.418232380377425 19.7975
38.441810012983396 19.7356
38.46538933705673 19.702
38.488970353960084 19.7483
38.51273731166058 19.5935
38.536321731567014 19.5623
38.55990784840681 19.5941
38.58367995004091 19.643
38.60726947812959 19.5147
38.63086070726198 19.5129
38.654453638806274 19.5434
38.678232613930824 19.4675
38.70182896773327 19.3631
38.72542702806741 19.3439
38.7490267963045 19.3466
38.77281266709232 19.3237
38.79641586862214 19.3478
38.8200207821842 19.2873
38.843627409152944 19.2561
38.86742019782782 19.207
38.891030269149255 19.175
38.914642058016156 19.1858
38.938255565806124 19.1079
38.96205529464307 19.0019
38.98567225787121 19.0595
39.00929094417078 19.0433
39.03291135492255 19.0228
39.05671804624804 18.9808
39.080341923549106 18.9773
39.103967529460334 18.9898
39.127594865365744 18.8497
39.15140854155791 18.815
39.17503935514948 18.8167
39.19867190290282 18.8469
39.22249083587951 18.7359
39.24612686969409 18.7484
39.269764641845306 18.6873
39.293404153722804 18.7145
39.317230110864074 18.6441
39.34087311998506 18.5465
39.36451787301696 18.6262
39.388164371352595 18.5403
39.41199737518003 18.5008
39.43564738196752 18.5117
39.45929913825317 18.4603
39.48295264543308 18.4513
39.506792718520884 18.3827
39.530449745387216 18.3407
39.55410852735203 18.3238
39.57776906581474 18.3084
39.60161623079 18.3025
39.625280300200025 18.2592
39.64894613032202 18.1752
39.67261372255866 18.2384
39.6964680021016 18.1286
39.72013913657293 18.0938
39.74381203738292 18.1089
39.76748670593756 18.048
39.79134812278169 18.0733
39.81502634488497 18.0532
39.83870633896685 17.9946
39.862388106436654 17.9966
39.88625668336918 17.9525
39.90994201572829 17.9194
39.933629125719285 17.8773
39.957503091207826 17.8477
39.9811937746168 17.8786
40.00488623990914 17.7883
40.02858048850006 17.7729
40.05246165409549 17.6743
40.076159487492085 17.6685
40.099859108448875 17.7145
40.123560518384345 17.6764
40.1474489070226 17.6368
40.171153913178564 17.5828
40.194860712584955 17.5147
40.2185693066637 17.5764
40.242464941335314 17.5282
40.26617714307655 17.4527
40.289891143772046 17.4943
40.3136069448471 17.4184
40.33750984859743 17.3605
40.3612292688043 17.3465
40.3849504936829 17.3594
40.40867352466194 17.3555
40.43258372059144 17.2598
40.45631038219906 17.23
40.48003885420956 17.2404
40.503769138055105 17.214000000000002
40.52768664931955 17.219
40.55142057531802 17.2228
40.57515631746428 17.1336
40.599079334038514 17.1234
40.62281872700477 17.0699
40.64655994043941 17.0451
40.67030297578061 17.0062
40.69423334835778 17.0214
40.71798004609188 16.9454
40.74172857006355 16.979
40.76547892171441 16.9377
40.7894166736039 16.9122
40.813170699248566 16.819000000000003
40.83692655691388 16.816
40.86068424804498 16.8453
40.884629402612525 16.8475
40.908390779366385 16.8162
40.932153993938 16.7241
40.95591904777605 16.7048
40.979871628443995 16.7774
41.003640379561936 16.6188
41.02741097430883 16.6071
41.05118341413683 16.5743
41.075143444384416 16.5769
41.098919593177826 16.5561
41.1226975914255 16.5757
41.14647744058318 16.4739
41.170444943946755 16.4299
41.19422851378379 16.4708
41.218013938914645 16.3713
41.24198706625173 16.3447
41.26577622087193 16.3761
41.289567235177785 16.3344
41.31336011063129 16.3064
41.337340752422875 16.2503
41.361137369129835 16.2748
41.38493585138705 16.1981
41.40873620066004 16.234
41.43272438060107 16.1808
41.45652848292052 16.125999999999998
41.48033445666918 16.0777
41.50414230331616 16.0739
41.528138045159764 16.0385
41.551949656675205 16.02
41.575763145513235 15.9855
41.59957851314666 15.94
41.62358184070442 15.9087
41.64740098505737 15.9293
41.6712220126409 15.8635
41.69504492493139 15.8103
41.71905586207357 15.805
41.74288256296395 15.7775
41.766711153007456 15.7579
41.79054163368412 15.7352
41.814560204340054 15.6752
41.838394485526365 15.7087
41.86223066180303 15.708
41.88625497706819 15.6753
41.910094962812 15.6977
41.93393684811168 15.5795
41.95778063445365 15.508
41.981812625263366 15.4694
42.00566023303407 15.443
42.029509746323676 15.4645
42.05336116662236 15.5289
42.077400857069705 15.4606
42.10125611078846 15.4385
42.12511327600405 15.4149
42.14897235421036 15.3614
42.173019768448455 15.3355
42.19688269209613 15.377
42.22074753323349 15.2983
42.24461429335818 15.2576
42.268669455600495 15.218
42.292540073217886 15.2289
42.31641261433284 15.1747
42.34028708044675 15.1729
42.36435001496739 15.1838
42.38822835065557 15.1751
42.41210861586426 15.1011
42.4359908120986 15.0808
42.46006154323262 15.0428
42.48394762115317 14.97
42.507835634632315 14.9706
42.531912233047436 14.9572
42.55580413732265 14.918
42.579697981698 14.8918
42.60359376768525 14.8263
42.62767820545945 14.8464
42.65157789440821 14.832
42.67547952952185 14.8059
42.699383112316 14.8221
42.72347541395347 14.7547
42.74738291190531 14.7152
42.771292362102166 14.6989
42.795203766063516 14.6673
42.819303956130405 14.6445
42.843219287476536 14.6346
42.86713657716324 14.6075
42.89105582671383 14.6408
42.91516392983864 14.595999999999998
42.939087119032166 14.5085
42.963012272677304 14.4857
42.98693939230129 14.4763
43.01105543317513 14.4641
43.034986504731386 14.414000000000001
43.05891954686589 14.3926
43.08285456110972 14.4054
43.10697856448665 14.3496
43.130917542983475 14.3062
43.15485849820081 14.2709
43.17880143167367 14.3186
43.20293342237094 14.2585
43.226880332449 14.2161
43.25082922540554 14.2719
43.27496722682525 14.1819
43.29892010567796 14.1467
43.32287497204102 14.1601
43.34683182745632 14.0983
43.370977859791836 14.0639
43.39493871351105 14.045
43.41890156092628 13.9801
43.44286640358341 13.9978
43.46702049182749 13.9547
43.49098934522816 13.9422
43.51496019852649 13.9344
43.5389330532723 13.9253
43.56309522248204 13.8933
43.58707210044314 13.8861
43.61105098451946 13.8443
43.63503187626491 13.7981
43.659202151562134 13.7591
43.68318707902681 13.8135
43.70717401884041 13.7057
43.731162972560874 13.6841
43.75534137913236 13.6376
43.779334381108384 13.6574
43.803329401683186 13.6414
43.82732644241872 13.6492
43.8515130055166 13.6337
43.87551410707659 13.595999999999998
43.89951723350145 13.5544
43.923709934595614 13.5151
43.94771713129917 13.539000000000001
43.97172635758096 13.502
43.99573761501002 13.484000000000002
44.0199385169922 13.4304
44.04395385732619 13.4027
44.067971233533086 13.3607
44.09199064718605 13.3621
44.11619977548961 13.3545
44.14022328470671 13.3216
44.16424883610785 13.3122
44.18827643127035 13.3247
44.21249381139513 13.2433
44.236525514814076 13.2372
44.26055926674478 13.1885
44.28459506876863 13.2412
44.3088207262813 13.1543
44.33286064928722 13.1205
44.35690262714919 13.1018
44.38094666145278 13.0751
44.4051806219871 13.0901
44.42922879003185 13.0424
44.45327901929361 13.0022
44.477331311362136 13.0046
44.501573600619416 12.9517
44.525630039221795 12.9579
44.54968854541895 12.9357
44.573937102200176 12.9103
44.5979997645541 12.9192
44.622064499300315 12.8345
44.64613130803592 12.8111
44.67038823869318 12.8237
44.69445921643748 12.769
44.718532272981385 12.7353
44.742607409926194 12.7656
44.76687274034801 12.7767
44.79095205918753 12.717
44.81503346325094 12.6835
44.839116954143876 12.6577
44.86339071028742 12.647
44.88747839599524 12.6284
44.91156817336837 12.6067
44.93566004401666 12.5774
44.959942251908146 12.5347
44.984038330325966 12.5048
45.00813650686762 12.4705
45.03223678314731 12.4684
45.05652746888232 12.4463
45.08063196592069 12.4474
45.104738567558705 12.3849
45.128847275414856 12.4128
45.15314646515866 12.3496
45.17725940679741 12.3782
45.20137445952892 12.3449
45.22568004865265 12.3021
45.24979934496396 12.3002
45.27392075725247 12.2659
45.29804428714431 12.2842
45.322358426247604 12.1928
45.346486212804315 12.2255
45.370616121861914 12.2048
45.39474815505086 12.1957
45.41907087049246 12.0492
45.4432071734666 12.1002
45.46734560548283 12.1047
45.49148616817604 12.0849
45.51581748638564 12.0699
45.5399623320197 12.0841
45.56410931325473 12.0439
45.58825843173002 12.0157
45.61259837920865 11.9462
45.636751793816 11.9417
45.66090735060093 11.9256
45.68506505120716 11.8654
45.7094136545275 11.847999999999999
45.73357566449271 11.8375
45.75773982322992 11.8168
45.78190613238733 11.7878
45.806263418194064 11.8085
45.83043404997326 11.7928
45.85460683713677 11.7885
45.87897065658495 11.7757
45.90314777634752 11.6625
45.92732705646868 11.6732
45.9515084986045 11.6731
45.97588104735473 11.6991
46.00006683541565 11.6293
46.02425479047904 11.6228
46.04844491420549 11.6265
46.0728262191024 11.5781
46.09702070211635 11.5774
46.12121735879483 11.555
46.14541619080294 11.5207
46.169806278764455 11.5428
46.194009483459034 11.5001
46.21821486849841 11.4443
46.24242243555223 11.3896
46.266821333570014 11.3548
46.29103328674601 11.353
46.31524742696538 11.3274
46.33946375590237 11.331
46.36387149104216 11.3338
46.38809221957392 11.297
46.41231514186606 11.2929
46.436540259597464 11.265
46.460956858999374 11.3069
46.48518638983522 11.2419
46.509418121166966 11.2192
46.533652054678114 11.1819
46.55807754555709 11.1669
46.58231590571962 11.1475
46.60655647313217 11.0988
46.630988654873654 11.0908
46.655233659129024 11.0517
46.67948087571551 11.0413
46.70373030632484 11.0366
46.72817142736393 11.017000000000001
46.752425308428684 11.0119
46.77668140861147 10.9629
46.80093972960865 10.9202
46.82538981736788 10.9278
46.849652602470904 10.8959
46.87391761349769 10.8968
46.8981848521493 10.8755
46.9226439341274 10.8487
46.946915650573224 10.7994
46.97118959976749 10.8236
46.99546578341598 10.8
47.019933887188216 10.7881
47.04421456235744 10.7559
47.06849747711879 10.7878
47.09278263318286 10.7332
47.11725978640143 10.6683
47.14154944775105 10.6936
47.165841355555656 10.6567
47.1901355115306 10.5923
47.214621741924994 10.6103
47.23892041698887 10.6229
47.26322134538975 10.5898
47.28771440635075 10.561
47.31201986422527 10.547
47.33632758061436 10.5151
47.360637557241866 10.4811
47.38513974410611 10.4854
47.40945426407847 10.4585
47.43377104948137 10.4638
47.45809010204344 10.405999999999999
47.48260144275502 10.3825
47.506925052572285 10.3687
47.53125093475548 10.3532
47.55557909103813 10.3318
47.58009961361992 10.3087
47.60443234110732 10.3329
47.62876734791564 10.2966
47.65310463578333 10.2598
47.6776343683373 10.2668
47.7019762413987 10.2149
47.72632040075572 10.2113
47.75066684815169 10.2131
47.77520581885936 10.1743
47.799556865477655 10.1572
47.823910205386 10.1643
47.84826584033272 10.1305
47.87281407745551 10.0671
47.89717432569297 10.1045
47.92153687423484 10.0887
47.94609208429692 10.0742
47.97045925671401 10.0313
47.99482873471275 10.0159
48.01920052005013 10.0041
48.04376504619224 9.92915
48.068141469543484 9.988010000000001
48.09252020552573 9.9435
48.11690125590099 9.94443
48.1414751266064 9.88349
48.16586082917454 9.869060000000001
48.19024885144316 9.8064
48.2146391951793 9.84732
48.239222439012764 9.83577
48.26361744916137 9.79804
48.28801478610016 9.81386
48.31241445160131 9.76295
48.337007097209366 9.739230000000001
48.36141144338331 9.74343
48.38581812345755 9.712010000000001
48.41022713920929 9.72681
48.434829215320704 9.69957
48.45924292604658 9.68136
48.48365897780325 9.65891
48.50807737237308 9.63838
48.532688907799276 9.56113
48.55711201168574 9.580789999999999
48.581537463754074 9.56276
48.60615611725119 9.58359
48.63058628942721 9.56899
48.65501881516546 9.54227
48.6794536962573 9.511389999999999
48.70408185970339 9.4812
48.72852147531801 9.4404
48.75296345168211 9.43657
48.77740779059232 9.42458
48.80204549302823 9.419310000000001
48.82649458091802 9.40584
48.85094603676547 9.37808
48.87539986237231 9.34629
48.90004713292306 9.33258
48.92450572200832 9.34145
48.94896668628025 9.298960000000001
48.97343002754588 9.29918
48.99808689542115 9.28613
49.02255501470614 9.28055
49.04702551642794 9.28775
49.0714984023988 9.24405
49.096164896893235 9.22847
49.120642575466796 9.20979
49.145122643748394 9.18018
49.16960510355558 9.13849
49.19428125404938 9.1644
49.2187685210852 9.13382
49.243258185121555 9.107460000000001
49.26794160167084 9.09101
49.2924360839405 9.07997
49.31693296869764 9.05574
49.34143225776915 9.04561
49.36612538195438 9.01147
49.39062950396021 8.99681
49.41513603578346 8.9782
49.4396449792564 8.967189999999999
49.46434784069503 8.94706
49.488861631846454 8.92123
49.513377840166804 8.92168
49.537896467493745 8.88482
49.56260909589029 8.828660000000001
49.587132585683285 8.87053
49.611658500018365 8.84948
49.636186840738596 8.80846
49.66090926588511 8.80958
49.685442483902584 8.82049
49.70997813385706 8.77113
49.734516217597076 8.766539999999999
49.75924846937352 8.73705
49.7837914452858 8.75079
49.80833686055187 8.72832
49.83288471702571 8.65957
49.85762682540054 8.66991
49.882179588965734 8.67554
49.9067347993235 8.62331
49.93129245833333 8.56948
49.95604445336378 8.60414
49.98060703442832 8.58498
50.005172069746266 8.57616
50.02993150438364 8.56306
50.05450147301533 8.55831
50.07907390151433 8.544139999999999
50.10364879174981 8.49057
50.12841816587289 8.4974
50.1529980044635 8.473980000000001
50.17758031042124 8.46294
50.20216508562089 8.451089999999999
50.22694442953363 8.35566
50.25153416817468 8.3968
50.27612638170508 8.39913
50.300721072005196 8.37491
50.325510416102105 8.36163
50.350110084975064 8.35791
50.37471223628208 8.33302
50.39931687190919 8.31978
50.424116246675766 8.31511
50.44872587605249 8.28437
50.47333799543065 8.277569999999999
50.49795260670191 8.24542
50.52276204271512 8.26569
50.54738166295838 8.233139999999999
50.57200378079314 8.19993
50.596628398116835 8.17688
50.62144792604559 8.17723
50.646077567609396 8.17243
50.670709714377715 8.16049
50.69553683636198 8.146189999999999
50.72017401885922 8.120439999999999
50.7448137122895 8.12084
50.76945591856022 8.08261
50.79429318636823 8.08553
50.818940443716784 8.051110000000001
50.84359021965163 8.0249
50.868242516085964 8.040610000000001
50.893089960641895 7.9646300000000005
50.917747323549435 7.94883
50.94240721271973 7.961869999999999
50.96706963007175 7.91135
50.99192728239342 7.92478
51.01659478166073 7.9382399999999995
51.04126481489051 7.88621
51.06593738400761 7.9223300000000005
51.090805275207074 7.86137
51.11548294172845 7.87335
51.14016314993547 7.80997
51.164845901758845 7.81565
51.18972406304274 7.82925
51.21441192780656 7.819210000000001
51.23910234200271 7.75806
51.2637953075678 7.747730000000001
51.288683770237945 7.70638
51.31338186432707 7.74822
51.33808251561888 7.730639999999999
51.362978729967345 7.70516
51.387684521509755 7.6843699999999995
51.41239287610203 7.645410000000001
51.437103795691165 7.62973
51.46201036644977 7.645689999999999
51.486726441956634 7.643160000000001
51.51144508832545 7.62758
51.536166307509156 7.61264
51.56108326624387 7.56955
51.58580965706056 7.55133
51.61053862657523 7.5391699999999995
51.635270176746864 7.50904
51.66019755512065 7.5058
51.68493429268881 7.51335
51.70967361681515 7.48077
51.73441552946465 7.44895
51.759353359237934 7.47135
51.7841004750961 7.48315
51.80885018539685 7.42859
51.833602492111254 7.408869999999999
51.8585508051424 7.404210000000001
51.883308330926425 7.382560000000001
51.90806845906181 7.3681399999999995
51.932831191525715 7.36225
51.95779001977161 7.2775
51.98255798721516 7.26173
52.00732856494335 7.28919
52.03229530577543 7.29035
52.057071130455945 7.2476
52.081849571391054 7.24748
52.106630630568695 7.26077
52.13160794279417 7.246169999999999
52.15639426492067 7.212610000000001
52.18118321127822 7.21097
52.205974783860896 7.183669999999999
52.23096269971011 7.1585600000000005
52.255759551287994 7.1496699999999995
52.280559035098186 7.124789999999999
52.30536115314103 7.09773
52.33035970494467 7.07342
52.35516711807904 7.117999999999999
52.37997717147198 7.094530000000001
52.40478986713005 7.08528
52.42979908731974 7.046530000000001
52.454617094216 7.01213
52.47943774942214 7.0547
52.50426105495102 7.01978
52.529280976059844 6.95547
52.554109609024096 6.9534199999999995
52.57894089837482 6.96457
52.60377484613117 6.95644
52.62880550079408 6.91982
52.65364479223379 6.89883
52.67848674816189 6.9008199999999995
52.70352547971946 6.8974
52.72837279155837 6.877039999999999
52.753222773982785 6.83445
52.778075429022984 6.8227199999999995
52.80312495150885 6.83845
52.827982978797436 6.8393
52.85284368481815 6.81757
52.87770707160767 6.768160000000001
52.90276741793998 6.783410000000001
52.92763619336701 6.749860000000001
52.952507655698504 6.73412
52.977381806977576 6.71754
53.00245301017842 6.731610000000001
53.02733256653592 6.70251
53.052214817996074 6.6745
53.077099766608484 6.70858
53.102181859804446 6.65038
53.127072229988265 6.61768
53.15196530349892 6.6117300000000006
53.17686108239249 6.62631
53.20195409881522 6.63094
53.22685531582556 6.63627
53.25175924441303 6.56843
53.27666588664027 6.576960000000001
53.30176985962693 6.5491
53.3266819565689 6.5309800000000005
53.35159677336455 6.50356
53.376514312083096 6.555110000000001
53.40162927507703 6.4939
53.42655228516116 6.50194
53.45147802340193 6.47176
53.47660125628886 6.444369999999999
53.50153247842639 6.40963
53.52646643496923 6.43883
53.55140312799818 6.4089
53.576537409691696 6.38129
53.60147960336152 6.392469999999999
53.626424539786164 6.38531
53.65137222105307 6.36734
53.67651758529126 6.36566
53.70147078399681 6.30319
53.72642673383343 6.29378
53.75138543689533 6.3175300000000005
53.776541917524526 6.317480000000001
53.801506154876755 6.26308
53.826473151763246 6.22464
53.851442910284916 6.2392
53.87661054126026 6.24095
53.9015858509782 6.21828
53.92656392866066 6.21191
53.95154477641532 6.18116
53.976723591801296 6.15229
54.00171000771266 6.12131
54.02669920004598 6.15689
54.051691170915745 6.14728
54.076881204886796 6.1420699999999995
54.101878760928514 6.09138
54.12687910187696 6.08221
54.152077577768296 6.10378
54.1770835166946 6.04516
54.20209224691339 6.10741
54.22710377055121 6.0923
54.25231352511594 6.06439
54.27733066384342 5.98326
54.30235060239643 5.9631
54.32737334290836 5.9524300000000006
54.35259441062629 5.91973
54.377622783395324 5.9601
54.40265396455061 5.9566099999999995
54.42768795623251 5.93622
54.45292037169559 5.89475
54.477960012857906 5.85456
54.50300247099511 5.831230000000001
54.52804774825457 5.82923
54.55329154616743 5.78238
54.57834249018678 5.79009
54.6033962597977 5.7442400000000005
54.6284528571545 5.74584
54.653708072335164 5.72662
54.67877035378786 5.71629
54.70383546947698 5.65099
54.72890342156389 5.6858699999999995
54.7541700889442 5.64887
54.77924374251975 5.62862
54.8043202390049 5.62239
54.82959552413022 5.62866
54.8546777351945 5.613630000000001
54.87976279569621 5.50755
54.90485070780914 5.54169
54.930137506558005 5.5133
54.95523115074295 5.56546
54.98032765308844 5.49884
55.005427015775496 5.42013
55.03072536339621 5.48758
55.05583047570572 5.42791
55.080938454927676 5.39727
55.10604930325027 5.3747300000000005
55.131359235107396 5.36001
55.15647585066083 5.361680000000001
55.181595341907496 5.31539
55.20671771104285 5.33509
55.232039262617704 5.30093
55.25716741665048 5.33891
55.28229845518636 5.215269999999999
55.30743238042802 5.21293
55.33276558731939 5.170780000000001
55.357905315183636 5.1543
55.383047936390035 5.1641900000000005
55.40819345314859 5.0919
55.433538351073295 5.07944
55.458689688238415 5.06422
55.483843927614096 5.06161
55.509197623043605 5.015969999999999
55.53435769621134 4.953180000000001
55.55952067826466 4.98004
55.5846865714265 4.9332400000000005
55.61005202069737 4.9614199999999995
55.63522376553902 4.9592
55.66039842818645 4.92791
55.68557601087004 4.91255
55.7109532500271 4.791980000000001
55.73613670233794 4.82659
