TT I
1.2716486653135266 6.76045
1.2939594142134223 7.04277
1.3162702121660406 6.45972
1.3385810600174564 6.37255
1.3608919586137629 6.52123
1.383202908801069 6.24143
1.405513911425503 6.17615
1.4278249673332093 6.17333
1.4501343378461518 5.54833
1.4724455028545926 5.65108
1.4947567236847858 6.21088
1.517068001182951 5.83665
1.5393793361953272 5.68945
1.5616907295681737 5.5822199999999995
1.5840021821477681 5.06803
1.60631369478041 5.04065
1.6286252683124185 4.92553
1.6509369035901333 4.6409400000000005
1.6732468618895553 4.65375
1.695558623192809 4.73884
1.7178704487808514 5.07643
1.7401823395001077 4.7015199999999995
1.7625012545597203 4.83411
1.7848028405262486 4.60947
1.8071218901122095 4.69939
1.8294236121921872 4.63935
1.8517427996910911 4.401669999999999
1.8740620574440425 4.13201
1.8963639900671978 3.91238
1.9186833908139995 4.30513
1.9409854680117449 4.9800699999999996
1.9633050151394713 5.16827
1.9856246367570705 5.05125
2.0079269371922672 4.14935
2.03024671027244 4.2134599999999995
2.0525491637446027 4.6273
2.074869091674931 4.81522
2.097171701569106 4.62939
2.1194917877373847 4.74886
2.141811954326636 4.65693
2.164114805233074 5.3983
2.186435135143035 5.95831
2.208738150935709 13.6115
2.231058647554722 27.1632
2.2533792288321184 22.0245
2.275682498336085 10.2137
2.298003251406138 6.49667
2.3203066942619714 6.01847
2.3426276225136022 5.83587
2.3649486396617507 5.9801400000000005
2.387252348930071 6.11865
2.4095735463442893 6.13295
2.4318774374315884 6.09518
2.4541988185014043 7.261
2.476502894794693 7.03534
2.498824462909887 6.579460000000001
2.521146125856138 7.26505
2.5434504863470337 8.08728
2.5657723414244717 8.352889999999999
2.588076895590662 8.8699
2.610398946189713 9.002510000000001
2.6327210958598384 8.76106
2.6550259469304716 7.985239999999999
2.6773482972090137 8.36149
2.6996533504259 8.436810000000001
2.7219759047039602 8.583730000000001
2.744298562293959 8.71067
2.7666039251246595 8.163839999999999
2.7889267918020164 8.38942
2.8112323652516555 7.65715
2.833555444408179 8.4513
2.8558786311183852 8.223460000000001
2.8781845268938557 8.53122
2.9005079311721484 8.81344
2.9228140460410397 9.36792
2.9451376712799635 9.338330000000001
2.967444008632326 9.64568
2.9897678582247247 9.74935
3.0120918213106695 10.4628
3.0343984987899373 10.6054
3.0567226913198637 11.0934
3.079029599759726 11.8318
3.101354025127254 12.1055
3.123678568232338 13.809000000000001
3.145985829517914 13.2353
3.16831061055229 13.9524
3.1906181112775593 14.9103
3.212943133635653 15.1357
3.2352682779763207 15.0572
3.2575761442691227 14.817
3.2799015350264273 15.5883
3.302209649240067 16.2659
3.3245352898092655 16.8076
3.3468436553365257 16.8324
3.369169549113219 17.5936
3.3914955708171384 18.7551
3.413804319727358 19.0444
3.4361305997334863 19.0251
3.4584396084414553 19.3563
3.4807661501462652 20.160999999999998
3.503092824025881 20.671999999999997
3.5254022288463154 20.871
3.5477291695206588 21.641
3.5700388426251948 22.296
3.5923660534916446 23.9016
3.6146934007816114 38.4505
3.637003482731501 86.0191
3.6593311053109985 95.1172
3.681641464033634 55.466
3.7039693653009733 30.4194
3.726297407241705 26.0158
3.7486081875460804 25.5446
3.7709365132734978 25.6005
3.793247578841633 26.5514
3.8155761917550093 26.8635
3.8378875459837216 26.8282
3.8602164494827234 27.1551
3.882545499606844 27.8743
3.9048572932539183 28.4792
3.9271866390645718 28.915
3.9494987298666713 29.7469
3.971828374764527 30.1024
3.9941581705403255 30.523000000000003
4.016470713506008 31.0363
4.038800813471445 31.6875
4.061113662089144 32.7058
4.0834440696459176 33.3725
4.105774632334751 33.8196
4.128087945865126 34.3045
4.150418821249301 35.4082
4.172732448931298 36.2801
4.195063640413578 38.7675
4.2173775856475215 42.221000000000004
4.239709096631102 73.4131
4.262040768704612 230.18099999999998
4.284355196706267 306.783
4.306687193387355 201.363
4.329001947444346 80.0298
4.35133427213731 47.3962
4.373666762177566 43.8082
4.395982011761091 43.9892
4.418314834921175 45.4401
4.44063041906622 53.0547
4.4629635787515625 63.3392
4.4852969080429785 63.1206
4.5076130004776225 53.0439
4.529946671403969 49.5714
4.552263106909177 49.872
4.574597122877047 50.7435
4.596931312711224 51.7889
4.619248269273446 52.3158
4.6415828092605835 53.1901
4.663900117405352 54.5537
4.686235010953232 56.0745
4.708552674085913 57.0564
4.730887924602802 58.391999999999996
4.753223354952695 59.9444
4.775541557023902 61.3725
4.797877349456786 62.9094
4.820195915032126 64.7719
4.842532072957498 66.0857
4.864868414979744 68.002
4.88718753227192 69.986
4.909524244902505 71.8574
4.931843734218147 73.2223
4.954180820867835 75.9288
4.976518095879839 78.5619
4.998838149695359 81.442
5.021175803844231 84.8099
5.043496238205739 87.6769
5.065834274903528 92.3452
5.088172504230693 96.4319
5.1104935158799565 101.471
5.132832132875765 121.32700000000001
5.155153533596801 161.123
5.1774925416746225 187.895
5.199814334878411 280.181
5.2221537374521505 754.618
5.244493338631803 2437.31
5.266815727034316 7523.81
5.289155727832427 13586.9
5.311478517248165 9119.92
5.333818921080011 2869.96
5.356159527788849 529.187
5.3784829252032536 173.317
5.400823940070432 138.254
5.423147747031976 124.382
5.445489173474152 115.691
5.467830807066149 110.43
5.490155234831516 107.03299999999999
5.512497285125229 103.631
5.534822130975162 101.84700000000001
5.557164601388673 99.8901
5.579489868738879 97.1925
5.601832762690846 96.4218
5.6241758697774475 96.098
5.646501775867269 94.84200000000001
5.668845311622074 93.04
5.691171647754637 92.7309
5.713515615597765 91.4466
5.735859800852677 90.1313
5.758186788542988 89.4181
5.780531411018185 89.8628
5.802858837297399 89.2004
5.825203900414495 88.8449
5.8475491852224 88.9575
5.869877275883075 89.5772
5.892223006467101 90.4426
5.914551544266608 91.1961
5.936897724049891 92.7847
5.959244129804903 96.2962
5.981573344815301 108.76100000000001
6.0039202049061 173.18599999999998
6.026249875609095 365.93800000000005
6.04859719346037 809.437
6.070927323278297 2132.39
6.093275102315365 4613.47
6.115623113320588 5355.45
6.137953938319995 3135.65
6.160302415650845 897.25
6.182633708324452 210.697
6.2049826554078376 107.155
6.227331838745022 89.0753
6.249663839443684 82.6655
6.27201349767565 80.2053
6.294345974611799 87.1471
6.316696111167083 97.829
6.339046488263839 92.8084
6.361379686074702 78.4928
6.383730546639482 70.6547
6.406064229255215 67.7998
6.428415576718203 67.5275
6.450749747566656 65.9736
6.47310158535871 64.8723
6.495453669698332 64.6966
6.517788579421056 63.7733
6.540141159237969 63.1602
6.562476565766648 62.498000000000005
6.5848296444934045 61.7149
6.607182974060425 61.4035
6.6295191323281015 61.8029
6.651872965955752 65.3676
6.6742096296068985 90.7133
6.6965639707294615 135.105
6.71891856698715 134.279
6.741255995248479 92.3765
6.763611104154477 67.0868
6.785949046381137 59.4424
6.808304671371482 57.7229
6.8306605557940046 57.3784
6.852999275508618 56.5752
6.875355681171544 56.4469
6.897694923437771 56.2871
6.92005185377892 56.1542
6.9423916220322655 55.9522
6.964749080490181 55.3884
6.987106804399774 55.1634
7.009447368180821 55.0674
7.031805625367033 54.736000000000004
7.054146723727803 54.7584
7.076505517631004 54.3724
7.098864581288365 54.365
7.121206488070854 54.2481
7.143566093607822 53.6676
7.165908543567245 54.6274
7.188268694426048 54.6621
7.2106291193438095 54.6277
7.232972390625943 56.3373
7.255333366030969 69.1764
7.277677189091925 122.992
7.300038718428332 166.359
7.322400526130865 139.998
7.344745183422596 87.2972
7.367107550224791 61.0648
7.389452767901992 55.7235
7.411815697249891 54.6131
7.434161478756298 53.8434
7.456524974096713 53.9059
7.478888753837185 53.6298
7.501235387657368 53.8109
7.523599738562711 53.8928
7.545946944825532 54.3702
7.568311870344528 54.501999999999995
7.5906770845765665 54.821999999999996
7.613025156078678 56.3011
7.635390950099687 56.9739
7.657739602662809 56.5235
7.680105979923558 55.2305
7.702472650212829 55.187
7.724822180948224 55.3423
7.747189439655568 55.5043
7.769539560075357 55.571000000000005
7.791907410653562 56.0471
7.81425812420825 55.8293
7.836626570110925 55.9464
7.858995315087906 56.6595
7.881346924933401 56.9686
7.903716270417482 57.4573
7.926068482028405 57.7137
7.948438431475253 58.7259
7.9708086843180235 58.9276
7.993161805171116 59.5243
8.015532667162402 59.7442
8.037886398416653 60.9288
8.060257873014221 61.3015
8.082629655331942 61.7275
8.104984308787587 63.0028
8.127356708900503 66.0829
8.149711981398308 71.7141
8.172085002766314 73.9671
8.194458336181368 70.7382
8.216814543847752 68.4741
8.23918850371002 68.2095
8.26154533906492 69.1691
8.283919928836452 70.4794
8.306277395339652 71.46
8.328652618483376 72.607
8.351028159736202 74.4585
8.373386579575245 76.5874
8.395762759396959 78.6522
8.418121819038275 83.1104
8.440498640894003 95.4123
8.462875785192262 108.244
8.485235811156207 116.038
8.507613602688501 143.69299999999998
8.529974277114228 215.653
8.552352719347912 335.725
8.574731488360351 587.357
8.59709314210385 1147.4
8.619472567021075 1896.61
8.64183487789147 2299.82
8.664214962183097 1800.58
8.686577933647762 919.345
8.708958680784317 354.68300000000005
8.731339760774953 157.9
8.753703729764451 107.316
8.77608547780821 96.33200000000001
8.798450116065078 93.3733
8.820832535634787 90.4615
8.843215292401656 89.2926
8.865580941199045 88.0493
8.887964374703538 87.4914
8.910330701447199 87.9611
8.932714815164482 90.1627
8.955099270424924 89.3761
8.977466620733543 86.5033
8.999851761421976 83.8752
9.022219798361645 82.0811
9.04460562795561 81.9583
9.066991803441677 81.4262
9.089360876979615 81.4651
9.111747746589993 81.1441
9.13411751544971 80.2855
9.156505082664324 80.5271
9.178875550323522 80.5524
9.20126381862328 80.6785
9.223652438908596 81.2222
9.246023961427412 81.1109
9.26841328802173 80.4696
9.290785518039224 80.3284
9.313175554425882 81.1119
9.335565947154315 80.743
9.357939245086508 81.0408
9.380330352834827 81.4583
9.40270436697103 81.7319
9.425096193225055 81.1579
9.447488380180165 82.399
9.469863475295412 82.5287
9.492256385987508 83.1236
9.514632206018318 83.5042
9.537025843935714 84.2599
9.559402392368193 84.5107
9.581796761000229 85.5007
9.604191496441521 86.5552
9.626569144158516 89.976
9.648964615551032 94.2849
9.671343000390081 95.9878
9.693739211225699 93.6925
9.716135793237463 92.0923
9.738515290448102 91.4988
9.760912617143402 92.0092
9.783292860202891 93.5953
9.805690935076182 94.7763
9.828089385495742 95.2132
9.850470754023561 97.7168
9.872869957865444 105.273
9.89525208097539 119.585
9.917652041736662 131.188
9.940052382417589 129.886
9.962435644102392 131.129
9.984836746950979 156.37
10.007220771957746 210.50900000000001
10.029622640473708 301.58299999999997
10.052007432299963 473.69699999999995
10.074410069984072 776.008
10.096813093716005 1281.81
10.119199042482517 1804.45
10.141602840636468 1981.81
10.163989564971628 1516.58
10.186394141051062 829.4789999999999
10.208799107559706 356.402
10.231187001965623 173.959
10.253592751657669 121.89
10.275981430388155 110.445
10.298387966769793 109.859
10.320794897965431 112.691
10.343184759907361 111.29799999999999
10.36559248305461 105.977
10.387983138083852 102.165
10.410391656691655 102.916
10.432800574501677 110.89299999999999
10.455192425893369 124.572
10.47760214443012 149.275
10.499994797678786 191.063
10.522405320453982 273.074
10.54479877906917 407.119
10.567210109595656 527.632
10.5896218454736 587.52
10.612016518879773 496.824
10.634429067781074 349.426
10.656824555333241 197.205
10.679237920773568 121.585
10.701651695961992 94.6622
10.724048411481384 87.5831
10.746463008485165 84.7674
10.768860546937125 83.3602
10.791275969274796 81.4899
10.81369180576079 81.018
10.836090585366925 79.7047
10.858507252467449 78.7408
10.88090686379991 77.5823
10.903324365036394 77.1163
10.925724811614439 76.9079
10.948143150509463 78.0734
10.970561909719066 77.52199999999999
10.992963615930844 75.5255
11.015383218085756 73.5719
11.037785768347074 72.1927
11.06020621697282 71.4892
11.082627090322113 71.1679
11.105030913430326 70.8113
11.12745263854165 71.5651
11.149857314510728 74.9244
11.172279894912576 80.3575
11.194702904450653 80.7817
11.217108866490921 77.1454
11.239532736615194 72.7491
11.26193956033512 70.6889
11.284364294577085 69.0257
11.306789462371718 67.2014
11.329197585398376 65.9005
11.351623622610898 65.8341
11.37403261614354 65.1058
11.396459526308487 65.0683
11.418869393879497 64.3948
11.441297180532617 63.8742
11.463725406927658 63.9051
11.486136592353875 63.6665
11.508565700543707 64.3442
11.530977768845315 66.0032
11.553407762368774 66.6774
11.575838200059769 66.185
11.598251599479612 64.3029
11.620682927815501 63.0691
11.64309721895548 62.6018
11.665529441478206 62.0707
11.687962112597958 61.8404
11.710377748130886 61.8099
11.732811318753434 61.7507
11.755227854859067 61.8884
11.777662328529495 61.683
11.800079768750786 61.5161
11.822515149015453 61.0786
11.844950984084935 61.29
11.867369787303163 61.434
11.889806534289491 61.336000000000006
11.912226250487029 61.6202
11.934663912939751 61.6019
11.9571020346363 61.6544
11.979523127133968 61.5362
12.001962169624331 62.4147
12.024384183972964 62.8849
12.046824150809913 65.2692
12.069264581333726 69.6001
12.091687985297767 75.1799
12.11412934550045 83.8738
12.136553680195208 98.617
12.158995973632788 123.037
12.181438735204349 154.99
12.20386447284199 188.176
12.226308172985636 207.81599999999997
12.24873485024193 197.333
12.271179492516982 160.526
12.293607112949127 122.48700000000001
12.316052700916226 95.4328
12.338498763250042 77.2447
12.360927805303868 68.7309
12.383374818673879 65.1962
12.405804812803074 63.5037
12.428252780773262 63.2324
12.45070122756722 63.1772
12.473132656675375 62.9544
12.49558206341869 63.1321
12.518014453510101 63.2428
12.540464823770117 63.2523
12.562915677315177 63.5216
12.58534951575545 64.3641
12.607801338171472 66.25
12.630236146511358 71.3169
12.652688941369085 75.738
12.675124723177234 76.3657
12.697578494048786 72.5848
12.720032754458185 68.4328
12.742470003354093 66.547
12.764925245138771 66.3696
12.787363476431278 66.8366
12.809819703166806 67.0659
12.83227642391173 67.6013
12.854716135692716 68.0486
12.877173846755147 69.3095
12.899614549869717 69.6642
12.9220732548287 70.1796
12.94453245827299 70.6282
12.966974655289818 71.8856
12.989434858002571 72.4988
13.011878055298721 73.2449
13.034339260862497 74.1294
13.056800969391883 75.3378
13.079245674017244 77.1161
13.101708390774869 78.6394
13.12415410463411 83.884
13.146617833206086 93.7669
13.169064559883248 104.273
13.191529303857127 117.87299999999999
13.213994557076367 139.472
13.236442809902437 176.42
13.258909083908291 234.63099999999997
13.28135835851934 306.703
13.30382565690295 381.108
13.326293469022952 431.526
13.348744283242008 422.844
13.371213125129904 343.089
13.39366497011003 245.675
13.416134845360597 166.783
13.438605238843131 119.241
13.46105863690397 101.566
13.483530069144786 100.029
13.505984506951902 103.985
13.528456981549432 112.868
13.550929978879088 127.561
13.573385983253365 150.787
13.595860028340867 191.43900000000002
13.618317081455832 248.65400000000002
13.64079217790333 312.175
13.663250283359057 361.413
13.685726434770173 375.865
13.708203115221277 327.869
13.730662806148091 251.679
13.75314054697177 178.399
13.775601299246777 123.94
13.798080104050406 94.2786
13.820559442405358 83.4179
13.843021793671388 79.9661
13.865502201420897 78.4973
13.887965623051947 77.9542
13.910447103807167 76.5951
13.932929122629764 75.4564
13.955394156785959 75.1456
13.977877254034569 74.4452
14.000343367582113 73.4907
14.022827546871707 72.9387
14.045294743423524 72.2968
14.06778000837062 71.6364
14.090265817715476 71.8226
14.112734645763819 71.0777
14.13522154619454 71.07
14.157691466286913 70.872
14.180179461423874 70.4733
14.202668005486178 70.0136
14.22513957064374 69.3493
14.247629214846473 69.0185
14.270101881097517 68.7427
14.29259262906496 69.2123
14.315083930490205 69.9143
14.337558255389705 70.048
14.360050666019726 69.8989
14.382526101071944 68.8542
14.405019624534942 67.8504
14.427513705993134 67.6477
14.449990813291825 67.5261
14.47248601302899 67.4221
14.49496423954951 67.1909
14.517460561197822 67.4968
14.539939910570322 67.2846
14.562437357763558 67.7037
14.58493536931253 68.6803
14.607416409993311 69.6393
14.62991555254159 70.4018
14.652397725157423 70.2236
14.674898002342799 68.9788
14.697398848433282 68.4874
14.719882725991326 69.3413
14.74238471217934 70.1265
14.764869730765593 72.4047
14.787372860692983 75.1434
14.809876564079925 79.0601
14.83236330125751 84.43
14.854868153850365 92.5112
14.877356041159485 106.13600000000001
14.899862046604186 125.477
14.922351087688757 153.13299999999998
14.944858249632887 184.919
14.967365991421232 215.05599999999998
14.989856770231246 229.26
15.012365673994204 218.541
15.03485761569738 185.172
15.05736768508665 145.42600000000002
15.07987833888692 110.397
15.102372032001655 87.2065
15.124883856909658 74.8746
15.14737872204565 70.8083
15.169891721717274 69.2529
15.192405310371893 69.0617
15.214901940621196 69.4543
15.237416709527137 69.5034
15.259914520936249 69.6869
15.282430473753607 68.5472
15.304947020131227 67.6322
15.327446610371178 66.8139
15.349964346154254 65.9202
15.372465126703139 65.6841
15.394984055556009 65.1308
15.417486030076159 65.1695
15.44000615566487 64.7107
15.462526881230803 64.854
15.485030653812652 65.0163
15.507552581617434 65.1821
15.530057557334603 65.0237
15.55258069104857 64.9726
15.575104429329837 64.8794
15.597611216864632 64.2868
15.620136166564563 64.2841
15.6426441664095 64.8908
15.665170331202765 66.2304
15.687697105158826 69.1836
15.710206930593545 72.0151
15.732734925158933 76.1603
15.755245972089478 81.9051
15.77777519094324 90.92299999999999
15.800287463046663 104.234
15.822817909869592 124.73700000000001
15.84534897229804 148.525
15.867863089299354 174.606
15.890395385222186 190.84900000000002
15.912910736597423 195.36900000000003
15.935444269699861 181.11700000000002
15.957978423016485 149.68
15.980495633101265 119.12799999999999
16.003031029129367 93.2322
16.02554948280019 74.9948
16.048086125229432 66.6698
16.070623392487107 64.2198
16.09314371869582 63.3473
16.11568223789321 62.2877
16.13820381691126 61.3256
16.160743591742527 60.3353
16.183283996022084 59.3601
16.205807461423195 58.2789
16.228349126881973 57.8785
16.25087385432698 57.7426
16.27341678466365 57.3035
16.29594277784926 57.1708
16.31848697676433 57.5685
16.341031811604868 58.0268
16.36355971058487 58.0404
16.3861058195587 57.5352
16.40863499352978 56.461000000000006
16.431182380342005 55.7052
16.453730407713202 55.2616
16.476261501364792 54.7907
16.498810812136167 54.1397
16.52134319004079 54.4768
16.54389378792203 54.4149
16.566445031001553 54.3355
16.588979342490088 54.1976
16.61153187824822 53.9145
16.634067483263312 53.8531
16.656621315414416 53.7619
16.679175797408888 53.299
16.701713349928728 53.5077
16.72426913389191 53.6947
16.74680798922351 53.9006
16.76936507887444 53.946999999999996
16.791905240734874 53.9302
16.814463639794468 53.7485
16.837022695210294 53.9174
16.859564824093756 54.5359
16.882125194503903 54.9143
16.904668639217885 55.5368
16.927230328348003 55.6181
16.949792678493612 55.7021
16.972338104193863 55.1066
16.994901778652235 54.4999
17.017448529496576 54.5694
17.040013531998152 54.6537
17.06257920018044 54.9432
17.0851279459922 55.5889
17.107694947817667 56.2035
17.130245028099072 57.0986
17.15281336730298 58.3468
17.17536478578733 60.1367
17.19793446610687 62.1299
17.220504818648422 65.2841
17.243058251703697 68.9698
17.265629950971032 73.9181
17.288184731571736 78.8655
17.310757781306908 82.68299999999999
17.33333150794385 83.0224
17.355888317140174 80.1576
17.37846339986244 75.2178
17.401021565958885 69.2223
17.42359800851343 64.2367
17.44617513265564 60.5279
17.468735341390783 58.6457
17.491261035594565 57.8022
17.51396340099364 57.7311
17.536490463869136 57.9143
17.559018209820174 57.955
17.58154663977963 58.0146
17.604251766089718 58.0388
17.626781572227713 58.3066
17.64931206518155 58.6467
17.671843245885103 59.1539
17.69455114821572 59.3572
17.717083712612634 59.7609
17.739616967569667 59.8776
17.762150914021706 59.9201
17.78486160749854 60.0121
17.807396945166804 60.5597
17.829932977143503 61.0529
17.85246970436452 62.2869
17.875183204129467 63.913999999999994
17.897721330097664 65.8536
17.920260154126645 68.1256
17.942799677153296 70.9779
17.9655159983646 74.2828
17.988056927677544 79.8512
18.010598558807683 87.8817
18.033140892692916 98.7892
18.05586005052525 110.78
18.07840379824407 123.198
18.10094825154059 131.847
18.12366954819864 137.392
18.146215420998306 134.95
18.16876200220057 124.45299999999999
18.191309292745153 110.927
18.214033452627167 98.9901
18.236582170236648 88.3007
18.259131600016456 83.8611
18.281681742907335 84.5943
18.304408781233683 90.0569
18.32696035875955 96.1095
18.349512652227624 101.175
18.372065662579683 104.97
18.394795594587553 105.324
18.41735004715306 100.495
18.43990521943684 93.3752
18.46246111238171 83.7974
18.485193953325208 75.15899999999999
18.507751296070428 68.4151
18.530309362314178 64.3116
18.552868153000343 62.1716
18.57560391815056 60.8861
18.59816416623245 60.5734
18.620725141597372 60.0417
18.643286845190268 59.5584
18.666025549835414 59.2775
18.688588718427933 58.5705
18.711152618092243 58.4662
18.73389353884365 58.3235
18.75645890921984 57.9482
18.77902501351406 57.5495
18.801591852673102 57.3253
18.824335739722738 57.0556
18.846904057212626 56.9709
18.8694731124168 56.7304
18.89204290628315 56.5388
18.914789774966803 56.475
18.937361054791623 56.0893
18.959933076131318 55.8972
18.982505839934877 55.8931
19.00525570560582 56.1313
19.027829963004184 55.9615
19.05040496572238 55.7307
19.072980714710468 55.7792
19.095733592739563 55.8087
19.11831084296757 55.9948
19.140888842324735 56.3266
19.16346759176222 56.8766
19.18622349753803 57.2772
19.208803755869358 58.0625
19.231384767143577 59.1897
19.253966532312948 60.6428
19.276725481241822 62.8559
19.29930876296784 65.7139
19.3218928014549 69.0775
19.34465404436217 71.9713
19.36723960516257 74.6433
19.389825925592426 74.9641
19.412413006605938 73.7036
19.43517731967805 70.1406
19.457765930683355 66.0445
19.48035530514408 61.4641
19.50294544401556 57.8431
19.525712842708348 55.3142
19.54830451925909 54.056000000000004
19.570896963095727 53.2528
19.593490175174704 52.928999999999995
19.616260674962184 52.9132
19.638855432416964 52.5648
19.661450960992624 52.6636
19.68404726164677 52.3212
19.706820878021247 52.2435
19.729418731756834 52.4444
19.752017360452857 52.0751
19.77461676506804 52.4362
19.797393513540218 52.433
19.819994478951667 52.5664
19.84259622316767 53.2115
19.8651987471481 53.7535
19.887978643247177 53.8413
19.91058273574792 54.2835
19.933187610901943 54.9217
19.955969879466828 55.9526
19.97857632894404 57.5789
20.00118356396599 59.4339
20.023791585494575 61.6252
20.046577028914875 64.4334
20.069186632506966 66.7236
20.091797025500632 68.1401
20.114408208858933 68.7534
20.137196842715273 67.7523
20.159809615886765 66.1374
20.18242318232135 63.7236
20.20503754298326 61.8851
20.227829382875154 61.1397
20.250445341109344 61.3411
20.27306209647285 62.29
20.29567964993108 63.7885
20.31847471147704 64.4005
20.34109387027612 65.1243
20.363713830075454 64.6894
20.386334591841646 62.3879
20.409132890679302 59.6317
20.431755265564437 56.9531
20.454378445325528 54.2525
20.477002430930366 52.5117
20.499803982716553 51.1875
20.522429589228004 50.7065
20.54505600449589 50.1081
20.567683229489194 49.6982
20.590488049900088 49.4229
20.61311690359731 49.3201
20.63574656993626 49.1662
20.658553853717297 48.7624
20.681185154618298 48.8001
20.703817271080066 48.6551
20.72645020407368 48.3416
20.749260783967177 48.2547
20.771895359337133 48.1947
20.794530754161617 48.1077
20.817166969412938 47.8389
20.83998086114876 47.7772
20.86261872660049 47.7496
20.885257415405402 47.8168
20.90789692853701 47.5798
20.930714147864748 47.5662
20.953355319030678 47.708
20.97599731745334 47.8468
20.99864014410749 47.5737
21.021460706796564 47.8118
21.044105199328826 47.888000000000005
21.06675052302631 48.0711
21.089396678865015 48.0815
21.112220600704806 48.5005
21.134868430275347 48.8378
21.15751709492456 49.1949
21.180166595629693 49.6035
21.202993892429635 49.99100000000001
21.22564507473034 50.2576
21.24829709602816 50.57
21.27112693608965 50.6286
21.293780644891275 50.4784
21.316435195634053 49.7203
21.339090589297417 49.0948
21.361923832041875 48.5388
21.384580921090404 47.9929
21.407238856007325 47.4517
21.429897637773326 47.468999999999994
21.45273429906592 47.3975
21.475394784108598 47.4335
21.498056118951983 47.4275
21.520718304578022 47.5932
21.543558400304388 47.66
21.566222297108816 47.9524
21.58888704765135 47.7949
21.61155265291521 48.2094
21.63439619898156 48.511
21.657063523335786 48.7545
21.67973170537063 49.156000000000006
21.7024007460706 49.5639
21.72524775840385 50.2959
21.747918526116475 51.2516
21.770590155457388 52.6168
21.79326264741238 54.25
21.816113141960237 56.2942
21.838787368860547 58.4863
21.861462461341976 60.443000000000005
21.884315579735777 62.3079
21.90699241312273 63.4203
21.92967011506078 63.4484
21.95234868653799 62.7752
21.9752053151131 61.4248
21.997885635446785 59.5321
22.020566828293532 57.8994
22.04324889464272 56.513000000000005
22.066109049404666 55.4696
22.088792872571794 55.0934
22.111477572219204 55.2968
22.1341631493376 55.1794
22.157026846313123 54.8262
22.179714188221507 54.012
22.202402410582668 52.9393
22.22509151438863 51.3852
22.24795876962584 50.2089
22.270649646204486 49.4453
22.293341407213727 48.7854
22.316034053646906 48.4727
22.338904883215342 48.0716
22.36159931041458 48.1546
22.38429462602756 47.9677
22.40699083104897 47.8207
22.429865251039757 48.0602
22.452563244831367 47.9525
22.47526213102522 47.8349
22.49813925616515 47.607
22.520839937143307 47.5954
22.543541513520587 47.7351
22.56624398629403 47.4708
22.589124730075895 47.3798
22.611829005656723 47.6918
22.63453418063466 47.7016
22.657240256008077 47.7888
22.680124634582935 47.8162
22.70283252079775 48.1982
22.725541310413075 48.4819
22.74825100442868 48.6849
22.771139033969575 48.9886
22.79385054687155 49.1033
22.81656296718292 49.956
22.83927629590484 50.8524
22.862167992606945 52.0959
22.88488314827121 53.3837
22.907599215359284 54.4603
22.93031619487366 55.7136
22.953211574954405 56.4779
22.975930389478226 56.8912
22.998650119445763 56.675
23.02137076586092 56.0193
23.044269845560063 54.8187
23.06699233506288 53.246
23.089715744034912 51.4961
23.112617610931565 49.8802
23.135342869061212 48.9297
23.158069049684816 48.2723
23.1807961538087 47.7794
23.20370174880544 47.8384
23.226430710184808 47.7654
23.249160598093425 47.7571
23.271891413539002 47.7099
23.294800752937697 47.8028
23.31753343374794 47.9949
23.340267045128353 47.9583
23.36300158808808 48.2259
23.38591468821339 48.5264
23.408651104658304 49.0187
23.431388455719986 49.5824
23.454126742409 50.5978
23.4770436196085 51.6716
23.499783787914662 53.1095
23.522524894889884 54.2797
23.54526694154616 55.4388
23.56818761219047 56.4947
23.59093154860734 56.8641
23.613676427751283 56.9094
23.636422250635754 55.9449
23.659346731118656 54.4024
23.68209445191868 52.4975
23.704843119509587 50.4411
23.72759273490623 48.5883
23.750521041644767 47.1766
23.77327256312355 46.3067
23.796025035462787 45.7197
23.818956224555475 45.2095
23.841710609113413 45.0945
23.86446594758979 45.0073
23.887222241002014 44.7463
23.910157285144578 44.3302
23.932915498962537 44.3825
23.955674670778713 44.123000000000005
23.978434801611975 43.9416
24.001373717286125 43.9308
24.024135776723917 43.8426
24.046898798245582 43.6588
24.06966278287146 43.63399999999999
24.092605586582614 43.4305
24.115371508023642 43.2057
24.1381383956401 43.1025
24.16090625045381 43.2422
24.183852958731244 43.1536
24.206622758582608 42.941
24.229393528706886 42.7602
24.252165270127392 42.9403
24.27511589952438 42.9725
24.297889594216997 42.6338
24.32066426328598 42.4468
24.34343990775613 42.4808
24.36639447485003 42.4328
24.38917208083877 42.4005
24.41195066531332 42.1711
24.43490819850244 42.3865
24.457688750692377 42.1931
24.48047028445616 42.2179
24.503252800821233 42.3104
24.526214300784112 42.3823
24.548998793132213 42.2938
24.57178427117417 42.1522
24.59457073593893 42.1789
24.617536219319863 42.1278
24.64032466834748 42.1765
24.663114107195035 41.9264
24.685904536893013 41.7458
24.708874020360852 41.6516
24.731666442613744 41.5792
24.754459858818787 41.4884
24.777254270007962 41.5454
24.80022777025625 41.4128
24.82302418230472 41.3087
24.845821592443674 41.4286
24.86862000170663 41.3711
24.891597535453727 41.3189
24.914397953892728 41.5273
24.93719937456671 41.3066
24.96000179851076 41.472
24.98298338249997 41.5499
25.00578782394922 41.8045
25.028593271784167 42.0055
25.05157790644186 42.3611
25.07438537804115 42.6051
25.097193859145293 42.7602
25.120003350792075 42.9187
25.142992065061257 43.2248
25.165803588823465 43.5706
25.18861612625217 43.8324
25.211429678386736 43.857
25.234422489079968 43.9691
25.257238081693636 44.0347
25.280054692141732 44.1539
25.3028723214652 44.233000000000004
25.325869245420463 44.2972
25.348688923599397 44.343
25.371509623787006 44.0919
25.394331347025812 43.7394
25.41733240110666 43.1556
25.440156181590016 42.4587
25.46298098826268 42.1501
25.48580682216873 41.57899999999999
25.50881202326435 41.0842
25.53163992281684 40.8228
25.55446885274561 40.4591
25.577298814096377 40.1678
25.600308179121807 40.0076
25.623140214533745 40.0555
25.64597328451537 39.969
25.66898578564376 39.7226
25.691820936010206 39.7707
25.714657124097695 39.6186
25.737494350954734 39.7246
25.760511045684957 39.5425
25.783350361364224 39.7769
25.806190718969255 39.7068
25.82903211955018 39.8634
25.852053024868923 39.8266
25.874896522722523 39.7713
25.897741066713106 39.7789
25.920586657892454 39.9563
25.943611790812668 40.1519
25.966459487728237 40.1005
25.989308234998564 40.2761
26.01215803367705 40.6134
26.03518741123814 40.7112
26.05803932412957 40.9348
26.080892291600094 40.8847
26.10374631470478 40.7566
26.12677995397268 40.9428
26.14963609978026 40.8536
26.172493304397875 40.5647
26.19535156888223 40.3274
26.218389486949604 39.9471
26.241249882640123 39.7445
26.26411134137826 39.4337
26.28715248187403 39.3813
26.31001607820869 39.3716
26.3328807407756 39.1142
26.35574647063438 39.3099
26.37879191991473 39.3132
26.401659795896734 39.3757
26.424528742360263 39.4932
26.447398760366614 39.7259
26.470448535598294 39.6924
26.49332070826805 39.9132
26.516193955675355 40.2269
26.53906827888316 40.5438
26.562122397260108 40.6926
26.584998883685063 41.0729
26.607876449110325 41.3202
26.63075509460056 41.4381
26.65381357334404 41.4539
26.67669439061878 41.3684
26.699576291163382 41.2668
26.722459276044212 40.9857
26.745522132402975 40.7757
26.768407297649354 40.6654
26.791293550442003 40.3608
26.814180891848974 40.1217
26.837248143099337 39.7581
26.860137673466657 39.7563
26.88302829566349 39.5444
26.90592001075963 39.3325
26.92899167420566 39.085
26.951885586870763 38.6736
26.974780595655517 38.5957
26.99785558178161 38.434
27.020752794605112 38.3778
27.043651106772522 38.1817
27.06655051935668 38.1032
27.089629948036183 37.9677
27.112531573292053 37.9075
27.135434302194138 37.9745
27.158338135817015 37.9165
27.181422024430987 37.9393
27.204328079372566 37.8456
27.22723524226965 37.8196
27.250143514198573 37.8887
27.273231880156334 38.0063
27.296142382065014 37.7059
27.319053996245536 37.6471
27.341966723775965 37.6927
27.365059584515222 37.7677
27.38797455070062 37.8205
27.410890633481237 37.7926
27.433807833936918 37.7949
27.456905206923906 37.8305
27.47982465472398 37.6793
27.502745223449743 37.8574
27.525666914182825 37.9074
27.548768816912457 37.7247
27.571692763693633 37.7102
27.59461783573812 37.5746
27.617723149491244 37.5315
27.640650484125285 37.4573
27.66357894728264 37.3994
27.686508540048052 37.3253
27.709618414237887 37.3713
27.732550278321757 37.1385
27.755483275279115 37.1444
27.778417406196485 37.1228
27.801531858397514 37.1435
27.824468269376716 37.07
27.847405817586786 37.01
27.870344504116094 37.2702
27.893463551932008 37.2998
27.916404527281053 37.5408
27.93934664422563 37.6646
27.962289903855886 37.6352
27.98541356491974 37.9685
28.00835912214229 38.042
28.03130582533231 38.3805
28.054253675581805 38.4713
28.077381967556104 38.2823
28.100332124185126 38.2879
28.123283431160893 38.2524
28.146235889577238 38.1685
28.169368830154156 38.1217
28.192323603752033 37.8482
28.215279532083304 37.4811
28.238415973016764 37.1735
28.261374223145094 37.1928
28.284333631303806 36.9593
28.307294198589954 36.7472
28.330435319167677 36.5181
28.353398217078915 36.1937
28.376362277420153 36.0232
28.39932750129032 35.8613
28.422473319286713 35.7157
28.44544088262495 35.7213
28.468409612800283 35.5383
28.491379510913497 35.4295
28.51453004413313 35.3386
28.53750229057244 35.2382
28.56047570826344 35.2069
28.583450298308804 35.2683
28.606605564586562 35.0125
28.629582511831156 35.0769
28.65256063474956 34.878
28.675539934446338 34.9995
28.698699951647605 35.0262
28.72168161743193 34.7819
28.74466446331978 34.937
28.767648490417624 34.7927
28.790813276438353 34.8256
28.813799678527303 34.9263
28.836787265157085 34.8725
28.859955641890075 34.8039
28.882945610203045 34.6853
28.905936766392035 34.6637
28.928929111566863 34.7485
28.952102288520145 34.6396
28.975097024308607 34.4448
28.998092952423807 34.3626
29.021090073977508 34.2551
29.04426806913204 34.2288
29.067267590245258 34.1644
29.090268308143695 33.9568
29.11327022394099 34.0339
29.13645305530891 33.8788
29.159457379627167 33.8443
29.18246290519685 33.7172
29.20546963313352 33.63
29.22865731875826 33.7042
29.25166646419296 33.7076
29.27467681535305 33.6977
29.29768837335608 33.7632
29.320880931312562 33.8645
29.34389491580634 33.7625
29.366910110507334 33.6186
29.38992651653503 33.6671
29.41312396492981 33.7085
29.436142806456754 33.4595
29.45916286268059 33.4607
29.48236399319994 33.3496
29.50538649169417 33.1909
29.528410208259935 33.1395
29.55143514402014 33.0383
29.574641196749695 32.8575
29.597668583816574 32.6122
29.6206971934585 32.6096
29.64372702680042 32.5777
29.666938019934474 32.4369
29.689970313635285 32.3768
29.713003834422636 32.4724
29.73603858342347 32.343
29.759254535188578 32.2099
29.78229175361658 32.1689
29.80533020365064 32.2304
29.82836988641968 32.2651
29.85159081507472 32.154
29.874632976355343 32.0203
29.89767637376955 32.1495
29.920721008448314 31.9204
29.9439469322847 31.9851
29.96699405457564 31.9172
29.9900424175358 31.9644
30.013092022298157 31.9118
30.03632295963995 31.8445
30.059375061131373 31.8378
30.08242840783577 31.8865
30.105483000888153 31.9747
30.128718970092244 31.7948
30.151776069006917 31.8523
30.17483441768648 31.9195
30.198074175317235 31.7876
30.221135036724256 31.8109
30.24419715131772 31.7688
30.267260520236203 31.6354
30.290505341942243 31.6802
30.313571232750228 31.7512
30.336638381310948 31.753
30.35970678876503 31.6538
30.38295669299435 31.6331
30.40602763151657 31.5278
30.429099832366074 31.5013
30.452173296685572 31.4291
30.47542830191959 31.4466
30.498504306502497 31.3978
30.521581577995562 31.5524
30.544660117543582 31.5527
30.56792024229725 31.6374
30.59100133132069 31.5651
30.614083691845494 31.6751
30.637167325018545 31.6511
30.660432587840603 31.7651
30.683518779717886 31.6313
30.70660624769615 31.7703
30.729694992924372 31.581
30.75296541239743 31.6694
30.77605672557558 31.5478
30.799149319462742 31.5071
30.8224236211637 31.3944
30.845518789950724 31.2684
30.868615242910597 31.186
30.891712981195973 31.095
30.91499247215866 31.1003
30.938092794619365 31.0059
30.96119440587579 31.0604
30.984297307082752 30.8456
31.00758200598383 30.7208
31.030687500658694 30.7151
31.053794288760695 30.5812
31.076902371446767 30.4027
31.100192296997445 30.5221
31.12330298246119 30.3779
31.14641496599209 30.3319
31.169528248749216 30.386
31.19282341969534 30.3613
31.215939314557186 30.3967
31.239056512134788 30.3875
31.262175013589378 30.3688
31.28547544871168 30.24
31.30859657161541 30.27
31.331719001892175 30.326
31.35484274070538 30.415
31.378148458819545 30.3902
31.401274828443725 30.2875
31.424402510106933 30.3074
31.447712205419993 30.4854
31.470842524931633 30.2716
31.493974159989783 30.2409
31.51710711176168 30.2212
31.54042212308802 30.2883
31.563557722100917 30.2349
31.586694641341655 30.0162
31.609832881979628 29.9467
31.63315322823208 29.8686
31.656294125521327 29.8364
31.679436347728515 29.7177
31.70257989602529 29.6856
31.725905596152327 29.5931
31.74905181052835 29.5971
31.772199354521323 29.5878
31.79534822930507 29.5413
31.818679302290967 29.6583
31.84183085259981 29.6191
31.864983737233473 29.6474
31.88813795736804 29.6706
31.911474422233013 29.5879
31.934631327356435 29.6266
31.9577895715215 29.5132
31.980949155906522 29.4252
32.004291031706956 29.5491
32.027453310562606 29.3817
32.05061693318573 29.2798
32.07396288236386 29.3523
32.09712920658542 29.171
32.12029687812702 29.022
32.14346589817093 29.0572
32.166817291729984 29.0404
32.18998902288583 28.904
32.21316210610336 28.9437
32.23633654256711 28.7468
32.259693399663725 28.7065
32.282870556771144 28.6265
32.30604907069099 28.651999999999997
32.329228942610065 28.6478
32.35259128243769 28.4862
32.375773884550505 28.4949
32.398957848235646 28.4362
32.422143174682176 28.396
32.445511016471215 28.1954
32.468699082679954 28.2313
32.49188851523011 28.2957
32.51507931531304 28.1805
32.538452678331 28.0854
32.56164622776311 28.0189
32.58484114831493 27.9293
32.60803744118015 27.9813
32.631416344731896 27.9877
32.654615396551876 27.904
32.67781582427913 27.9451
32.701198898634416 27.834
32.72440209253756 27.8491
32.747606665947124 27.8028
32.77081262006088 27.6699
32.79420126883317 27.6994
32.81740999876112 27.6906
32.840620112999424 27.5363
32.86383161274818 27.4915
32.88722585534586 27.5192
32.91044014056596 27.5956
32.933655814909734 27.4811
32.95687287957963 27.4742
32.98027273544904 27.4208
33.00349259526636 27.3777
33.026713849030116 27.4515
33.04993649794511 27.3316
33.073341986570746 27.2231
33.09656744032826 27.3261
33.11979429286444 27.3283
33.14302254538647 27.2578
33.166433686291185 27.2013
33.18966475336992 27.1958
33.212897224069096 27.0769
33.23613109959831 27.1368
33.259547912343415 27.0159
33.2827846121627 27.079
33.306022720453775 27.041999999999998
33.32926223842861 26.9443
33.352684742614166 26.9407
33.37592709463173 26.9155
33.399170859982064 26.7997
33.422597648419426 26.7289
33.44584425514446 26.6876
33.46909227885668 26.5799
33.4923417207723 26.4919
33.51577423505344 26.5298
33.539026528130385 26.4734
33.56228024307245 26.4719
33.585535381098246 26.3025
33.60897364093058 26.3922
33.63223163992385 26.3116
33.6554910656699 26.2035
33.678751919389796 26.1293
33.702195944520106 26.0847
33.72545966903325 26.1012
33.74872482519663 26.0153
33.771991414233746 26.088
33.79544122444841 26.0456
33.81871069412428 25.949
33.84198160035767 25.8969
33.86525394437455 25.909000000000002
33.88870955949969 25.9063
33.911984794020626 25.7942
33.93526147001624 25.8078
33.958539588715006 25.7211
33.98200102861669 25.7117
34.0052820477047 25.5826
34.02856451319451 25.6661
34.05203033759056 25.5498
34.07531571090147 25.5294
34.09860253431845 25.5293
34.121890809074316 25.4891
34.145362493118924 25.3622
34.16865368561615 25.3246
34.191946333164054 25.293000000000003
34.21524043699793 25.331999999999997
34.23871800066799 25.3374
34.26201503218366 25.1735
34.28531352370466 25.1484
34.30861347646881 25.1667
34.33209693978188 25.0557
34.3553998301885 25.084
34.378704185565205 24.9541
34.402010007152356 25.0067
34.42549939016683 24.9816
34.44880815937748 24.7982
34.472118398533134 24.8309
34.49543010887669 24.7927
34.51892543169198 24.7614
34.54224009966052 24.7294
34.56555624255917 24.7031
34.58887386163339 24.6096
34.61237514439016 24.5417
34.6356957311114 24.5076
34.65901779775809 24.5337
34.68252356662995 24.4988
34.705848608458616 24.4168
34.72917513396849 24.3729
34.75250314440949 24.3589
34.77601490857862 24.3877
34.799345904259795 24.2909
34.82267838863559 24.2915
34.846012362958525 24.2475
34.869530142679984 24.2281
34.89286711232212 24.1209
34.91620557568269 24.1001
34.93954553401677 24.0797
34.9630693495876 24.0621
34.986412313340814 24.0495
35.00975677584668 24.011999999999997
35.033102738362956 24.0087
35.05663261012228 23.8869
35.0799815881786 23.8888
35.10333207003229 23.8083
35.12668405694369 23.8387
35.150220005273056 23.826999999999998
35.17357501786656 23.8525
35.19693153931268 23.7444
35.220289570874385 23.7156
35.24383161619786 23.7788
35.267192683604904 23.6817
35.290555264930376 23.7261
35.314101899412165 23.7069
35.33746752422433 23.6591
35.36083466676374 23.6357
35.38420332829803 23.6008
35.407756095629054 23.6461
35.43112781085063 23.5773
35.45450104888391 23.5885
35.477875810999194 23.6312
35.50143473172161 23.5746
35.52481255774625 23.5421
35.54819191167777 23.4417
35.57157279478914 23.3667
35.595137889488406 23.4032
35.61852184675279 23.3061
35.641907337029984 23.2411
35.665294361595684 23.2284
35.68886565090076 23.1838
35.7122557598848 23.1988
35.73564740699838 23.0898
35.759040593519934 23.0188
35.78261809810353 23.0486
35.80601437933051 22.9852
35.829412203814705 22.943
35.85281157283719 22.8703
35.876395313415884 22.8939
35.8997977874528 22.8079
35.92320180988546 22.7929
35.946790244133936 22.7259
35.97019737933222 22.6907
35.993606066789866 22.729
36.01701630779276 22.6554
36.04061101440684 22.6043
36.06402437852291 22.6144
36.08743930005611 22.6286
36.1108557802951 22.448
36.13445678011326 22.4782
36.15787639383515 22.5022
36.18129757014299 22.4002
36.20472031032821 22.3856
36.22832762423364 22.2653
36.25175350829375 22.2878
36.275180960119776 22.1958
36.298609981005924 22.3014
36.32222362992669 22.2577
36.34565580510207 22.1522
36.36908955323448 22.1469
36.39252487562093 22.0105
36.416144880530226 22.0646
36.43958336764275 22.0304
36.463023432914625 22.0546
36.486465077645676 21.929000000000002
36.51009145956204 21.9372
36.53353627947859 21.9866
36.55698268276811 22.0015
36.58043067073321 21.8513
36.60406345072071 21.763
36.62751462435344 21.7872
36.65096738658405 21.7687
36.67460498210655 21.8414
36.69806093788647 21.7065
36.72151848619297 21.5771
36.744977628333636 21.5632
36.76862165890998 21.5608
36.79208400512205 21.5168
36.81554794910557 21.5841
36.83901349217101 21.5322
36.862663978991606 21.5011
36.88613273667352 21.3893
36.90960309738324 21.3845
36.933075062434064 21.2912
36.95673202673572 21.2995
36.98020721697122 21.2562
37.003684015502365 21.2867
37.027162423645365 21.2968
37.050825886711465 21.2419
37.07430753063053 21.1988
37.09779078812467 21.1477
37.121275660513014 21.0961
37.144945643673694 21.083000000000002
37.16843376245278 21.026
37.19192350009803 20.9846
37.215414857931435 20.9798
37.239091382563885 20.8637
37.262585997426164 20.9019
37.28608223645736 20.9141
37.309763684451696 20.8443
37.33326318851098 20.7839
37.356764320726555 20.7926
37.380267082425526 20.7468
37.40395510942588 20.6923
37.42746114683234 20.6902
37.45096881771841 20.6576
37.474478123414166 20.6385
37.49817275092816 20.5604
37.52168534303452 20.5531
37.54519957395567 20.4815
37.568715445024665 20.4863
37.592416694607714 20.4689
37.61593586281424 20.4594
37.63945667518264 20.4642
37.66297913304891 20.3425
37.68668702630454 20.2979
37.710212792059274 20.2558
37.733740207334854 20.2712
37.757269273470364 20.2079
37.780983832050374 20.1801
37.80451621684926 20.1846
37.82805025654007 20.1147
37.851585952464795 20.066
37.8753071980695 20.0696
37.89884622345676 19.9946
37.92238690911902 19.9509
37.94611318753442 19.9551
37.969657210779765 19.961
37.99320289834801 19.8992
38.016750251586465 19.863
38.04048325513017 19.8454
38.06403395679343 19.7982
38.087586328183946 19.7585
38.11114037065203 19.7535
38.13488012115898 19.7645
38.1584375229181 19.739
38.181996599821 19.6951
38.205557353221124 19.6083
38.229303872575656 19.6206
38.2528679961576 19.5557
38.27643380031219 19.5029
38.30000128639589 19.4849
38.32375459653193 19.4622
38.34732546371299 19.4134
38.37089801690786 19.3329
38.39447225747609 19.3299
38.418232380377425 19.3107
38.441810012983396 19.3578
38.46538933705673 19.2385
38.488970353960084 19.2538
38.51273731166058 19.2053
38.536321731567014 19.2029
38.55990784840681 19.1288
38.58367995004091 19.1582
38.60726947812959 19.0585
38.63086070726198 19.0328
38.654453638806274 19.0783
38.678232613930824 19.0191
38.70182896773327 18.9426
38.72542702806741 18.9427
38.7490267963045 18.9233
38.77281266709232 18.8789
38.79641586862214 18.827
38.8200207821842 18.7978
38.843627409152944 18.8619
38.86742019782782 18.8344
38.891030269149255 18.7159
38.914642058016156 18.6695
38.938255565806124 18.6835
38.96205529464307 18.5956
38.98567225787121 18.5935
39.00929094417078 18.5908
39.03291135492255 18.6206
39.05671804624804 18.5675
39.080341923549106 18.4866
39.103967529460334 18.461
39.127594865365744 18.441
39.15140854155791 18.415
39.17503935514948 18.4081
39.19867190290282 18.3695
39.22249083587951 18.2984
39.24612686969409 18.3659
39.269764641845306 18.2917
39.293404153722804 18.3183
39.317230110864074 18.2044
39.34087311998506 18.1183
39.36451787301696 18.0933
39.388164371352595 18.0922
39.41199737518003 18.0476
39.43564738196752 18.0729
39.45929913825317 18.046
39.48295264543308 17.9854
39.506792718520884 17.9199
39.530449745387216 17.886
39.55410852735203 17.8628
39.57776906581474 17.9108
39.60161623079 17.8558
39.625280300200025 17.9019
39.64894613032202 17.7855
39.67261372255866 17.783
39.6964680021016 17.8045
39.72013913657293 17.7613
39.74381203738292 17.7499
39.76748670593756 17.6754
39.79134812278169 17.6232
39.81502634488497 17.6233
39.83870633896685 17.5726
39.862388106436654 17.5649
39.88625668336918 17.4841
39.90994201572829 17.5005
39.933629125719285 17.4182
39.957503091207826 17.3873
39.9811937746168 17.4408
40.00488623990914 17.3584
40.02858048850006 17.3408
40.05246165409549 17.2772
40.076159487492085 17.249000000000002
40.099859108448875 17.2937
40.123560518384345 17.2644
40.1474489070226 17.2492
40.171153913178564 17.1646
40.194860712584955 17.122
40.2185693066637 17.1611
40.242464941335314 17.038
40.26617714307655 17.092
40.289891143772046 17.0871
40.3136069448471 17.0078
40.33750984859743 16.9943
40.3612292688043 16.9626
40.3849504936829 16.9258
40.40867352466194 16.9189
40.43258372059144 16.885
40.45631038219906 16.8649
40.48003885420956 16.7711
40.503769138055105 16.8092
40.52768664931955 16.8323
40.55142057531802 16.750999999999998
40.57515631746428 16.7092
40.599079334038514 16.7294
40.62281872700477 16.7108
40.64655994043941 16.6621
40.67030297578061 16.6174
40.69423334835778 16.5832
40.71798004609188 16.577
40.74172857006355 16.5112
40.76547892171441 16.4941
40.7894166736039 16.5192
40.813170699248566 16.4797
40.83692655691388 16.4252
40.86068424804498 16.4227
40.884629402612525 16.4472
40.908390779366385 16.3911
40.932153993938 16.3504
40.95591904777605 16.336
40.979871628443995 16.3357
41.003640379561936 16.282
41.02741097430883 16.2838
41.05118341413683 16.274
41.075143444384416 16.1896
41.098919593177826 16.2048
41.1226975914255 16.1134
41.14647744058318 16.1034
41.170444943946755 16.0556
41.19422851378379 16.0915
41.218013938914645 16.0236
41.24198706625173 15.9985
41.26577622087193 15.9921
41.289567235177785 15.9186
41.31336011063129 15.9229
41.337340752422875 15.8372
41.361137369129835 15.9212
41.38493585138705 15.9017
41.40873620066004 15.8461
41.43272438060107 15.732000000000001
41.45652848292052 15.6857
41.48033445666918 15.7198
41.50414230331616 15.7211
41.528138045159764 15.6616
41.551949656675205 15.6163
41.575763145513235 15.6091
41.59957851314666 15.5895
41.62358184070442 15.5348
41.64740098505737 15.5328
41.6712220126409 15.5016
41.69504492493139 15.4852
41.71905586207357 15.4774
41.74288256296395 15.442
41.766711153007456 15.4096
41.79054163368412 15.4014
41.814560204340054 15.4201
41.838394485526365 15.3231
41.86223066180303 15.2837
41.88625497706819 15.2836
41.910094962812 15.3287
41.93393684811168 15.2563
41.95778063445365 15.2402
41.981812625263366 15.2266
42.00566023303407 15.1515
42.029509746323676 15.142999999999999
42.05336116662236 15.1217
42.077400857069705 15.1111
42.10125611078846 15.0354
42.12511327600405 15.0496
42.14897235421036 15.0533
42.173019768448455 15.0548
42.19688269209613 15.0009
42.22074753323349 14.9296
42.24461429335818 14.9369
42.268669455600495 14.8349
42.292540073217886 14.8368
42.31641261433284 14.8427
42.34028708044675 14.7912
42.36435001496739 14.8393
42.38822835065557 14.8029
42.41210861586426 14.7319
42.4359908120986 14.6842
42.46006154323262 14.6697
42.48394762115317 14.6422
42.507835634632315 14.6578
42.531912233047436 14.6379
42.55580413732265 14.5916
42.579697981698 14.5894
42.60359376768525 14.5754
42.62767820545945 14.5271
42.65157789440821 14.4956
42.67547952952185 14.4795
42.699383112316 14.4922
42.72347541395347 14.4085
42.74738291190531 14.3639
42.771292362102166 14.4739
42.795203766063516 14.3363
42.819303956130405 14.3456
42.843219287476536 14.2919
42.86713657716324 14.3333
42.89105582671383 14.2642
42.91516392983864 14.2751
42.939087119032166 14.2439
42.963012272677304 14.171
42.98693939230129 14.165
43.01105543317513 14.1176
43.034986504731386 14.0998
43.05891954686589 14.057
43.08285456110972 14.05
43.10697856448665 13.9992
43.130917542983475 14.0194
43.15485849820081 14.0148
43.17880143167367 13.9421
43.20293342237094 13.9136
43.226880332449 13.8975
43.25082922540554 13.89
43.27496722682525 13.8033
43.29892010567796 13.7784
43.32287497204102 13.7748
43.34683182745632 13.7517
43.370977859791836 13.761
43.39493871351105 13.7645
43.41890156092628 13.7449
43.44286640358341 13.6951
43.46702049182749 13.6669
43.49098934522816 13.6097
43.51496019852649 13.6412
43.5389330532723 13.585
43.56309522248204 13.6107
43.58707210044314 13.5772
43.61105098451946 13.5043
43.63503187626491 13.4669
43.659202151562134 13.4755
43.68318707902681 13.4664
43.70717401884041 13.4648
43.731162972560874 13.4222
43.75534137913236 13.425
43.779334381108384 13.3953
43.803329401683186 13.3779
43.82732644241872 13.3302
43.8515130055166 13.3291
43.87551410707659 13.2775
43.89951723350145 13.259
43.923709934595614 13.2147
43.94771713129917 13.2178
43.97172635758096 13.2071
43.99573761501002 13.1899
44.0199385169922 13.1483
44.04395385732619 13.0771
44.067971233533086 13.0879
44.09199064718605 13.0854
44.11619977548961 13.034
44.14022328470671 12.9876
44.16424883610785 13.0092
44.18827643127035 13.007
44.21249381139513 12.9498
44.236525514814076 12.9085
44.26055926674478 12.8912
44.28459506876863 12.899000000000001
44.3088207262813 12.8529
44.33286064928722 12.8425
44.35690262714919 12.8232
44.38094666145278 12.7384
44.4051806219871 12.7729
44.42922879003185 12.8218
44.45327901929361 12.7389
44.477331311362136 12.7034
44.501573600619416 12.665999999999999
44.525630039221795 12.6414
44.54968854541895 12.6586
44.573937102200176 12.5914
44.5979997645541 12.6002
44.622064499300315 12.5829
44.64613130803592 12.5707
44.67038823869318 12.555
44.69445921643748 12.4957
44.718532272981385 12.4471
44.742607409926194 12.4125
44.76687274034801 12.4399
44.79095205918753 12.4084
44.81503346325094 12.3637
44.839116954143876 12.4215
44.86339071028742 12.3733
44.88747839599524 12.3502
44.91156817336837 12.3221
44.93566004401666 12.2926
44.959942251908146 12.3018
44.984038330325966 12.3116
45.00813650686762 12.2047
45.03223678314731 12.2092
45.05652746888232 12.1471
45.08063196592069 12.1617
45.104738567558705 12.1595
45.128847275414856 12.1229
45.15314646515866 12.0687
45.17725940679741 12.107999999999999
45.20137445952892 12.0669
45.22568004865265 12.0346
45.24979934496396 11.9846
45.27392075725247 11.9637
45.29804428714431 11.9464
45.322358426247604 11.9618
45.346486212804315 11.932
45.370616121861914 11.8982
45.39474815505086 11.9045
45.41907087049246 11.7877
45.4432071734666 11.8496
45.46734560548283 11.8422
45.49148616817604 11.8477
45.51581748638564 11.7591
45.5399623320197 11.7398
45.56410931325473 11.7126
45.58825843173002 11.7501
45.61259837920865 11.7321
45.636751793816 11.6991
45.66090735060093 11.6614
45.68506505120716 11.6223
45.7094136545275 11.5842
45.73357566449271 11.5821
45.75773982322992 11.5793
45.78190613238733 11.5257
45.806263418194064 11.5125
45.83043404997326 11.5037
45.85460683713677 11.4606
45.87897065658495 11.4866
45.90314777634752 11.478
45.92732705646868 11.4067
45.9515084986045 11.3652
45.97588104735473 11.3852
46.00006683541565 11.3843
46.02425479047904 11.3323
46.04844491420549 11.3269
46.0728262191024 11.2941
46.09702070211635 11.2876
46.12121735879483 11.2976
46.14541619080294 11.2685
46.169806278764455 11.2726
46.194009483459034 11.2134
46.21821486849841 11.2146
46.24242243555223 11.1466
46.266821333570014 11.1206
46.29103328674601 11.1201
46.31524742696538 11.1476
46.33946375590237 11.107000000000001
46.36387149104216 11.0508
46.38809221957392 11.0366
46.41231514186606 11.0361
46.436540259597464 11.0216
46.460956858999374 10.9978
46.48518638983522 10.9687
46.509418121166966 10.9419
46.533652054678114 10.9315
46.55807754555709 10.8761
46.58231590571962 10.8715
46.60655647313217 10.8589
46.630988654873654 10.8209
46.655233659129024 10.7884
46.67948087571551 10.8096
46.70373030632484 10.8002
46.72817142736393 10.757
46.752425308428684 10.7234
46.77668140861147 10.7138
46.80093972960865 10.6602
46.82538981736788 10.6292
46.849652602470904 10.6568
46.87391761349769 10.6323
46.8981848521493 10.5749
46.9226439341274 10.6026
46.946915650573224 10.6003
46.97118959976749 10.5709
46.99546578341598 10.5307
47.019933887188216 10.5046
47.04421456235744 10.4673
47.06849747711879 10.4928
47.09278263318286 10.4573
47.11725978640143 10.4463
47.14154944775105 10.4406
47.165841355555656 10.4244
47.1901355115306 10.3854
47.214621741924994 10.3384
47.23892041698887 10.3507
47.26322134538975 10.3261
47.28771440635075 10.2664
47.31201986422527 10.2884
47.33632758061436 10.2687
47.360637557241866 10.2368
47.38513974410611 10.253
47.40945426407847 10.209
47.43377104948137 10.2012
47.45809010204344 10.2004
47.48260144275502 10.1778
47.506925052572285 10.1322
47.53125093475548 10.1513
47.55557909103813 10.0673
47.58009961361992 10.0423
47.60443234110732 10.0533
47.62876734791564 10.0492
47.65310463578333 10.0164
47.6776343683373 9.988669999999999
47.7019762413987 9.95471
47.72632040075572 9.96751
47.75066684815169 9.93812
47.77520581885936 9.927769999999999
47.799556865477655 9.92504
47.823910205386 9.90569
47.84826584033272 9.848360000000001
47.87281407745551 9.853060000000001
47.89717432569297 9.8639
47.92153687423484 9.83734
47.94609208429692 9.78207
47.97045925671401 9.800239999999999
47.99482873471275 9.75879
48.01920052005013 9.76803
48.04376504619224 9.70115
48.068141469543484 9.7546
48.09252020552573 9.71447
48.11690125590099 9.68697
48.1414751266064 9.722489999999999
48.16586082917454 9.68327
48.19024885144316 9.68305
48.2146391951793 9.64915
48.239222439012764 9.615689999999999
48.26361744916137 9.603110000000001
48.28801478610016 9.60253
48.31241445160131 9.55262
48.337007097209366 9.550180000000001
48.36141144338331 9.49806
48.38581812345755 9.538969999999999
48.41022713920929 9.50008
48.434829215320704 9.46697
48.45924292604658 9.4567
48.48365897780325 9.46112
48.50807737237308 9.41253
48.532688907799276 9.40342
48.55711201168574 9.35677
48.581537463754074 9.37595
48.60615611725119 9.38499
48.63058628942721 9.3499
48.65501881516546 9.3219
48.6794536962573 9.30594
48.70408185970339 9.25832
48.72852147531801 9.23778
48.75296345168211 9.22659
48.77740779059232 9.2519
48.80204549302823 9.251669999999999
48.82649458091802 9.22643
48.85094603676547 9.15873
48.87539986237231 9.12663
48.90004713292306 9.1532
48.92450572200832 9.107460000000001
48.94896668628025 9.1138
48.97343002754588 9.12453
48.99808689542115 9.079830000000001
49.02255501470614 9.09718
49.04702551642794 9.047930000000001
49.0714984023988 9.02292
49.096164896893235 8.995330000000001
49.120642575466796 8.984960000000001
49.145122643748394 8.94554
49.16960510355558 8.972539999999999
49.19428125404938 8.96556
49.2187685210852 8.907160000000001
49.243258185121555 8.89055
49.26794160167084 8.84713
49.2924360839405 8.85661
49.31693296869764 8.826360000000001
49.34143225776915 8.83583
49.36612538195438 8.77544
49.39062950396021 8.767439999999999
49.41513603578346 8.7669
49.4396449792564 8.75808
49.46434784069503 8.7403
49.488861631846454 8.704419999999999
49.513377840166804 8.675
49.537896467493745 8.63686
49.56260909589029 8.64535
49.587132585683285 8.66809
49.611658500018365 8.64675
49.636186840738596 8.625960000000001
49.66090926588511 8.662939999999999
49.685442483902584 8.57526
49.70997813385706 8.55079
49.734516217597076 8.542819999999999
49.75924846937352 8.55465
49.7837914452858 8.54235
49.80833686055187 8.49918
49.83288471702571 8.47214
49.85762682540054 8.52135
49.882179588965734 8.468210000000001
49.9067347993235 8.46297
49.93129245833333 8.41842
49.95604445336378 8.41474
49.98060703442832 8.3657
50.005172069746266 8.382710000000001
50.02993150438364 8.35789
50.05450147301533 8.34615
50.07907390151433 8.29893
50.10364879174981 8.31746
50.12841816587289 8.29925
50.1529980044635 8.288860000000001
50.17758031042124 8.25695
50.20216508562089 8.25896
50.22694442953363 8.26787
50.25153416817468 8.234160000000001
50.27612638170508 8.19717
50.300721072005196 8.205630000000001
50.325510416102105 8.13904
50.350110084975064 8.12723
50.37471223628208 8.12323
50.39931687190919 8.12016
50.424116246675766 8.08756
50.44872587605249 8.077960000000001
50.47333799543065 8.0843
50.49795260670191 8.06579
50.52276204271512 8.04767
50.54738166295838 8.04292
50.57200378079314 7.988910000000001
50.596628398116835 8.006960000000001
50.62144792604559 8.02158
50.646077567609396 7.9934199999999995
50.670709714377715 7.99109
50.69553683636198 7.98153
50.72017401885922 7.95348
50.7448137122895 7.928210000000001
50.76945591856022 7.89911
50.79429318636823 7.86498
50.818940443716784 7.87772
50.84359021965163 7.868460000000001
50.868242516085964 7.831580000000001
50.893089960641895 7.79529
50.917747323549435 7.8028
50.94240721271973 7.800730000000001
50.96706963007175 7.73318
50.99192728239342 7.745489999999999
51.01659478166073 7.76404
51.04126481489051 7.73798
51.06593738400761 7.79507
51.090805275207074 7.738739999999999
51.11548294172845 7.6986300000000005
51.14016314993547 7.6635
51.164845901758845 7.67758
51.18972406304274 7.64918
51.21441192780656 7.63855
51.23910234200271 7.57304
51.2637953075678 7.58864
51.288683770237945 7.5732
51.31338186432707 7.51668
51.33808251561888 7.541860000000001
51.362978729967345 7.52941
51.387684521509755 7.52923
51.41239287610203 7.496460000000001
51.437103795691165 7.44888
51.46201036644977 7.481039999999999
51.486726441956634 7.4851600000000005
51.51144508832545 7.464930000000001
51.536166307509156 7.42837
51.56108326624387 7.4103699999999995
51.58580965706056 7.37438
51.61053862657523 7.38395
51.635270176746864 7.350219999999999
51.66019755512065 7.35615
51.68493429268881 7.3354
51.70967361681515 7.29029
51.73441552946465 7.284
51.759353359237934 7.306039999999999
51.7841004750961 7.26761
51.80885018539685 7.256310000000001
51.833602492111254 7.225460000000001
51.8585508051424 7.2091899999999995
51.883308330926425 7.23993
51.90806845906181 7.191210000000001
51.932831191525715 7.160889999999999
51.95779001977161 7.1607899999999995
51.98255798721516 7.13514
52.00732856494335 7.14775
52.03229530577543 7.1559800000000005
52.057071130455945 7.112410000000001
52.081849571391054 7.0651
52.106630630568695 7.067139999999999
52.13160794279417 7.058039999999999
52.15639426492067 7.02692
52.18118321127822 7.0620199999999995
52.205974783860896 7.02428
52.23096269971011 7.0052
52.255759551287994 6.99971
52.280559035098186 6.9816199999999995
52.30536115314103 6.97463
52.33035970494467 6.96595
52.35516711807904 6.911989999999999
52.37997717147198 6.913760000000001
52.40478986713005 6.91493
52.42979908731974 6.898960000000001
52.454617094216 6.870360000000001
52.47943774942214 6.85997
52.50426105495102 6.84514
52.529280976059844 6.82775
52.554109609024096 6.82222
52.57894089837482 6.8057
52.60377484613117 6.78131
52.62880550079408 6.77385
52.65364479223379 6.74407
52.67848674816189 6.7652
52.70352547971946 6.71259
52.72837279155837 6.71594
52.753222773982785 6.71225
52.778075429022984 6.69528
52.80312495150885 6.66282
52.827982978797436 6.630539999999999
52.85284368481815 6.61177
52.87770707160767 6.60263
52.90276741793998 6.590260000000001
52.92763619336701 6.591539999999999
52.952507655698504 6.59685
52.977381806977576 6.57635
53.00245301017842 6.589580000000001
53.02733256653592 6.58712
53.052214817996074 6.560860000000001
53.077099766608484 6.51728
53.102181859804446 6.50864
53.127072229988265 6.50269
53.15196530349892 6.48716
53.17686108239249 6.48602
53.20195409881522 6.46963
53.22685531582556 6.47587
53.25175924441303 6.44044
53.27666588664027 6.41309
53.30176985962693 6.418830000000001
53.3266819565689 6.38721
53.35159677336455 6.39807
53.376514312083096 6.34158
53.40162927507703 6.3604199999999995
53.42655228516116 6.33901
53.45147802340193 6.28383
53.47660125628886 6.3036
53.50153247842639 6.27784
53.52646643496923 6.30386
53.55140312799818 6.28167
53.576537409691696 6.2476
53.60147960336152 6.20959
53.626424539786164 6.23245
53.65137222105307 6.20599
53.67651758529126 6.20456
53.70147078399681 6.18708
53.72642673383343 6.16371
53.75138543689533 6.13595
53.776541917524526 6.163930000000001
53.801506154876755 6.15372
53.826473151763246 6.11249
53.851442910284916 6.1064300000000005
53.87661054126026 6.074
53.9015858509782 6.07101
53.92656392866066 6.09395
53.95154477641532 6.08445
53.976723591801296 6.06376
54.00171000771266 6.0529
54.02669920004598 6.017580000000001
54.051691170915745 5.99416
54.076881204886796 6.00978
54.101878760928514 6.00528
54.12687910187696 5.91763
54.152077577768296 5.92414
54.1770835166946 5.93043
54.20209224691339 5.9539599999999995
54.22710377055121 5.9118
54.25231352511594 5.9076900000000006
54.27733066384342 5.87795
54.30235060239643 5.86201
54.32737334290836 5.87127
54.35259441062629 5.833130000000001
54.377622783395324 5.8283
54.40265396455061 5.80141
54.42768795623251 5.77237
54.45292037169559 5.709
54.477960012857906 5.72003
54.50300247099511 5.70648
54.52804774825457 5.73198
54.55329154616743 5.7094
54.57834249018678 5.65859
54.6033962597977 5.641
54.6284528571545 5.62606
54.653708072335164 5.60426
54.67877035378786 5.57148
54.70383546947698 5.555540000000001
54.72890342156389 5.54779
54.7541700889442 5.50172
54.77924374251975 5.504919999999999
54.8043202390049 5.50854
54.82959552413022 5.4413800000000005
54.8546777351945 5.459230000000001
54.87976279569621 5.44765
54.90485070780914 5.44757
54.930137506558005 5.41175
54.95523115074295 5.37573
54.98032765308844 5.32339
55.005427015775496 5.37948
55.03072536339621 5.34311
55.05583047570572 5.322690000000001
55.080938454927676 5.26396
55.10604930325027 5.26945
55.131359235107396 5.263999999999999
55.15647585066083 5.19188
55.181595341907496 5.1696
55.20671771104285 5.16046
55.232039262617704 5.12159
55.25716741665048 5.0969
55.28229845518636 5.1369
55.30743238042802 5.07102
55.33276558731939 5.05901
55.357905315183636 5.0569
55.383047936390035 5.0381599999999995
55.40819345314859 5.02076
55.433538351073295 4.97883
55.458689688238415 4.96432
55.483843927614096 4.89029
55.509197623043605 4.90222
55.53435769621134 4.86939
55.55952067826466 4.83562
55.5846865714265 4.82391
55.61005202069737 4.80026
55.63522376553902 4.83306
55.66039842818645 4.78748
55.68557601087004 4.75818
55.7109532500271 4.694459999999999
55.73613670233794 4.6866699999999994
