TT I
1.2716486653135266 7.20125
1.2939594142134223 7.07958
1.3162702121660406 6.23718
1.3385810600174564 6.2711
1.3608919586137629 6.32827
1.383202908801069 5.56457
1.405513911425503 5.94078
1.4278249673332093 6.12731
1.4501343378461518 5.69459
1.4724455028545926 6.19391
1.4947567236847858 5.94165
1.517068001182951 5.49514
1.5393793361953272 5.37297
1.5616907295681737 5.25303
1.5840021821477681 4.54425
1.60631369478041 5.29329
1.6286252683124185 5.25897
1.6509369035901333 4.644430000000001
1.6732468618895553 5.52188
1.695558623192809 5.0323400000000005
1.7178704487808514 4.77606
1.7401823395001077 4.8445
1.7625012545597203 4.89834
1.7848028405262486 4.58093
1.8071218901122095 4.8826
1.8294236121921872 5.22357
1.8517427996910911 5.00057
1.8740620574440425 5.36714
1.8963639900671978 4.917669999999999
1.9186833908139995 4.8191
1.9409854680117449 5.3806
1.9633050151394713 5.15966
1.9856246367570705 5.02032
2.0079269371922672 5.24979
2.03024671027244 4.4054199999999994
2.0525491637446027 4.32266
2.074869091674931 4.54151
2.097171701569106 4.62639
2.1194917877373847 4.65566
2.141811954326636 4.78519
2.164114805233074 4.02569
2.186435135143035 4.80195
2.208738150935709 7.600219999999999
2.231058647554722 14.3508
2.2533792288321184 11.5985
2.275682498336085 7.46312
2.298003251406138 5.37934
2.3203066942619714 5.33255
2.3426276225136022 5.61583
2.3649486396617507 5.47584
2.387252348930071 5.4337800000000005
2.4095735463442893 5.50316
2.4318774374315884 5.81798
2.4541988185014043 6.15407
2.476502894794693 6.2420599999999995
2.498824462909887 6.14942
2.521146125856138 7.106339999999999
2.5434504863470337 6.46132
2.5657723414244717 6.8643600000000005
2.588076895590662 7.71422
2.610398946189713 8.16169
2.6327210958598384 7.628660000000001
2.6550259469304716 6.82978
2.6773482972090137 7.492189999999999
2.6996533504259 8.07172
2.7219759047039602 7.99642
2.744298562293959 7.8204899999999995
2.7666039251246595 7.621989999999999
2.7889267918020164 7.66772
2.8112323652516555 7.3499
2.833555444408179 8.31349
2.8558786311183852 8.64293
2.8781845268938557 8.68286
2.9005079311721484 8.831489999999999
2.9228140460410397 9.253630000000001
2.9451376712799635 9.38159
2.967444008632326 9.45983
2.9897678582247247 9.56527
3.0120918213106695 10.4747
3.0343984987899373 10.9689
3.0567226913198637 10.7677
3.079029599759726 11.4874
3.101354025127254 12.3512
3.123678568232338 12.6577
3.145985829517914 13.2783
3.16831061055229 13.6222
3.1906181112775593 14.5347
3.212943133635653 14.979000000000001
3.2352682779763207 15.296
3.2575761442691227 15.3424
3.2799015350264273 15.7235
3.302209649240067 16.3707
3.3245352898092655 16.5981
3.3468436553365257 16.4505
3.369169549113219 17.5614
3.3914955708171384 18.46
3.413804319727358 18.8223
3.4361305997334863 19.0268
3.4584396084414553 19.4461
3.4807661501462652 20.2056
3.503092824025881 20.6175
3.5254022288463154 20.9416
3.5477291695206588 21.2749
3.5700388426251948 22.0481
3.5923660534916446 23.0452
3.6146934007816114 29.8034
3.637003482731501 48.9122
3.6593311053109985 54.0849
3.681641464033634 36.8101
3.7039693653009733 27.1326
3.726297407241705 25.3116
3.7486081875460804 25.6355
3.7709365132734978 26.2658
3.793247578841633 26.4326
3.8155761917550093 26.9079
3.8378875459837216 26.7442
3.8602164494827234 26.9823
3.882545499606844 27.9865
3.9048572932539183 28.8971
3.9271866390645718 28.9319
3.9494987298666713 29.3454
3.971828374764527 30.5731
3.9941581705403255 30.9514
4.016470713506008 31.2427
4.038800813471445 31.7572
4.061113662089144 32.482
4.0834440696459176 33.7122
4.105774632334751 33.8598
4.128087945865126 34.4664
4.150418821249301 34.9876
4.172732448931298 35.9848
4.195063640413578 37.208
4.2173775856475215 39.896
4.239709096631102 53.2861
4.262040768704612 119.166
4.284355196706267 147.036
4.306687193387355 103.01299999999999
4.329001947444346 56.7754
4.35133427213731 44.4077
4.373666762177566 43.4021
4.395982011761091 43.333
4.418314834921175 44.5159
4.44063041906622 48.7927
4.4629635787515625 53.5124
4.4852969080429785 54.3376
4.5076130004776225 52.7767
4.529946671403969 55.9713
4.552263106909177 58.3649
4.574597122877047 56.315
4.596931312711224 54.0831
4.619248269273446 53.475
4.6415828092605835 54.7654
4.663900117405352 55.9881
4.686235010953232 57.7043
4.708552674085913 58.6009
4.730887924602802 60.4281
4.753223354952695 62.5409
4.775541557023902 65.4449
4.797877349456786 67.8859
4.820195915032126 68.7198
4.842532072957498 68.7589
4.864868414979744 71.4824
4.88718753227192 75.455
4.909524244902505 76.8751
4.931843734218147 77.4821
4.954180820867835 79.4143
4.976518095879839 82.2628
4.998838149695359 85.1469
5.021175803844231 88.9747
5.043496238205739 92.6174
5.065834274903528 97.0698
5.088172504230693 101.74
5.1104935158799565 108.928
5.132832132875765 128.814
5.155153533596801 160.282
5.1774925416746225 216.107
5.199814334878411 479.91900000000004
5.2221537374521505 1264.34
5.244493338631803 3248.78
5.266815727034316 7764.42
5.289155727832427 12240.2
5.311478517248165 8241.65
5.333818921080011 2741.05
5.356159527788849 572.177
5.3784829252032536 203.793
5.400823940070432 156.054
5.423147747031976 133.47799999999998
5.445489173474152 122.541
5.467830807066149 120.27799999999999
5.490155234831516 117.904
5.512497285125229 111.984
5.534822130975162 106.78299999999999
5.557164601388673 103.38600000000001
5.579489868738879 100.523
5.601832762690846 99.3045
5.6241758697774475 98.1961
5.646501775867269 97.4164
5.668845311622074 96.6414
5.691171647754637 95.6911
5.713515615597765 94.4871
5.735859800852677 93.9406
5.758186788542988 94.77
5.780531411018185 97.7108
5.802858837297399 97.6471
5.825203900414495 97.6338
5.8475491852224 100.495
5.869877275883075 100.24799999999999
5.892223006467101 98.3172
5.914551544266608 97.5083
5.936897724049891 100.726
5.959244129804903 109.17299999999999
5.981573344815301 145.629
6.0039202049061 277.942
6.026249875609095 554.997
6.04859719346037 1108.01
6.070927323278297 2339.7
6.093275102315365 4390.56
6.115623113320588 5521.85
6.137953938319995 3315.68
6.160302415650845 988.942
6.182633708324452 235.31599999999997
6.2049826554078376 114.507
6.227331838745022 93.0495
6.249663839443684 85.8616
6.27201349767565 82.0041
6.294345974611799 82.6356
6.316696111167083 85.7074
6.339046488263839 82.6475
6.361379686074702 74.8487
6.383730546639482 70.7194
6.406064229255215 70.2872
6.428415576718203 70.5463
6.450749747566656 69.5835
6.47310158535871 67.3691
6.495453669698332 65.6788
6.517788579421056 64.9381
6.540141159237969 63.8131
6.562476565766648 63.2662
6.5848296444934045 63.4775
6.607182974060425 63.3904
6.6295191323281015 63.1847
6.651872965955752 63.5415
6.6742096296068985 73.4512
6.6965639707294615 91.875
6.71891856698715 91.5427
6.741255995248479 73.3269
6.763611104154477 62.4577
6.785949046381137 59.4985
6.808304671371482 59.4721
6.8306605557940046 60.6433
6.852999275508618 59.6549
6.875355681171544 58.0169
6.897694923437771 56.6929
6.92005185377892 56.667
6.9423916220322655 56.4903
6.964749080490181 55.7823
6.987106804399774 56.004
7.009447368180821 56.2195
7.031805625367033 56.0487
7.054146723727803 55.5441
7.076505517631004 55.038000000000004
7.098864581288365 54.8267
7.121206488070854 55.0088
7.143566093607822 55.1124
7.165908543567245 56.0519
7.188268694426048 56.4756
7.2106291193438095 55.4402
7.232972390625943 55.5016
7.255333366030969 60.4804
7.277677189091925 81.8792
7.300038718428332 100.456
7.322400526130865 89.0653
7.344745183422596 67.9039
7.367107550224791 57.6437
7.389452767901992 55.3205
7.411815697249891 54.6835
7.434161478756298 54.1571
7.456524974096713 54.4639
7.478888753837185 54.3353
7.501235387657368 54.4894
7.523599738562711 54.5271
7.545946944825532 54.7156
7.568311870344528 55.218999999999994
7.5906770845765665 55.3472
7.613025156078678 56.0965
7.635390950099687 56.7018
7.657739602662809 56.4678
7.680105979923558 56.3671
7.702472650212829 56.9789
7.724822180948224 56.8722
7.747189439655568 56.6504
7.769539560075357 56.4038
7.791907410653562 56.6664
7.81425812420825 56.7053
7.836626570110925 57.0363
7.858995315087906 57.6849
7.881346924933401 57.8615
7.903716270417482 58.4125
7.926068482028405 58.7527
7.948438431475253 59.3799
7.9708086843180235 59.994
7.993161805171116 60.7921
8.015532667162402 61.2315
8.037886398416653 62.4742
8.060257873014221 62.8451
8.082629655331942 63.8218
8.104984308787587 64.7402
8.127356708900503 66.8412
8.149711981398308 70.8757
8.172085002766314 72.6645
8.194458336181368 70.5659
8.216814543847752 69.2876
8.23918850371002 69.8059
8.26154533906492 70.8476
8.283919928836452 72.4853
8.306277395339652 73.1948
8.328652618483376 74.8948
8.351028159736202 76.9484
8.373386579575245 79.4782
8.395762759396959 81.5591
8.418121819038275 85.1019
8.440498640894003 92.9139
8.462875785192262 106.444
8.485235811156207 136.327
8.507613602688501 198.548
8.529974277114228 291.493
8.552352719347912 437.38199999999995
8.574731488360351 722.883
8.59709314210385 1258.8
8.619472567021075 1927.93
8.64183487789147 2204.38
8.664214962183097 1774.46
8.686577933647762 922.081
8.708958680784317 349.971
8.731339760774953 155.678
8.753703729764451 110.156
8.77608547780821 99.8657
8.798450116065078 96.5156
8.820832535634787 93.5992
8.843215292401656 93.0066
8.865580941199045 92.8795
8.887964374703538 91.8915
8.910330701447199 91.9211
8.932714815164482 91.9947
8.955099270424924 90.0117
8.977466620733543 87.5567
8.999851761421976 85.9667
9.022219798361645 84.6737
9.04460562795561 84.8438
9.066991803441677 84.4796
9.089360876979615 84.6058
9.111747746589993 84.2615
9.13411751544971 83.6102
9.156505082664324 83.1639
9.178875550323522 82.9828
9.20126381862328 82.891
9.223652438908596 82.8776
9.246023961427412 82.9556
9.26841328802173 82.76899999999999
9.290785518039224 83.4637
9.313175554425882 85.1438
9.335565947154315 86.3967
9.357939245086508 86.5525
9.380330352834827 85.9534
9.40270436697103 86.2223
9.425096193225055 85.809
9.447488380180165 85.5238
9.469863475295412 84.7455
9.492256385987508 85.5961
9.514632206018318 86.2415
9.537025843935714 86.4385
9.559402392368193 87.7273
9.581796761000229 89.4986
9.604191496441521 91.4336
9.626569144158516 94.0598
9.648964615551032 96.3152
9.671343000390081 96.0558
9.693739211225699 94.5261
9.716135793237463 94.0325
9.738515290448102 94.0896
9.760912617143402 95.6516
9.783292860202891 98.1167
9.805690935076182 99.6688
9.828089385495742 100.93299999999999
9.850470754023561 102.085
9.872869957865444 106.065
9.89525208097539 113.419
9.917652041736662 121.446
9.940052382417589 131.684
9.962435644102392 162.725
9.984836746950979 211.11700000000002
10.007220771957746 274.759
10.029622640473708 382.23
10.052007432299963 579.557
10.074410069984072 877.7439999999999
10.096813093716005 1284.58
10.119199042482517 1721.97
10.141602840636468 1893.84
10.163989564971628 1499.55
10.186394141051062 840.092
10.208799107559706 361.76800000000003
10.231187001965623 175.53900000000002
10.253592751657669 124.28299999999999
10.275981430388155 113.03200000000001
10.298387966769793 111.2
10.320794897965431 110.759
10.343184759907361 109.352
10.36559248305461 106.905
10.387983138083852 106.95
10.410391656691655 115.227
10.432800574501677 128.181
10.455192425893369 144.843
10.47760214443012 171.57
10.499994797678786 219.293
10.522405320453982 302.08799999999997
10.54479877906917 413.337
10.567210109595656 514.4019999999999
10.5896218454736 573.707
10.612016518879773 477.01
10.634429067781074 322.241
10.656824555333241 188.69299999999998
10.679237920773568 118.40700000000001
10.701651695961992 94.9306
10.724048411481384 89.6635
10.746463008485165 87.0264
10.768860546937125 85.3182
10.791275969274796 83.6289
10.81369180576079 82.6679
10.836090585366925 81.5509
10.858507252467449 80.1925
10.88090686379991 79.2442
10.903324365036394 78.5653
10.925724811614439 78.4012
10.948143150509463 78.8072
10.970561909719066 78.134
10.992963615930844 77.0709
11.015383218085756 75.3434
11.037785768347074 74.0538
11.06020621697282 73.4212
11.082627090322113 72.5119
11.105030913430326 72.0159
11.12745263854165 72.005
11.149857314510728 72.737
11.172279894912576 75.0464
11.194702904450653 74.7168
11.217108866490921 72.7105
11.239532736615194 70.8152
11.26193956033512 69.8965
11.284364294577085 68.9298
11.306789462371718 67.8139
11.329197585398376 67.3541
11.351623622610898 67.4989
11.37403261614354 66.6988
11.396459526308487 66.3228
11.418869393879497 66.066
11.441297180532617 65.5618
11.463725406927658 65.0723
11.486136592353875 65.0063
11.508565700543707 65.1032
11.530977768845315 65.9579
11.553407762368774 65.9521
11.575838200059769 65.385
11.598251599479612 64.5042
11.620682927815501 63.8542
11.64309721895548 63.8742
11.665529441478206 63.5445
11.687962112597958 63.2339
11.710377748130886 63.5184
11.732811318753434 63.32
11.755227854859067 63.2178
11.777662328529495 62.8959
11.800079768750786 62.9045
11.822515149015453 63.1218
11.844950984084935 63.4056
11.867369787303163 62.831
11.889806534289491 62.7807
11.912226250487029 63.1763
11.934663912939751 63.277
11.9571020346363 63.4964
11.979523127133968 63.6217
12.001962169624331 65.3195
12.024384183972964 67.244
12.046824150809913 70.4635
12.069264581333726 75.4059
12.091687985297767 81.8479
12.11412934550045 91.7907
12.136553680195208 107.36399999999999
12.158995973632788 130.289
12.181438735204349 156.832
12.20386447284199 184.269
12.226308172985636 203.78599999999997
12.24873485024193 198.55
12.271179492516982 161.946
12.293607112949127 123.52799999999999
12.316052700916226 89.865
12.338498763250042 73.7789
12.360927805303868 67.355
12.383374818673879 65.4342
12.405804812803074 64.5362
12.428252780773262 64.4587
12.45070122756722 64.8131
12.473132656675375 64.7319
12.49558206341869 65.2266
12.518014453510101 65.1166
12.540464823770117 65.6444
12.562915677315177 65.6105
12.58534951575545 66.0896
12.607801338171472 66.3914
12.630236146511358 68.7525
12.652688941369085 70.8446
12.675124723177234 71.2522
12.697578494048786 70.3267
12.720032754458185 68.6536
12.742470003354093 68.1916
12.764925245138771 68.2273
12.787363476431278 68.6773
12.809819703166806 69.0762
12.83227642391173 69.7949
12.854716135692716 70.2383
12.877173846755147 71.6425
12.899614549869717 72.0652
12.9220732548287 73.0785
12.94453245827299 73.5164
12.966974655289818 74.4539
12.989434858002571 75.1348
13.011878055298721 75.8282
13.034339260862497 76.9345
13.056800969391883 78.1135
13.079245674017244 81.4191
13.101708390774869 86.7012
13.12415410463411 96.1655
13.146617833206086 106.634
13.169064559883248 117.81700000000001
13.191529303857127 133.40200000000002
13.213994557076367 158.562
13.236442809902437 198.145
13.258909083908291 253.676
13.28135835851934 315.764
13.30382565690295 378.085
13.326293469022952 425.125
13.348744283242008 420.30199999999996
13.371213125129904 347.452
13.39366497011003 250.639
13.416134845360597 165.77700000000002
13.438605238843131 122.124
13.46105863690397 110.18799999999999
13.483530069144786 111.181
13.505984506951902 116.40299999999999
13.528456981549432 126.93
13.550929978879088 143.174
13.573385983253365 169.045
13.595860028340867 207.64
13.618317081455832 255.97099999999998
13.64079217790333 308.439
13.663250283359057 349.585
13.685726434770173 366.759
13.708203115221277 328.477
13.730662806148091 251.092
13.75314054697177 179.15099999999998
13.775601299246777 125.318
13.798080104050406 96.6015
13.820559442405358 85.6458
13.843021793671388 82.1587
13.865502201420897 80.5233
13.887965623051947 80.0415
13.910447103807167 79.3222
13.932929122629764 77.6832
13.955394156785959 76.9429
13.977877254034569 76.3815
14.000343367582113 75.42
14.022827546871707 74.8571
14.045294743423524 74.0787
14.06778000837062 73.5106
14.090265817715476 73.3621
14.112734645763819 73.0394
14.13522154619454 72.7286
14.157691466286913 72.3626
14.180179461423874 72.0043
14.202668005486178 71.8663
14.22513957064374 71.2651
14.247629214846473 70.8427
14.270101881097517 70.6804
14.29259262906496 70.6231
14.315083930490205 70.7582
14.337558255389705 70.8451
14.360050666019726 70.7132
14.382526101071944 70.1686
14.405019624534942 69.9327
14.427513705993134 69.4821
14.449990813291825 69.4423
14.47248601302899 69.3778
14.49496423954951 69.3721
14.517460561197822 69.4543
14.539939910570322 69.4741
14.562437357763558 69.5908
14.58493536931253 70.1375
14.607416409993311 70.6769
14.62991555254159 70.8947
14.652397725157423 71.015
14.674898002342799 71.1124
14.697398848433282 71.2982
14.719882725991326 73.0245
14.74238471217934 75.3884
14.764869730765593 79.1471
14.787372860692983 82.5536
14.809876564079925 86.839
14.83236330125751 92.7099
14.854868153850365 102.15
14.877356041159485 116.84
14.899862046604186 135.537
14.922351087688757 159.49
14.944858249632887 184.908
14.967365991421232 211.683
14.989856770231246 221.29
15.012365673994204 212.957
15.03485761569738 183.07299999999998
15.05736768508665 143.512
15.07987833888692 110.056
15.102372032001655 88.3302
15.124883856909658 76.4545
15.14737872204565 72.5789
15.169891721717274 70.8791
15.192405310371893 70.858
15.214901940621196 70.6057
15.237416709527137 70.3641
15.259914520936249 70.0087
15.282430473753607 69.2036
15.304947020131227 68.6586
15.327446610371178 68.1029
15.349964346154254 67.3478
15.372465126703139 67.3489
15.394984055556009 67.2559
15.417486030076159 66.9479
15.44000615566487 66.6065
15.462526881230803 66.3916
15.485030653812652 66.3626
15.507552581617434 66.4008
15.530057557334603 66.3537
15.55258069104857 66.4757
15.575104429329837 66.8855
15.597611216864632 66.8407
15.620136166564563 67.4016
15.6426441664095 69.4959
15.665170331202765 72.3619
15.687697105158826 74.9984
15.710206930593545 78.2664
15.732734925158933 82.8294
15.755245972089478 90.0428
15.77777519094324 99.7651
15.800287463046663 113.454
15.822817909869592 131.786
15.84534897229804 152.543
15.867863089299354 174.21900000000002
15.890395385222186 189.481
15.912910736597423 192.787
15.935444269699861 179.187
15.957978423016485 149.607
15.980495633101265 118.165
16.003031029129367 92.4432
16.02554948280019 75.0013
16.048086125229432 67.2157
16.070623392487107 64.5969
16.09314371869582 63.6099
16.11568223789321 62.4118
16.13820381691126 61.6944
16.160743591742527 61.4311
16.183283996022084 60.8065
16.205807461423195 59.8657
16.228349126881973 59.3981
16.25087385432698 59.3182
16.27341678466365 58.7713
16.29594277784926 58.4395
16.31848697676433 58.3108
16.341031811604868 57.9554
16.36355971058487 58.1256
16.3861058195587 57.9359
16.40863499352978 57.2022
16.431182380342005 56.6567
16.453730407713202 56.5838
16.476261501364792 56.0588
16.498810812136167 55.8597
16.52134319004079 56.0835
16.54389378792203 55.8594
16.566445031001553 55.6454
16.588979342490088 55.467
16.61153187824822 55.4536
16.634067483263312 55.1827
16.656621315414416 55.0863
16.679175797408888 54.8757
16.701713349928728 54.9616
16.72426913389191 55.1486
16.74680798922351 55.276
16.76936507887444 55.2381
16.791905240734874 55.1777
16.814463639794468 55.0114
16.837022695210294 55.2031
16.859564824093756 55.2913
16.882125194503903 55.6654
16.904668639217885 55.9973
16.927230328348003 55.9348
16.949792678493612 56.216
16.972338104193863 56.0413
16.994901778652235 55.8953
17.017448529496576 56.081
17.040013531998152 56.6597
17.06257920018044 57.4302
17.0851279459922 58.0727
17.107694947817667 58.731
17.130245028099072 59.4273
17.15281336730298 60.7775
17.17536478578733 62.735
17.19793446610687 65.1995
17.220504818648422 68.0847
17.243058251703697 70.8746
17.265629950971032 75.4237
17.288184731571736 79.4729
17.310757781306908 82.8442
17.33333150794385 84.6874
17.355888317140174 82.4076
17.37846339986244 77.5058
17.401021565958885 71.2016
17.42359800851343 65.7957
17.44617513265564 62.4267
17.468735341390783 60.6529
17.491261035594565 59.8264
17.51396340099364 59.4155
17.536490463869136 59.6811
17.559018209820174 59.6681
17.58154663977963 59.8649
17.604251766089718 59.9384
17.626781572227713 60.2672
17.64931206518155 60.4084
17.671843245885103 60.9896
17.69455114821572 61.1115
17.717083712612634 61.1719
17.739616967569667 61.5879
17.762150914021706 61.9349
17.78486160749854 62.1754
17.807396945166804 63.2852
17.829932977143503 64.8292
17.85246970436452 66.3971
17.875183204129467 67.9592
17.897721330097664 70.0017
17.920260154126645 72.3313
17.942799677153296 75.6682
17.9655159983646 79.8758
17.988056927677544 85.6892
18.010598558807683 93.4722
18.033140892692916 103.26299999999999
18.05586005052525 113.182
18.07840379824407 124.39299999999999
18.10094825154059 134.468
18.12366954819864 141.594
18.146215420998306 140.895
18.16876200220057 131.799
18.191309292745153 116.161
18.214033452627167 102.316
18.236582170236648 92.1333
18.259131600016456 87.4479
18.281681742907335 88.1521
18.304408781233683 92.2857
18.32696035875955 96.7097
18.349512652227624 101.28299999999999
18.372065662579683 105.445
18.394795594587553 105.906
18.41735004715306 102.34899999999999
18.43990521943684 94.9665
18.46246111238171 85.62
18.485193953325208 76.5812
18.507751296070428 69.6441
18.530309362314178 65.8824
18.552868153000343 63.7117
18.57560391815056 62.628
18.59816416623245 62.1739
18.620725141597372 61.4687
18.643286845190268 61.1454
18.666025549835414 60.8064
18.688588718427933 60.2761
18.711152618092243 60.1339
18.73389353884365 59.9211
18.75645890921984 59.4162
18.77902501351406 58.9962
18.801591852673102 59.1345
18.824335739722738 58.6336
18.846904057212626 58.5378
18.8694731124168 58.1846
18.89204290628315 58.0016
18.914789774966803 57.8893
18.937361054791623 57.5626
18.959933076131318 57.2745
18.982505839934877 57.2963
19.00525570560582 57.3337
19.027829963004184 57.1852
19.05040496572238 57.4234
19.072980714710468 57.4844
19.095733592739563 57.7174
19.11831084296757 57.9831
19.140888842324735 58.2354
19.16346759176222 58.3883
19.18622349753803 59.1067
19.208803755869358 60.0099
19.231384767143577 61.5285
19.253966532312948 63.0672
19.276725481241822 65.139
19.29930876296784 67.3824
19.3218928014549 70.2056
19.34465404436217 72.7148
19.36723960516257 75.3685
19.389825925592426 75.9064
19.412413006605938 75.1219
19.43517731967805 71.6689
19.457765930683355 67.0213
19.48035530514408 62.8455
19.50294544401556 59.2488
19.525712842708348 56.7355
19.54830451925909 55.4905
19.570896963095727 54.4081
19.593490175174704 54.1108
19.616260674962184 54.166000000000004
19.638855432416964 53.9867
19.661450960992624 54.151
19.68404726164677 53.9478
19.706820878021247 53.7509
19.729418731756834 53.9903
19.752017360452857 53.8217
19.77461676506804 54.1887
19.797393513540218 54.335
19.819994478951667 54.4215
19.84259622316767 54.9474
19.8651987471481 55.2236
19.887978643247177 55.6114
19.91058273574792 56.1416
19.933187610901943 56.9572
19.955969879466828 58.2645
19.97857632894404 59.8732
20.00118356396599 61.6352
20.023791585494575 63.6314
20.046577028914875 65.9775
20.069186632506966 68.1685
20.091797025500632 69.4269
20.114408208858933 70.1124
20.137196842715273 69.893
20.159809615886765 68.1984
20.18242318232135 65.7106
20.20503754298326 63.5502
20.227829382875154 62.5179
20.250445341109344 62.3248
20.27306209647285 62.9801
20.29567964993108 64.0557
20.31847471147704 65.2047
20.34109387027612 65.7035
20.363713830075454 65.3329
20.386334591841646 63.9009
20.409132890679302 61.1829
20.431755265564437 58.1523
20.454378445325528 55.3729
20.477002430930366 53.5576
20.499803982716553 52.3618
20.522429589228004 51.396
20.54505600449589 51.1485
20.567683229489194 50.8916
20.590488049900088 50.7155
20.61311690359731 50.4735
20.63574656993626 50.3303
20.658553853717297 50.0689
20.681185154618298 50.0086
20.703817271080066 49.8115
20.72645020407368 49.3158
20.749260783967177 49.2751
20.771895359337133 49.1927
20.794530754161617 49.3294
20.817166969412938 49.2443
20.83998086114876 49.1646
20.86261872660049 48.8574
20.885257415405402 49.012
20.90789692853701 49.0622
20.930714147864748 49.0477
20.953355319030678 49.1639
20.97599731745334 49.1633
20.99864014410749 49.0062
21.021460706796564 49.0028
21.044105199328826 49.1064
21.06675052302631 49.2852
21.089396678865015 49.5763
21.112220600704806 49.9095
21.134868430275347 50.2742
21.15751709492456 50.4216
21.180166595629693 50.857
21.202993892429635 51.2784
21.22564507473034 51.5408
21.24829709602816 51.6291
21.27112693608965 51.5354
21.293780644891275 51.625
21.316435195634053 50.9424
21.339090589297417 50.28
21.361923832041875 49.8429
21.384580921090404 49.1687
21.407238856007325 48.9389
21.429897637773326 48.8336
21.45273429906592 48.7843
21.475394784108598 48.7599
21.498056118951983 48.7176
21.520718304578022 48.9187
21.543558400304388 49.0662
21.566222297108816 49.4261
21.58888704765135 49.6445
21.61155265291521 49.9801
21.63439619898156 50.3112
21.657063523335786 50.6175
21.67973170537063 50.909
21.7024007460706 51.4754
21.72524775840385 52.3199
21.747918526116475 53.3024
21.770590155457388 54.6805
21.79326264741238 56.2882
21.816113141960237 57.9908
21.838787368860547 59.7322
21.861462461341976 61.4096
21.884315579735777 63.3635
21.90699241312273 64.5941
21.92967011506078 65.1072
21.95234868653799 64.4848
21.9752053151131 63.2443
21.997885635446785 61.3298
22.020566828293532 59.6981
22.04324889464272 57.8773
22.066109049404666 56.5255
22.088792872571794 56.2283
22.111477572219204 56.2987
22.1341631493376 56.4742
22.157026846313123 56.31399999999999
22.179714188221507 55.3591
22.202402410582668 54.4166
22.22509151438863 52.802
22.24795876962584 51.4935
22.270649646204486 50.6396
22.293341407213727 50.0388
22.316034053646906 49.5933
22.338904883215342 49.3985
22.36159931041458 49.4348
22.38429462602756 49.2388
22.40699083104897 48.9769
22.429865251039757 49.0128
22.452563244831367 49.0679
22.47526213102522 48.9957
22.49813925616515 48.9988
22.520839937143307 48.9464
22.543541513520587 49.0934
22.56624398629403 48.8179
22.589124730075895 48.8363
22.611829005656723 49.037
22.63453418063466 49.2437
22.657240256008077 49.3852
22.680124634582935 49.4985
22.70283252079775 49.7021
22.725541310413075 50.0623
22.74825100442868 50.27
22.771139033969575 50.7414
22.79385054687155 50.9583
22.81656296718292 51.7749
22.83927629590484 52.6882
22.862167992606945 53.5548
22.88488314827121 54.7434
22.907599215359284 55.6064
22.93031619487366 56.5937
22.953211574954405 57.4425
22.975930389478226 58.2746
22.998650119445763 58.1779
23.02137076586092 57.4231
23.044269845560063 55.9251
23.06699233506288 54.2172
23.089715744034912 52.553999999999995
23.112617610931565 50.9996
23.135342869061212 50.0453
23.158069049684816 49.3048
23.1807961538087 48.9276
23.20370174880544 49.128
23.226430710184808 49.2111
23.249160598093425 49.3425
23.271891413539002 49.3821
23.294800752937697 49.2229
23.31753343374794 49.4917
23.340267045128353 49.457
23.36300158808808 50.0107
23.38591468821339 50.5615
23.408651104658304 50.9603
23.431388455719986 51.4717
23.454126742409 52.3244
23.4770436196085 53.408
23.499783787914662 54.5629
23.522524894889884 55.2815
23.54526694154616 56.3811
23.56818761219047 57.2084
23.59093154860734 57.8275
23.613676427751283 58.2113
23.636422250635754 56.9239
23.659346731118656 55.678000000000004
23.68209445191868 53.6886
23.704843119509587 51.5597
23.72759273490623 49.6072
23.750521041644767 48.293
23.77327256312355 47.3449
23.796025035462787 46.8311
23.818956224555475 46.3493
23.841710609113413 46.1603
23.86446594758979 46.0914
23.887222241002014 45.8859
23.910157285144578 45.4476
23.932915498962537 45.5798
23.955674670778713 45.3526
23.978434801611975 45.0364
24.001373717286125 44.8961
24.024135776723917 44.8716
24.046898798245582 44.6872
24.06966278287146 44.7437
24.092605586582614 44.5574
24.115371508023642 44.3802
24.1381383956401 44.1927
24.16090625045381 44.1255
24.183852958731244 44.0896
24.206622758582608 44.1138
24.229393528706886 43.8717
24.252165270127392 44.0124
24.27511589952438 44.0058
24.297889594216997 43.6615
24.32066426328598 43.6295
24.34343990775613 43.473
24.36639447485003 43.4483
24.38917208083877 43.4949
24.41195066531332 43.3333
24.43490819850244 43.5201
24.457688750692377 43.1574
24.48047028445616 43.2509
24.503252800821233 43.5408
24.526214300784112 43.5049
24.548998793132213 43.3127
24.57178427117417 43.1455
24.59457073593893 43.3413
24.617536219319863 43.1723
24.64032466834748 43.1747
24.663114107195035 43.0737
24.685904536893013 42.882
24.708874020360852 42.7691
24.731666442613744 42.6488
24.754459858818787 42.653999999999996
24.777254270007962 42.6763
24.80022777025625 42.519
24.82302418230472 42.478
24.845821592443674 42.6261
24.86862000170663 42.5059
24.891597535453727 42.3104
24.914397953892728 42.6292
24.93719937456671 42.5345
24.96000179851076 42.6147
24.98298338249997 42.8809
25.00578782394922 43.1951
25.028593271784167 43.2633
25.05157790644186 43.5433
25.07438537804115 43.736000000000004
25.097193859145293 43.9319
25.120003350792075 44.0641
25.142992065061257 44.4747
25.165803588823465 44.7824
25.18861612625217 44.8295
25.211429678386736 44.9527
25.234422489079968 45.1093
25.257238081693636 45.2163
25.280054692141732 45.0711
25.3028723214652 45.0324
25.325869245420463 45.1925
25.348688923599397 45.0684
25.371509623787006 44.9777
25.394331347025812 44.7261
25.41733240110666 44.3317
25.440156181590016 43.6201
25.46298098826268 43.0358
25.48580682216873 42.5451
25.50881202326435 41.9306
25.53163992281684 41.5399
25.55446885274561 41.3916
25.577298814096377 41.1456
25.600308179121807 41.0448
25.623140214533745 41.1446
25.64597328451537 41.1242
25.66898578564376 40.7022
25.691820936010206 40.8444
25.714657124097695 40.7247
25.737494350954734 40.8938
25.760511045684957 40.6468
25.783350361364224 40.8161
25.806190718969255 40.8433
25.82903211955018 40.8139
25.852053024868923 40.9651
25.874896522722523 40.878
25.897741066713106 40.8547
25.920586657892454 41.1534
25.943611790812668 41.1733
25.966459487728237 41.2683
25.989308234998564 41.3218
26.01215803367705 41.6403
26.03518741123814 41.8598
26.05803932412957 41.7565
26.080892291600094 41.745
26.10374631470478 41.7389
26.12677995397268 42.0404
26.14963609978026 41.898999999999994
26.172493304397875 41.5049
26.19535156888223 41.475
26.218389486949604 40.9426
26.241249882640123 40.7503
26.26411134137826 40.4366
26.28715248187403 40.5323
26.31001607820869 40.4364
26.3328807407756 40.2523
26.35574647063438 40.4398
26.37879191991473 40.3552
26.401659795896734 40.3828
26.424528742360263 40.4984
26.447398760366614 40.7647
26.470448535598294 40.799
26.49332070826805 41.1202
26.516193955675355 41.431999999999995
26.53906827888316 41.6365
26.562122397260108 41.7648
26.584998883685063 42.0076
26.607876449110325 42.2195
26.63075509460056 42.5109
26.65381357334404 42.6734
26.67669439061878 42.4418
26.699576291163382 42.3644
26.722459276044212 42.2112
26.745522132402975 41.955
26.768407297649354 41.6998
26.791293550442003 41.3139
26.814180891848974 41.158
26.837248143099337 40.68
26.860137673466657 40.7098
26.88302829566349 40.3703
26.90592001075963 40.2616
26.92899167420566 40.0542
26.951885586870763 39.6711
26.974780595655517 39.5065
26.99785558178161 39.4645
27.020752794605112 39.2966
27.043651106772522 39.1052
27.06655051935668 39.1266
27.089629948036183 38.769
27.112531573292053 38.972
27.135434302194138 39.094
27.158338135817015 38.7896
27.181422024430987 38.8266
27.204328079372566 38.7013
27.22723524226965 38.7622
27.250143514198573 38.8215
27.273231880156334 38.7589
27.296142382065014 38.7176
27.319053996245536 38.6759
27.341966723775965 38.7498
27.365059584515222 38.7874
27.38797455070062 38.7004
27.410890633481237 38.5782
27.433807833936918 38.6746
27.456905206923906 38.8085
27.47982465472398 38.6765
27.502745223449743 38.760999999999996
27.525666914182825 38.9804
27.548768816912457 38.9334
27.571692763693633 38.815
27.59461783573812 38.7691
27.617723149491244 38.5278
27.640650484125285 38.3907
27.66357894728264 38.3901
27.686508540048052 38.2902
27.709618414237887 38.2242
27.732550278321757 38.1692
27.755483275279115 38.0857
27.778417406196485 38.0748
27.801531858397514 38.1655
27.824468269376716 37.9774
27.847405817586786 38.1031
27.870344504116094 38.361999999999995
27.893463551932008 38.3969
27.916404527281053 38.6338
27.93934664422563 38.6298
27.962289903855886 38.6605
27.98541356491974 38.8352
28.00835912214229 39.0168
28.03130582533231 39.1559
28.054253675581805 39.3328
28.077381967556104 39.271
28.100332124185126 39.3005
28.123283431160893 39.1888
28.146235889577238 39.0786
28.169368830154156 38.7524
28.192323603752033 38.5945
28.215279532083304 38.2621
28.238415973016764 38.0717
28.261374223145094 38.0198
28.284333631303806 37.8849
28.307294198589954 37.7495
28.330435319167677 37.3816
28.353398217078915 37.1581
28.376362277420153 36.9347
28.39932750129032 36.7893
28.422473319286713 36.6166
28.44544088262495 36.6981
28.468409612800283 36.579
28.491379510913497 36.3354
28.51453004413313 36.2395
28.53750229057244 36.2001
28.56047570826344 36.1652
28.583450298308804 36.1214
28.606605564586562 36.0013
28.629582511831156 36.0504
28.65256063474956 35.8919
28.675539934446338 35.9315
28.698699951647605 35.8402
28.72168161743193 35.8597
28.74466446331978 35.7643
28.767648490417624 35.6944
28.790813276438353 35.6355
28.813799678527303 35.6817
28.836787265157085 35.7083
28.859955641890075 35.6251
28.882945610203045 35.6471
28.905936766392035 35.4328
28.928929111566863 35.5391
28.952102288520145 35.3891
28.975097024308607 35.407
28.998092952423807 35.269
29.021090073977508 35.1643
29.04426806913204 35.037
29.067267590245258 34.8559
29.090268308143695 34.7992
29.11327022394099 34.6717
29.13645305530891 34.7168
29.159457379627167 34.6472
29.18246290519685 34.496
29.20546963313352 34.5841
29.22865731875826 34.5666
29.25166646419296 34.5329
29.27467681535305 34.4691
29.29768837335608 34.4489
29.320880931312562 34.6044
29.34389491580634 34.4548
29.366910110507334 34.3305
29.38992651653503 34.388000000000005
29.41312396492981 34.4291
29.436142806456754 34.3484
29.45916286268059 34.1855
29.48236399319994 34.1487
29.50538649169417 34.09
29.528410208259935 33.8938
29.55143514402014 33.7087
29.574641196749695 33.614000000000004
29.597668583816574 33.6008
29.6206971934585 33.3543
29.64372702680042 33.4327
29.666938019934474 33.3066
29.689970313635285 33.1781
29.713003834422636 33.1312
29.73603858342347 33.1514
29.759254535188578 33.0046
29.78229175361658 33.0967
29.80533020365064 33.1557
29.82836988641968 33.154
29.85159081507472 33.0067
29.874632976355343 32.9102
29.89767637376955 33.1497
29.920721008448314 32.8751
29.9439469322847 32.8737
29.96699405457564 32.7163
29.9900424175358 32.7715
30.013092022298157 32.781
30.03632295963995 32.6044
30.059375061131373 32.6598
30.08242840783577 32.7589
30.105483000888153 32.645
30.128718970092244 32.6219
30.151776069006917 32.603
30.17483441768648 32.7252
30.198074175317235 32.5988
30.221135036724256 32.6742
30.24419715131772 32.555
30.267260520236203 32.5003
30.290505341942243 32.5234
30.313571232750228 32.641999999999996
30.336638381310948 32.5138
30.35970678876503 32.4508
30.38295669299435 32.3219
30.40602763151657 32.3547
30.429099832366074 32.3163
30.452173296685572 32.1864
30.47542830191959 32.2562
30.498504306502497 32.3031
30.521581577995562 32.3638
30.544660117543582 32.3788
30.56792024229725 32.3845
30.59100133132069 32.309
30.614083691845494 32.3891
30.637167325018545 32.3816
30.660432587840603 32.5626
30.683518779717886 32.4189
30.70660624769615 32.4016
30.729694992924372 32.4371
30.75296541239743 32.454
30.77605672557558 32.3736
30.799149319462742 32.2423
30.8224236211637 32.2269
30.845518789950724 32.1662
30.868615242910597 32.0265
30.891712981195973 31.8565
30.91499247215866 31.8166
30.938092794619365 31.8257
30.96119440587579 31.6632
30.984297307082752 31.6291
31.00758200598383 31.576
31.030687500658694 31.4222
31.053794288760695 31.3447
31.076902371446767 31.271
31.100192296997445 31.3714
31.12330298246119 31.2787
31.14641496599209 31.1551
31.169528248749216 31.0765
31.19282341969534 31.194000000000003
31.215939314557186 31.1875
31.239056512134788 31.219
31.262175013589378 31.0636
31.28547544871168 31.0678
31.30859657161541 31.0546
31.331719001892175 31.0027
31.35484274070538 31.1962
31.378148458819545 31.1744
31.401274828443725 31.0648
31.424402510106933 31.087
31.447712205419993 31.1919
31.470842524931633 31.0762
31.493974159989783 31.0724
31.51710711176168 31.0078
31.54042212308802 31.0799
31.563557722100917 30.9976
31.586694641341655 30.8097
31.609832881979628 30.6705
31.63315322823208 30.5338
31.656294125521327 30.4622
31.679436347728515 30.5923
31.70257989602529 30.5184
31.725905596152327 30.3381
31.74905181052835 30.348000000000003
31.772199354521323 30.3805
31.79534822930507 30.4064
31.818679302290967 30.3226
31.84183085259981 30.3783
31.864983737233473 30.2797
31.88813795736804 30.3906
31.911474422233013 30.2178
31.934631327356435 30.2765
31.9577895715215 30.25
31.980949155906522 30.2121
32.004291031706956 30.19
32.027453310562606 30.0421
32.05061693318573 29.9728
32.07396288236386 29.9614
32.09712920658542 29.8855
32.12029687812702 29.6852
32.14346589817093 29.656999999999996
32.166817291729984 29.7044
32.18998902288583 29.6117
32.21316210610336 29.5654
32.23633654256711 29.4785
32.259693399663725 29.4401
32.282870556771144 29.2655
32.30604907069099 29.3801
32.329228942610065 29.295
32.35259128243769 29.1043
32.375773884550505 29.0266
32.398957848235646 29.0065
32.422143174682176 29.0115
32.445511016471215 28.9991
32.468699082679954 29.0057
32.49188851523011 28.9543
32.51507931531304 28.8422
32.538452678331 28.791999999999998
32.56164622776311 28.8231
32.58484114831493 28.6398
32.60803744118015 28.735
32.631416344731896 28.6351
32.654615396551876 28.6459
32.67781582427913 28.6349
32.701198898634416 28.5673
32.72440209253756 28.538
32.747606665947124 28.5639
32.77081262006088 28.316
32.79420126883317 28.3107
32.81740999876112 28.355
32.840620112999424 28.2161
32.86383161274818 28.1695
32.88722585534586 28.1861
32.91044014056596 28.1911
32.933655814909734 28.13
32.95687287957963 28.1991
32.98027273544904 28.0222
33.00349259526636 28.0443
33.026713849030116 28.1461
33.04993649794511 28.0187
33.073341986570746 27.9913
33.09656744032826 27.9645
33.11979429286444 27.9547
33.14302254538647 27.9617
33.166433686291185 27.9114
33.18966475336992 27.9382
33.212897224069096 27.7583
33.23613109959831 27.7475
33.259547912343415 27.7378
33.2827846121627 27.7285
33.306022720453775 27.5772
33.32926223842861 27.5579
33.352684742614166 27.592
33.37592709463173 27.5372
33.399170859982064 27.4818
33.422597648419426 27.3993
33.44584425514446 27.217
33.46909227885668 27.206
33.4923417207723 27.1317
33.51577423505344 27.1883
33.539026528130385 27.0651
33.56228024307245 27.0294
33.585535381098246 26.9409
33.60897364093058 26.92
33.63223163992385 26.979
33.6554910656699 26.8503
33.678751919389796 26.831999999999997
33.702195944520106 26.7404
33.72545966903325 26.8026
33.74872482519663 26.7059
33.771991414233746 26.5698
33.79544122444841 26.7071
33.81871069412428 26.6406
33.84198160035767 26.5027
33.86525394437455 26.561
33.88870955949969 26.5117
33.911984794020626 26.4642
33.93526147001624 26.3995
33.958539588715006 26.3446
33.98200102861669 26.2998
34.0052820477047 26.1587
34.02856451319451 26.1981
34.05203033759056 26.1368
34.07531571090147 26.1564
34.09860253431845 26.0755
34.121890809074316 26.0705
34.145362493118924 26.0092
34.16865368561615 25.9617
34.191946333164054 25.9625
34.21524043699793 25.8947
34.23871800066799 25.9119
34.26201503218366 25.8522
34.28531352370466 25.84
34.30861347646881 25.7098
34.33209693978188 25.7277
34.3553998301885 25.7321
34.378704185565205 25.6027
34.402010007152356 25.5276
34.42549939016683 25.5756
34.44880815937748 25.4197
34.472118398533134 25.4855
34.49543010887669 25.4155
34.51892543169198 25.2012
34.54224009966052 25.2679
34.56555624255917 25.2773
34.58887386163339 25.2305
34.61237514439016 25.2367
34.6356957311114 25.2157
34.65901779775809 25.1594
34.68252356662995 25.1034
34.705848608458616 25.0412
34.72917513396849 24.9908
34.75250314440949 24.9827
34.77601490857862 24.8724
34.799345904259795 24.8835
34.82267838863559 24.9025
34.846012362958525 24.787
34.869530142679984 24.7665
34.89286711232212 24.6994
34.91620557568269 24.7159
34.93954553401677 24.6504
34.9630693495876 24.6476
34.986412313340814 24.6656
35.00975677584668 24.6771
35.033102738362956 24.5772
35.05663261012228 24.478
35.0799815881786 24.5173
35.10333207003229 24.4331
35.12668405694369 24.4848
35.150220005273056 24.4975
35.17357501786656 24.4453
35.19693153931268 24.3183
35.220289570874385 24.2708
35.24383161619786 24.3366
35.267192683604904 24.3023
35.290555264930376 24.2311
35.314101899412165 24.2265
35.33746752422433 24.25
35.36083466676374 24.1989
35.38420332829803 24.064
35.407756095629054 24.2259
35.43112781085063 24.0983
35.45450104888391 24.1225
35.477875810999194 24.1333
35.50143473172161 24.0496
35.52481255774625 24.0119
35.54819191167777 23.997
35.57157279478914 23.8847
35.595137889488406 23.9009
35.61852184675279 23.8332
35.641907337029984 23.7662
35.665294361595684 23.7258
35.68886565090076 23.6576
35.7122557598848 23.7137
35.73564740699838 23.7241
35.759040593519934 23.596999999999998
35.78261809810353 23.4399
35.80601437933051 23.4414
35.829412203814705 23.5089
35.85281157283719 23.4155
35.876395313415884 23.3949
35.8997977874528 23.3503
35.92320180988546 23.3526
35.946790244133936 23.2434
35.97019737933222 23.2009
35.993606066789866 23.234
36.01701630779276 23.1961
36.04061101440684 23.212
36.06402437852291 23.1268
36.08743930005611 23.1079
36.1108557802951 23.070999999999998
36.13445678011326 23.0364
36.15787639383515 22.9604
36.18129757014299 22.9046
36.20472031032821 22.912
36.22832762423364 22.8578
36.25175350829375 22.8333
36.275180960119776 22.8061
36.298609981005924 22.7924
36.32222362992669 22.7704
36.34565580510207 22.678
36.36908955323448 22.7077
36.39252487562093 22.6936
36.416144880530226 22.6618
36.43958336764275 22.5722
36.463023432914625 22.5568
36.486465077645676 22.4954
36.51009145956204 22.5168
36.53353627947859 22.4779
36.55698268276811 22.4581
36.58043067073321 22.3704
36.60406345072071 22.3213
36.62751462435344 22.3369
36.65096738658405 22.2662
36.67460498210655 22.2116
36.69806093788647 22.255
36.72151848619297 22.1694
36.744977628333636 22.2048
36.76862165890998 22.1122
36.79208400512205 22.0972
36.81554794910557 22.1461
36.83901349217101 21.9322
36.862663978991606 21.9279
36.88613273667352 21.8576
36.90960309738324 21.9056
36.933075062434064 21.866999999999997
36.95673202673572 21.8893
36.98020721697122 21.8203
37.003684015502365 21.7614
37.027162423645365 21.7321
37.050825886711465 21.7421
37.07430753063053 21.6491
37.09779078812467 21.5907
37.121275660513014 21.6291
37.144945643673694 21.5557
37.16843376245278 21.5362
37.19192350009803 21.5083
37.215414857931435 21.48
37.239091382563885 21.4161
37.262585997426164 21.3435
37.28608223645736 21.3447
37.309763684451696 21.3722
37.33326318851098 21.3393
37.356764320726555 21.2999
37.380267082425526 21.2929
37.40395510942588 21.1939
37.42746114683234 21.1446
37.45096881771841 21.054000000000002
37.474478123414166 21.087
37.49817275092816 21.084
37.52168534303452 21.0632
37.54519957395567 20.9637
37.568715445024665 20.930999999999997
37.592416694607714 20.8841
37.61593586281424 20.8999
37.63945667518264 20.9
37.66297913304891 20.8493
37.68668702630454 20.7761
37.710212792059274 20.7037
37.733740207334854 20.7417
37.757269273470364 20.6384
37.780983832050374 20.7102
37.80451621684926 20.6537
37.82805025654007 20.5906
37.851585952464795 20.5352
37.8753071980695 20.5233
37.89884622345676 20.4831
37.92238690911902 20.4708
37.94611318753442 20.424
37.969657210779765 20.375
37.99320289834801 20.4227
38.016750251586465 20.361
38.04048325513017 20.2653
38.06403395679343 20.2203
38.087586328183946 20.2269
38.11114037065203 20.1673
38.13488012115898 20.2002
38.1584375229181 20.0926
38.181996599821 20.1058
38.205557353221124 20.0833
38.229303872575656 20.1037
38.2528679961576 20.0771
38.27643380031219 20.0085
38.30000128639589 19.8466
38.32375459653193 19.9266
38.34732546371299 19.9317
38.37089801690786 19.7718
38.39447225747609 19.8122
38.418232380377425 19.8077
38.441810012983396 19.7926
38.46538933705673 19.7299
38.488970353960084 19.749000000000002
38.51273731166058 19.6783
38.536321731567014 19.5793
38.55990784840681 19.6114
38.58367995004091 19.5263
38.60726947812959 19.4988
38.63086070726198 19.5047
38.654453638806274 19.5476
38.678232613930824 19.3823
38.70182896773327 19.3353
38.72542702806741 19.3582
38.7490267963045 19.3087
38.77281266709232 19.3181
38.79641586862214 19.3407
38.8200207821842 19.2094
38.843627409152944 19.2615
38.86742019782782 19.2616
38.891030269149255 19.211
38.914642058016156 19.1685
38.938255565806124 19.105
38.96205529464307 19.0057
38.98567225787121 19.0776
39.00929094417078 18.9798
39.03291135492255 19.0158
39.05671804624804 18.9579
39.080341923549106 18.9441
39.103967529460334 18.8758
39.127594865365744 18.8012
39.15140854155791 18.8534
39.17503935514948 18.8097
39.19867190290282 18.7605
39.22249083587951 18.7365
39.24612686969409 18.727
39.269764641845306 18.7606
39.293404153722804 18.6606
39.317230110864074 18.64
39.34087311998506 18.5757
39.36451787301696 18.6066
39.388164371352595 18.4316
39.41199737518003 18.4225
39.43564738196752 18.4006
39.45929913825317 18.4431
39.48295264543308 18.4265
39.506792718520884 18.3383
39.530449745387216 18.3436
39.55410852735203 18.2271
39.57776906581474 18.3619
39.60161623079 18.2456
39.625280300200025 18.2562
39.64894613032202 18.1821
39.67261372255866 18.1988
39.6964680021016 18.2148
39.72013913657293 18.1556
39.74381203738292 18.1652
39.76748670593756 18.1531
39.79134812278169 18.0937
39.81502634488497 18.0579
39.83870633896685 18.0023
39.862388106436654 17.9698
39.88625668336918 17.969
39.90994201572829 17.9677
39.933629125719285 17.8715
39.957503091207826 17.8362
39.9811937746168 17.8465
40.00488623990914 17.7209
40.02858048850006 17.7559
40.05246165409549 17.6717
40.076159487492085 17.6183
40.099859108448875 17.7203
40.123560518384345 17.6244
40.1474489070226 17.6154
40.171153913178564 17.5504
40.194860712584955 17.5096
40.2185693066637 17.5531
40.242464941335314 17.5132
40.26617714307655 17.4883
40.289891143772046 17.4338
40.3136069448471 17.4097
40.33750984859743 17.4596
40.3612292688043 17.3179
40.3849504936829 17.2863
40.40867352466194 17.303
40.43258372059144 17.2625
40.45631038219906 17.2928
40.48003885420956 17.2086
40.503769138055105 17.1794
40.52768664931955 17.1763
40.55142057531802 17.1342
40.57515631746428 17.0989
40.599079334038514 17.0771
40.62281872700477 17.004
40.64655994043941 17.0112
40.67030297578061 16.9751
40.69423334835778 17.0139
40.71798004609188 16.9731
40.74172857006355 16.9267
40.76547892171441 16.942999999999998
40.7894166736039 16.8199
40.813170699248566 16.8367
40.83692655691388 16.7973
40.86068424804498 16.8504
40.884629402612525 16.7472
40.908390779366385 16.7909
40.932153993938 16.7248
40.95591904777605 16.6505
40.979871628443995 16.6758
41.003640379561936 16.6403
41.02741097430883 16.6178
41.05118341413683 16.5354
41.075143444384416 16.499000000000002
41.098919593177826 16.5321
41.1226975914255 16.4917
41.14647744058318 16.4775
41.170444943946755 16.3895
41.19422851378379 16.4288
41.218013938914645 16.3441
41.24198706625173 16.3134
41.26577622087193 16.3492
41.289567235177785 16.3234
41.31336011063129 16.339000000000002
41.337340752422875 16.3103
41.361137369129835 16.2663
41.38493585138705 16.2137
41.40873620066004 16.1984
41.43272438060107 16.1005
41.45652848292052 16.0826
41.48033445666918 16.0509
41.50414230331616 16.0299
41.528138045159764 16.0324
41.551949656675205 16.0158
41.575763145513235 15.9793
41.59957851314666 15.9482
41.62358184070442 15.9679
41.64740098505737 15.847999999999999
41.6712220126409 15.8241
41.69504492493139 15.8299
41.71905586207357 15.8206
41.74288256296395 15.7932
41.766711153007456 15.7505
41.79054163368412 15.7615
41.814560204340054 15.7208
41.838394485526365 15.6948
41.86223066180303 15.6594
41.88625497706819 15.6656
41.910094962812 15.6305
41.93393684811168 15.6005
41.95778063445365 15.5108
41.981812625263366 15.5109
42.00566023303407 15.4965
42.029509746323676 15.4891
42.05336116662236 15.4412
42.077400857069705 15.4558
42.10125611078846 15.3978
42.12511327600405 15.3704
42.14897235421036 15.3417
42.173019768448455 15.3017
42.19688269209613 15.2939
42.22074753323349 15.2782
42.24461429335818 15.2175
42.268669455600495 15.1788
42.292540073217886 15.205
42.31641261433284 15.1854
42.34028708044675 15.1686
42.36435001496739 15.120999999999999
42.38822835065557 15.1118
42.41210861586426 15.1079
42.4359908120986 15.0558
42.46006154323262 14.9882
42.48394762115317 14.9844
42.507835634632315 14.9627
42.531912233047436 14.9844
42.55580413732265 14.956
42.579697981698 14.924000000000001
42.60359376768525 14.8811
42.62767820545945 14.8854
42.65157789440821 14.869000000000002
42.67547952952185 14.8552
42.699383112316 14.7703
42.72347541395347 14.7449
42.74738291190531 14.6704
42.771292362102166 14.7327
42.795203766063516 14.6393
42.819303956130405 14.6431
42.843219287476536 14.626
42.86713657716324 14.5973
42.89105582671383 14.565
42.91516392983864 14.5442
42.939087119032166 14.5703
42.963012272677304 14.5145
42.98693939230129 14.4171
43.01105543317513 14.4639
43.034986504731386 14.3698
43.05891954686589 14.4086
43.08285456110972 14.3636
43.10697856448665 14.302
43.130917542983475 14.3043
43.15485849820081 14.3285
43.17880143167367 14.2387
43.20293342237094 14.2585
43.226880332449 14.2455
43.25082922540554 14.21
43.27496722682525 14.2092
43.29892010567796 14.1306
43.32287497204102 14.1487
43.34683182745632 14.0901
43.370977859791836 14.0794
43.39493871351105 14.0956
43.41890156092628 14.0321
43.44286640358341 13.9842
43.46702049182749 13.9628
43.49098934522816 13.977
43.51496019852649 13.9331
43.5389330532723 13.9402
43.56309522248204 13.8529
43.58707210044314 13.8378
43.61105098451946 13.7821
43.63503187626491 13.7811
43.659202151562134 13.780999999999999
43.68318707902681 13.7615
43.70717401884041 13.7021
43.731162972560874 13.6801
43.75534137913236 13.6494
43.779334381108384 13.6552
43.803329401683186 13.6156
43.82732644241872 13.5958
43.8515130055166 13.5797
43.87551410707659 13.5385
43.89951723350145 13.5812
43.923709934595614 13.5385
43.94771713129917 13.5499
43.97172635758096 13.4796
43.99573761501002 13.4788
44.0199385169922 13.4551
44.04395385732619 13.4366
44.067971233533086 13.4298
44.09199064718605 13.3969
44.11619977548961 13.3753
44.14022328470671 13.3197
44.16424883610785 13.3225
44.18827643127035 13.3266
44.21249381139513 13.2724
44.236525514814076 13.1739
44.26055926674478 13.1933
44.28459506876863 13.1914
44.3088207262813 13.1086
44.33286064928722 13.1493
44.35690262714919 13.1165
44.38094666145278 13.0821
44.4051806219871 13.0604
44.42922879003185 12.9954
44.45327901929361 13.0054
44.477331311362136 12.9963
44.501573600619416 12.9819
44.525630039221795 12.952
44.54968854541895 12.9583
44.573937102200176 12.9237
44.5979997645541 12.8772
44.622064499300315 12.8657
44.64613130803592 12.8898
44.67038823869318 12.8896
44.69445921643748 12.8188
44.718532272981385 12.7085
44.742607409926194 12.7221
44.76687274034801 12.6861
44.79095205918753 12.6704
44.81503346325094 12.6534
44.839116954143876 12.6918
44.86339071028742 12.6848
44.88747839599524 12.624
44.91156817336837 12.574000000000002
44.93566004401666 12.5572
44.959942251908146 12.5562
44.984038330325966 12.5108
45.00813650686762 12.4674
45.03223678314731 12.4528
45.05652746888232 12.4373
45.08063196592069 12.4182
45.104738567558705 12.4395
45.128847275414856 12.3998
45.15314646515866 12.3203
45.17725940679741 12.3254
45.20137445952892 12.3115
45.22568004865265 12.3192
45.24979934496396 12.2964
45.27392075725247 12.2181
45.29804428714431 12.2333
45.322358426247604 12.2386
45.346486212804315 12.2111
45.370616121861914 12.2025
45.39474815505086 12.1168
45.41907087049246 12.0972
45.4432071734666 12.0808
45.46734560548283 12.1239
45.49148616817604 12.1019
45.51581748638564 12.0648
45.5399623320197 12.0426
45.56410931325473 11.9889
45.58825843173002 12.0018
45.61259837920865 11.9646
45.636751793816 11.9648
45.66090735060093 11.8956
45.68506505120716 11.8962
45.7094136545275 11.8585
45.73357566449271 11.8158
45.75773982322992 11.8391
45.78190613238733 11.8082
45.806263418194064 11.7803
45.83043404997326 11.7683
45.85460683713677 11.7025
45.87897065658495 11.7104
45.90314777634752 11.6913
45.92732705646868 11.6905
45.9515084986045 11.6207
45.97588104735473 11.6421
46.00006683541565 11.6253
46.02425479047904 11.5586
46.04844491420549 11.5519
46.0728262191024 11.5293
46.09702070211635 11.5099
46.12121735879483 11.5089
46.14541619080294 11.5304
46.169806278764455 11.5468
46.194009483459034 11.4684
46.21821486849841 11.4639
46.24242243555223 11.4507
46.266821333570014 11.4247
46.29103328674601 11.3886
46.31524742696538 11.4046
46.33946375590237 11.3482
46.36387149104216 11.3251
46.38809221957392 11.2428
46.41231514186606 11.2439
46.436540259597464 11.2693
46.460956858999374 11.1871
46.48518638983522 11.1921
46.509418121166966 11.1936
46.533652054678114 11.1975
46.55807754555709 11.1504
46.58231590571962 11.1664
46.60655647313217 11.0841
46.630988654873654 11.0643
46.655233659129024 11.0395
46.67948087571551 11.0167
46.70373030632484 11.0054
46.72817142736393 11.0346
46.752425308428684 11.0093
46.77668140861147 10.9939
46.80093972960865 10.9424
46.82538981736788 10.9114
46.849652602470904 10.912
46.87391761349769 10.8756
46.8981848521493 10.8737
46.9226439341274 10.8106
46.946915650573224 10.8047
46.97118959976749 10.8286
46.99546578341598 10.7538
47.019933887188216 10.7844
47.04421456235744 10.7189
47.06849747711879 10.7112
47.09278263318286 10.6816
47.11725978640143 10.68
47.14154944775105 10.6964
47.165841355555656 10.6878
47.1901355115306 10.6205
47.214621741924994 10.5778
47.23892041698887 10.5645
47.26322134538975 10.5343
47.28771440635075 10.5351
47.31201986422527 10.5822
47.33632758061436 10.5219
47.360637557241866 10.4833
47.38513974410611 10.47
47.40945426407847 10.4729
47.43377104948137 10.437999999999999
47.45809010204344 10.3952
47.48260144275502 10.3913
47.506925052572285 10.3555
47.53125093475548 10.3126
47.55557909103813 10.3265
47.58009961361992 10.3348
47.60443234110732 10.3636
47.62876734791564 10.279000000000002
47.65310463578333 10.2413
47.6776343683373 10.2098
47.7019762413987 10.1751
47.72632040075572 10.1771
47.75066684815169 10.1925
47.77520581885936 10.1374
47.799556865477655 10.1213
47.823910205386 10.1326
47.84826584033272 10.0969
47.87281407745551 10.0675
47.89717432569297 10.078
47.92153687423484 10.0515
47.94609208429692 10.0237
47.97045925671401 10.0416
47.99482873471275 9.9621
48.01920052005013 9.98108
48.04376504619224 9.9773
48.068141469543484 9.9863
48.09252020552573 9.94305
48.11690125590099 9.93385
48.1414751266064 9.89052
48.16586082917454 9.88705
48.19024885144316 9.82996
48.2146391951793 9.87019
48.239222439012764 9.827869999999999
48.26361744916137 9.797880000000001
48.28801478610016 9.79187
48.31241445160131 9.77554
48.337007097209366 9.75751
48.36141144338331 9.73259
48.38581812345755 9.69448
48.41022713920929 9.664069999999999
48.434829215320704 9.63746
48.45924292604658 9.68224
48.48365897780325 9.6759
48.50807737237308 9.628860000000001
48.532688907799276 9.61427
48.55711201168574 9.61021
48.581537463754074 9.58237
48.60615611725119 9.5621
48.63058628942721 9.5356
48.65501881516546 9.53969
48.6794536962573 9.50464
48.70408185970339 9.50023
48.72852147531801 9.47978
48.75296345168211 9.45536
48.77740779059232 9.45635
48.80204549302823 9.44137
48.82649458091802 9.41612
48.85094603676547 9.349260000000001
48.87539986237231 9.34539
48.90004713292306 9.34591
48.92450572200832 9.327869999999999
48.94896668628025 9.312439999999999
48.97343002754588 9.28786
48.99808689542115 9.31278
49.02255501470614 9.27309
49.04702551642794 9.25221
49.0714984023988 9.23692
49.096164896893235 9.18627
49.120642575466796 9.18538
49.145122643748394 9.18943
49.16960510355558 9.1487
49.19428125404938 9.13175
49.2187685210852 9.12015
49.243258185121555 9.10385
49.26794160167084 9.07768
49.2924360839405 9.04388
49.31693296869764 9.04682
49.34143225776915 9.05537
49.36612538195438 9.008510000000001
49.39062950396021 8.97092
49.41513603578346 8.95533
49.4396449792564 8.96753
49.46434784069503 8.976410000000001
49.488861631846454 8.9376
49.513377840166804 8.94192
49.537896467493745 8.8969
49.56260909589029 8.83935
49.587132585683285 8.831719999999999
49.611658500018365 8.82868
49.636186840738596 8.82906
49.66090926588511 8.84719
49.685442483902584 8.78892
49.70997813385706 8.74875
49.734516217597076 8.80973
49.75924846937352 8.73532
49.7837914452858 8.72931
49.80833686055187 8.68474
49.83288471702571 8.673589999999999
49.85762682540054 8.664589999999999
49.882179588965734 8.66574
49.9067347993235 8.67163
49.93129245833333 8.638819999999999
49.95604445336378 8.59272
49.98060703442832 8.58533
50.005172069746266 8.52551
50.02993150438364 8.537989999999999
50.05450147301533 8.54224
50.07907390151433 8.51079
50.10364879174981 8.49642
50.12841816587289 8.46758
50.1529980044635 8.48162
50.17758031042124 8.46367
50.20216508562089 8.43316
50.22694442953363 8.40011
50.25153416817468 8.41605
50.27612638170508 8.41382
50.300721072005196 8.355080000000001
50.325510416102105 8.329839999999999
50.350110084975064 8.35623
50.37471223628208 8.33543
50.39931687190919 8.33586
50.424116246675766 8.27747
50.44872587605249 8.292910000000001
50.47333799543065 8.2566
50.49795260670191 8.24457
50.52276204271512 8.24667
50.54738166295838 8.18501
50.57200378079314 8.17428
50.596628398116835 8.18038
50.62144792604559 8.15719
50.646077567609396 8.175889999999999
50.670709714377715 8.16339
50.69553683636198 8.1352
50.72017401885922 8.08107
50.7448137122895 8.09715
50.76945591856022 8.0559
50.79429318636823 8.089080000000001
50.818940443716784 8.06812
50.84359021965163 8.0338
50.868242516085964 8.004660000000001
50.893089960641895 7.97502
50.917747323549435 7.9577800000000005
50.94240721271973 7.9453
50.96706963007175 7.95878
50.99192728239342 7.915080000000001
51.01659478166073 7.9189
51.04126481489051 7.9007
51.06593738400761 7.9038
51.090805275207074 7.87095
51.11548294172845 7.8718699999999995
51.14016314993547 7.80365
51.164845901758845 7.82181
51.18972406304274 7.792439999999999
51.21441192780656 7.79604
51.23910234200271 7.80455
51.2637953075678 7.78931
51.288683770237945 7.7629600000000005
51.31338186432707 7.73913
51.33808251561888 7.70127
51.362978729967345 7.697889999999999
51.387684521509755 7.66414
51.41239287610203 7.63093
51.437103795691165 7.6451
51.46201036644977 7.62184
51.486726441956634 7.60085
51.51144508832545 7.61631
51.536166307509156 7.59697
51.56108326624387 7.60222
51.58580965706056 7.555510000000001
51.61053862657523 7.538819999999999
51.635270176746864 7.5306
51.66019755512065 7.5296899999999996
51.68493429268881 7.47088
51.70967361681515 7.45785
51.73441552946465 7.47003
51.759353359237934 7.468789999999999
51.7841004750961 7.461119999999999
51.80885018539685 7.433680000000001
51.833602492111254 7.404839999999999
51.8585508051424 7.362360000000001
51.883308330926425 7.386610000000001
51.90806845906181 7.335839999999999
51.932831191525715 7.31572
51.95779001977161 7.31395
51.98255798721516 7.3022
52.00732856494335 7.27905
52.03229530577543 7.28532
52.057071130455945 7.264760000000001
52.081849571391054 7.24912
52.106630630568695 7.25644
52.13160794279417 7.18836
52.15639426492067 7.18377
52.18118321127822 7.21479
52.205974783860896 7.15203
52.23096269971011 7.17195
52.255759551287994 7.1280399999999995
52.280559035098186 7.12505
52.30536115314103 7.08953
52.33035970494467 7.089810000000001
52.35516711807904 7.092230000000001
52.37997717147198 7.08213
52.40478986713005 7.08703
52.42979908731974 7.0408800000000005
52.454617094216 7.0389800000000005
52.47943774942214 6.992960000000001
52.50426105495102 7.019889999999999
52.529280976059844 6.9642
52.554109609024096 6.96674
52.57894089837482 6.93545
52.60377484613117 6.944610000000001
52.62880550079408 6.92514
52.65364479223379 6.89695
52.67848674816189 6.914839999999999
52.70352547971946 6.89398
52.72837279155837 6.862480000000001
52.753222773982785 6.85425
52.778075429022984 6.86585
52.80312495150885 6.861269999999999
52.827982978797436 6.8017
52.85284368481815 6.787939999999999
52.87770707160767 6.80368
52.90276741793998 6.758789999999999
52.92763619336701 6.764480000000001
52.952507655698504 6.76197
52.977381806977576 6.70361
53.00245301017842 6.71091
53.02733256653592 6.7073
53.052214817996074 6.682010000000001
53.077099766608484 6.659910000000001
53.102181859804446 6.65831
53.127072229988265 6.658060000000001
53.15196530349892 6.6308
53.17686108239249 6.63208
53.20195409881522 6.60347
53.22685531582556 6.56955
53.25175924441303 6.57212
53.27666588664027 6.57
53.30176985962693 6.49986
53.3266819565689 6.50396
53.35159677336455 6.538130000000001
53.376514312083096 6.49662
53.40162927507703 6.5058
53.42655228516116 6.46801
53.45147802340193 6.4377
53.47660125628886 6.4751199999999995
53.50153247842639 6.42742
53.52646643496923 6.43648
53.55140312799818 6.4389
53.576537409691696 6.36426
53.60147960336152 6.38282
53.626424539786164 6.3602
53.65137222105307 6.3119
53.67651758529126 6.31819
53.70147078399681 6.28525
53.72642673383343 6.31416
53.75138543689533 6.2699
53.776541917524526 6.278630000000001
53.801506154876755 6.29167
53.826473151763246 6.25799
53.851442910284916 6.249680000000001
53.87661054126026 6.20268
53.9015858509782 6.1990099999999995
53.92656392866066 6.1873
53.95154477641532 6.2013
53.976723591801296 6.18804
54.00171000771266 6.18361
54.02669920004598 6.16115
54.051691170915745 6.09012
54.076881204886796 6.064030000000001
54.101878760928514 6.10456
54.12687910187696 6.05656
54.152077577768296 6.08635
54.1770835166946 6.0534099999999995
54.20209224691339 6.0593699999999995
54.22710377055121 6.070209999999999
54.25231352511594 6.02267
54.27733066384342 5.9865
54.30235060239643 5.97238
54.32737334290836 5.96629
54.35259441062629 5.97824
54.377622783395324 5.91633
54.40265396455061 5.92054
54.42768795623251 5.85941
54.45292037169559 5.8063400000000005
54.477960012857906 5.91483
54.50300247099511 5.86006
54.52804774825457 5.790430000000001
54.55329154616743 5.79405
54.57834249018678 5.81355
54.6033962597977 5.80388
54.6284528571545 5.72037
54.653708072335164 5.72616
54.67877035378786 5.69499
54.70383546947698 5.67224
54.72890342156389 5.643330000000001
54.7541700889442 5.64795
54.77924374251975 5.652819999999999
54.8043202390049 5.61794
54.82959552413022 5.576219999999999
54.8546777351945 5.58447
54.87976279569621 5.55295
54.90485070780914 5.59144
54.930137506558005 5.52919
54.95523115074295 5.50071
54.98032765308844 5.45507
55.005427015775496 5.442130000000001
55.03072536339621 5.45167
55.05583047570572 5.407109999999999
55.080938454927676 5.41486
55.10604930325027 5.46095
55.131359235107396 5.39885
55.15647585066083 5.33871
55.181595341907496 5.30682
55.20671771104285 5.314019999999999
55.232039262617704 5.27444
55.25716741665048 5.26941
55.28229845518636 5.28629
55.30743238042802 5.2085300000000005
55.33276558731939 5.18428
55.357905315183636 5.177219999999999
55.383047936390035 5.14736
55.40819345314859 5.1111699999999995
55.433538351073295 5.09579
55.458689688238415 5.08632
55.483843927614096 5.02975
55.509197623043605 5.00772
55.53435769621134 5.016290000000001
55.55952067826466 4.96235
55.5846865714265 4.986269999999999
55.61005202069737 4.92969
55.63522376553902 4.95777
55.66039842818645 4.93705
55.68557601087004 4.9072
55.7109532500271 4.83996
55.73613670233794 4.897869999999999
