TT I
1.2716486653135266 7.24897
1.2939594142134223 7.1938699999999995
1.3162702121660406 6.44979
1.3385810600174564 6.10471
1.3608919586137629 6.777889999999999
1.383202908801069 6.5815399999999995
1.405513911425503 6.09267
1.4278249673332093 6.3606300000000005
1.4501343378461518 5.93807
1.4724455028545926 5.52915
1.4947567236847858 5.7612
1.517068001182951 5.7845
1.5393793361953272 5.209219999999999
1.5616907295681737 5.31886
1.5840021821477681 5.4440599999999995
1.60631369478041 4.84429
1.6286252683124185 4.68128
1.6509369035901333 5.185230000000001
1.6732468618895553 5.22342
1.695558623192809 5.13387
1.7178704487808514 4.86711
1.7401823395001077 4.642469999999999
1.7625012545597203 5.13922
1.7848028405262486 5.25788
1.8071218901122095 5.06623
1.8294236121921872 4.760269999999999
1.8517427996910911 4.3429199999999994
1.8740620574440425 4.3402199999999995
1.8963639900671978 4.584969999999999
1.9186833908139995 4.9393
1.9409854680117449 4.48565
1.9633050151394713 4.24654
1.9856246367570705 4.64316
2.0079269371922672 4.1830099999999995
2.03024671027244 4.09877
2.0525491637446027 3.9715199999999995
2.074869091674931 4.26584
2.097171701569106 4.21357
2.1194917877373847 4.1905
2.141811954326636 4.46634
2.164114805233074 4.33282
2.186435135143035 4.81648
2.208738150935709 5.57681
2.231058647554722 7.337969999999999
2.2533792288321184 6.48778
2.275682498336085 5.458559999999999
2.298003251406138 5.459219999999999
2.3203066942619714 5.32714
2.3426276225136022 5.279319999999999
2.3649486396617507 5.3437
2.387252348930071 6.050669999999999
2.4095735463442893 5.2005099999999995
2.4318774374315884 5.694030000000001
2.4541988185014043 6.59595
2.476502894794693 7.0436
2.498824462909887 7.48694
2.521146125856138 7.444960000000001
2.5434504863470337 7.33235
2.5657723414244717 7.73993
2.588076895590662 8.50003
2.610398946189713 8.34655
2.6327210958598384 7.65787
2.6550259469304716 8.16765
2.6773482972090137 8.30064
2.6996533504259 8.86152
2.7219759047039602 9.03545
2.744298562293959 7.92485
2.7666039251246595 7.939539999999999
2.7889267918020164 8.04142
2.8112323652516555 7.60124
2.833555444408179 7.89447
2.8558786311183852 8.58182
2.8781845268938557 8.69229
2.9005079311721484 8.57067
2.9228140460410397 8.34276
2.9451376712799635 8.53154
2.967444008632326 8.591460000000001
2.9897678582247247 9.423689999999999
3.0120918213106695 10.2962
3.0343984987899373 10.3316
3.0567226913198637 11.1108
3.079029599759726 11.4105
3.101354025127254 11.3125
3.123678568232338 12.4696
3.145985829517914 13.1907
3.16831061055229 13.148
3.1906181112775593 14.4333
3.212943133635653 14.2991
3.2352682779763207 14.6778
3.2575761442691227 14.3688
3.2799015350264273 14.7884
3.302209649240067 15.5875
3.3245352898092655 16.3202
3.3468436553365257 16.8774
3.369169549113219 17.2914
3.3914955708171384 17.9176
3.413804319727358 18.3405
3.4361305997334863 18.2044
3.4584396084414553 18.7338
3.4807661501462652 19.4503
3.503092824025881 20.0857
3.5254022288463154 20.5675
3.5477291695206588 20.8577
3.5700388426251948 21.0202
3.5923660534916446 21.3432
3.6146934007816114 23.6116
3.637003482731501 28.326
3.6593311053109985 29.693
3.681641464033634 26.4796
3.7039693653009733 24.4003
3.726297407241705 24.6045
3.7486081875460804 24.2479
3.7709365132734978 24.8326
3.793247578841633 25.8203
3.8155761917550093 26.0661
3.8378875459837216 25.9467
3.8602164494827234 26.5376
3.882545499606844 27.5072
3.9048572932539183 28.2957
3.9271866390645718 28.3906
3.9494987298666713 28.8375
3.971828374764527 29.4595
3.9941581705403255 29.9015
4.016470713506008 30.9543
4.038800813471445 30.9378
4.061113662089144 31.8201
4.0834440696459176 32.619
4.105774632334751 32.9762
4.128087945865126 33.6635
4.150418821249301 34.0069
4.172732448931298 34.8557
4.195063640413578 35.8977
4.2173775856475215 36.6339
4.239709096631102 39.8993
4.262040768704612 54.6493
4.284355196706267 63.455
4.306687193387355 55.1207
4.329001947444346 44.3322
4.35133427213731 42.0955
4.373666762177566 42.288000000000004
4.395982011761091 42.8789
4.418314834921175 44.1496
4.44063041906622 45.4174
4.4629635787515625 47.3022
4.4852969080429785 48.1307
4.5076130004776225 48.2987
4.529946671403969 48.7132
4.552263106909177 49.5134
4.574597122877047 50.7153
4.596931312711224 51.8981
4.619248269273446 53.02
4.6415828092605835 54.0175
4.663900117405352 55.2212
4.686235010953232 56.7558
4.708552674085913 57.8299
4.730887924602802 59.4036
4.753223354952695 61.02
4.775541557023902 62.4595
4.797877349456786 63.8234
4.820195915032126 66.196
4.842532072957498 67.7878
4.864868414979744 69.3573
4.88718753227192 71.75
4.909524244902505 73.2368
4.931843734218147 75.2032
4.954180820867835 77.8595
4.976518095879839 81.0395
4.998838149695359 83.7824
5.021175803844231 86.9617
5.043496238205739 89.9591
5.065834274903528 94.2229
5.088172504230693 98.685
5.1104935158799565 103.081
5.132832132875765 113.07799999999999
5.155153533596801 127.305
5.1774925416746225 154.632
5.199814334878411 322.73400000000004
5.2221537374521505 1031.04
5.244493338631803 2948.52
5.266815727034316 8002.47
5.289155727832427 14055.4
5.311478517248165 8927.75
5.333818921080011 2554.91
5.356159527788849 491.704
5.3784829252032536 183.19400000000002
5.400823940070432 140.096
5.423147747031976 124.97399999999999
5.445489173474152 116.26700000000001
5.467830807066149 111.60799999999999
5.490155234831516 108.05799999999999
5.512497285125229 105.443
5.534822130975162 103.56299999999999
5.557164601388673 101.54799999999999
5.579489868738879 99.0428
5.601832762690846 97.26100000000001
5.6241758697774475 96.2329
5.646501775867269 95.501
5.668845311622074 94.4251
5.691171647754637 93.6569
5.713515615597765 92.8239
5.735859800852677 91.9233
5.758186788542988 90.4252
5.780531411018185 91.1834
5.802858837297399 91.1026
5.825203900414495 90.4989
5.8475491852224 91.0944
5.869877275883075 91.7917
5.892223006467101 92.6762
5.914551544266608 93.8003
5.936897724049891 96.7138
5.959244129804903 102.412
5.981573344815301 122.641
6.0039202049061 219.78
6.026249875609095 487.666
6.04859719346037 991.882
6.070927323278297 2262.91
6.093275102315365 4717.04
6.115623113320588 5528.27
6.137953938319995 2968.17
6.160302415650845 802.297
6.182633708324452 188.74200000000002
6.2049826554078376 103.18299999999999
6.227331838745022 87.5791
6.249663839443684 81.3006
6.27201349767565 78.1055
6.294345974611799 76.7427
6.316696111167083 75.8294
6.339046488263839 74.2843
6.361379686074702 71.3231
6.383730546639482 69.2887
6.406064229255215 67.5594
6.428415576718203 67.4185
6.450749747566656 66.0763
6.47310158535871 65.17399999999999
6.495453669698332 64.083
6.517788579421056 63.5863
6.540141159237969 62.5255
6.562476565766648 62.3156
6.5848296444934045 61.7606
6.607182974060425 61.0851
6.6295191323281015 60.8013
6.651872965955752 60.3055
6.6742096296068985 61.7721
6.6965639707294615 66.1649
6.71891856698715 65.8119
6.741255995248479 61.3994
6.763611104154477 58.3067
6.785949046381137 57.4098
6.808304671371482 56.8112
6.8306605557940046 56.9162
6.852999275508618 55.9837
6.875355681171544 55.6032
6.897694923437771 55.3079
6.92005185377892 55.4178
6.9423916220322655 55.2247
6.964749080490181 54.5907
6.987106804399774 54.6087
7.009447368180821 54.6089
7.031805625367033 54.2269
7.054146723727803 54.2208
7.076505517631004 54.22
7.098864581288365 54.2375
7.121206488070854 53.8283
7.143566093607822 53.348
7.165908543567245 53.4392
7.188268694426048 53.3899
7.2106291193438095 53.2036
7.232972390625943 53.381
7.255333366030969 53.791000000000004
7.277677189091925 58.5141
7.300038718428332 64.2291
7.322400526130865 61.8324
7.344745183422596 56.6662
7.367107550224791 53.9839
7.389452767901992 53.7501
7.411815697249891 53.7448
7.434161478756298 53.0378
7.456524974096713 53.0911
7.478888753837185 53.4627
7.501235387657368 54.9701
7.523599738562711 59.7401
7.545946944825532 67.1669
7.568311870344528 69.0054
7.5906770845765665 61.5911
7.613025156078678 56.2929
7.635390950099687 55.3161
7.657739602662809 54.5787
7.680105979923558 54.7892
7.702472650212829 55.17100000000001
7.724822180948224 55.2298
7.747189439655568 55.0745
7.769539560075357 55.2677
7.791907410653562 56.0676
7.81425812420825 56.1737
7.836626570110925 56.3317
7.858995315087906 57.0605
7.881346924933401 57.2691
7.903716270417482 57.8212
7.926068482028405 57.9454
7.948438431475253 58.6014
7.9708086843180235 59.3525
7.993161805171116 59.8676
8.015532667162402 60.269
8.037886398416653 60.9976
8.060257873014221 61.6072
8.082629655331942 62.1023
8.104984308787587 63.0354
8.127356708900503 63.9963
8.149711981398308 65.2272
8.172085002766314 66.2695
8.194458336181368 66.4114
8.216814543847752 67.2649
8.23918850371002 68.7206
8.26154533906492 69.9248
8.283919928836452 71.5261
8.306277395339652 72.2331
8.328652618483376 73.4862
8.351028159736202 75.8154
8.373386579575245 77.7257
8.395762759396959 79.3
8.418121819038275 82.2405
8.440498640894003 86.5075
8.462875785192262 93.7252
8.485235811156207 111.09100000000001
8.507613602688501 169.18099999999998
8.529974277114228 276.383
8.552352719347912 418.704
8.574731488360351 681.211
8.59709314210385 1244.75
8.619472567021075 2018.69
8.64183487789147 2402.59
8.664214962183097 1784.95
8.686577933647762 853.934
8.708958680784317 313.173
8.731339760774953 143.57
8.753703729764451 105.146
8.77608547780821 96.5361
8.798450116065078 93.6274
8.820832535634787 91.2161
8.843215292401656 89.4964
8.865580941199045 88.4977
8.887964374703538 87.37899999999999
8.910330701447199 87.103
8.932714815164482 86.3661
8.955099270424924 85.4615
8.977466620733543 84.6318
8.999851761421976 83.9184
9.022219798361645 83.3108
9.04460562795561 82.9826
9.066991803441677 83.0083
9.089360876979615 82.9325
9.111747746589993 82.5632
9.13411751544971 82.2299
9.156505082664324 81.9369
9.178875550323522 82.2973
9.20126381862328 84.7976
9.223652438908596 92.8115
9.246023961427412 103.292
9.26841328802173 105.73
9.290785518039224 96.256
9.313175554425882 86.9847
9.335565947154315 83.7573
9.357939245086508 82.9266
9.380330352834827 83.2159
9.40270436697103 83.1655
9.425096193225055 83.3728
9.447488380180165 84.0691
9.469863475295412 84.3261
9.492256385987508 84.9028
9.514632206018318 85.4639
9.537025843935714 85.5708
9.559402392368193 86.0
9.581796761000229 87.0362
9.604191496441521 87.6653
9.626569144158516 88.7062
9.648964615551032 89.6095
9.671343000390081 90.3969
9.693739211225699 91.0005
9.716135793237463 91.7492
9.738515290448102 92.7059
9.760912617143402 93.3156
9.783292860202891 94.4244
9.805690935076182 95.6026
9.828089385495742 96.5762
9.850470754023561 98.6586
9.872869957865444 101.212
9.89525208097539 104.461
9.917652041736662 109.01799999999999
9.940052382417589 115.455
9.962435644102392 136.454
9.984836746950979 186.233
10.007220771957746 267.052
10.029622640473708 381.10400000000004
10.052007432299963 566.123
10.074410069984072 852.78
10.096813093716005 1336.72
10.119199042482517 1873.65
10.141602840636468 2016.95
10.163989564971628 1492.8
10.186394141051062 777.449
10.208799107559706 332.27099999999996
10.231187001965623 165.97799999999998
10.253592751657669 119.37299999999999
10.275981430388155 108.943
10.298387966769793 105.876
10.320794897965431 105.23200000000001
10.343184759907361 104.325
10.36559248305461 102.40799999999999
10.387983138083852 102.2
10.410391656691655 107.885
10.432800574501677 122.316
10.455192425893369 143.873
10.47760214443012 172.52900000000002
10.499994797678786 217.87400000000002
10.522405320453982 298.085
10.54479877906917 422.82800000000003
10.567210109595656 542.937
10.5896218454736 573.385
10.612016518879773 484.06199999999995
10.634429067781074 303.847
10.656824555333241 177.797
10.679237920773568 118.89299999999999
10.701651695961992 99.0199
10.724048411481384 91.6084
10.746463008485165 87.1531
10.768860546937125 84.5003
10.791275969274796 82.4703
10.81369180576079 81.1433
10.836090585366925 80.1776
10.858507252467449 79.2224
10.88090686379991 78.0979
10.903324365036394 77.2768
10.925724811614439 75.991
10.948143150509463 76.0736
10.970561909719066 75.0762
10.992963615930844 74.4452
11.015383218085756 73.2346
11.037785768347074 72.2865
11.06020621697282 72.0923
11.082627090322113 71.8624
11.105030913430326 70.958
11.12745263854165 70.3581
11.149857314510728 70.0513
11.172279894912576 70.3845
11.194702904450653 69.6535
11.217108866490921 68.9308
11.239532736615194 68.0804
11.26193956033512 67.6308
11.284364294577085 67.1451
11.306789462371718 66.6446
11.329197585398376 66.2348
11.351623622610898 66.3775
11.37403261614354 65.3876
11.396459526308487 65.185
11.418869393879497 64.664
11.441297180532617 64.4942
11.463725406927658 64.2325
11.486136592353875 63.9331
11.508565700543707 63.6601
11.530977768845315 63.8463
11.553407762368774 63.5569
11.575838200059769 63.638999999999996
11.598251599479612 62.9374
11.620682927815501 62.6152
11.64309721895548 63.0453
11.665529441478206 62.8184
11.687962112597958 62.3896
11.710377748130886 62.4276
11.732811318753434 62.2334
11.755227854859067 61.9441
11.777662328529495 62.278999999999996
11.800079768750786 61.8737
11.822515149015453 61.9354
11.844950984084935 62.0834
11.867369787303163 62.0006
11.889806534289491 62.0573
11.912226250487029 64.0422
11.934663912939751 66.4291
11.9571020346363 68.3513
11.979523127133968 67.8778
12.001962169624331 66.5295
12.024384183972964 65.8399
12.046824150809913 68.6735
12.069264581333726 74.4882
12.091687985297767 81.5576
12.11412934550045 90.9235
12.136553680195208 106.102
12.158995973632788 129.35299999999998
12.181438735204349 159.82
12.20386447284199 194.649
12.226308172985636 208.57299999999998
12.24873485024193 195.072
12.271179492516982 154.928
12.293607112949127 113.064
12.316052700916226 84.2903
12.338498763250042 70.0465
12.360927805303868 64.9015
12.383374818673879 63.8132
12.405804812803074 63.3509
12.428252780773262 63.32
12.45070122756722 63.2546
12.473132656675375 63.3416
12.49558206341869 63.2804
12.518014453510101 63.5488
12.540464823770117 63.5196
12.562915677315177 63.619
12.58534951575545 64.2897
12.607801338171472 64.3558
12.630236146511358 65.1027
12.652688941369085 66.1421
12.675124723177234 66.3303
12.697578494048786 66.57600000000001
12.720032754458185 66.4221
12.742470003354093 66.6876
12.764925245138771 66.9186
12.787363476431278 67.2886
12.809819703166806 67.7117
12.83227642391173 68.4281
12.854716135692716 68.9559
12.877173846755147 70.0868
12.899614549869717 70.8994
12.9220732548287 71.6781
12.94453245827299 71.8405
12.966974655289818 72.9281
12.989434858002571 73.7767
13.011878055298721 74.5977
13.034339260862497 75.7181
13.056800969391883 77.4263
13.079245674017244 80.1774
13.101708390774869 83.0451
13.12415410463411 90.7087
13.146617833206086 103.65700000000001
13.169064559883248 117.324
13.191529303857127 134.121
13.213994557076367 156.643
13.236442809902437 193.767
13.258909083908291 251.024
13.28135835851934 322.555
13.30382565690295 397.213
13.326293469022952 444.86800000000005
13.348744283242008 417.00199999999995
13.371213125129904 332.967
13.39366497011003 231.24400000000003
13.416134845360597 154.188
13.438605238843131 114.36
13.46105863690397 102.98200000000001
13.483530069144786 106.37299999999999
13.505984506951902 114.62700000000001
13.528456981549432 126.536
13.550929978879088 142.21200000000002
13.573385983253365 165.889
13.595860028340867 203.71400000000003
13.618317081455832 258.155
13.64079217790333 321.355
13.663250283359057 377.772
13.685726434770173 384.912
13.708203115221277 331.653
13.730662806148091 245.421
13.75314054697177 170.888
13.775601299246777 117.417
13.798080104050406 92.7482
13.820559442405358 83.7839
13.843021793671388 80.8184
13.865502201420897 79.4406
13.887965623051947 78.9774
13.910447103807167 77.74600000000001
13.932929122629764 76.4909
13.955394156785959 76.2859
13.977877254034569 75.5939
14.000343367582113 74.8509
14.022827546871707 74.4948
14.045294743423524 73.2756
14.06778000837062 72.6371
14.090265817715476 73.1844
14.112734645763819 73.8122
14.13522154619454 74.7196
14.157691466286913 75.6057
14.180179461423874 75.2463
14.202668005486178 73.2807
14.22513957064374 71.2817
14.247629214846473 70.3825
14.270101881097517 69.9241
14.29259262906496 69.8227
14.315083930490205 69.6533
14.337558255389705 69.5382
14.360050666019726 69.1064
14.382526101071944 69.0537
14.405019624534942 68.6906
14.427513705993134 68.4767
14.449990813291825 68.402
14.47248601302899 68.1834
14.49496423954951 68.3755
14.517460561197822 68.5913
14.539939910570322 68.2091
14.562437357763558 68.5428
14.58493536931253 68.9062
14.607416409993311 69.1068
14.62991555254159 69.2814
14.652397725157423 69.5445
14.674898002342799 69.7153
14.697398848433282 70.1588
14.719882725991326 71.0361
14.74238471217934 72.0266
14.764869730765593 76.1415
14.787372860692983 79.9751
14.809876564079925 85.9556
14.83236330125751 92.6442
14.854868153850365 101.949
14.877356041159485 115.802
14.899862046604186 134.03799999999998
14.922351087688757 160.077
14.944858249632887 192.558
14.967365991421232 218.90400000000002
14.989856770231246 231.486
15.012365673994204 216.47099999999998
15.03485761569738 181.49900000000002
15.05736768508665 136.796
15.07987833888692 105.771
15.102372032001655 86.2389
15.124883856909658 74.831
15.14737872204565 71.437
15.169891721717274 69.9239
15.192405310371893 69.44
15.214901940621196 69.07300000000001
15.237416709527137 68.2809
15.259914520936249 68.057
15.282430473753607 67.5109
15.304947020131227 66.9962
15.327446610371178 66.8844
15.349964346154254 66.3031
15.372465126703139 66.208
15.394984055556009 65.8871
15.417486030076159 66.0119
15.44000615566487 65.7656
15.462526881230803 65.4151
15.485030653812652 65.3478
15.507552581617434 65.3741
15.530057557334603 65.4201
15.55258069104857 65.3645
15.575104429329837 65.4264
15.597611216864632 65.5113
15.620136166564563 65.8634
15.6426441664095 67.1756
15.665170331202765 69.7126
15.687697105158826 73.5959
15.710206930593545 77.6712
15.732734925158933 82.6655
15.755245972089478 89.70299999999999
15.77777519094324 98.6439
15.800287463046663 111.367
15.822817909869592 130.483
15.84534897229804 152.691
15.867863089299354 178.736
15.890395385222186 196.41400000000002
15.912910736597423 195.515
15.935444269699861 176.31599999999997
15.957978423016485 144.83700000000002
15.980495633101265 112.381
16.003031029129367 88.3665
16.02554948280019 72.9944
16.048086125229432 66.5953
16.070623392487107 64.2758
16.09314371869582 63.0696
16.11568223789321 61.7206
16.13820381691126 60.9315
16.160743591742527 60.0866
16.183283996022084 59.6779
16.205807461423195 58.74
16.228349126881973 58.325
16.25087385432698 58.0778
16.27341678466365 57.5382
16.29594277784926 57.2448
16.31848697676433 57.0286
16.341031811604868 56.5855
16.36355971058487 56.5471
16.3861058195587 56.553000000000004
16.40863499352978 55.9343
16.431182380342005 55.6081
16.453730407713202 55.451
16.476261501364792 55.0975
16.498810812136167 54.8279
16.52134319004079 54.979
16.54389378792203 54.9387
16.566445031001553 54.9488
16.588979342490088 54.5866
16.61153187824822 54.4194
16.634067483263312 54.3827
16.656621315414416 54.211000000000006
16.679175797408888 53.9593
16.701713349928728 54.1615
16.72426913389191 54.3014
16.74680798922351 54.3076
16.76936507887444 54.18600000000001
16.791905240734874 54.3946
16.814463639794468 54.1313
16.837022695210294 54.1549
16.859564824093756 54.3798
16.882125194503903 54.7877
16.904668639217885 55.0656
16.927230328348003 55.0499
16.949792678493612 55.4243
16.972338104193863 55.3496
16.994901778652235 55.1215
17.017448529496576 55.1655
17.040013531998152 55.7284
17.06257920018044 56.2088
17.0851279459922 57.0024
17.107694947817667 57.9665
17.130245028099072 58.788999999999994
17.15281336730298 60.14
17.17536478578733 61.8043
17.19793446610687 64.1483
17.220504818648422 67.2359
17.243058251703697 70.7194
17.265629950971032 75.1071
17.288184731571736 79.6812
17.310757781306908 83.5925
17.33333150794385 82.3873
17.355888317140174 79.7911
17.37846339986244 74.3367
17.401021565958885 68.2367
17.42359800851343 63.6099
17.44617513265564 60.9681
17.468735341390783 59.2695
17.491261035594565 58.6351
17.51396340099364 58.3192
17.536490463869136 58.6418
17.559018209820174 58.571999999999996
17.58154663977963 58.6872
17.604251766089718 59.0078
17.626781572227713 59.1148
17.64931206518155 59.3373
17.671843245885103 59.7786
17.69455114821572 59.7406
17.717083712612634 60.3614
17.739616967569667 60.7791
17.762150914021706 61.4502
17.78486160749854 61.6279
17.807396945166804 62.3985
17.829932977143503 63.1325
17.85246970436452 64.8139
17.875183204129467 66.9411
17.897721330097664 69.5839
17.920260154126645 72.2249
17.942799677153296 75.4364
17.9655159983646 79.35300000000001
17.988056927677544 84.4576
18.010598558807683 92.1504
18.033140892692916 102.21799999999999
18.05586005052525 114.281
18.07840379824407 126.689
18.10094825154059 136.717
18.12366954819864 141.838
18.146215420998306 138.586
18.16876200220057 127.912
18.191309292745153 111.714
18.214033452627167 98.4918
18.236582170236648 89.3597
18.259131600016456 85.3638
18.281681742907335 86.2763
18.304408781233683 91.5555
18.32696035875955 97.4406
18.349512652227624 102.47399999999999
18.372065662579683 105.902
18.394795594587553 104.991
18.41735004715306 99.1148
18.43990521943684 91.4384
18.46246111238171 82.2943
18.485193953325208 73.8121
18.507751296070428 68.035
18.530309362314178 64.6196
18.552868153000343 63.1374
18.57560391815056 62.0166
18.59816416623245 61.7498
18.620725141597372 60.9574
18.643286845190268 60.4762
18.666025549835414 59.8823
18.688588718427933 59.3307
18.711152618092243 59.0903
18.73389353884365 58.9404
18.75645890921984 58.6765
18.77902501351406 58.1438
18.801591852673102 58.1685
18.824335739722738 57.6595
18.846904057212626 57.5813
18.8694731124168 57.4662
18.89204290628315 57.3004
18.914789774966803 57.1809
18.937361054791623 56.8663
18.959933076131318 56.5466
18.982505839934877 56.3948
19.00525570560582 56.3526
19.027829963004184 56.147
19.05040496572238 56.4081
19.072980714710468 56.4294
19.095733592739563 56.6644
19.11831084296757 56.9095
19.140888842324735 57.1713
19.16346759176222 57.5494
19.18622349753803 58.201
19.208803755869358 59.2344
19.231384767143577 60.4911
19.253966532312948 62.1867
19.276725481241822 64.5701
19.29930876296784 67.2836
19.3218928014549 70.3119
19.34465404436217 72.8155
19.36723960516257 75.0533
19.389825925592426 75.4465
19.412413006605938 73.2862
19.43517731967805 69.4433
19.457765930683355 65.0266
19.48035530514408 60.7887
19.50294544401556 58.0514
19.525712842708348 55.6428
19.54830451925909 54.4027
19.570896963095727 53.5532
19.593490175174704 53.4315
19.616260674962184 53.4489
19.638855432416964 53.0874
19.661450960992624 53.3152
19.68404726164677 53.2178
19.706820878021247 53.0814
19.729418731756834 53.1822
19.752017360452857 53.1191
19.77461676506804 53.3618
19.797393513540218 53.3892
19.819994478951667 53.6355
19.84259622316767 54.2085
19.8651987471481 54.6985
19.887978643247177 54.9852
19.91058273574792 55.4345
19.933187610901943 56.3163
19.955969879466828 57.4821
19.97857632894404 58.8756
20.00118356396599 60.4082
20.023791585494575 62.7902
20.046577028914875 65.8342
20.069186632506966 68.1936
20.091797025500632 70.0188
20.114408208858933 70.4498
20.137196842715273 69.5763
20.159809615886765 67.5338
20.18242318232135 64.5049
20.20503754298326 62.6578
20.227829382875154 61.8323
20.250445341109344 61.9501
20.27306209647285 62.763999999999996
20.29567964993108 64.1663
20.31847471147704 65.4955
20.34109387027612 65.8296
20.363713830075454 64.9742
20.386334591841646 62.7656
20.409132890679302 59.7387
20.431755265564437 56.6039
20.454378445325528 53.9071
20.477002430930366 52.3427
20.499803982716553 51.4874
20.522429589228004 50.5934
20.54505600449589 50.1158
20.567683229489194 50.0982
20.590488049900088 49.8586
20.61311690359731 49.9334
20.63574656993626 49.6896
20.658553853717297 49.385
20.681185154618298 49.1743
20.703817271080066 49.1209
20.72645020407368 49.0534
20.749260783967177 48.9711
20.771895359337133 48.8246
20.794530754161617 48.8681
20.817166969412938 48.8832
20.83998086114876 48.6953
20.86261872660049 48.4396
20.885257415405402 48.397
20.90789692853701 48.3424
20.930714147864748 48.3551
20.953355319030678 48.3177
20.97599731745334 48.373000000000005
20.99864014410749 48.3198
21.021460706796564 48.398999999999994
21.044105199328826 48.5156
21.06675052302631 48.56100000000001
21.089396678865015 48.7958
21.112220600704806 49.1976
21.134868430275347 49.5338
21.15751709492456 49.9626
21.180166595629693 50.2258
21.202993892429635 50.5404
21.22564507473034 51.0367
21.24829709602816 51.196999999999996
21.27112693608965 51.2441
21.293780644891275 50.8449
21.316435195634053 50.0573
21.339090589297417 49.3569
21.361923832041875 48.9109
21.384580921090404 48.2854
21.407238856007325 47.9574
21.429897637773326 48.0529
21.45273429906592 48.126000000000005
21.475394784108598 48.0331
21.498056118951983 48.083
21.520718304578022 48.2373
21.543558400304388 48.3848
21.566222297108816 48.683
21.58888704765135 48.7785
21.61155265291521 49.1743
21.63439619898156 49.6884
21.657063523335786 49.761
21.67973170537063 50.3483
21.7024007460706 50.8703
21.72524775840385 51.7115
21.747918526116475 52.7258
21.770590155457388 53.9307
21.79326264741238 55.4852
21.816113141960237 57.4464
21.838787368860547 59.4229
21.861462461341976 61.6028
21.884315579735777 63.5988
21.90699241312273 64.5441
21.92967011506078 64.4679
21.95234868653799 63.5581
21.9752053151131 61.6503
21.997885635446785 59.8974
22.020566828293532 57.9783
22.04324889464272 56.5452
22.066109049404666 55.6828
22.088792872571794 55.7962
22.111477572219204 56.0329
22.1341631493376 56.1262
22.157026846313123 55.4452
22.179714188221507 54.5657
22.202402410582668 53.5614
22.22509151438863 51.8586
22.24795876962584 50.7558
22.270649646204486 49.8935
22.293341407213727 49.2799
22.316034053646906 48.8316
22.338904883215342 48.5879
22.36159931041458 48.6034
22.38429462602756 48.4449
22.40699083104897 48.2079
22.429865251039757 48.2685
22.452563244831367 48.2248
22.47526213102522 48.244
22.49813925616515 48.2465
22.520839937143307 48.0257
22.543541513520587 48.2413
22.56624398629403 48.0516
22.589124730075895 48.1801
22.611829005656723 48.3932
22.63453418063466 48.3378
22.657240256008077 48.6613
22.680124634582935 48.9514
22.70283252079775 49.198
22.725541310413075 49.3719
22.74825100442868 49.7309
22.771139033969575 50.2618
22.79385054687155 50.4839
22.81656296718292 51.0306
22.83927629590484 51.982
22.862167992606945 53.0715
22.88488314827121 54.2689
22.907599215359284 55.2698
22.93031619487366 56.2891
22.953211574954405 57.1635
22.975930389478226 57.6401
22.998650119445763 57.5609
23.02137076586092 56.2725
23.044269845560063 54.896
23.06699233506288 53.0794
23.089715744034912 51.5688
23.112617610931565 50.3196
23.135342869061212 49.4309
23.158069049684816 48.7284
23.1807961538087 48.3709
23.20370174880544 48.4027
23.226430710184808 48.3472
23.249160598093425 48.3889
23.271891413539002 48.4989
23.294800752937697 48.8035
23.31753343374794 49.0263
23.340267045128353 49.0607
23.36300158808808 49.3454
23.38591468821339 49.8148
23.408651104658304 50.3531
23.431388455719986 51.0182
23.454126742409 51.6024
23.4770436196085 52.7818
23.499783787914662 54.3526
23.522524894889884 55.3197
23.54526694154616 56.4172
23.56818761219047 57.4535
23.59093154860734 57.5633
23.613676427751283 57.5769
23.636422250635754 56.2795
23.659346731118656 54.5195
23.68209445191868 52.6192
23.704843119509587 50.4757
23.72759273490623 48.9083
23.750521041644767 47.7563
23.77327256312355 46.6584
23.796025035462787 46.0577
23.818956224555475 45.7947
23.841710609113413 45.5491
23.86446594758979 45.4272
23.887222241002014 45.2463
23.910157285144578 44.8805
23.932915498962537 44.865
23.955674670778713 44.6392
23.978434801611975 44.6465
24.001373717286125 44.4004
24.024135776723917 44.2652
24.046898798245582 44.2924
24.06966278287146 44.1097
24.092605586582614 43.9611
24.115371508023642 43.7409
24.1381383956401 43.728
24.16090625045381 43.6104
24.183852958731244 43.6323
24.206622758582608 43.3963
24.229393528706886 43.2555
24.252165270127392 43.3367
24.27511589952438 43.3536
24.297889594216997 43.1414
24.32066426328598 43.0677
24.34343990775613 42.963
24.36639447485003 42.7761
24.38917208083877 42.9377
24.41195066531332 42.6995
24.43490819850244 42.8158
24.457688750692377 42.5889
24.48047028445616 42.6339
24.503252800821233 42.7242
24.526214300784112 42.7917
24.548998793132213 42.8509
24.57178427117417 42.7103
24.59457073593893 42.6226
24.617536219319863 42.7759
24.64032466834748 42.768
24.663114107195035 42.5786
24.685904536893013 42.2578
24.708874020360852 42.2455
24.731666442613744 42.163999999999994
24.754459858818787 42.0712
24.777254270007962 41.883
24.80022777025625 41.8663
24.82302418230472 41.8542
24.845821592443674 41.7715
24.86862000170663 42.0035
24.891597535453727 41.8879
24.914397953892728 42.0792
24.93719937456671 41.9921
24.96000179851076 42.1123
24.98298338249997 42.2416
25.00578782394922 42.7005
25.028593271784167 42.6162
25.05157790644186 42.9548
25.07438537804115 43.2345
25.097193859145293 43.3417
25.120003350792075 43.6766
25.142992065061257 44.007
25.165803588823465 44.2363
25.18861612625217 44.309
25.211429678386736 44.3611
25.234422489079968 44.3408
25.257238081693636 44.427
25.280054692141732 44.6369
25.3028723214652 44.678000000000004
25.325869245420463 44.8111
25.348688923599397 44.8304
25.371509623787006 44.5165
25.394331347025812 44.0805
25.41733240110666 43.5634
25.440156181590016 42.8559
25.46298098826268 42.4412
25.48580682216873 41.8391
25.50881202326435 41.508
25.53163992281684 41.0829
25.55446885274561 40.8882
25.577298814096377 40.5876
25.600308179121807 40.4109
25.623140214533745 40.4519
25.64597328451537 40.5486
25.66898578564376 40.1524
25.691820936010206 40.2213
25.714657124097695 40.1215
25.737494350954734 40.2922
25.760511045684957 40.205
25.783350361364224 40.1707
25.806190718969255 40.2772
25.82903211955018 40.3845
25.852053024868923 40.3366
25.874896522722523 40.311
25.897741066713106 40.3079
25.920586657892454 40.455999999999996
25.943611790812668 40.608000000000004
25.966459487728237 40.8848
25.989308234998564 40.749
26.01215803367705 41.196999999999996
26.03518741123814 41.3035
26.05803932412957 41.42100000000001
26.080892291600094 41.3505
26.10374631470478 41.4909
26.12677995397268 41.3648
26.14963609978026 41.3028
26.172493304397875 41.0216
26.19535156888223 40.7086
26.218389486949604 40.3966
26.241249882640123 40.0799
26.26411134137826 39.8011
26.28715248187403 39.9473
26.31001607820869 39.7107
26.3328807407756 39.7524
26.35574647063438 39.8417
26.37879191991473 39.8983
26.401659795896734 39.8325
26.424528742360263 40.0792
26.447398760366614 40.1749
26.470448535598294 40.271
26.49332070826805 40.446999999999996
26.516193955675355 40.7554
26.53906827888316 41.0683
26.562122397260108 41.358999999999995
26.584998883685063 41.5171
26.607876449110325 41.9133
26.63075509460056 42.0096
26.65381357334404 42.0844
26.67669439061878 41.8041
26.699576291163382 41.7271
26.722459276044212 41.6238
26.745522132402975 41.2255
26.768407297649354 41.1988
26.791293550442003 40.7732
26.814180891848974 40.6054
26.837248143099337 40.3355
26.860137673466657 40.1323
26.88302829566349 39.8403
26.90592001075963 39.6612
26.92899167420566 39.5304
26.951885586870763 39.2555
26.974780595655517 39.0165
26.99785558178161 38.9508
27.020752794605112 38.8051
27.043651106772522 38.5604
27.06655051935668 38.5196
27.089629948036183 38.5591
27.112531573292053 38.4455
27.135434302194138 38.4329
27.158338135817015 38.2871
27.181422024430987 38.244
27.204328079372566 38.2176
27.22723524226965 38.3125
27.250143514198573 38.341
27.273231880156334 38.3752
27.296142382065014 38.1514
27.319053996245536 38.0335
27.341966723775965 38.1472
27.365059584515222 38.2858
27.38797455070062 38.2489
27.410890633481237 38.1537
27.433807833936918 38.2059
27.456905206923906 38.3635
27.47982465472398 38.3143
27.502745223449743 38.2477
27.525666914182825 38.3948
27.548768816912457 38.233000000000004
27.571692763693633 38.2444
27.59461783573812 38.1557
27.617723149491244 37.7967
27.640650484125285 37.9025
27.66357894728264 37.9042
27.686508540048052 37.8608
27.709618414237887 37.7992
27.732550278321757 37.5582
27.755483275279115 37.7377
27.778417406196485 37.6331
27.801531858397514 37.7572
27.824468269376716 37.5935
27.847405817586786 37.5295
27.870344504116094 37.8735
27.893463551932008 37.8215
27.916404527281053 38.0585
27.93934664422563 38.2585
27.962289903855886 38.3575
27.98541356491974 38.4678
28.00835912214229 38.7048
28.03130582533231 38.8649
28.054253675581805 38.9904
28.077381967556104 38.8239
28.100332124185126 38.8016
28.123283431160893 38.6527
28.146235889577238 38.5913
28.169368830154156 38.321
28.192323603752033 38.1795
28.215279532083304 38.029
28.238415973016764 37.5967
28.261374223145094 37.5022
28.284333631303806 37.3994
28.307294198589954 37.2549
28.330435319167677 36.766999999999996
28.353398217078915 36.4926
28.376362277420153 36.5263
28.39932750129032 36.2864
28.422473319286713 36.0683
28.44544088262495 36.1994
28.468409612800283 36.0711
28.491379510913497 35.749
28.51453004413313 35.6339
28.53750229057244 35.6406
28.56047570826344 35.5982
28.583450298308804 35.5422
28.606605564586562 35.4054
28.629582511831156 35.5129
28.65256063474956 35.3581
28.675539934446338 35.428000000000004
28.698699951647605 35.4446
28.72168161743193 35.2012
28.74466446331978 35.2793
28.767648490417624 35.2193
28.790813276438353 35.223
28.813799678527303 35.1437
28.836787265157085 35.1096
28.859955641890075 35.1727
28.882945610203045 35.2338
28.905936766392035 35.1254
28.928929111566863 35.0916
28.952102288520145 34.9643
28.975097024308607 34.8817
28.998092952423807 34.8671
29.021090073977508 34.6505
29.04426806913204 34.5678
29.067267590245258 34.4762
29.090268308143695 34.433
29.11327022394099 34.3534
29.13645305530891 34.169000000000004
29.159457379627167 34.1374
29.18246290519685 34.0456
29.20546963313352 34.0638
29.22865731875826 34.144
29.25166646419296 34.1086
29.27467681535305 33.9938
29.29768837335608 34.0505
29.320880931312562 34.0183
29.34389491580634 33.988
29.366910110507334 34.0878
29.38992651653503 34.099000000000004
29.41312396492981 34.0223
29.436142806456754 33.8708
29.45916286268059 33.8364
29.48236399319994 33.6245
29.50538649169417 33.5726
29.528410208259935 33.3859
29.55143514402014 33.2966
29.574641196749695 33.129
29.597668583816574 33.0263
29.6206971934585 32.8731
29.64372702680042 32.9291
29.666938019934474 32.8866
29.689970313635285 32.6984
29.713003834422636 32.6641
29.73603858342347 32.7291
29.759254535188578 32.5467
29.78229175361658 32.4882
29.80533020365064 32.6362
29.82836988641968 32.5957
29.85159081507472 32.5123
29.874632976355343 32.49
29.89767637376955 32.5795
29.920721008448314 32.4542
29.9439469322847 32.4448
29.96699405457564 32.3956
29.9900424175358 32.3692
30.013092022298157 32.3171
30.03632295963995 32.275
30.059375061131373 32.2542
30.08242840783577 32.3479
30.105483000888153 32.1835
30.128718970092244 32.2083
30.151776069006917 32.1841
30.17483441768648 32.1867
30.198074175317235 32.1993
30.221135036724256 32.1756
30.24419715131772 32.1278
30.267260520236203 32.0796
30.290505341942243 32.0664
30.313571232750228 32.0677
30.336638381310948 32.0817
30.35970678876503 32.0856
30.38295669299435 31.9969
30.40602763151657 31.9394
30.429099832366074 31.9368
30.452173296685572 31.9435
30.47542830191959 31.9006
30.498504306502497 31.8233
30.521581577995562 31.8581
30.544660117543582 31.9132
30.56792024229725 31.8674
30.59100133132069 31.9528
30.614083691845494 31.9316
30.637167325018545 32.1202
30.660432587840603 32.1156
30.683518779717886 31.9873
30.70660624769615 32.0178
30.729694992924372 32.031
30.75296541239743 31.9548
30.77605672557558 31.9992
30.799149319462742 31.8157
30.8224236211637 31.6971
30.845518789950724 31.5763
30.868615242910597 31.5314
30.891712981195973 31.2977
30.91499247215866 31.4046
30.938092794619365 31.2835
30.96119440587579 31.1885
30.984297307082752 31.1305
31.00758200598383 31.0141
31.030687500658694 31.0404
31.053794288760695 30.954
31.076902371446767 30.8164
31.100192296997445 30.9089
31.12330298246119 30.8472
31.14641496599209 30.7397
31.169528248749216 30.83
31.19282341969534 30.7875
31.215939314557186 30.77
31.239056512134788 30.7878
31.262175013589378 30.7559
31.28547544871168 30.6552
31.30859657161541 30.6237
31.331719001892175 30.6159
31.35484274070538 30.7616
31.378148458819545 30.7981
31.401274828443725 30.7001
31.424402510106933 30.7054
31.447712205419993 30.7358
31.470842524931633 30.6393
31.493974159989783 30.6087
31.51710711176168 30.5558
31.54042212308802 30.4815
31.563557722100917 30.4822
31.586694641341655 30.3144
31.609832881979628 30.2878
31.63315322823208 30.1927
31.656294125521327 30.1282
31.679436347728515 30.1329
31.70257989602529 30.0694
31.725905596152327 29.9827
31.74905181052835 29.999000000000002
31.772199354521323 30.000999999999998
31.79534822930507 29.9129
31.818679302290967 29.945999999999998
31.84183085259981 29.9836
31.864983737233473 30.0021
31.88813795736804 30.0689
31.911474422233013 29.8116
31.934631327356435 29.9178
31.9577895715215 29.805999999999997
31.980949155906522 29.8467
32.004291031706956 29.8768
32.027453310562606 29.6519
32.05061693318573 29.4856
32.07396288236386 29.5808
32.09712920658542 29.5251
32.12029687812702 29.3198
32.14346589817093 29.2991
32.166817291729984 29.2617
32.18998902288583 29.1096
32.21316210610336 29.1173
32.23633654256711 29.0342
32.259693399663725 29.0095
32.282870556771144 29.0034
32.30604907069099 28.9109
32.329228942610065 28.8795
32.35259128243769 28.7333
32.375773884550505 28.7097
32.398957848235646 28.7173
32.422143174682176 28.6708
32.445511016471215 28.5905
32.468699082679954 28.6268
32.49188851523011 28.5619
32.51507931531304 28.4326
32.538452678331 28.4505
32.56164622776311 28.4162
32.58484114831493 28.3447
32.60803744118015 28.3286
32.631416344731896 28.3461
32.654615396551876 28.2766
32.67781582427913 28.2827
32.701198898634416 28.1261
32.72440209253756 28.1051
32.747606665947124 28.1606
32.77081262006088 27.8805
32.79420126883317 27.9361
32.81740999876112 27.9769
32.840620112999424 27.7804
32.86383161274818 27.8671
32.88722585534586 27.8585
32.91044014056596 27.9366
32.933655814909734 27.8125
32.95687287957963 27.8038
32.98027273544904 27.724
33.00349259526636 27.6744
33.026713849030116 27.7727
33.04993649794511 27.6774
33.073341986570746 27.6408
33.09656744032826 27.6977
33.11979429286444 27.6355
33.14302254538647 27.601999999999997
33.166433686291185 27.5629
33.18966475336992 27.5245
33.212897224069096 27.4561
33.23613109959831 27.4347
33.259547912343415 27.4039
33.2827846121627 27.406999999999996
33.306022720453775 27.3183
33.32926223842861 27.2114
33.352684742614166 27.2496
33.37592709463173 27.1375
33.399170859982064 27.1097
33.422597648419426 27.0417
33.44584425514446 26.9142
33.46909227885668 26.8025
33.4923417207723 26.7869
33.51577423505344 26.8503
33.539026528130385 26.7148
33.56228024307245 26.775
33.585535381098246 26.6059
33.60897364093058 26.554000000000002
33.63223163992385 26.578000000000003
33.6554910656699 26.4815
33.678751919389796 26.4951
33.702195944520106 26.368000000000002
33.72545966903325 26.3816
33.74872482519663 26.3052
33.771991414233746 26.3363
33.79544122444841 26.3671
33.81871069412428 26.2176
33.84198160035767 26.1536
33.86525394437455 26.1592
33.88870955949969 26.1212
33.911984794020626 26.1107
33.93526147001624 26.138
33.958539588715006 26.0643
33.98200102861669 25.9293
34.0052820477047 25.8546
34.02856451319451 25.8924
34.05203033759056 25.774
34.07531571090147 25.8258
34.09860253431845 25.8142
34.121890809074316 25.6597
34.145362493118924 25.647
34.16865368561615 25.6498
34.191946333164054 25.6725
34.21524043699793 25.6001
34.23871800066799 25.5608
34.26201503218366 25.4335
34.28531352370466 25.5178
34.30861347646881 25.3785
34.33209693978188 25.3604
34.3553998301885 25.3254
34.378704185565205 25.2604
34.402010007152356 25.1709
34.42549939016683 25.2309
34.44880815937748 25.0257
34.472118398533134 25.035
34.49543010887669 24.9937
34.51892543169198 24.958000000000002
34.54224009966052 24.9397
34.56555624255917 24.9971
34.58887386163339 24.8829
34.61237514439016 24.8102
34.6356957311114 24.7889
34.65901779775809 24.8043
34.68252356662995 24.7665
34.705848608458616 24.738000000000003
34.72917513396849 24.6738
34.75250314440949 24.6241
34.77601490857862 24.4667
34.799345904259795 24.5452
34.82267838863559 24.5252
34.846012362958525 24.5447
34.869530142679984 24.4423
34.89286711232212 24.4141
34.91620557568269 24.4466
34.93954553401677 24.4093
34.9630693495876 24.2824
34.986412313340814 24.3556
35.00975677584668 24.3082
35.033102738362956 24.2801
35.05663261012228 24.2222
35.0799815881786 24.1965
35.10333207003229 24.094
35.12668405694369 24.1391
35.150220005273056 24.1307
35.17357501786656 24.104
35.19693153931268 24.0717
35.220289570874385 24.0066
35.24383161619786 24.0332
35.267192683604904 23.919
35.290555264930376 23.9444
35.314101899412165 23.9159
35.33746752422433 23.8961
35.36083466676374 23.9071
35.38420332829803 23.7711
35.407756095629054 23.8659
35.43112781085063 23.7766
35.45450104888391 23.8232
35.477875810999194 23.8118
35.50143473172161 23.6678
35.52481255774625 23.6936
35.54819191167777 23.6207
35.57157279478914 23.526999999999997
35.595137889488406 23.6279
35.61852184675279 23.4619
35.641907337029984 23.5103
35.665294361595684 23.432
35.68886565090076 23.3507
35.7122557598848 23.3567
35.73564740699838 23.343000000000004
35.759040593519934 23.2552
35.78261809810353 23.2662
35.80601437933051 23.1802
35.829412203814705 23.1571
35.85281157283719 23.0423
35.876395313415884 23.1769
35.8997977874528 23.045
35.92320180988546 23.0279
35.946790244133936 22.9553
35.97019737933222 22.9782
35.993606066789866 22.8637
36.01701630779276 22.8452
36.04061101440684 22.8142
36.06402437852291 22.8618
36.08743930005611 22.866999999999997
36.1108557802951 22.7411
36.13445678011326 22.7946
36.15787639383515 22.6791
36.18129757014299 22.613000000000003
36.20472031032821 22.6114
36.22832762423364 22.5057
36.25175350829375 22.5159
36.275180960119776 22.4892
36.298609981005924 22.5413
36.32222362992669 22.4961
36.34565580510207 22.4539
36.36908955323448 22.4138
36.39252487562093 22.3051
36.416144880530226 22.2505
36.43958336764275 22.2324
36.463023432914625 22.2987
36.486465077645676 22.3084
36.51009145956204 22.3015
36.53353627947859 22.2365
36.55698268276811 22.1614
36.58043067073321 22.12
36.60406345072071 22.0764
36.62751462435344 22.0469
36.65096738658405 21.9721
36.67460498210655 21.9874
36.69806093788647 21.9546
36.72151848619297 21.7892
36.744977628333636 21.8534
36.76862165890998 21.7657
36.79208400512205 21.8109
36.81554794910557 21.8117
36.83901349217101 21.6918
36.862663978991606 21.6578
36.88613273667352 21.6996
36.90960309738324 21.6848
36.933075062434064 21.6057
36.95673202673572 21.5655
36.98020721697122 21.4904
37.003684015502365 21.4562
37.027162423645365 21.419
37.050825886711465 21.378
37.07430753063053 21.3518
37.09779078812467 21.3028
37.121275660513014 21.2951
37.144945643673694 21.2598
37.16843376245278 21.281
37.19192350009803 21.3266
37.215414857931435 21.1695
37.239091382563885 21.0606
37.262585997426164 21.083000000000002
37.28608223645736 21.0698
37.309763684451696 21.0425
37.33326318851098 21.0112
37.356764320726555 20.9497
37.380267082425526 20.9279
37.40395510942588 20.9954
37.42746114683234 20.9901
37.45096881771841 20.868000000000002
37.474478123414166 20.8844
37.49817275092816 20.8708
37.52168534303452 20.8127
37.54519957395567 20.6621
37.568715445024665 20.6971
37.592416694607714 20.6477
37.61593586281424 20.6385
37.63945667518264 20.6323
37.66297913304891 20.5431
37.68668702630454 20.6235
37.710212792059274 20.4942
37.733740207334854 20.5004
37.757269273470364 20.413
37.780983832050374 20.3898
37.80451621684926 20.4226
37.82805025654007 20.2826
37.851585952464795 20.3216
37.8753071980695 20.242
37.89884622345676 20.1662
37.92238690911902 20.176
37.94611318753442 20.1831
37.969657210779765 20.0912
37.99320289834801 20.1067
38.016750251586465 20.066
38.04048325513017 20.0378
38.06403395679343 20.0394
38.087586328183946 19.9562
38.11114037065203 19.8941
38.13488012115898 19.982
38.1584375229181 19.8476
38.181996599821 19.8148
38.205557353221124 19.7995
38.229303872575656 19.7926
38.2528679961576 19.6833
38.27643380031219 19.743
38.30000128639589 19.7264
38.32375459653193 19.7198
38.34732546371299 19.6821
38.37089801690786 19.5638
38.39447225747609 19.5368
38.418232380377425 19.4457
38.441810012983396 19.5274
38.46538933705673 19.4595
38.488970353960084 19.4528
38.51273731166058 19.4309
38.536321731567014 19.3867
38.55990784840681 19.3815
38.58367995004091 19.2875
38.60726947812959 19.2681
38.63086070726198 19.2891
38.654453638806274 19.3187
38.678232613930824 19.2454
38.70182896773327 19.1745
38.72542702806741 19.1133
38.7490267963045 19.1081
38.77281266709232 19.1224
38.79641586862214 19.0269
38.8200207821842 19.0009
38.843627409152944 19.000999999999998
38.86742019782782 18.9273
38.891030269149255 18.8819
38.914642058016156 18.8901
38.938255565806124 18.9131
38.96205529464307 18.8182
38.98567225787121 18.8289
39.00929094417078 18.7621
39.03291135492255 18.7477
39.05671804624804 18.7541
39.080341923549106 18.6204
39.103967529460334 18.6445
39.127594865365744 18.5401
39.15140854155791 18.5666
39.17503935514948 18.5468
39.19867190290282 18.5087
39.22249083587951 18.4963
39.24612686969409 18.5299
39.269764641845306 18.4644
39.293404153722804 18.4829
39.317230110864074 18.3798
39.34087311998506 18.3679
39.36451787301696 18.3523
39.388164371352595 18.233
39.41199737518003 18.2423
39.43564738196752 18.2212
39.45929913825317 18.2051
39.48295264543308 18.1188
39.506792718520884 18.1518
39.530449745387216 18.0904
39.55410852735203 18.0771
39.57776906581474 18.0943
39.60161623079 18.063
39.625280300200025 18.0611
39.64894613032202 17.9594
39.67261372255866 17.9231
39.6964680021016 17.9312
39.72013913657293 17.9009
39.74381203738292 17.8747
39.76748670593756 17.8447
39.79134812278169 17.7727
39.81502634488497 17.8041
39.83870633896685 17.7905
39.862388106436654 17.7023
39.88625668336918 17.6647
39.90994201572829 17.6495
39.933629125719285 17.6516
39.957503091207826 17.6116
39.9811937746168 17.602
40.00488623990914 17.5944
40.02858048850006 17.5246
40.05246165409549 17.4856
40.076159487492085 17.4387
40.099859108448875 17.4648
40.123560518384345 17.4513
40.1474489070226 17.4296
40.171153913178564 17.3167
40.194860712584955 17.3325
40.2185693066637 17.2753
40.242464941335314 17.278
40.26617714307655 17.2913
40.289891143772046 17.2182
40.3136069448471 17.2323
40.33750984859743 17.2204
40.3612292688043 17.1762
40.3849504936829 17.0953
40.40867352466194 17.1115
40.43258372059144 17.0458
40.45631038219906 17.0493
40.48003885420956 16.9703
40.503769138055105 17.0249
40.52768664931955 17.0629
40.55142057531802 16.930999999999997
40.57515631746428 16.9045
40.599079334038514 16.8808
40.62281872700477 16.8544
40.64655994043941 16.7795
40.67030297578061 16.747
40.69423334835778 16.7983
40.71798004609188 16.7772
40.74172857006355 16.729
40.76547892171441 16.7305
40.7894166736039 16.6411
40.813170699248566 16.5936
40.83692655691388 16.5632
40.86068424804498 16.6032
40.884629402612525 16.5449
40.908390779366385 16.4949
40.932153993938 16.4901
40.95591904777605 16.4924
40.979871628443995 16.486
41.003640379561936 16.4359
41.02741097430883 16.4339
41.05118341413683 16.3892
41.075143444384416 16.3671
41.098919593177826 16.3206
41.1226975914255 16.2795
41.14647744058318 16.3033
41.170444943946755 16.2416
41.19422851378379 16.2608
41.218013938914645 16.162
41.24198706625173 16.1107
41.26577622087193 16.1425
41.289567235177785 16.0853
41.31336011063129 16.1007
41.337340752422875 16.0699
41.361137369129835 16.0448
41.38493585138705 16.0213
41.40873620066004 15.958
41.43272438060107 15.9394
41.45652848292052 15.8852
41.48033445666918 15.918
41.50414230331616 15.8388
41.528138045159764 15.8438
41.551949656675205 15.7848
41.575763145513235 15.7505
41.59957851314666 15.7824
41.62358184070442 15.7013
41.64740098505737 15.6992
41.6712220126409 15.668
41.69504492493139 15.5636
41.71905586207357 15.5831
41.74288256296395 15.5779
41.766711153007456 15.5342
41.79054163368412 15.5007
41.814560204340054 15.5389
41.838394485526365 15.5245
41.86223066180303 15.4372
41.88625497706819 15.465
41.910094962812 15.4247
41.93393684811168 15.4076
41.95778063445365 15.3341
41.981812625263366 15.2985
42.00566023303407 15.3427
42.029509746323676 15.3074
42.05336116662236 15.279000000000002
42.077400857069705 15.243
42.10125611078846 15.2105
42.12511327600405 15.1923
42.14897235421036 15.1222
42.173019768448455 15.1763
42.19688269209613 15.1876
42.22074753323349 15.1208
42.24461429335818 15.056
42.268669455600495 15.0074
42.292540073217886 15.0022
42.31641261433284 15.0026
42.34028708044675 14.9576
42.36435001496739 14.9765
42.38822835065557 14.9292
42.41210861586426 14.8609
42.4359908120986 14.8794
42.46006154323262 14.8356
42.48394762115317 14.8132
42.507835634632315 14.7847
42.531912233047436 14.7623
42.55580413732265 14.7689
42.579697981698 14.7047
42.60359376768525 14.6905
42.62767820545945 14.6809
42.65157789440821 14.605
42.67547952952185 14.5931
42.699383112316 14.5982
42.72347541395347 14.5297
42.74738291190531 14.5467
42.771292362102166 14.4742
42.795203766063516 14.5032
42.819303956130405 14.4803
42.843219287476536 14.4353
42.86713657716324 14.4085
42.89105582671383 14.4004
42.91516392983864 14.3808
42.939087119032166 14.3845
42.963012272677304 14.3508
42.98693939230129 14.277000000000001
43.01105543317513 14.2234
43.034986504731386 14.2706
43.05891954686589 14.2088
43.08285456110972 14.2181
43.10697856448665 14.1605
43.130917542983475 14.1344
43.15485849820081 14.1764
43.17880143167367 14.0811
43.20293342237094 14.0342
43.226880332449 13.9879
43.25082922540554 14.0506
43.27496722682525 14.0178
43.29892010567796 13.9757
43.32287497204102 13.9336
43.34683182745632 13.9523
43.370977859791836 13.9006
43.39493871351105 13.9116
43.41890156092628 13.8743
43.44286640358341 13.8746
43.46702049182749 13.8373
43.49098934522816 13.7327
43.51496019852649 13.7197
43.5389330532723 13.7293
43.56309522248204 13.7454
43.58707210044314 13.7105
43.61105098451946 13.6556
43.63503187626491 13.6226
43.659202151562134 13.5712
43.68318707902681 13.5589
43.70717401884041 13.5574
43.731162972560874 13.5185
43.75534137913236 13.5492
43.779334381108384 13.5156
43.803329401683186 13.4647
43.82732644241872 13.4735
43.8515130055166 13.4386
43.87551410707659 13.4314
43.89951723350145 13.4077
43.923709934595614 13.3706
43.94771713129917 13.3513
43.97172635758096 13.3356
43.99573761501002 13.3025
44.0199385169922 13.2637
44.04395385732619 13.2218
44.067971233533086 13.2278
44.09199064718605 13.2001
44.11619977548961 13.1818
44.14022328470671 13.1229
44.16424883610785 13.1551
44.18827643127035 13.140999999999998
44.21249381139513 13.0709
44.236525514814076 13.0212
44.26055926674478 13.0353
44.28459506876863 13.0279
44.3088207262813 12.9571
44.33286064928722 12.9735
44.35690262714919 12.9708
44.38094666145278 12.9133
44.4051806219871 12.9037
44.42922879003185 12.8479
44.45327901929361 12.8462
44.477331311362136 12.8755
44.501573600619416 12.7937
44.525630039221795 12.7482
44.54968854541895 12.7284
44.573937102200176 12.767999999999999
44.5979997645541 12.7545
44.622064499300315 12.7277
44.64613130803592 12.682
44.67038823869318 12.6342
44.69445921643748 12.6177
44.718532272981385 12.5976
44.742607409926194 12.5822
44.76687274034801 12.5591
44.79095205918753 12.5189
44.81503346325094 12.5219
44.839116954143876 12.4977
44.86339071028742 12.4926
44.88747839599524 12.4448
44.91156817336837 12.4353
44.93566004401666 12.3888
44.959942251908146 12.3436
44.984038330325966 12.3599
45.00813650686762 12.3233
45.03223678314731 12.3496
45.05652746888232 12.3296
45.08063196592069 12.2316
45.104738567558705 12.2499
45.128847275414856 12.1992
45.15314646515866 12.1412
45.17725940679741 12.1414
45.20137445952892 12.1388
45.22568004865265 12.09
45.24979934496396 12.0847
45.27392075725247 12.1032
45.29804428714431 12.1084
45.322358426247604 12.0785
45.346486212804315 12.052
45.370616121861914 12.0183
45.39474815505086 12.0457
45.41907087049246 11.9717
45.4432071734666 11.9155
45.46734560548283 11.9611
45.49148616817604 11.9441
45.51581748638564 11.895
45.5399623320197 11.8393
45.56410931325473 11.8118
45.58825843173002 11.8523
45.61259837920865 11.8073
45.636751793816 11.7602
45.66090735060093 11.7357
45.68506505120716 11.7516
45.7094136545275 11.7454
45.73357566449271 11.7227
45.75773982322992 11.637
45.78190613238733 11.6602
45.806263418194064 11.6027
45.83043404997326 11.6147
45.85460683713677 11.6113
45.87897065658495 11.6046
45.90314777634752 11.5536
45.92732705646868 11.552999999999999
45.9515084986045 11.5511
45.97588104735473 11.5367
46.00006683541565 11.4857
46.02425479047904 11.4557
46.04844491420549 11.4517
46.0728262191024 11.3963
46.09702070211635 11.3933
46.12121735879483 11.3843
46.14541619080294 11.3578
46.169806278764455 11.3373
46.194009483459034 11.3039
46.21821486849841 11.3112
46.24242243555223 11.2604
46.266821333570014 11.2186
46.29103328674601 11.1837
46.31524742696538 11.2114
46.33946375590237 11.2037
46.36387149104216 11.1626
46.38809221957392 11.1381
46.41231514186606 11.1432
46.436540259597464 11.1055
46.460956858999374 11.0967
46.48518638983522 11.0638
46.509418121166966 11.0322
46.533652054678114 11.0212
46.55807754555709 11.0043
46.58231590571962 10.9928
46.60655647313217 10.9674
46.630988654873654 10.9432
46.655233659129024 10.9164
46.67948087571551 10.8745
46.70373030632484 10.883
46.72817142736393 10.8459
46.752425308428684 10.8904
46.77668140861147 10.8612
46.80093972960865 10.7818
46.82538981736788 10.8004
46.849652602470904 10.7667
46.87391761349769 10.7375
46.8981848521493 10.7189
46.9226439341274 10.6633
46.946915650573224 10.6392
46.97118959976749 10.6522
46.99546578341598 10.6078
47.019933887188216 10.5907
47.04421456235744 10.6132
47.06849747711879 10.5947
47.09278263318286 10.5599
47.11725978640143 10.5651
47.14154944775105 10.4948
47.165841355555656 10.5066
47.1901355115306 10.475999999999999
47.214621741924994 10.4439
47.23892041698887 10.447000000000001
47.26322134538975 10.4299
47.28771440635075 10.3969
47.31201986422527 10.3918
47.33632758061436 10.3682
47.360637557241866 10.3368
47.38513974410611 10.3648
47.40945426407847 10.3052
47.43377104948137 10.2916
47.45809010204344 10.2652
47.48260144275502 10.2529
47.506925052572285 10.264000000000001
47.53125093475548 10.1761
47.55557909103813 10.1825
47.58009961361992 10.113
47.60443234110732 10.1227
47.62876734791564 10.1547
47.65310463578333 10.1269
47.6776343683373 10.1221
47.7019762413987 10.0998
47.72632040075572 10.0575
47.75066684815169 10.0619
47.77520581885936 9.98118
47.799556865477655 9.98787
47.823910205386 9.97852
47.84826584033272 10.0057
47.87281407745551 9.93404
47.89717432569297 9.94029
47.92153687423484 9.91133
47.94609208429692 9.90219
47.97045925671401 9.87707
47.99482873471275 9.84003
48.01920052005013 9.82358
48.04376504619224 9.79379
48.068141469543484 9.83124
48.09252020552573 9.82193
48.11690125590099 9.81728
48.1414751266064 9.77632
48.16586082917454 9.73371
48.19024885144316 9.68502
48.2146391951793 9.685880000000001
48.239222439012764 9.69555
48.26361744916137 9.66133
48.28801478610016 9.65381
48.31241445160131 9.62163
48.337007097209366 9.65277
48.36141144338331 9.6068
48.38581812345755 9.57713
48.41022713920929 9.591389999999999
48.434829215320704 9.55827
48.45924292604658 9.54684
48.48365897780325 9.56413
48.50807737237308 9.49548
48.532688907799276 9.471789999999999
48.55711201168574 9.45219
48.581537463754074 9.43247
48.60615611725119 9.44331
48.63058628942721 9.44524
48.65501881516546 9.42699
48.6794536962573 9.41233
48.70408185970339 9.36081
48.72852147531801 9.330639999999999
48.75296345168211 9.3322
48.77740779059232 9.29842
48.80204549302823 9.321710000000001
48.82649458091802 9.285169999999999
48.85094603676547 9.24
48.87539986237231 9.21853
48.90004713292306 9.211219999999999
48.92450572200832 9.20454
48.94896668628025 9.18168
48.97343002754588 9.2057
48.99808689542115 9.17071
49.02255501470614 9.155660000000001
49.04702551642794 9.12617
49.0714984023988 9.112810000000001
49.096164896893235 9.082310000000001
49.120642575466796 9.08516
49.145122643748394 9.057839999999999
49.16960510355558 9.03003
49.19428125404938 9.0334
49.2187685210852 9.03304
49.243258185121555 8.99705
49.26794160167084 8.96842
49.2924360839405 8.92709
49.31693296869764 8.89589
49.34143225776915 8.905380000000001
49.36612538195438 8.872060000000001
49.39062950396021 8.889619999999999
49.41513603578346 8.843169999999999
49.4396449792564 8.8307
49.46434784069503 8.83286
49.488861631846454 8.829139999999999
49.513377840166804 8.768889999999999
49.537896467493745 8.742280000000001
49.56260909589029 8.72945
49.587132585683285 8.73869
49.611658500018365 8.71048
49.636186840738596 8.72299
49.66090926588511 8.71682
49.685442483902584 8.67015
49.70997813385706 8.66763
49.734516217597076 8.6533
49.75924846937352 8.65243
49.7837914452858 8.57036
49.80833686055187 8.58455
49.83288471702571 8.56966
49.85762682540054 8.59631
49.882179588965734 8.55988
49.9067347993235 8.51821
49.93129245833333 8.518419999999999
49.95604445336378 8.50809
49.98060703442832 8.47702
50.005172069746266 8.4496
50.02993150438364 8.44539
50.05450147301533 8.45145
50.07907390151433 8.39361
50.10364879174981 8.40333
50.12841816587289 8.406039999999999
50.1529980044635 8.37987
50.17758031042124 8.36001
50.20216508562089 8.35163
50.22694442953363 8.31984
50.25153416817468 8.267000000000001
50.27612638170508 8.27943
50.300721072005196 8.2539
50.325510416102105 8.24755
50.350110084975064 8.25587
50.37471223628208 8.223339999999999
50.39931687190919 8.20707
50.424116246675766 8.17533
50.44872587605249 8.17305
50.47333799543065 8.143139999999999
50.49795260670191 8.165939999999999
50.52276204271512 8.10342
50.54738166295838 8.137319999999999
50.57200378079314 8.0971
50.596628398116835 8.080869999999999
50.62144792604559 8.0908
50.646077567609396 8.05681
50.670709714377715 8.0128
50.69553683636198 8.01486
50.72017401885922 8.011569999999999
50.7448137122895 8.009139999999999
50.76945591856022 8.00158
50.79429318636823 7.9607399999999995
50.818940443716784 7.9828
50.84359021965163 7.932510000000001
50.868242516085964 7.91442
50.893089960641895 7.92408
50.917747323549435 7.8689
50.94240721271973 7.9164699999999995
50.96706963007175 7.838439999999999
50.99192728239342 7.87387
51.01659478166073 7.82477
51.04126481489051 7.8047699999999995
51.06593738400761 7.81203
51.090805275207074 7.7808
51.11548294172845 7.78867
51.14016314993547 7.77751
51.164845901758845 7.73655
51.18972406304274 7.70273
51.21441192780656 7.72995
51.23910234200271 7.68305
51.2637953075678 7.6584
51.288683770237945 7.64221
51.31338186432707 7.62662
51.33808251561888 7.59825
51.362978729967345 7.58058
51.387684521509755 7.622439999999999
51.41239287610203 7.587680000000001
51.437103795691165 7.576510000000001
51.46201036644977 7.5452
51.486726441956634 7.50679
51.51144508832545 7.54213
51.536166307509156 7.50339
51.56108326624387 7.45653
51.58580965706056 7.47415
51.61053862657523 7.44584
51.635270176746864 7.4309
51.66019755512065 7.44066
51.68493429268881 7.39743
51.70967361681515 7.415610000000001
51.73441552946465 7.40448
51.759353359237934 7.391
51.7841004750961 7.3261
51.80885018539685 7.312239999999999
51.833602492111254 7.322589999999999
51.8585508051424 7.2958
51.883308330926425 7.29701
51.90806845906181 7.282430000000001
51.932831191525715 7.25105
51.95779001977161 7.2599
51.98255798721516 7.23416
52.00732856494335 7.20587
52.03229530577543 7.19826
52.057071130455945 7.17435
52.081849571391054 7.13892
52.106630630568695 7.117260000000001
52.13160794279417 7.10906
52.15639426492067 7.09572
52.18118321127822 7.0841
52.205974783860896 7.10991
52.23096269971011 7.06613
52.255759551287994 7.099589999999999
52.280559035098186 7.0448699999999995
52.30536115314103 7.0084
52.33035970494467 6.99097
52.35516711807904 6.96167
52.37997717147198 6.95672
52.40478986713005 6.96992
52.42979908731974 6.952539999999999
52.454617094216 6.924110000000001
52.47943774942214 6.92012
52.50426105495102 6.917260000000001
52.529280976059844 6.880089999999999
52.554109609024096 6.87078
52.57894089837482 6.87047
52.60377484613117 6.855119999999999
52.62880550079408 6.82195
52.65364479223379 6.8067
52.67848674816189 6.7881100000000005
52.70352547971946 6.81076
52.72837279155837 6.80939
52.753222773982785 6.764660000000001
52.778075429022984 6.77199
52.80312495150885 6.7099899999999995
52.827982978797436 6.715739999999999
52.85284368481815 6.68665
52.87770707160767 6.682510000000001
52.90276741793998 6.6778
52.92763619336701 6.669160000000001
52.952507655698504 6.67702
52.977381806977576 6.66793
53.00245301017842 6.6296
53.02733256653592 6.609360000000001
53.052214817996074 6.614389999999999
53.077099766608484 6.61124
53.102181859804446 6.5641
53.127072229988265 6.55673
53.15196530349892 6.536969999999999
53.17686108239249 6.49694
53.20195409881522 6.4806099999999995
53.22685531582556 6.487080000000001
53.25175924441303 6.45828
53.27666588664027 6.48989
53.30176985962693 6.4507
53.3266819565689 6.4505099999999995
53.35159677336455 6.38198
53.376514312083096 6.36653
53.40162927507703 6.36008
53.42655228516116 6.37376
53.45147802340193 6.38501
53.47660125628886 6.34201
53.50153247842639 6.30856
53.52646643496923 6.28567
53.55140312799818 6.3186599999999995
53.576537409691696 6.323119999999999
53.60147960336152 6.2944
53.626424539786164 6.25379
53.65137222105307 6.25082
53.67651758529126 6.244619999999999
53.70147078399681 6.22271
53.72642673383343 6.20554
53.75138543689533 6.19468
53.776541917524526 6.20295
53.801506154876755 6.19324
53.826473151763246 6.16328
53.851442910284916 6.13974
53.87661054126026 6.11278
53.9015858509782 6.15454
53.92656392866066 6.08982
53.95154477641532 6.0931
53.976723591801296 6.09675
54.00171000771266 6.07777
54.02669920004598 6.05363
54.051691170915745 6.044980000000001
54.076881204886796 6.04108
54.101878760928514 6.01786
54.12687910187696 6.00177
54.152077577768296 5.97047
54.1770835166946 5.935980000000001
54.20209224691339 5.95263
54.22710377055121 5.91991
54.25231352511594 5.91293
54.27733066384342 5.874280000000001
54.30235060239643 5.88908
54.32737334290836 5.87592
54.35259441062629 5.82826
54.377622783395324 5.82584
54.40265396455061 5.84847
54.42768795623251 5.812069999999999
54.45292037169559 5.78183
54.477960012857906 5.81475
54.50300247099511 5.78619
54.52804774825457 5.78357
54.55329154616743 5.73175
54.57834249018678 5.73787
54.6033962597977 5.70148
54.6284528571545 5.6781
54.653708072335164 5.63572
54.67877035378786 5.646319999999999
54.70383546947698 5.63058
54.72890342156389 5.63358
54.7541700889442 5.55595
54.77924374251975 5.527340000000001
54.8043202390049 5.49728
54.82959552413022 5.5415
54.8546777351945 5.50748
54.87976279569621 5.50789
54.90485070780914 5.496919999999999
54.930137506558005 5.442080000000001
54.95523115074295 5.45339
54.98032765308844 5.42307
55.005427015775496 5.40841
55.03072536339621 5.37889
55.05583047570572 5.34719
55.080938454927676 5.30224
55.10604930325027 5.29561
55.131359235107396 5.32501
55.15647585066083 5.24437
55.181595341907496 5.23611
55.20671771104285 5.22806
55.232039262617704 5.17335
55.25716741665048 5.1488
55.28229845518636 5.14162
55.30743238042802 5.13088
55.33276558731939 5.13007
55.357905315183636 5.12341
55.383047936390035 5.08131
55.40819345314859 5.00601
55.433538351073295 5.01387
55.458689688238415 5.02417
55.483843927614096 4.9995199999999995
55.509197623043605 4.99184
55.53435769621134 4.93161
55.55952067826466 4.91642
55.5846865714265 4.91293
55.61005202069737 4.87362
55.63522376553902 4.8381
55.66039842818645 4.79847
55.68557601087004 4.780130000000001
55.7109532500271 4.718380000000001
55.73613670233794 4.77194
