TT I
1.2716486653135266 7.46462
1.2939594142134223 6.7793600000000005
1.3162702121660406 6.6912899999999995
1.3385810600174564 6.70958
1.3608919586137629 6.787039999999999
1.383202908801069 6.57406
1.405513911425503 5.62655
1.4278249673332093 5.884469999999999
1.4501343378461518 5.79683
1.4724455028545926 5.33154
1.4947567236847858 5.57916
1.517068001182951 5.9917300000000004
1.5393793361953272 5.7624
1.5616907295681737 6.1623
1.5840021821477681 5.1184
1.60631369478041 5.81375
1.6286252683124185 5.036980000000001
1.6509369035901333 5.05989
1.6732468618895553 5.27611
1.695558623192809 4.98683
1.7178704487808514 5.43776
1.7401823395001077 4.8830800000000005
1.7625012545597203 5.09543
1.7848028405262486 4.95282
1.8071218901122095 4.81461
1.8294236121921872 4.469530000000001
1.8517427996910911 4.9019900000000005
1.8740620574440425 4.38316
1.8963639900671978 5.14049
1.9186833908139995 4.34152
1.9409854680117449 4.7329300000000005
1.9633050151394713 4.99601
1.9856246367570705 4.463430000000001
2.0079269371922672 4.6016
2.03024671027244 5.38512
2.0525491637446027 5.1932599999999995
2.074869091674931 5.08959
2.097171701569106 4.73261
2.1194917877373847 4.5998
2.141811954326636 4.89524
2.164114805233074 4.75865
2.186435135143035 6.213830000000001
2.208738150935709 14.1948
2.231058647554722 30.0637
2.2533792288321184 23.4861
2.275682498336085 10.5916
2.298003251406138 5.98684
2.3203066942619714 5.461530000000001
2.3426276225136022 5.89661
2.3649486396617507 5.733219999999999
2.387252348930071 6.28493
2.4095735463442893 5.64959
2.4318774374315884 6.4039
2.4541988185014043 6.79396
2.476502894794693 7.153810000000001
2.498824462909887 7.41863
2.521146125856138 7.03079
2.5434504863470337 7.76122
2.5657723414244717 7.61947
2.588076895590662 8.51034
2.610398946189713 8.45345
2.6327210958598384 8.53921
2.6550259469304716 7.71541
2.6773482972090137 8.314860000000001
2.6996533504259 8.13764
2.7219759047039602 8.12585
2.744298562293959 8.82982
2.7666039251246595 7.94522
2.7889267918020164 8.66589
2.8112323652516555 8.59122
2.833555444408179 8.94864
2.8558786311183852 8.40052
2.8781845268938557 9.13307
2.9005079311721484 8.97888
2.9228140460410397 8.738560000000001
2.9451376712799635 9.44096
2.967444008632326 9.52997
2.9897678582247247 10.116
3.0120918213106695 10.2395
3.0343984987899373 11.013
3.0567226913198637 10.8854
3.079029599759726 11.9297
3.101354025127254 12.3818
3.123678568232338 13.3721
3.145985829517914 13.1319
3.16831061055229 14.0488
3.1906181112775593 14.9776
3.212943133635653 15.3072
3.2352682779763207 15.0536
3.2575761442691227 15.2356
3.2799015350264273 15.6807
3.302209649240067 16.7691
3.3245352898092655 17.2978
3.3468436553365257 17.3772
3.369169549113219 17.7236
3.3914955708171384 18.3799
3.413804319727358 18.7319
3.4361305997334863 19.1299
3.4584396084414553 19.6345
3.4807661501462652 20.2057
3.503092824025881 20.9399
3.5254022288463154 21.0714
3.5477291695206588 21.9243
3.5700388426251948 22.4878
3.5923660534916446 23.4891
3.6146934007816114 39.2782
3.637003482731501 91.9219
3.6593311053109985 103.34
3.681641464033634 58.653
3.7039693653009733 30.9003
3.726297407241705 25.9931
3.7486081875460804 25.7528
3.7709365132734978 25.665
3.793247578841633 26.4152
3.8155761917550093 26.4956
3.8378875459837216 27.1632
3.8602164494827234 27.4372
3.882545499606844 28.308000000000003
3.9048572932539183 28.8033
3.9271866390645718 29.1203
3.9494987298666713 29.511999999999997
3.971828374764527 30.2197
3.9941581705403255 30.7766
4.016470713506008 31.3116
4.038800813471445 31.631
4.061113662089144 32.8011
4.0834440696459176 33.802
4.105774632334751 33.9548
4.128087945865126 35.0768
4.150418821249301 35.738
4.172732448931298 36.8334
4.195063640413578 38.5126
4.2173775856475215 42.5124
4.239709096631102 75.3593
4.262040768704612 247.98
4.284355196706267 338.89099999999996
4.306687193387355 219.06900000000002
4.329001947444346 84.3216
4.35133427213731 48.47
4.373666762177566 44.7004
4.395982011761091 44.2627
4.418314834921175 45.3308
4.44063041906622 53.768
4.4629635787515625 65.7641
4.4852969080429785 65.3239
4.5076130004776225 53.8767
4.529946671403969 49.8341
4.552263106909177 49.3735
4.574597122877047 50.6283
4.596931312711224 51.7223
4.619248269273446 52.7624
4.6415828092605835 54.0378
4.663900117405352 54.6871
4.686235010953232 56.3007
4.708552674085913 57.3939
4.730887924602802 58.5904
4.753223354952695 60.1169
4.775541557023902 61.4612
4.797877349456786 62.3872
4.820195915032126 64.9843
4.842532072957498 66.2402
4.864868414979744 68.1411
4.88718753227192 70.1041
4.909524244902505 71.9171
4.931843734218147 73.6746
4.954180820867835 76.1636
4.976518095879839 78.7923
4.998838149695359 81.7347
5.021175803844231 84.8595
5.043496238205739 87.932
5.065834274903528 91.8468
5.088172504230693 95.9486
5.1104935158799565 102.24600000000001
5.132832132875765 123.1
5.155153533596801 166.331
5.1774925416746225 197.063
5.199814334878411 295.42900000000003
5.2221537374521505 785.6260000000001
5.244493338631803 2489.91
5.266815727034316 7449.86
5.289155727832427 12358.1
5.311478517248165 8919.18
5.333818921080011 2710.41
5.356159527788849 501.83
5.3784829252032536 177.065
5.400823940070432 140.29
5.423147747031976 125.022
5.445489173474152 116.213
5.467830807066149 111.012
5.490155234831516 107.311
5.512497285125229 103.969
5.534822130975162 102.351
5.557164601388673 100.056
5.579489868738879 98.0339
5.601832762690846 96.8295
5.6241758697774475 96.4844
5.646501775867269 94.6072
5.668845311622074 93.4907
5.691171647754637 92.5058
5.713515615597765 91.1754
5.735859800852677 90.4476
5.758186788542988 89.7896
5.780531411018185 89.9707
5.802858837297399 89.4958
5.825203900414495 89.4331
5.8475491852224 89.4386
5.869877275883075 89.3649
5.892223006467101 90.2022
5.914551544266608 91.9462
5.936897724049891 93.2588
5.959244129804903 97.5347
5.981573344815301 110.287
6.0039202049061 175.894
6.026249875609095 382.50699999999995
6.04859719346037 837.7869999999999
6.070927323278297 2091.59
6.093275102315365 4394.53
6.115623113320588 5272.32
6.137953938319995 3230.64
6.160302415650845 937.62
6.182633708324452 222.09400000000002
6.2049826554078376 110.615
6.227331838745022 90.1482
6.249663839443684 83.3649
6.27201349767565 80.9639
6.294345974611799 88.0945
6.316696111167083 101.118
6.339046488263839 95.7193
6.361379686074702 79.9134
6.383730546639482 71.3429
6.406064229255215 68.2285
6.428415576718203 67.3099
6.450749747566656 66.5062
6.47310158535871 65.6154
6.495453669698332 64.8162
6.517788579421056 64.2337
6.540141159237969 62.9556
6.562476565766648 62.646
6.5848296444934045 61.9732
6.607182974060425 61.9668
6.6295191323281015 62.3142
6.651872965955752 66.0532
6.6742096296068985 93.4216
6.6965639707294615 142.165
6.71891856698715 142.179
6.741255995248479 95.9669
6.763611104154477 68.4773
6.785949046381137 60.2417
6.808304671371482 57.891999999999996
6.8306605557940046 57.4831
6.852999275508618 57.0104
6.875355681171544 56.4583
6.897694923437771 56.4005
6.92005185377892 56.0232
6.9423916220322655 56.0384
6.964749080490181 55.0862
6.987106804399774 55.3276
7.009447368180821 55.3304
7.031805625367033 55.055
7.054146723727803 55.0524
7.076505517631004 54.8395
7.098864581288365 54.8029
7.121206488070854 54.9021
7.143566093607822 54.6532
7.165908543567245 54.4275
7.188268694426048 55.0257
7.2106291193438095 55.2719
7.232972390625943 56.5774
7.255333366030969 70.5361
7.277677189091925 126.37799999999999
7.300038718428332 175.845
7.322400526130865 149.334
7.344745183422596 91.0161
7.367107550224791 62.35
7.389452767901992 56.2351
7.411815697249891 55.2462
7.434161478756298 54.4352
7.456524974096713 53.8656
7.478888753837185 53.7715
7.501235387657368 54.3369
7.523599738562711 54.0027
7.545946944825532 54.2839
7.568311870344528 54.7117
7.5906770845765665 55.0575
7.613025156078678 56.49
7.635390950099687 57.7869
7.657739602662809 56.5578
7.680105979923558 55.5506
7.702472650212829 55.5073
7.724822180948224 55.0096
7.747189439655568 55.4984
7.769539560075357 55.5855
7.791907410653562 56.336000000000006
7.81425812420825 55.6429
7.836626570110925 56.2211
7.858995315087906 57.273999999999994
7.881346924933401 57.3033
7.903716270417482 57.724
7.926068482028405 58.1209
7.948438431475253 58.471000000000004
7.9708086843180235 59.3057
7.993161805171116 59.7645
8.015532667162402 60.0628
8.037886398416653 61.1994
8.060257873014221 61.3902
8.082629655331942 61.9287
8.104984308787587 62.7165
8.127356708900503 66.1923
8.149711981398308 72.5881
8.172085002766314 75.205
8.194458336181368 71.3257
8.216814543847752 68.7777
8.23918850371002 68.7305
8.26154533906492 69.2081
8.283919928836452 70.6996
8.306277395339652 71.5147
8.328652618483376 72.8349
8.351028159736202 74.6835
8.373386579575245 77.0186
8.395762759396959 78.4152
8.418121819038275 83.2073
8.440498640894003 96.8966
8.462875785192262 111.29
8.485235811156207 119.626
8.507613602688501 146.767
8.529974277114228 220.317
8.552352719347912 342.056
8.574731488360351 607.219
8.59709314210385 1132.14
8.619472567021075 1864.91
8.64183487789147 2218.0
8.664214962183097 1805.96
8.686577933647762 931.824
8.708958680784317 358.30800000000005
8.731339760774953 163.834
8.753703729764451 109.93
8.77608547780821 97.4723
8.798450116065078 93.8509
8.820832535634787 90.9243
8.843215292401656 89.5359
8.865580941199045 88.1279
8.887964374703538 87.4192
8.910330701447199 88.4494
8.932714815164482 91.5724
8.955099270424924 90.7969
8.977466620733543 87.2684
8.999851761421976 84.5105
9.022219798361645 82.8192
9.04460562795561 82.2426
9.066991803441677 81.9209
9.089360876979615 81.7668
9.111747746589993 81.5147
9.13411751544971 80.9316
9.156505082664324 80.4037
9.178875550323522 80.8125
9.20126381862328 81.3119
9.223652438908596 81.5448
9.246023961427412 81.77600000000001
9.26841328802173 80.6417
9.290785518039224 80.6185
9.313175554425882 81.3065
9.335565947154315 81.3808
9.357939245086508 81.6014
9.380330352834827 81.5885
9.40270436697103 81.7619
9.425096193225055 81.7969
9.447488380180165 82.8558
9.469863475295412 82.9147
9.492256385987508 83.2526
9.514632206018318 83.9901
9.537025843935714 84.3265
9.559402392368193 84.8198
9.581796761000229 86.2157
9.604191496441521 86.8502
9.626569144158516 90.67399999999999
9.648964615551032 95.6373
9.671343000390081 97.0556
9.693739211225699 95.0424
9.716135793237463 92.1689
9.738515290448102 91.7468
9.760912617143402 92.2105
9.783292860202891 93.4647
9.805690935076182 94.649
9.828089385495742 95.6674
9.850470754023561 97.9907
9.872869957865444 105.90899999999999
9.89525208097539 121.82
9.917652041736662 134.974
9.940052382417589 132.819
9.962435644102392 133.415
9.984836746950979 158.727
10.007220771957746 213.64700000000002
10.029622640473708 305.80400000000003
10.052007432299963 474.827
10.074410069984072 779.198
10.096813093716005 1257.1
10.119199042482517 1763.31
10.141602840636468 1964.66
10.163989564971628 1572.78
10.186394141051062 900.7739999999999
10.208799107559706 397.07099999999997
10.231187001965623 184.325
10.253592751657669 124.221
10.275981430388155 111.912
10.298387966769793 111.509
10.320794897965431 114.2
10.343184759907361 113.148
10.36559248305461 107.53200000000001
10.387983138083852 102.86
10.410391656691655 103.896
10.432800574501677 112.26899999999999
10.455192425893369 126.62899999999999
10.47760214443012 149.445
10.499994797678786 193.562
10.522405320453982 274.507
10.54479877906917 394.958
10.567210109595656 527.202
10.5896218454736 574.965
10.612016518879773 504.241
10.634429067781074 350.587
10.656824555333241 201.924
10.679237920773568 122.29799999999999
10.701651695961992 95.6447
10.724048411481384 88.1424
10.746463008485165 85.1572
10.768860546937125 83.5489
10.791275969274796 81.8556
10.81369180576079 80.969
10.836090585366925 80.0328
10.858507252467449 78.8743
10.88090686379991 77.8615
10.903324365036394 77.4232
10.925724811614439 77.4078
10.948143150509463 78.8302
10.970561909719066 77.8262
10.992963615930844 76.3174
11.015383218085756 73.9286
11.037785768347074 72.4136
11.06020621697282 71.7338
11.082627090322113 71.14
11.105030913430326 70.7106
11.12745263854165 71.6308
11.149857314510728 75.4633
11.172279894912576 81.7402
11.194702904450653 82.5971
11.217108866490921 78.0179
11.239532736615194 73.5903
11.26193956033512 71.4616
11.284364294577085 69.5677
11.306789462371718 67.4781
11.329197585398376 66.6582
11.351623622610898 66.4461
11.37403261614354 65.1375
11.396459526308487 65.3209
11.418869393879497 64.8341
11.441297180532617 64.2304
11.463725406927658 64.2257
11.486136592353875 63.6581
11.508565700543707 64.4315
11.530977768845315 66.4394
11.553407762368774 67.5531
11.575838200059769 67.0448
11.598251599479612 64.8581
11.620682927815501 63.3575
11.64309721895548 63.0849
11.665529441478206 62.5117
11.687962112597958 62.2173
11.710377748130886 62.3723
11.732811318753434 62.0811
11.755227854859067 62.2266
11.777662328529495 61.9937
11.800079768750786 61.6584
11.822515149015453 61.5231
11.844950984084935 61.9633
11.867369787303163 61.6961
11.889806534289491 61.7179
11.912226250487029 61.8473
11.934663912939751 61.922
11.9571020346363 62.1076
11.979523127133968 62.0506
12.001962169624331 62.552
12.024384183972964 63.2366
12.046824150809913 65.8064
12.069264581333726 70.2775
12.091687985297767 75.7812
12.11412934550045 84.1892
12.136553680195208 99.119
12.158995973632788 122.556
12.181438735204349 153.071
12.20386447284199 189.176
12.226308172985636 209.477
12.24873485024193 200.53400000000002
12.271179492516982 167.18099999999998
12.293607112949127 125.37
12.316052700916226 95.2187
12.338498763250042 78.0096
12.360927805303868 69.7593
12.383374818673879 65.5379
12.405804812803074 63.8439
12.428252780773262 63.4965
12.45070122756722 63.5043
12.473132656675375 63.0095
12.49558206341869 63.4587
12.518014453510101 63.4085
12.540464823770117 63.6161
12.562915677315177 63.813
12.58534951575545 64.766
12.607801338171472 66.8273
12.630236146511358 72.5668
12.652688941369085 77.5499
12.675124723177234 77.8763
12.697578494048786 73.7727
12.720032754458185 69.2
12.742470003354093 67.068
12.764925245138771 66.7579
12.787363476431278 67.0966
12.809819703166806 67.4267
12.83227642391173 67.9629
12.854716135692716 68.6409
12.877173846755147 69.8321
12.899614549869717 70.1865
12.9220732548287 70.5765
12.94453245827299 71.0343
12.966974655289818 72.02
12.989434858002571 72.8334
13.011878055298721 73.4421
13.034339260862497 74.6967
13.056800969391883 75.7862
13.079245674017244 77.2506
13.101708390774869 78.73899999999999
13.12415410463411 84.3295
13.146617833206086 94.6557
13.169064559883248 105.35
13.191529303857127 118.87799999999999
13.213994557076367 140.241
13.236442809902437 176.487
13.258909083908291 232.43599999999998
13.28135835851934 300.472
13.30382565690295 374.472
13.326293469022952 423.538
13.348744283242008 423.695
13.371213125129904 351.1
13.39366497011003 258.221
13.416134845360597 169.36900000000003
13.438605238843131 121.279
13.46105863690397 102.477
13.483530069144786 101.087
13.505984506951902 105.25
13.528456981549432 114.29799999999999
13.550929978879088 127.50299999999999
13.573385983253365 151.766
13.595860028340867 191.14
13.618317081455832 247.093
13.64079217790333 308.10400000000004
13.663250283359057 358.25
13.685726434770173 379.25699999999995
13.708203115221277 335.715
13.730662806148091 259.574
13.75314054697177 181.639
13.775601299246777 125.48899999999999
13.798080104050406 95.8296
13.820559442405358 84.0602
13.843021793671388 80.5521
13.865502201420897 78.8295
13.887965623051947 78.4065
13.910447103807167 77.1139
13.932929122629764 75.7054
13.955394156785959 75.3524
13.977877254034569 74.7887
14.000343367582113 73.8862
14.022827546871707 73.1583
14.045294743423524 72.7322
14.06778000837062 71.8153
14.090265817715476 71.6856
14.112734645763819 71.4322
14.13522154619454 71.2854
14.157691466286913 71.5414
14.180179461423874 71.0895
14.202668005486178 70.4095
14.22513957064374 69.8397
14.247629214846473 69.1835
14.270101881097517 69.2283
14.29259262906496 69.5174
14.315083930490205 70.354
14.337558255389705 70.6393
14.360050666019726 70.3804
14.382526101071944 69.3833
14.405019624534942 68.5233
14.427513705993134 67.8897
14.449990813291825 67.7721
14.47248601302899 67.3482
14.49496423954951 67.609
14.517460561197822 67.8538
14.539939910570322 67.6139
14.562437357763558 68.2275
14.58493536931253 69.2673
14.607416409993311 70.0692
14.62991555254159 70.9632
14.652397725157423 70.7085
14.674898002342799 69.9921
14.697398848433282 69.564
14.719882725991326 69.4268
14.74238471217934 70.2611
14.764869730765593 72.7853
14.787372860692983 75.7869
14.809876564079925 79.8807
14.83236330125751 85.2507
14.854868153850365 93.0065
14.877356041159485 106.48100000000001
14.899862046604186 125.12100000000001
14.922351087688757 152.157
14.944858249632887 184.078
14.967365991421232 211.53900000000002
14.989856770231246 225.919
15.012365673994204 218.77900000000002
15.03485761569738 188.53799999999998
15.05736768508665 147.486
15.07987833888692 112.758
15.102372032001655 89.8854
15.124883856909658 76.2262
15.14737872204565 71.3819
15.169891721717274 69.9687
15.192405310371893 69.3043
15.214901940621196 69.7791
15.237416709527137 70.0915
15.259914520936249 70.209
15.282430473753607 69.2482
15.304947020131227 68.0888
15.327446610371178 67.163
15.349964346154254 66.2444
15.372465126703139 65.9244
15.394984055556009 65.3664
15.417486030076159 65.1837
15.44000615566487 64.9271
15.462526881230803 65.0441
15.485030653812652 65.3751
15.507552581617434 65.4956
15.530057557334603 65.6146
15.55258069104857 65.2784
15.575104429329837 65.2025
15.597611216864632 64.6708
15.620136166564563 64.5565
15.6426441664095 65.3259
15.665170331202765 66.9093
15.687697105158826 69.5252
15.710206930593545 72.8045
15.732734925158933 76.4998
15.755245972089478 82.1771
15.77777519094324 91.2498
15.800287463046663 104.37100000000001
15.822817909869592 124.43700000000001
15.84534897229804 147.379
15.867863089299354 170.89700000000002
15.890395385222186 191.524
15.912910736597423 194.69
15.935444269699861 181.86
15.957978423016485 153.683
15.980495633101265 121.118
16.003031029129367 93.6912
16.02554948280019 75.8657
16.048086125229432 67.1883
16.070623392487107 64.5723
16.09314371869582 63.7898
16.11568223789321 62.9975
16.13820381691126 61.8793
16.160743591742527 60.7735
16.183283996022084 59.8143
16.205807461423195 58.7387
16.228349126881973 58.1054
16.25087385432698 58.1677
16.27341678466365 57.5542
16.29594277784926 57.7482
16.31848697676433 57.8275
16.341031811604868 58.3157
16.36355971058487 58.5809
16.3861058195587 58.3591
16.40863499352978 57.0539
16.431182380342005 56.2836
16.453730407713202 55.4738
16.476261501364792 55.1055
16.498810812136167 54.7377
16.52134319004079 55.0708
16.54389378792203 54.8607
16.566445031001553 54.7398
16.588979342490088 54.5032
16.61153187824822 54.2702
16.634067483263312 53.9691
16.656621315414416 54.0643
16.679175797408888 53.839
16.701713349928728 53.8048
16.72426913389191 54.1306
16.74680798922351 54.1509
16.76936507887444 54.0704
16.791905240734874 54.1575
16.814463639794468 54.0947
16.837022695210294 54.0745
16.859564824093756 54.4057
16.882125194503903 55.2851
16.904668639217885 56.2148
16.927230328348003 56.08
16.949792678493612 56.1958
16.972338104193863 55.3201
16.994901778652235 54.8046
17.017448529496576 54.8175
17.040013531998152 54.9699
17.06257920018044 55.2383
17.0851279459922 55.8863
17.107694947817667 56.9797
17.130245028099072 57.263000000000005
17.15281336730298 58.683
17.17536478578733 60.49100000000001
17.19793446610687 62.8318
17.220504818648422 65.6379
17.243058251703697 69.2163
17.265629950971032 73.8863
17.288184731571736 79.4315
17.310757781306908 83.3729
17.33333150794385 83.8083
17.355888317140174 81.6112
17.37846339986244 76.12
17.401021565958885 70.0744
17.42359800851343 64.3805
17.44617513265564 60.9922
17.468735341390783 59.3393
17.491261035594565 58.177
17.51396340099364 57.9867
17.536490463869136 58.248999999999995
17.559018209820174 58.2226
17.58154663977963 58.1567
17.604251766089718 58.3273
17.626781572227713 58.681000000000004
17.64931206518155 58.8245
17.671843245885103 59.4831
17.69455114821572 59.729
17.717083712612634 60.0756
17.739616967569667 59.9298
17.762150914021706 60.2929
17.78486160749854 60.3019
17.807396945166804 60.6927
17.829932977143503 61.5094
17.85246970436452 62.5549
17.875183204129467 64.223
17.897721330097664 66.2392
17.920260154126645 68.6384
17.942799677153296 71.5862
17.9655159983646 75.0499
17.988056927677544 80.0533
18.010598558807683 87.7118
18.033140892692916 97.9988
18.05586005052525 109.473
18.07840379824407 121.089
18.10094825154059 130.938
18.12366954819864 137.59799999999998
18.146215420998306 136.139
18.16876200220057 127.60600000000001
18.191309292745153 113.74600000000001
18.214033452627167 100.353
18.236582170236648 89.5795
18.259131600016456 84.4181
18.281681742907335 84.8541
18.304408781233683 89.7729
18.32696035875955 95.2096
18.349512652227624 100.411
18.372065662579683 104.205
18.394795594587553 104.329
18.41735004715306 100.65
18.43990521943684 93.7574
18.46246111238171 84.7655
18.485193953325208 76.1159
18.507751296070428 69.0561
18.530309362314178 65.0436
18.552868153000343 62.6306
18.57560391815056 61.1781
18.59816416623245 60.8095
18.620725141597372 60.5102
18.643286845190268 60.02
18.666025549835414 59.5315
18.688588718427933 58.8184
18.711152618092243 58.7198
18.73389353884365 58.6344
18.75645890921984 58.1442
18.77902501351406 57.8998
18.801591852673102 57.7421
18.824335739722738 57.3421
18.846904057212626 57.3189
18.8694731124168 56.9903
18.89204290628315 56.7908
18.914789774966803 56.5611
18.937361054791623 56.4407
18.959933076131318 56.2389
18.982505839934877 56.2336
19.00525570560582 56.453
19.027829963004184 56.013999999999996
19.05040496572238 56.1956
19.072980714710468 56.073
19.095733592739563 56.0749
19.11831084296757 56.4861
19.140888842324735 56.8271
19.16346759176222 57.1581
19.18622349753803 57.6299
19.208803755869358 58.5165
19.231384767143577 59.5244
19.253966532312948 61.0111
19.276725481241822 63.0796
19.29930876296784 65.6082
19.3218928014549 68.8982
19.34465404436217 72.5026
19.36723960516257 75.2364
19.389825925592426 75.928
19.412413006605938 74.6414
19.43517731967805 71.1036
19.457765930683355 66.581
19.48035530514408 62.2612
19.50294544401556 58.4872
19.525712842708348 55.8511
19.54830451925909 54.3844
19.570896963095727 53.6135
19.593490175174704 53.4695
19.616260674962184 53.3509
19.638855432416964 52.8503
19.661450960992624 52.9767
19.68404726164677 52.7191
19.706820878021247 52.6319
19.729418731756834 52.823
19.752017360452857 52.5136
19.77461676506804 52.8093
19.797393513540218 52.8738
19.819994478951667 52.9833
19.84259622316767 53.5055
19.8651987471481 53.9592
19.887978643247177 54.0524
19.91058273574792 54.5048
19.933187610901943 55.0
19.955969879466828 56.2979
19.97857632894404 57.6964
20.00118356396599 59.4506
20.023791585494575 61.6371
20.046577028914875 64.4992
20.069186632506966 66.5451
20.091797025500632 68.2994
20.114408208858933 68.9025
20.137196842715273 68.4998
20.159809615886765 67.0645
20.18242318232135 64.4775
20.20503754298326 62.4875
20.227829382875154 61.5728
20.250445341109344 61.4724
20.27306209647285 62.4522
20.29567964993108 63.6429
20.31847471147704 64.9121
20.34109387027612 65.1615
20.363713830075454 64.9248
20.386334591841646 63.3327
20.409132890679302 60.7529
20.431755265564437 57.6425
20.454378445325528 54.8392
20.477002430930366 52.8294
20.499803982716553 51.6771
20.522429589228004 50.9833
20.54505600449589 50.5529
20.567683229489194 50.3587
20.590488049900088 49.8858
20.61311690359731 49.6669
20.63574656993626 49.445
20.658553853717297 49.0047
20.681185154618298 48.9845
20.703817271080066 48.6962
20.72645020407368 48.5692
20.749260783967177 48.4707
20.771895359337133 48.3345
20.794530754161617 48.2612
20.817166969412938 48.1686
20.83998086114876 48.1932
20.86261872660049 48.1004
20.885257415405402 47.9695
20.90789692853701 48.1132
20.930714147864748 47.8234
20.953355319030678 47.8527
20.97599731745334 48.0015
20.99864014410749 47.75
21.021460706796564 47.9456
21.044105199328826 48.2965
21.06675052302631 48.2073
21.089396678865015 48.3786
21.112220600704806 48.7038
21.134868430275347 49.1294
21.15751709492456 49.4979
21.180166595629693 49.7119
21.202993892429635 50.4097
21.22564507473034 50.7587
21.24829709602816 50.9632
21.27112693608965 50.9558
21.293780644891275 50.8052
21.316435195634053 50.0755
21.339090589297417 49.3554
21.361923832041875 48.8254
21.384580921090404 48.2603
21.407238856007325 47.9708
21.429897637773326 47.6882
21.45273429906592 47.7509
21.475394784108598 47.604
21.498056118951983 47.6547
21.520718304578022 47.7929
21.543558400304388 47.928000000000004
21.566222297108816 48.0541
21.58888704765135 48.1481
21.61155265291521 48.305
21.63439619898156 48.8045
21.657063523335786 48.9373
21.67973170537063 49.4856
21.7024007460706 49.9096
21.72524775840385 50.4679
21.747918526116475 51.4806
21.770590155457388 52.7774
21.79326264741238 54.3946
21.816113141960237 56.3457
21.838787368860547 58.3323
21.861462461341976 60.2916
21.884315579735777 62.1223
21.90699241312273 63.3441
21.92967011506078 63.5849
21.95234868653799 63.3015
21.9752053151131 62.0461
21.997885635446785 60.298
22.020566828293532 58.4068
22.04324889464272 57.0155
22.066109049404666 55.8341
22.088792872571794 55.4218
22.111477572219204 55.3792
22.1341631493376 55.4794
22.157026846313123 55.1794
22.179714188221507 54.4302
22.202402410582668 53.25
22.22509151438863 51.7813
22.24795876962584 50.7542
22.270649646204486 49.8971
22.293341407213727 49.0844
22.316034053646906 48.7069
22.338904883215342 48.4242
22.36159931041458 48.4055
22.38429462602756 48.3647
22.40699083104897 48.2168
22.429865251039757 48.3146
22.452563244831367 48.3706
22.47526213102522 48.413000000000004
22.49813925616515 48.2423
22.520839937143307 47.9916
22.543541513520587 47.9606
22.56624398629403 47.93899999999999
22.589124730075895 47.7711
22.611829005656723 47.9056
22.63453418063466 47.8414
22.657240256008077 47.9822
22.680124634582935 48.1605
22.70283252079775 48.3888
22.725541310413075 48.756
22.74825100442868 48.8294
22.771139033969575 49.2652
22.79385054687155 49.4751
22.81656296718292 50.3714
22.83927629590484 51.0437
22.862167992606945 52.1805
22.88488314827121 53.4753
22.907599215359284 54.6416
22.93031619487366 55.8954
22.953211574954405 56.7846
22.975930389478226 57.386
22.998650119445763 57.6254
23.02137076586092 56.5308
23.044269845560063 55.4351
23.06699233506288 53.7633
23.089715744034912 51.9989
23.112617610931565 50.5137
23.135342869061212 49.2117
23.158069049684816 48.6008
23.1807961538087 48.2036
23.20370174880544 48.1626
23.226430710184808 48.0052
23.249160598093425 48.1996
23.271891413539002 48.0575
23.294800752937697 47.9238
23.31753343374794 48.2674
23.340267045128353 48.3424
23.36300158808808 48.605
23.38591468821339 48.7961
23.408651104658304 49.361000000000004
23.431388455719986 50.0537
23.454126742409 50.8222
23.4770436196085 51.818000000000005
23.499783787914662 53.3654
23.522524894889884 54.3683
23.54526694154616 55.5592
23.56818761219047 56.5008
23.59093154860734 57.0357
23.613676427751283 57.2609
23.636422250635754 56.3682
23.659346731118656 54.6917
23.68209445191868 52.9527
23.704843119509587 50.9325
23.72759273490623 49.0627
23.750521041644767 47.7253
23.77327256312355 46.7402
23.796025035462787 46.0639
23.818956224555475 45.6523
23.841710609113413 45.5233
23.86446594758979 45.2642
23.887222241002014 44.9233
23.910157285144578 44.7414
23.932915498962537 44.7187
23.955674670778713 44.4124
23.978434801611975 44.2752
24.001373717286125 44.1178
24.024135776723917 44.1157
24.046898798245582 43.9776
24.06966278287146 44.0757
24.092605586582614 43.7276
24.115371508023642 43.5478
24.1381383956401 43.4999
24.16090625045381 43.3834
24.183852958731244 43.4462
24.206622758582608 43.2011
24.229393528706886 43.0606
24.252165270127392 43.163000000000004
24.27511589952438 43.1985
24.297889594216997 42.9271
24.32066426328598 42.6167
24.34343990775613 42.5001
24.36639447485003 42.5075
24.38917208083877 42.5042
24.41195066531332 42.5111
24.43490819850244 42.5821
24.457688750692377 42.3589
24.48047028445616 42.3306
24.503252800821233 42.5461
24.526214300784112 42.5428
24.548998793132213 42.6125
24.57178427117417 42.3521
24.59457073593893 42.5458
24.617536219319863 42.3462
24.64032466834748 42.3152
24.663114107195035 42.2859
24.685904536893013 42.1414
24.708874020360852 42.0254
24.731666442613744 41.8856
24.754459858818787 41.9266
24.777254270007962 41.7583
24.80022777025625 41.6347
24.82302418230472 41.6834
24.845821592443674 41.7147
24.86862000170663 41.6372
24.891597535453727 41.5586
24.914397953892728 41.7974
24.93719937456671 41.6737
24.96000179851076 41.7343
24.98298338249997 41.9147
25.00578782394922 42.1317
25.028593271784167 42.3097
25.05157790644186 42.6516
25.07438537804115 42.6414
25.097193859145293 42.9743
25.120003350792075 43.2211
25.142992065061257 43.5745
25.165803588823465 43.7662
25.18861612625217 44.0161
25.211429678386736 44.1713
25.234422489079968 44.1825
25.257238081693636 44.1938
25.280054692141732 44.4091
25.3028723214652 44.3295
25.325869245420463 44.3694
25.348688923599397 44.4759
25.371509623787006 44.4261
25.394331347025812 44.0884
25.41733240110666 43.5254
25.440156181590016 42.9536
25.46298098826268 42.4327
25.48580682216873 41.9297
25.50881202326435 41.3484
25.53163992281684 40.9689
25.55446885274561 40.5802
25.577298814096377 40.3212
25.600308179121807 40.338
25.623140214533745 40.3609
25.64597328451537 40.2644
25.66898578564376 39.9928
25.691820936010206 40.0687
25.714657124097695 39.9691
25.737494350954734 39.933
25.760511045684957 39.9662
25.783350361364224 39.968
25.806190718969255 40.0548
25.82903211955018 40.1291
25.852053024868923 40.045
25.874896522722523 40.175
25.897741066713106 40.0845
25.920586657892454 40.2891
25.943611790812668 40.3768
25.966459487728237 40.3894
25.989308234998564 40.34
26.01215803367705 40.8873
26.03518741123814 40.9443
26.05803932412957 41.0164
26.080892291600094 41.0591
26.10374631470478 41.1741
26.12677995397268 41.1192
26.14963609978026 41.0448
26.172493304397875 40.7247
26.19535156888223 40.5368
26.218389486949604 40.2418
26.241249882640123 40.0444
26.26411134137826 39.8379
26.28715248187403 39.7061
26.31001607820869 39.6178
26.3328807407756 39.3092
26.35574647063438 39.6624
26.37879191991473 39.5166
26.401659795896734 39.5326
26.424528742360263 39.7096
26.447398760366614 39.8558
26.470448535598294 39.9386
26.49332070826805 40.2202
26.516193955675355 40.5557
26.53906827888316 40.7114
26.562122397260108 40.9032
26.584998883685063 41.169
26.607876449110325 41.4763
26.63075509460056 41.5576
26.65381357334404 41.6784
26.67669439061878 41.547
26.699576291163382 41.4739
26.722459276044212 41.3787
26.745522132402975 41.0647
26.768407297649354 40.8641
26.791293550442003 40.5745
26.814180891848974 40.4251
26.837248143099337 40.0467
26.860137673466657 39.9905
26.88302829566349 39.5501
26.90592001075963 39.4215
26.92899167420566 39.3079
26.951885586870763 38.9103
26.974780595655517 38.8188
26.99785558178161 38.7585
27.020752794605112 38.5572
27.043651106772522 38.3657
27.06655051935668 38.3704
27.089629948036183 38.2068
27.112531573292053 38.1879
27.135434302194138 38.3069
27.158338135817015 38.0901
27.181422024430987 38.091
27.204328079372566 38.0034
27.22723524226965 38.1535
27.250143514198573 38.1995
27.273231880156334 38.1004
27.296142382065014 37.9326
27.319053996245536 37.8041
27.341966723775965 37.911
27.365059584515222 37.9616
27.38797455070062 38.0164
27.410890633481237 37.9499
27.433807833936918 37.9415
27.456905206923906 37.975
27.47982465472398 38.0602
27.502745223449743 38.0589
27.525666914182825 38.2
27.548768816912457 38.1139
27.571692763693633 37.9592
27.59461783573812 37.9551
27.617723149491244 37.7855
27.640650484125285 37.7022
27.66357894728264 37.5573
27.686508540048052 37.5752
27.709618414237887 37.4227
27.732550278321757 37.4399
27.755483275279115 37.3278
27.778417406196485 37.3245
27.801531858397514 37.2871
27.824468269376716 37.1625
27.847405817586786 37.2178
27.870344504116094 37.5446
27.893463551932008 37.547
27.916404527281053 37.7273
27.93934664422563 37.7456
27.962289903855886 37.9446
27.98541356491974 38.2142
28.00835912214229 38.1728
28.03130582533231 38.5594
28.054253675581805 38.673
28.077381967556104 38.5308
28.100332124185126 38.4306
28.123283431160893 38.4209
28.146235889577238 38.2104
28.169368830154156 38.1827
28.192323603752033 37.9937
28.215279532083304 37.7518
28.238415973016764 37.468
28.261374223145094 37.4379
28.284333631303806 37.2318
28.307294198589954 37.0288
28.330435319167677 36.748000000000005
28.353398217078915 36.5039
28.376362277420153 36.2707
28.39932750129032 36.0699
28.422473319286713 36.0422
28.44544088262495 35.8866
28.468409612800283 35.8492
28.491379510913497 35.4793
28.51453004413313 35.4845
28.53750229057244 35.5214
28.56047570826344 35.3603
28.583450298308804 35.3633
28.606605564586562 35.1784
28.629582511831156 35.3569
28.65256063474956 35.1699
28.675539934446338 35.143
28.698699951647605 35.033
28.72168161743193 34.9629
28.74466446331978 34.9553
28.767648490417624 34.9513
28.790813276438353 34.952
28.813799678527303 34.9637
28.836787265157085 34.9234
28.859955641890075 35.0108
28.882945610203045 35.0049
28.905936766392035 34.7877
28.928929111566863 34.7659
28.952102288520145 34.754
28.975097024308607 34.7569
28.998092952423807 34.5827
29.021090073977508 34.4144
29.04426806913204 34.3733
29.067267590245258 34.1988
29.090268308143695 34.1737
29.11327022394099 34.1734
29.13645305530891 34.0322
29.159457379627167 33.9252
29.18246290519685 33.9415
29.20546963313352 33.8707
29.22865731875826 34.0058
29.25166646419296 34.0203
29.27467681535305 33.7641
29.29768837335608 33.8986
29.320880931312562 33.8093
29.34389491580634 33.838
29.366910110507334 33.821
29.38992651653503 33.8059
29.41312396492981 33.8371
29.436142806456754 33.6889
29.45916286268059 33.6641
29.48236399319994 33.5303
29.50538649169417 33.3717
29.528410208259935 33.2582
29.55143514402014 33.068000000000005
29.574641196749695 32.9824
29.597668583816574 32.918
29.6206971934585 32.7339
29.64372702680042 32.8183
29.666938019934474 32.6217
29.689970313635285 32.5709
29.713003834422636 32.6464
29.73603858342347 32.4812
29.759254535188578 32.4812
29.78229175361658 32.4137
29.80533020365064 32.5094
29.82836988641968 32.5029
29.85159081507472 32.3311
29.874632976355343 32.2511
29.89767637376955 32.378
29.920721008448314 32.2159
29.9439469322847 32.157
29.96699405457564 32.1672
29.9900424175358 32.1516
30.013092022298157 32.0556
30.03632295963995 32.0963
30.059375061131373 32.0451
30.08242840783577 32.0306
30.105483000888153 32.0033
30.128718970092244 31.9569
30.151776069006917 31.9498
30.17483441768648 32.0015
30.198074175317235 32.0179
30.221135036724256 31.9074
30.24419715131772 31.964000000000002
30.267260520236203 31.8945
30.290505341942243 31.9235
30.313571232750228 31.9172
30.336638381310948 31.904
30.35970678876503 31.8126
30.38295669299435 31.7473
30.40602763151657 31.7457
30.429099832366074 31.7295
30.452173296685572 31.6576
30.47542830191959 31.5745
30.498504306502497 31.5347
30.521581577995562 31.7578
30.544660117543582 31.6926
30.56792024229725 31.7605
30.59100133132069 31.7167
30.614083691845494 31.6895
30.637167325018545 31.8337
30.660432587840603 31.7463
30.683518779717886 31.6847
30.70660624769615 31.9405
30.729694992924372 31.8082
30.75296541239743 31.8185
30.77605672557558 31.6838
30.799149319462742 31.7224
30.8224236211637 31.5481
30.845518789950724 31.4231
30.868615242910597 31.4525
30.891712981195973 31.3092
30.91499247215866 31.201
30.938092794619365 31.2194
30.96119440587579 31.0757
30.984297307082752 30.9516
31.00758200598383 30.9966
31.030687500658694 30.8383
31.053794288760695 30.8228
31.076902371446767 30.6462
31.100192296997445 30.6388
31.12330298246119 30.660999999999998
31.14641496599209 30.4718
31.169528248749216 30.625999999999998
31.19282341969534 30.5316
31.215939314557186 30.4718
31.239056512134788 30.5879
31.262175013589378 30.5266
31.28547544871168 30.3952
31.30859657161541 30.3441
31.331719001892175 30.4309
31.35484274070538 30.5226
31.378148458819545 30.5295
31.401274828443725 30.3631
31.424402510106933 30.4604
31.447712205419993 30.6225
31.470842524931633 30.465999999999998
31.493974159989783 30.4554
31.51710711176168 30.4327
31.54042212308802 30.3829
31.563557722100917 30.3466
31.586694641341655 30.2391
31.609832881979628 30.0758
31.63315322823208 30.0864
31.656294125521327 29.9744
31.679436347728515 29.8826
31.70257989602529 29.9347
31.725905596152327 29.8092
31.74905181052835 29.7096
31.772199354521323 29.8309
31.79534822930507 29.7749
31.818679302290967 29.858
31.84183085259981 29.7765
31.864983737233473 29.7387
31.88813795736804 29.8578
31.911474422233013 29.7139
31.934631327356435 29.7159
31.9577895715215 29.6299
31.980949155906522 29.64
32.004291031706956 29.6022
32.027453310562606 29.5314
32.05061693318573 29.4467
32.07396288236386 29.4964
32.09712920658542 29.3638
32.12029687812702 29.1719
32.14346589817093 29.1246
32.166817291729984 29.1315
32.18998902288583 29.0972
32.21316210610336 28.971
32.23633654256711 28.8809
32.259693399663725 28.8982
32.282870556771144 28.7894
32.30604907069099 28.8563
32.329228942610065 28.7911
32.35259128243769 28.5578
32.375773884550505 28.6454
32.398957848235646 28.5546
32.422143174682176 28.4949
32.445511016471215 28.3851
32.468699082679954 28.3561
32.49188851523011 28.3182
32.51507931531304 28.3286
32.538452678331 28.2621
32.56164622776311 28.2133
32.58484114831493 28.1499
32.60803744118015 28.0947
32.631416344731896 28.1576
32.654615396551876 28.1019
32.67781582427913 28.025
32.701198898634416 28.0118
32.72440209253756 27.8854
32.747606665947124 27.910999999999998
32.77081262006088 27.7625
32.79420126883317 27.8233
32.81740999876112 27.826999999999998
32.840620112999424 27.7278
32.86383161274818 27.75
32.88722585534586 27.763
32.91044014056596 27.7167
32.933655814909734 27.6238
32.95687287957963 27.6696
32.98027273544904 27.4549
33.00349259526636 27.4336
33.026713849030116 27.5242
33.04993649794511 27.5108
33.073341986570746 27.3884
33.09656744032826 27.464000000000002
33.11979429286444 27.4931
33.14302254538647 27.4174
33.166433686291185 27.3877
33.18966475336992 27.3245
33.212897224069096 27.2488
33.23613109959831 27.3224
33.259547912343415 27.2796
33.2827846121627 27.2113
33.306022720453775 27.166
33.32926223842861 27.079
33.352684742614166 27.0646
33.37592709463173 27.0
33.399170859982064 26.9758
33.422597648419426 26.9493
33.44584425514446 26.8334
33.46909227885668 26.8217
33.4923417207723 26.6434
33.51577423505344 26.6429
33.539026528130385 26.5213
33.56228024307245 26.5715
33.585535381098246 26.4709
33.60897364093058 26.4527
33.63223163992385 26.4076
33.6554910656699 26.3398
33.678751919389796 26.3911
33.702195944520106 26.239
33.72545966903325 26.2486
33.74872482519663 26.1705
33.771991414233746 26.2174
33.79544122444841 26.146
33.81871069412428 26.0082
33.84198160035767 26.0384
33.86525394437455 26.1289
33.88870955949969 26.0521
33.911984794020626 26.0178
33.93526147001624 25.9588
33.958539588715006 25.9286
33.98200102861669 25.7868
34.0052820477047 25.773000000000003
34.02856451319451 25.6808
34.05203033759056 25.6265
34.07531571090147 25.6775
34.09860253431845 25.5628
34.121890809074316 25.4487
34.145362493118924 25.4897
34.16865368561615 25.5051
34.191946333164054 25.5135
34.21524043699793 25.5072
34.23871800066799 25.46
34.26201503218366 25.296
34.28531352370466 25.2889
34.30861347646881 25.3076
34.33209693978188 25.3179
34.3553998301885 25.2415
34.378704185565205 25.1105
34.402010007152356 25.0518
34.42549939016683 25.0379
34.44880815937748 24.9691
34.472118398533134 24.9794
34.49543010887669 24.919
34.51892543169198 24.8683
34.54224009966052 24.8071
34.56555624255917 24.8578
34.58887386163339 24.8153
34.61237514439016 24.7308
34.6356957311114 24.5549
34.65901779775809 24.6352
34.68252356662995 24.6097
34.705848608458616 24.5856
34.72917513396849 24.5904
34.75250314440949 24.4953
34.77601490857862 24.4248
34.799345904259795 24.3681
34.82267838863559 24.3771
34.846012362958525 24.3045
34.869530142679984 24.3386
34.89286711232212 24.3193
34.91620557568269 24.2526
34.93954553401677 24.2606
34.9630693495876 24.1362
34.986412313340814 24.256
35.00975677584668 24.1632
35.033102738362956 24.0899
35.05663261012228 24.0299
35.0799815881786 24.0246
35.10333207003229 24.0248
35.12668405694369 23.9833
35.150220005273056 23.9613
35.17357501786656 23.9352
35.19693153931268 23.9054
35.220289570874385 23.9071
35.24383161619786 23.8549
35.267192683604904 23.875999999999998
35.290555264930376 23.8363
35.314101899412165 23.8061
35.33746752422433 23.730999999999998
35.36083466676374 23.7459
35.38420332829803 23.7225
35.407756095629054 23.7111
35.43112781085063 23.6462
35.45450104888391 23.6732
35.477875810999194 23.6157
35.50143473172161 23.5441
35.52481255774625 23.5673
35.54819191167777 23.4828
35.57157279478914 23.4264
35.595137889488406 23.4353
35.61852184675279 23.4982
35.641907337029984 23.331
35.665294361595684 23.338
35.68886565090076 23.3316
35.7122557598848 23.2497
35.73564740699838 23.3134
35.759040593519934 23.1979
35.78261809810353 23.1188
35.80601437933051 23.0675
35.829412203814705 23.0166
35.85281157283719 22.8824
35.876395313415884 23.0029
35.8997977874528 22.9174
35.92320180988546 22.919
35.946790244133936 22.8495
35.97019737933222 22.8939
35.993606066789866 22.8092
36.01701630779276 22.704
36.04061101440684 22.6618
36.06402437852291 22.7837
36.08743930005611 22.6913
36.1108557802951 22.5523
36.13445678011326 22.543000000000003
36.15787639383515 22.5574
36.18129757014299 22.5307
36.20472031032821 22.528000000000002
36.22832762423364 22.4462
36.25175350829375 22.415
36.275180960119776 22.3608
36.298609981005924 22.3598
36.32222362992669 22.3536
36.34565580510207 22.305999999999997
36.36908955323448 22.3242
36.39252487562093 22.2151
36.416144880530226 22.1605
36.43958336764275 22.2038
36.463023432914625 22.0772
36.486465077645676 22.0396
36.51009145956204 22.1666
36.53353627947859 22.1701
36.55698268276811 22.0723
36.58043067073321 22.0344
36.60406345072071 21.8519
36.62751462435344 21.9209
36.65096738658405 21.883000000000003
36.67460498210655 21.8609
36.69806093788647 21.8814
36.72151848619297 21.7228
36.744977628333636 21.7175
36.76862165890998 21.6897
36.79208400512205 21.7115
36.81554794910557 21.6974
36.83901349217101 21.6059
36.862663978991606 21.5154
36.88613273667352 21.5368
36.90960309738324 21.5276
36.933075062434064 21.4404
36.95673202673572 21.3734
36.98020721697122 21.3467
37.003684015502365 21.3751
37.027162423645365 21.2777
37.050825886711465 21.3081
37.07430753063053 21.3133
37.09779078812467 21.2032
37.121275660513014 21.174
37.144945643673694 21.1078
37.16843376245278 21.1618
37.19192350009803 21.1634
37.215414857931435 20.9961
37.239091382563885 20.9408
37.262585997426164 20.985
37.28608223645736 20.9337
37.309763684451696 20.8666
37.33326318851098 20.8617
37.356764320726555 20.8319
37.380267082425526 20.8633
37.40395510942588 20.8092
37.42746114683234 20.7754
37.45096881771841 20.75
37.474478123414166 20.7085
37.49817275092816 20.6594
37.52168534303452 20.6579
37.54519957395567 20.5384
37.568715445024665 20.546999999999997
37.592416694607714 20.5408
37.61593586281424 20.5515
37.63945667518264 20.5231
37.66297913304891 20.4715
37.68668702630454 20.4124
37.710212792059274 20.4153
37.733740207334854 20.4602
37.757269273470364 20.3358
37.780983832050374 20.3005
37.80451621684926 20.2874
37.82805025654007 20.1976
37.851585952464795 20.1843
37.8753071980695 20.1379
37.89884622345676 20.0886
37.92238690911902 20.0994
37.94611318753442 20.0974
37.969657210779765 19.9912
37.99320289834801 20.0431
38.016750251586465 19.9482
38.04048325513017 19.9028
38.06403395679343 19.9308
38.087586328183946 19.8471
38.11114037065203 19.8167
38.13488012115898 19.8607
38.1584375229181 19.7458
38.181996599821 19.7753
38.205557353221124 19.6943
38.229303872575656 19.6977
38.2528679961576 19.6238
38.27643380031219 19.6343
38.30000128639589 19.6142
38.32375459653193 19.5459
38.34732546371299 19.5829
38.37089801690786 19.5002
38.39447225747609 19.4371
38.418232380377425 19.3874
38.441810012983396 19.3704
38.46538933705673 19.3335
38.488970353960084 19.4067
38.51273731166058 19.3505
38.536321731567014 19.3099
38.55990784840681 19.271
38.58367995004091 19.2181
38.60726947812959 19.1609
38.63086070726198 19.154
38.654453638806274 19.160999999999998
38.678232613930824 19.0389
38.70182896773327 18.9653
38.72542702806741 19.0284
38.7490267963045 18.9911
38.77281266709232 18.9687
38.79641586862214 18.9259
38.8200207821842 18.823
38.843627409152944 18.873
38.86742019782782 18.8662
38.891030269149255 18.7865
38.914642058016156 18.8403
38.938255565806124 18.7803
38.96205529464307 18.7622
38.98567225787121 18.7139
39.00929094417078 18.6918
39.03291135492255 18.6659
39.05671804624804 18.6482
39.080341923549106 18.5898
39.103967529460334 18.5793
39.127594865365744 18.5129
39.15140854155791 18.4763
39.17503935514948 18.4636
39.19867190290282 18.4587
39.22249083587951 18.3701
39.24612686969409 18.4057
39.269764641845306 18.4163
39.293404153722804 18.3478
39.317230110864074 18.2747
39.34087311998506 18.2275
39.36451787301696 18.252
39.388164371352595 18.1626
39.41199737518003 18.0851
39.43564738196752 18.189
39.45929913825317 18.1275
39.48295264543308 18.0633
39.506792718520884 18.0914
39.530449745387216 18.0673
39.55410852735203 18.0545
39.57776906581474 18.0462
39.60161623079 17.9976
39.625280300200025 17.8889
39.64894613032202 17.8917
39.67261372255866 17.8427
39.6964680021016 17.81
39.72013913657293 17.7824
39.74381203738292 17.798
39.76748670593756 17.7543
39.79134812278169 17.7908
39.81502634488497 17.7549
39.83870633896685 17.7144
39.862388106436654 17.6634
39.88625668336918 17.5865
39.90994201572829 17.6417
39.933629125719285 17.5727
39.957503091207826 17.4532
39.9811937746168 17.5645
40.00488623990914 17.4648
40.02858048850006 17.4202
40.05246165409549 17.4167
40.076159487492085 17.371
40.099859108448875 17.3776
40.123560518384345 17.3891
40.1474489070226 17.3498
40.171153913178564 17.2365
40.194860712584955 17.1828
40.2185693066637 17.2781
40.242464941335314 17.1337
40.26617714307655 17.1795
40.289891143772046 17.2002
40.3136069448471 17.1148
40.33750984859743 17.077
40.3612292688043 17.0478
40.3849504936829 17.0756
40.40867352466194 17.0515
40.43258372059144 16.9661
40.45631038219906 16.9502
40.48003885420956 16.8463
40.503769138055105 16.8585
40.52768664931955 16.8814
40.55142057531802 16.9126
40.57515631746428 16.88
40.599079334038514 16.7831
40.62281872700477 16.7278
40.64655994043941 16.7209
40.67030297578061 16.6935
40.69423334835778 16.7054
40.71798004609188 16.7143
40.74172857006355 16.6548
40.76547892171441 16.6054
40.7894166736039 16.573
40.813170699248566 16.5382
40.83692655691388 16.5251
40.86068424804498 16.5347
40.884629402612525 16.4279
40.908390779366385 16.4274
40.932153993938 16.4102
40.95591904777605 16.4599
40.979871628443995 16.4247
41.003640379561936 16.3634
41.02741097430883 16.3682
41.05118341413683 16.2861
41.075143444384416 16.3044
41.098919593177826 16.2258
41.1226975914255 16.1724
41.14647744058318 16.1665
41.170444943946755 16.1886
41.19422851378379 16.222
41.218013938914645 16.1707
41.24198706625173 16.0448
41.26577622087193 16.0235
41.289567235177785 15.9532
41.31336011063129 16.0434
41.337340752422875 15.9882
41.361137369129835 15.9547
41.38493585138705 15.934000000000001
41.40873620066004 15.9174
41.43272438060107 15.9147
41.45652848292052 15.842
41.48033445666918 15.7648
41.50414230331616 15.7799
41.528138045159764 15.761
41.551949656675205 15.6956
41.575763145513235 15.7401
41.59957851314666 15.6485
41.62358184070442 15.5702
41.64740098505737 15.6431
41.6712220126409 15.6342
41.69504492493139 15.6022
41.71905586207357 15.5175
41.74288256296395 15.5347
41.766711153007456 15.5017
41.79054163368412 15.5334
41.814560204340054 15.4622
41.838394485526365 15.4917
41.86223066180303 15.4504
41.88625497706819 15.3907
41.910094962812 15.4077
41.93393684811168 15.3655
41.95778063445365 15.2815
41.981812625263366 15.1984
42.00566023303407 15.2596
42.029509746323676 15.2297
42.05336116662236 15.1813
42.077400857069705 15.1556
42.10125611078846 15.1418
42.12511327600405 15.1051
42.14897235421036 15.0931
42.173019768448455 15.0669
42.19688269209613 15.0066
42.22074753323349 15.0107
42.24461429335818 14.9656
42.268669455600495 14.9242
42.292540073217886 14.9508
42.31641261433284 14.9236
42.34028708044675 14.9153
42.36435001496739 14.8627
42.38822835065557 14.8798
42.41210861586426 14.8396
42.4359908120986 14.8542
42.46006154323262 14.8015
42.48394762115317 14.6916
42.507835634632315 14.6871
42.531912233047436 14.719000000000001
42.55580413732265 14.7068
42.579697981698 14.6229
42.60359376768525 14.604000000000001
42.62767820545945 14.6035
42.65157789440821 14.5636
42.67547952952185 14.6179
42.699383112316 14.544
42.72347541395347 14.4312
42.74738291190531 14.4291
42.771292362102166 14.4721
42.795203766063516 14.4317
42.819303956130405 14.4054
42.843219287476536 14.3804
42.86713657716324 14.3797
42.89105582671383 14.2802
42.91516392983864 14.2924
42.939087119032166 14.3125
42.963012272677304 14.2504
42.98693939230129 14.2641
43.01105543317513 14.1705
43.034986504731386 14.1856
43.05891954686589 14.1654
43.08285456110972 14.1185
43.10697856448665 14.1174
43.130917542983475 14.0228
43.15485849820081 14.0902
43.17880143167367 14.0326
43.20293342237094 14.002
43.226880332449 13.9485
43.25082922540554 13.9478
43.27496722682525 13.9463
43.29892010567796 13.927
43.32287497204102 13.8732
43.34683182745632 13.8434
43.370977859791836 13.8335
43.39493871351105 13.797
43.41890156092628 13.8247
43.44286640358341 13.7879
43.46702049182749 13.71
43.49098934522816 13.7153
43.51496019852649 13.6637
43.5389330532723 13.677
43.56309522248204 13.6611
43.58707210044314 13.6499
43.61105098451946 13.6142
43.63503187626491 13.5854
43.659202151562134 13.5273
43.68318707902681 13.4795
43.70717401884041 13.5175
43.731162972560874 13.4707
43.75534137913236 13.4253
43.779334381108384 13.4555
43.803329401683186 13.4425
43.82732644241872 13.4108
43.8515130055166 13.4018
43.87551410707659 13.3457
43.89951723350145 13.3461
43.923709934595614 13.3086
43.94771713129917 13.2889
43.97172635758096 13.2558
43.99573761501002 13.2225
44.0199385169922 13.1867
44.04395385732619 13.1905
44.067971233533086 13.2126
44.09199064718605 13.1633
44.11619977548961 13.162
44.14022328470671 13.0914
44.16424883610785 13.1437
44.18827643127035 13.0933
44.21249381139513 13.0711
44.236525514814076 13.0108
44.26055926674478 12.9946
44.28459506876863 12.9925
44.3088207262813 12.9456
44.33286064928722 12.9173
44.35690262714919 12.8754
44.38094666145278 12.8895
44.4051806219871 12.9285
44.42922879003185 12.8482
44.45327901929361 12.806
44.477331311362136 12.7986
44.501573600619416 12.7426
44.525630039221795 12.7151
44.54968854541895 12.7013
44.573937102200176 12.6989
44.5979997645541 12.6653
44.622064499300315 12.7044
44.64613130803592 12.6131
44.67038823869318 12.5986
44.69445921643748 12.5796
44.718532272981385 12.5034
44.742607409926194 12.519
44.76687274034801 12.5436
44.79095205918753 12.4725
44.81503346325094 12.4804
44.839116954143876 12.4565
44.86339071028742 12.4431
44.88747839599524 12.4056
44.91156817336837 12.3986
44.93566004401666 12.3602
44.959942251908146 12.3403
44.984038330325966 12.323
45.00813650686762 12.2454
45.03223678314731 12.2762
45.05652746888232 12.2128
45.08063196592069 12.1941
45.104738567558705 12.1941
45.128847275414856 12.1838
45.15314646515866 12.1072
45.17725940679741 12.1099
45.20137445952892 12.0958
45.22568004865265 12.117
45.24979934496396 12.065
45.27392075725247 12.0726
45.29804428714431 12.0222
45.322358426247604 11.9934
45.346486212804315 11.9955
45.370616121861914 11.9843
45.39474815505086 11.9328
45.41907087049246 11.9186
45.4432071734666 11.8696
45.46734560548283 11.8862
45.49148616817604 11.8952
45.51581748638564 11.8394
45.5399623320197 11.8235
45.56410931325473 11.7731
45.58825843173002 11.7818
45.61259837920865 11.7562
45.636751793816 11.7633
45.66090735060093 11.7534
45.68506505120716 11.6916
45.7094136545275 11.6571
45.73357566449271 11.6445
45.75773982322992 11.6414
45.78190613238733 11.6495
45.806263418194064 11.5906
45.83043404997326 11.5817
45.85460683713677 11.5984
45.87897065658495 11.5514
45.90314777634752 11.4895
45.92732705646868 11.508
45.9515084986045 11.4494
45.97588104735473 11.4508
46.00006683541565 11.4522
46.02425479047904 11.3899
46.04844491420549 11.3913
46.0728262191024 11.3868
46.09702070211635 11.3367
46.12121735879483 11.3079
46.14541619080294 11.2934
46.169806278764455 11.3113
46.194009483459034 11.315
46.21821486849841 11.2917
46.24242243555223 11.2696
46.266821333570014 11.2018
46.29103328674601 11.2131
46.31524742696538 11.1948
46.33946375590237 11.1547
46.36387149104216 11.1214
46.38809221957392 11.081
46.41231514186606 11.0627
46.436540259597464 11.1035
46.460956858999374 11.0213
46.48518638983522 11.0327
46.509418121166966 10.9868
46.533652054678114 10.9574
46.55807754555709 10.9286
46.58231590571962 10.9392
46.60655647313217 10.9145
46.630988654873654 10.8511
46.655233659129024 10.8761
46.67948087571551 10.9076
46.70373030632484 10.8319
46.72817142736393 10.8122
46.752425308428684 10.8256
46.77668140861147 10.7746
46.80093972960865 10.7351
46.82538981736788 10.6892
46.849652602470904 10.7368
46.87391761349769 10.7066
46.8981848521493 10.6986
46.9226439341274 10.6806
46.946915650573224 10.6099
46.97118959976749 10.6409
46.99546578341598 10.5985
47.019933887188216 10.5909
47.04421456235744 10.5678
47.06849747711879 10.5362
47.09278263318286 10.5027
47.11725978640143 10.4875
47.14154944775105 10.4483
47.165841355555656 10.4492
47.1901355115306 10.4447
47.214621741924994 10.408
47.23892041698887 10.3972
47.26322134538975 10.4046
47.28771440635075 10.3447
47.31201986422527 10.3646
47.33632758061436 10.3318
47.360637557241866 10.3118
47.38513974410611 10.317
47.40945426407847 10.2914
47.43377104948137 10.262
47.45809010204344 10.2374
47.48260144275502 10.2261
47.506925052572285 10.2103
47.53125093475548 10.1434
47.55557909103813 10.1561
47.58009961361992 10.1469
47.60443234110732 10.1649
47.62876734791564 10.1023
47.65310463578333 10.076
47.6776343683373 10.0516
47.7019762413987 10.0546
47.72632040075572 10.004
47.75066684815169 10.0267
47.77520581885936 9.989460000000001
47.799556865477655 9.98039
47.823910205386 9.98709
47.84826584033272 9.97252
47.87281407745551 9.8933
47.89717432569297 9.911760000000001
47.92153687423484 9.87313
47.94609208429692 9.86786
47.97045925671401 9.84095
47.99482873471275 9.80418
48.01920052005013 9.84902
48.04376504619224 9.783610000000001
48.068141469543484 9.79367
48.09252020552573 9.78553
48.11690125590099 9.753919999999999
48.1414751266064 9.70536
48.16586082917454 9.69321
48.19024885144316 9.71885
48.2146391951793 9.665560000000001
48.239222439012764 9.678339999999999
48.26361744916137 9.65981
48.28801478610016 9.647210000000001
48.31241445160131 9.62509
48.337007097209366 9.58617
48.36141144338331 9.588989999999999
48.38581812345755 9.54393
48.41022713920929 9.53303
48.434829215320704 9.51839
48.45924292604658 9.51097
48.48365897780325 9.47879
48.50807737237308 9.43983
48.532688907799276 9.46689
48.55711201168574 9.41729
48.581537463754074 9.390189999999999
48.60615611725119 9.40599
48.63058628942721 9.41066
48.65501881516546 9.36256
48.6794536962573 9.34942
48.70408185970339 9.3376
48.72852147531801 9.28352
48.75296345168211 9.25803
48.77740779059232 9.281839999999999
48.80204549302823 9.28815
48.82649458091802 9.274460000000001
48.85094603676547 9.2084
48.87539986237231 9.18546
48.90004713292306 9.21176
48.92450572200832 9.160110000000001
48.94896668628025 9.16153
48.97343002754588 9.16261
48.99808689542115 9.15605
49.02255501470614 9.12979
49.04702551642794 9.0764
49.0714984023988 9.045739999999999
49.096164896893235 9.04764
49.120642575466796 9.05997
49.145122643748394 9.006110000000001
49.16960510355558 9.00575
49.19428125404938 9.01575
49.2187685210852 8.97969
49.243258185121555 8.95653
49.26794160167084 8.93363
49.2924360839405 8.905660000000001
49.31693296869764 8.88613
49.34143225776915 8.87393
49.36612538195438 8.83564
49.39062950396021 8.814210000000001
49.41513603578346 8.821660000000001
49.4396449792564 8.82139
49.46434784069503 8.773489999999999
49.488861631846454 8.76329
49.513377840166804 8.76863
49.537896467493745 8.71698
49.56260909589029 8.69384
49.587132585683285 8.704089999999999
49.611658500018365 8.7076
49.636186840738596 8.68057
49.66090926588511 8.645539999999999
49.685442483902584 8.6768
49.70997813385706 8.6142
49.734516217597076 8.61705
49.75924846937352 8.57618
49.7837914452858 8.59742
49.80833686055187 8.56403
49.83288471702571 8.52768
49.85762682540054 8.52298
49.882179588965734 8.47193
49.9067347993235 8.476389999999999
49.93129245833333 8.44294
49.95604445336378 8.46974
49.98060703442832 8.47906
50.005172069746266 8.43613
50.02993150438364 8.41426
50.05450147301533 8.40043
50.07907390151433 8.39874
50.10364879174981 8.35343
50.12841816587289 8.32105
50.1529980044635 8.2912
50.17758031042124 8.32364
50.20216508562089 8.27704
50.22694442953363 8.30687
50.25153416817468 8.22147
50.27612638170508 8.24107
50.300721072005196 8.20756
50.325510416102105 8.17933
50.350110084975064 8.20703
50.37471223628208 8.219
50.39931687190919 8.15898
50.424116246675766 8.170869999999999
50.44872587605249 8.16624
50.47333799543065 8.16196
50.49795260670191 8.11684
50.52276204271512 8.07695
50.54738166295838 8.08731
50.57200378079314 8.06594
50.596628398116835 8.061110000000001
50.62144792604559 8.03378
50.646077567609396 8.02417
50.670709714377715 8.015089999999999
50.69553683636198 8.0157
50.72017401885922 7.96077
50.7448137122895 7.93852
50.76945591856022 7.946560000000001
50.79429318636823 7.91032
50.818940443716784 7.92784
50.84359021965163 7.91058
50.868242516085964 7.8971
50.893089960641895 7.865289999999999
50.917747323549435 7.850169999999999
50.94240721271973 7.81577
50.96706963007175 7.8025899999999995
50.99192728239342 7.805439999999999
51.01659478166073 7.8197600000000005
51.04126481489051 7.770689999999999
51.06593738400761 7.7767100000000005
51.090805275207074 7.78357
51.11548294172845 7.71356
51.14016314993547 7.708080000000001
51.164845901758845 7.69309
51.18972406304274 7.6745
51.21441192780656 7.66113
51.23910234200271 7.63428
51.2637953075678 7.6380300000000005
51.288683770237945 7.60888
51.31338186432707 7.60583
51.33808251561888 7.57445
51.362978729967345 7.57965
51.387684521509755 7.55094
51.41239287610203 7.515789999999999
51.437103795691165 7.52848
51.46201036644977 7.53878
51.486726441956634 7.503019999999999
51.51144508832545 7.47323
51.536166307509156 7.462619999999999
51.56108326624387 7.412380000000001
51.58580965706056 7.4501800000000005
51.61053862657523 7.43042
51.635270176746864 7.3760699999999995
51.66019755512065 7.37219
51.68493429268881 7.39031
51.70967361681515 7.3581199999999995
51.73441552946465 7.32977
51.759353359237934 7.31058
51.7841004750961 7.36798
51.80885018539685 7.310169999999999
51.833602492111254 7.262860000000001
51.8585508051424 7.224139999999999
51.883308330926425 7.24972
51.90806845906181 7.24625
51.932831191525715 7.22633
51.95779001977161 7.17152
51.98255798721516 7.1689
52.00732856494335 7.190060000000001
52.03229530577543 7.13305
52.057071130455945 7.1588
52.081849571391054 7.123539999999999
52.106630630568695 7.12005
52.13160794279417 7.1268899999999995
52.15639426492067 7.1034
52.18118321127822 7.1127899999999995
52.205974783860896 7.04835
52.23096269971011 7.022760000000001
52.255759551287994 7.0262
52.280559035098186 7.02088
52.30536115314103 7.01152
52.33035970494467 6.961460000000001
52.35516711807904 6.9675
52.37997717147198 6.95334
52.40478986713005 6.9548
52.42979908731974 6.93699
52.454617094216 6.9123
52.47943774942214 6.91459
52.50426105495102 6.893610000000001
52.529280976059844 6.8858
52.554109609024096 6.8699699999999995
52.57894089837482 6.825710000000001
52.60377484613117 6.8295699999999995
52.62880550079408 6.82389
52.65364479223379 6.81515
52.67848674816189 6.777410000000001
52.70352547971946 6.790939999999999
52.72837279155837 6.7579
52.753222773982785 6.74224
52.778075429022984 6.710789999999999
52.80312495150885 6.71322
52.827982978797436 6.68957
52.85284368481815 6.6688600000000005
52.87770707160767 6.68052
52.90276741793998 6.6609
52.92763619336701 6.64507
52.952507655698504 6.6479800000000004
52.977381806977576 6.64785
53.00245301017842 6.60115
53.02733256653592 6.61257
53.052214817996074 6.5795699999999995
53.077099766608484 6.55958
53.102181859804446 6.568039999999999
53.127072229988265 6.54545
53.15196530349892 6.515680000000001
53.17686108239249 6.50427
53.20195409881522 6.4948
53.22685531582556 6.51931
53.25175924441303 6.48364
53.27666588664027 6.4427
53.30176985962693 6.42751
53.3266819565689 6.4305699999999995
53.35159677336455 6.40051
53.376514312083096 6.38957
53.40162927507703 6.35058
53.42655228516116 6.35801
53.45147802340193 6.370480000000001
53.47660125628886 6.3351
53.50153247842639 6.32716
53.52646643496923 6.30206
53.55140312799818 6.3342
53.576537409691696 6.31597
53.60147960336152 6.2617400000000005
53.626424539786164 6.26042
53.65137222105307 6.23255
53.67651758529126 6.272880000000001
53.70147078399681 6.200740000000001
53.72642673383343 6.23182
53.75138543689533 6.20605
53.776541917524526 6.178
53.801506154876755 6.18445
53.826473151763246 6.15104
53.851442910284916 6.132999999999999
53.87661054126026 6.1276
53.9015858509782 6.07374
53.92656392866066 6.10026
53.95154477641532 6.09785
53.976723591801296 6.04117
54.00171000771266 6.03253
54.02669920004598 6.03619
54.051691170915745 6.02423
54.076881204886796 6.02423
54.101878760928514 6.03061
54.12687910187696 5.9957400000000005
54.152077577768296 5.99336
54.1770835166946 5.94006
54.20209224691339 5.96745
54.22710377055121 5.9387
54.25231352511594 5.93274
54.27733066384342 5.88817
54.30235060239643 5.89101
54.32737334290836 5.9048300000000005
54.35259441062629 5.85864
54.377622783395324 5.847580000000001
54.40265396455061 5.82509
54.42768795623251 5.8204199999999995
54.45292037169559 5.78794
54.477960012857906 5.8169900000000005
54.50300247099511 5.82027
54.52804774825457 5.7923800000000005
54.55329154616743 5.72675
54.57834249018678 5.71929
54.6033962597977 5.68555
54.6284528571545 5.65503
54.653708072335164 5.61322
54.67877035378786 5.62668
54.70383546947698 5.59317
54.72890342156389 5.56738
54.7541700889442 5.55879
54.77924374251975 5.55922
54.8043202390049 5.4966800000000005
54.82959552413022 5.50384
54.8546777351945 5.493580000000001
54.87976279569621 5.4577599999999995
54.90485070780914 5.4673
54.930137506558005 5.4121
54.95523115074295 5.45331
54.98032765308844 5.40647
55.005427015775496 5.38314
55.03072536339621 5.3524
55.05583047570572 5.319719999999999
55.080938454927676 5.28776
55.10604930325027 5.27557
55.131359235107396 5.3064599999999995
55.15647585066083 5.241630000000001
55.181595341907496 5.23318
55.20671771104285 5.215319999999999
55.232039262617704 5.23324
55.25716741665048 5.15941
55.28229845518636 5.12063
55.30743238042802 5.076980000000001
55.33276558731939 5.100619999999999
55.357905315183636 5.10741
55.383047936390035 5.0573
55.40819345314859 4.99558
55.433538351073295 4.9833099999999995
55.458689688238415 4.97107
55.483843927614096 4.9515199999999995
55.509197623043605 4.9933
55.53435769621134 4.9006099999999995
55.55952067826466 4.87747
55.5846865714265 4.90295
55.61005202069737 4.848269999999999
55.63522376553902 4.82116
55.66039842818645 4.77805
55.68557601087004 4.77802
55.7109532500271 4.7225
55.73613670233794 4.77545
