TT I
1.2716486653135266 7.5456199999999995
1.2939594142134223 7.05778
1.3162702121660406 7.4248899999999995
1.3385810600174564 6.37746
1.3608919586137629 6.580610000000001
1.383202908801069 6.8005
1.405513911425503 6.327719999999999
1.4278249673332093 6.34047
1.4501343378461518 6.189830000000001
1.4724455028545926 6.517180000000001
1.4947567236847858 6.12665
1.517068001182951 6.43053
1.5393793361953272 6.39121
1.5616907295681737 6.03947
1.5840021821477681 4.93029
1.60631369478041 4.98719
1.6286252683124185 5.7333
1.6509369035901333 5.687790000000001
1.6732468618895553 5.61354
1.695558623192809 5.3124400000000005
1.7178704487808514 5.29415
1.7401823395001077 5.01818
1.7625012545597203 5.06457
1.7848028405262486 5.33063
1.8071218901122095 5.05154
1.8294236121921872 4.45394
1.8517427996910911 4.73793
1.8740620574440425 4.71666
1.8963639900671978 5.1376800000000005
1.9186833908139995 4.35173
1.9409854680117449 5.093719999999999
1.9633050151394713 5.02985
1.9856246367570705 4.3951400000000005
2.0079269371922672 5.26849
2.03024671027244 4.12015
2.0525491637446027 3.90841
2.074869091674931 4.62259
2.097171701569106 4.79817
2.1194917877373847 5.25499
2.141811954326636 4.48151
2.164114805233074 5.01676
2.186435135143035 5.95135
2.208738150935709 11.1807
2.231058647554722 22.0053
2.2533792288321184 17.6861
2.275682498336085 8.74526
2.298003251406138 6.26204
2.3203066942619714 5.52769
2.3426276225136022 4.99136
2.3649486396617507 5.77682
2.387252348930071 5.90304
2.4095735463442893 5.852530000000001
2.4318774374315884 5.36268
2.4541988185014043 5.96805
2.476502894794693 6.8298
2.498824462909887 7.02867
2.521146125856138 7.05226
2.5434504863470337 6.770239999999999
2.5657723414244717 6.89307
2.588076895590662 7.53649
2.610398946189713 7.62299
2.6327210958598384 7.9199600000000006
2.6550259469304716 8.42463
2.6773482972090137 8.007539999999999
2.6996533504259 7.431539999999999
2.7219759047039602 7.89209
2.744298562293959 7.94972
2.7666039251246595 7.6950199999999995
2.7889267918020164 8.52369
2.8112323652516555 8.228580000000001
2.833555444408179 8.23572
2.8558786311183852 7.417439999999999
2.8781845268938557 8.37302
2.9005079311721484 9.15061
2.9228140460410397 8.70533
2.9451376712799635 9.09908
2.967444008632326 9.44108
2.9897678582247247 9.967369999999999
3.0120918213106695 10.5529
3.0343984987899373 11.3211
3.0567226913198637 11.2274
3.079029599759726 11.4478
3.101354025127254 12.1162
3.123678568232338 12.8409
3.145985829517914 12.9285
3.16831061055229 13.1694
3.1906181112775593 14.2451
3.212943133635653 14.5157
3.2352682779763207 14.331
3.2575761442691227 15.0677
3.2799015350264273 15.8523
3.302209649240067 15.9551
3.3245352898092655 16.7782
3.3468436553365257 17.5002
3.369169549113219 17.6058
3.3914955708171384 18.5681
3.413804319727358 18.6813
3.4361305997334863 19.2498
3.4584396084414553 19.8317
3.4807661501462652 20.3758
3.503092824025881 20.9819
3.5254022288463154 21.0508
3.5477291695206588 21.7818
3.5700388426251948 22.2856
3.5923660534916446 23.769000000000002
3.6146934007816114 35.1246
3.637003482731501 74.4582
3.6593311053109985 80.7115
3.681641464033634 49.2361
3.7039693653009733 29.5557
3.726297407241705 26.2944
3.7486081875460804 25.9859
3.7709365132734978 26.0001
3.793247578841633 26.4055
3.8155761917550093 26.7292
3.8378875459837216 27.2017
3.8602164494827234 27.6348
3.882545499606844 28.2515
3.9048572932539183 29.081
3.9271866390645718 29.451999999999998
3.9494987298666713 29.586
3.971828374764527 30.5263
3.9941581705403255 31.031999999999996
4.016470713506008 31.5239
4.038800813471445 32.2373
4.061113662089144 32.8003
4.0834440696459176 33.5225
4.105774632334751 34.0423
4.128087945865126 34.7518
4.150418821249301 35.4107
4.172732448931298 36.7733
4.195063640413578 38.278
4.2173775856475215 41.7017
4.239709096631102 67.8324
4.262040768704612 193.21400000000003
4.284355196706267 252.019
4.306687193387355 166.356
4.329001947444346 71.4861
4.35133427213731 46.7101
4.373666762177566 44.1028
4.395982011761091 44.1957
4.418314834921175 45.4687
4.44063041906622 51.8204
4.4629635787515625 60.1285
4.4852969080429785 60.4558
4.5076130004776225 53.068000000000005
4.529946671403969 50.2649
4.552263106909177 50.8077
4.574597122877047 52.005
4.596931312711224 53.0763
4.619248269273446 53.8389
4.6415828092605835 54.8002
4.663900117405352 55.7501
4.686235010953232 57.2481
4.708552674085913 58.6102
4.730887924602802 60.2108
4.753223354952695 61.3479
4.775541557023902 62.5414
4.797877349456786 64.4325
4.820195915032126 66.6874
4.842532072957498 68.2892
4.864868414979744 70.1727
4.88718753227192 72.1249
4.909524244902505 74.2223
4.931843734218147 75.6983
4.954180820867835 78.4985
4.976518095879839 81.4662
4.998838149695359 84.2927
5.021175803844231 88.3916
5.043496238205739 92.134
5.065834274903528 96.4919
5.088172504230693 101.693
5.1104935158799565 107.992
5.132832132875765 128.877
5.155153533596801 168.165
5.1774925416746225 210.391
5.199814334878411 414.881
5.2221537374521505 1194.47
5.244493338631803 3112.27
5.266815727034316 7878.16
5.289155727832427 12236.5
5.311478517248165 8643.2
5.333818921080011 3048.36
5.356159527788849 631.512
5.3784829252032536 195.949
5.400823940070432 147.236
5.423147747031976 130.214
5.445489173474152 120.50299999999999
5.467830807066149 114.95299999999999
5.490155234831516 110.693
5.512497285125229 107.06200000000001
5.534822130975162 105.119
5.557164601388673 102.69200000000001
5.579489868738879 99.8088
5.601832762690846 99.13
5.6241758697774475 98.0344
5.646501775867269 97.3746
5.668845311622074 95.9653
5.691171647754637 94.9754
5.713515615597765 93.8266
5.735859800852677 92.7419
5.758186788542988 92.387
5.780531411018185 92.9478
5.802858837297399 92.2098
5.825203900414495 92.4636
5.8475491852224 92.9877
5.869877275883075 93.1314
5.892223006467101 94.5332
5.914551544266608 96.2062
5.936897724049891 99.3464
5.959244129804903 106.854
5.981573344815301 130.661
6.0039202049061 242.267
6.026249875609095 523.555
6.04859719346037 1079.92
6.070927323278297 2307.77
6.093275102315365 4411.51
6.115623113320588 5556.15
6.137953938319995 3452.51
6.160302415650845 1082.71
6.182633708324452 254.908
6.2049826554078376 117.33
6.227331838745022 94.5845
6.249663839443684 86.6612
6.27201349767565 82.9466
6.294345974611799 86.8096
6.316696111167083 95.266
6.339046488263839 90.5248
6.361379686074702 78.5012
6.383730546639482 72.1214
6.406064229255215 69.382
6.428415576718203 68.6885
6.450749747566656 67.4265
6.47310158535871 66.2549
6.495453669698332 65.6769
6.517788579421056 64.7469
6.540141159237969 64.2136
6.562476565766648 63.8248
6.5848296444934045 63.1574
6.607182974060425 62.8766
6.6295191323281015 62.5738
6.651872965955752 65.491
6.6742096296068985 85.7006
6.6965639707294615 122.035
6.71891856698715 121.698
6.741255995248479 87.4583
6.763611104154477 66.209
6.785949046381137 60.0859
6.808304671371482 58.7216
6.8306605557940046 58.4335
6.852999275508618 57.684
6.875355681171544 57.372
6.897694923437771 56.9668
6.92005185377892 56.9383
6.9423916220322655 56.7792
6.964749080490181 56.0716
6.987106804399774 55.972
7.009447368180821 55.791000000000004
7.031805625367033 55.6499
7.054146723727803 55.7463
7.076505517631004 55.3805
7.098864581288365 55.4798
7.121206488070854 55.446000000000005
7.143566093607822 55.2748
7.165908543567245 55.0872
7.188268694426048 55.3201
7.2106291193438095 55.2128
7.232972390625943 56.5603
7.255333366030969 67.0362
7.277677189091925 108.48299999999999
7.300038718428332 146.339
7.322400526130865 125.52600000000001
7.344745183422596 82.1071
7.367107550224791 60.2148
7.389452767901992 56.3019
7.411815697249891 55.5288
7.434161478756298 54.6715
7.456524974096713 54.6237
7.478888753837185 54.6382
7.501235387657368 54.9822
7.523599738562711 54.8892
7.545946944825532 55.0797
7.568311870344528 55.6557
7.5906770845765665 55.2623
7.613025156078678 56.7136
7.635390950099687 57.8036
7.657739602662809 57.1093
7.680105979923558 56.0485
7.702472650212829 56.1095
7.724822180948224 56.1306
7.747189439655568 56.5605
7.769539560075357 56.8887
7.791907410653562 56.97
7.81425812420825 56.9221
7.836626570110925 57.1251
7.858995315087906 57.8792
7.881346924933401 58.1952
7.903716270417482 58.7727
7.926068482028405 59.0344
7.948438431475253 59.5576
7.9708086843180235 59.9906
7.993161805171116 60.7411
8.015532667162402 61.2388
8.037886398416653 62.1866
8.060257873014221 62.4591
8.082629655331942 63.0561
8.104984308787587 64.086
8.127356708900503 67.018
8.149711981398308 71.9231
8.172085002766314 73.6857
8.194458336181368 71.2807
8.216814543847752 69.7488
8.23918850371002 69.6817
8.26154533906492 70.3983
8.283919928836452 72.4669
8.306277395339652 73.4737
8.328652618483376 74.8167
8.351028159736202 76.7657
8.373386579575245 78.9282
8.395762759396959 80.6671
8.418121819038275 85.5457
8.440498640894003 97.1527
8.462875785192262 110.85700000000001
8.485235811156207 128.64
8.507613602688501 180.958
8.529974277114228 281.48900000000003
8.552352719347912 428.042
8.574731488360351 702.615
8.59709314210385 1219.05
8.619472567021075 1878.65
8.64183487789147 2217.03
8.664214962183097 1786.54
8.686577933647762 949.297
8.708958680784317 371.17
8.731339760774953 166.05700000000002
8.753703729764451 112.208
8.77608547780821 99.8293
8.798450116065078 95.9087
8.820832535634787 92.7854
8.843215292401656 91.3771
8.865580941199045 90.0401
8.887964374703538 89.066
8.910330701447199 89.9346
8.932714815164482 91.7311
8.955099270424924 90.7878
8.977466620733543 88.1115
8.999851761421976 85.7774
9.022219798361645 84.3029
9.04460562795561 83.8381
9.066991803441677 83.6543
9.089360876979615 83.4815
9.111747746589993 82.9467
9.13411751544971 82.2498
9.156505082664324 82.4329
9.178875550323522 82.5999
9.20126381862328 82.7084
9.223652438908596 83.2819
9.246023961427412 83.383
9.26841328802173 82.979
9.290785518039224 82.5894
9.313175554425882 83.2546
9.335565947154315 83.0628
9.357939245086508 83.3208
9.380330352834827 83.4265
9.40270436697103 83.7438
9.425096193225055 83.5536
9.447488380180165 84.3536
9.469863475295412 85.0161
9.492256385987508 85.2652
9.514632206018318 85.8205
9.537025843935714 86.6121
9.559402392368193 86.7854
9.581796761000229 87.8535
9.604191496441521 88.7706
9.626569144158516 91.3868
9.648964615551032 94.9566
9.671343000390081 97.1361
9.693739211225699 96.0518
9.716135793237463 93.9983
9.738515290448102 93.9468
9.760912617143402 94.4476
9.783292860202891 95.9312
9.805690935076182 97.4405
9.828089385495742 98.5382
9.850470754023561 100.59
9.872869957865444 107.318
9.89525208097539 119.691
9.917652041736662 130.474
9.940052382417589 134.046
9.962435644102392 149.31799999999998
9.984836746950979 194.78799999999998
10.007220771957746 266.171
10.029622640473708 373.81800000000004
10.052007432299963 555.825
10.074410069984072 844.8960000000001
10.096813093716005 1268.14
10.119199042482517 1710.47
10.141602840636468 1895.39
10.163989564971628 1559.64
10.186394141051062 891.297
10.208799107559706 385.259
10.231187001965623 183.356
10.253592751657669 126.021
10.275981430388155 113.70700000000001
10.298387966769793 112.675
10.320794897965431 114.07799999999999
10.343184759907361 112.988
10.36559248305461 108.26899999999999
10.387983138083852 105.34899999999999
10.410391656691655 110.31
10.432800574501677 123.632
10.455192425893369 141.475
10.47760214443012 168.495
10.499994797678786 212.696
10.522405320453982 290.991
10.54479877906917 407.89599999999996
10.567210109595656 515.504
10.5896218454736 563.765
10.612016518879773 499.721
10.634429067781074 341.05199999999996
10.656824555333241 193.498
10.679237920773568 120.605
10.701651695961992 95.6988
10.724048411481384 89.5752
10.746463008485165 87.0618
10.768860546937125 85.2355
10.791275969274796 83.9101
10.81369180576079 82.6647
10.836090585366925 81.5521
10.858507252467449 80.339
10.88090686379991 79.1299
10.903324365036394 78.4276
10.925724811614439 78.2795
10.948143150509463 79.1069
10.970561909719066 78.3924
10.992963615930844 76.9786
11.015383218085756 74.9815
11.037785768347074 73.6335
11.06020621697282 72.9169
11.082627090322113 72.5943
11.105030913430326 72.0068
11.12745263854165 72.507
11.149857314510728 74.9724
11.172279894912576 79.6236
11.194702904450653 79.7654
11.217108866490921 76.6837
11.239532736615194 73.208
11.26193956033512 71.3217
11.284364294577085 70.1385
11.306789462371718 68.3404
11.329197585398376 67.42
11.351623622610898 67.2381
11.37403261614354 66.3821
11.396459526308487 66.5533
11.418869393879497 65.9935
11.441297180532617 65.5802
11.463725406927658 65.2708
11.486136592353875 64.9941
11.508565700543707 65.5061
11.530977768845315 66.94800000000001
11.553407762368774 67.5208
11.575838200059769 67.2137
11.598251599479612 65.3924
11.620682927815501 64.5815
11.64309721895548 63.9175
11.665529441478206 63.5427
11.687962112597958 63.2397
11.710377748130886 63.6572
11.732811318753434 63.3233
11.755227854859067 63.2662
11.777662328529495 63.2359
11.800079768750786 62.9648
11.822515149015453 62.5877
11.844950984084935 62.9957
11.867369787303163 62.6964
11.889806534289491 62.638000000000005
11.912226250487029 63.3501
11.934663912939751 63.5463
11.9571020346363 63.4899
11.979523127133968 63.4401
12.001962169624331 64.2106
12.024384183972964 65.7677
12.046824150809913 69.5489
12.069264581333726 75.0204
12.091687985297767 81.3108
12.11412934550045 90.9096
12.136553680195208 105.758
12.158995973632788 127.54700000000001
12.181438735204349 155.058
12.20386447284199 183.815
12.226308172985636 202.972
12.24873485024193 199.62099999999998
12.271179492516982 162.208
12.293607112949127 123.29700000000001
12.316052700916226 92.5255
12.338498763250042 76.607
12.360927805303868 69.7537
12.383374818673879 66.4185
12.405804812803074 64.8357
12.428252780773262 64.5276
12.45070122756722 64.6475
12.473132656675375 64.3175
12.49558206341869 64.5969
12.518014453510101 64.6644
12.540464823770117 64.6774
12.562915677315177 64.8845
12.58534951575545 65.8176
12.607801338171472 67.2656
12.630236146511358 71.4035
12.652688941369085 75.1707
12.675124723177234 75.5577
12.697578494048786 73.1554
12.720032754458185 69.6603
12.742470003354093 68.0374
12.764925245138771 68.1169
12.787363476431278 68.5701
12.809819703166806 68.8789
12.83227642391173 69.4079
12.854716135692716 69.9929
12.877173846755147 71.2505
12.899614549869717 71.5321
12.9220732548287 72.3998
12.94453245827299 72.9201
12.966974655289818 74.0332
12.989434858002571 74.6672
13.011878055298721 75.2594
13.034339260862497 76.26100000000001
13.056800969391883 77.7327
13.079245674017244 79.9874
13.101708390774869 83.008
13.12415410463411 91.3546
13.146617833206086 104.214
13.169064559883248 116.515
13.191529303857127 132.222
13.213994557076367 156.362
13.236442809902437 193.93900000000002
13.258909083908291 247.17700000000002
13.28135835851934 306.769
13.30382565690295 373.926
13.326293469022952 423.92900000000003
13.348744283242008 428.287
13.371213125129904 354.31
13.39366497011003 258.637
13.416134845360597 171.31900000000002
13.438605238843131 122.42299999999999
13.46105863690397 107.545
13.483530069144786 108.772
13.505984506951902 114.88799999999999
13.528456981549432 125.355
13.550929978879088 141.4
13.573385983253365 165.415
13.595860028340867 203.96900000000002
13.618317081455832 253.144
13.64079217790333 307.306
13.663250283359057 348.579
13.685726434770173 368.665
13.708203115221277 340.785
13.730662806148091 256.524
13.75314054697177 182.13
13.775601299246777 126.81
13.798080104050406 96.8924
13.820559442405358 85.5068
13.843021793671388 82.2896
13.865502201420897 80.4175
13.887965623051947 79.9284
13.910447103807167 78.6411
13.932929122629764 77.2851
13.955394156785959 77.0959
13.977877254034569 76.2753
14.000343367582113 75.7003
14.022827546871707 74.7209
14.045294743423524 73.8608
14.06778000837062 73.4575
14.090265817715476 73.2385
14.112734645763819 73.0372
14.13522154619454 72.5488
14.157691466286913 72.6087
14.180179461423874 72.4801
14.202668005486178 71.7325
14.22513957064374 71.1527
14.247629214846473 70.6882
14.270101881097517 70.5991
14.29259262906496 70.8366
14.315083930490205 71.1958
14.337558255389705 71.4868
14.360050666019726 71.1394
14.382526101071944 70.6154
14.405019624534942 69.6596
14.427513705993134 69.2692
14.449990813291825 69.3201
14.47248601302899 69.3278
14.49496423954951 69.3289
14.517460561197822 69.4804
14.539939910570322 69.0641
14.562437357763558 69.5882
14.58493536931253 70.7162
14.607416409993311 71.1162
14.62991555254159 71.8973
14.652397725157423 71.6855
14.674898002342799 71.3658
14.697398848433282 71.0486
14.719882725991326 71.845
14.74238471217934 73.1567
14.764869730765593 77.0959
14.787372860692983 81.2291
14.809876564079925 85.8154
14.83236330125751 91.6109
14.854868153850365 100.889
14.877356041159485 114.54799999999999
14.899862046604186 132.976
14.922351087688757 156.72899999999998
14.944858249632887 184.233
14.967365991421232 208.92
14.989856770231246 222.68200000000002
15.012365673994204 219.362
15.03485761569738 186.546
15.05736768508665 146.08
15.07987833888692 112.06
15.102372032001655 88.9946
15.124883856909658 76.4311
15.14737872204565 72.4105
15.169891721717274 70.9561
15.192405310371893 70.7457
15.214901940621196 70.9762
15.237416709527137 70.9507
15.259914520936249 71.0812
15.282430473753607 70.1319
15.304947020131227 68.9954
15.327446610371178 68.416
15.349964346154254 67.5728
15.372465126703139 67.3426
15.394984055556009 67.0514
15.417486030076159 66.9879
15.44000615566487 66.5612
15.462526881230803 66.2789
15.485030653812652 66.6383
15.507552581617434 66.7556
15.530057557334603 66.9094
15.55258069104857 66.7362
15.575104429329837 66.7156
15.597611216864632 66.2482
15.620136166564563 66.6115
15.6426441664095 67.935
15.665170331202765 70.9326
15.687697105158826 74.169
15.710206930593545 77.8339
15.732734925158933 82.0494
15.755245972089478 89.0013
15.77777519094324 97.9871
15.800287463046663 110.93799999999999
15.822817909869592 129.993
15.84534897229804 149.566
15.867863089299354 172.422
15.890395385222186 188.769
15.912910736597423 195.21
15.935444269699861 181.7
15.957978423016485 154.638
15.980495633101265 121.23
16.003031029129367 95.0685
16.02554948280019 75.9528
16.048086125229432 67.5657
16.070623392487107 65.1772
16.09314371869582 64.1789
16.11568223789321 63.5186
16.13820381691126 62.5005
16.160743591742527 61.6513
16.183283996022084 60.9737
16.205807461423195 59.8174
16.228349126881973 59.5443
16.25087385432698 59.2362
16.27341678466365 58.7469
16.29594277784926 58.6173
16.31848697676433 58.8423
16.341031811604868 58.7514
16.36355971058487 59.0103
16.3861058195587 58.5434
16.40863499352978 57.6374
16.431182380342005 57.0203
16.453730407713202 56.36600000000001
16.476261501364792 56.0767
16.498810812136167 55.7757
16.52134319004079 55.8858
16.54389378792203 55.8082
16.566445031001553 55.5892
16.588979342490088 55.5356
16.61153187824822 55.3269
16.634067483263312 55.2736
16.656621315414416 55.1347
16.679175797408888 54.7608
16.701713349928728 55.1337
16.72426913389191 55.3195
16.74680798922351 55.3133
16.76936507887444 55.3449
16.791905240734874 55.3317
16.814463639794468 55.1656
16.837022695210294 54.9481
16.859564824093756 55.5496
16.882125194503903 55.9796
16.904668639217885 56.6498
16.927230328348003 56.8441
16.949792678493612 56.9921
16.972338104193863 56.3306
16.994901778652235 56.053999999999995
17.017448529496576 55.9447
17.040013531998152 56.282
17.06257920018044 56.856
17.0851279459922 57.7296
17.107694947817667 58.6041
17.130245028099072 59.4804
17.15281336730298 61.0147
17.17536478578733 62.5641
17.19793446610687 64.7977
17.220504818648422 67.5742
17.243058251703697 70.5276
17.265629950971032 74.9259
17.288184731571736 78.6334
17.310757781306908 82.3582
17.33333150794385 83.6304
17.355888317140174 81.7527
17.37846339986244 77.6283
17.401021565958885 71.1694
17.42359800851343 66.0683
17.44617513265564 62.3491
17.468735341390783 60.5686
17.491261035594565 59.6059
17.51396340099364 59.3526
17.536490463869136 59.5553
17.559018209820174 59.4495
17.58154663977963 59.7376
17.604251766089718 59.8007
17.626781572227713 59.9114
17.64931206518155 60.576
17.671843245885103 60.9663
17.69455114821572 60.9441
17.717083712612634 61.3807
17.739616967569667 61.6866
17.762150914021706 62.0001
17.78486160749854 62.074
17.807396945166804 62.581
17.829932977143503 63.5226
17.85246970436452 65.4706
17.875183204129467 67.5347
17.897721330097664 69.7107
17.920260154126645 72.0135
17.942799677153296 75.3543
17.9655159983646 79.1343
17.988056927677544 84.6192
18.010598558807683 92.2415
18.033140892692916 101.97399999999999
18.05586005052525 111.78
18.07840379824407 123.125
18.10094825154059 134.079
18.12366954819864 141.554
18.146215420998306 142.401
18.16876200220057 132.797
18.191309292745153 117.78200000000001
18.214033452627167 103.40899999999999
18.236582170236648 92.1943
18.259131600016456 87.1967
18.281681742907335 87.6719
18.304408781233683 91.8653
18.32696035875955 96.5919
18.349512652227624 101.132
18.372065662579683 105.851
18.394795594587553 106.699
18.41735004715306 103.223
18.43990521943684 95.5856
18.46246111238171 86.3528
18.485193953325208 77.3943
18.507751296070428 70.1963
18.530309362314178 66.2121
18.552868153000343 63.9421
18.57560391815056 62.6638
18.59816416623245 62.1025
18.620725141597372 61.6855
18.643286845190268 61.2545
18.666025549835414 60.6047
18.688588718427933 60.1608
18.711152618092243 59.9776
18.73389353884365 59.7566
18.75645890921984 59.3147
18.77902501351406 58.9285
18.801591852673102 59.0411
18.824335739722738 58.364
18.846904057212626 58.5194
18.8694731124168 58.1469
18.89204290628315 58.0523
18.914789774966803 58.0545
18.937361054791623 57.5308
18.959933076131318 57.2567
18.982505839934877 57.3873
19.00525570560582 57.3417
19.027829963004184 57.3303
19.05040496572238 57.4455
19.072980714710468 57.3588
19.095733592739563 57.5503
19.11831084296757 57.8495
19.140888842324735 58.3956
19.16346759176222 58.6411
19.18622349753803 59.2714
19.208803755869358 60.2008
19.231384767143577 61.1318
19.253966532312948 62.6173
19.276725481241822 64.9643
19.29930876296784 67.4047
19.3218928014549 70.1293
19.34465404436217 73.1434
19.36723960516257 75.4971
19.389825925592426 76.5903
19.412413006605938 75.7004
19.43517731967805 72.5193
19.457765930683355 67.8141
19.48035530514408 63.3596
19.50294544401556 59.4415
19.525712842708348 56.8638
19.54830451925909 55.4035
19.570896963095727 54.5573
19.593490175174704 54.3464
19.616260674962184 54.3599
19.638855432416964 53.9953
19.661450960992624 54.1207
19.68404726164677 53.9494
19.706820878021247 53.8815
19.729418731756834 53.9337
19.752017360452857 53.5413
19.77461676506804 53.9262
19.797393513540218 54.106
19.819994478951667 54.486000000000004
19.84259622316767 54.9055
19.8651987471481 55.3325
19.887978643247177 55.5445
19.91058273574792 55.998999999999995
19.933187610901943 57.0339
19.955969879466828 58.2011
19.97857632894404 59.659
20.00118356396599 61.1927
20.023791585494575 63.2279
20.046577028914875 65.8789
20.069186632506966 67.8068
20.091797025500632 69.8437
20.114408208858933 70.6374
20.137196842715273 69.9501
20.159809615886765 68.4363
20.18242318232135 65.7487
20.20503754298326 63.8856
20.227829382875154 62.7497
20.250445341109344 62.7583
20.27306209647285 63.3924
20.29567964993108 64.4262
20.31847471147704 65.0961
20.34109387027612 66.0812
20.363713830075454 65.9808
20.386334591841646 64.3946
20.409132890679302 61.7362
20.431755265564437 58.2768
20.454378445325528 55.4606
20.477002430930366 53.7713
20.499803982716553 52.5353
20.522429589228004 51.7567
20.54505600449589 51.1654
20.567683229489194 51.1936
20.590488049900088 50.8028
20.61311690359731 50.3153
20.63574656993626 50.356
20.658553853717297 50.0192
20.681185154618298 49.968999999999994
20.703817271080066 49.8427
20.72645020407368 49.6807
20.749260783967177 49.6378
20.771895359337133 49.3989
20.794530754161617 49.1642
20.817166969412938 49.0997
20.83998086114876 49.1051
20.86261872660049 49.0713
20.885257415405402 48.9635
20.90789692853701 49.0195
20.930714147864748 48.9404
20.953355319030678 48.9636
20.97599731745334 49.0075
20.99864014410749 48.9793
21.021460706796564 49.0458
21.044105199328826 49.2539
21.06675052302631 49.4366
21.089396678865015 49.68899999999999
21.112220600704806 49.8902
21.134868430275347 50.3695
21.15751709492456 50.7032
21.180166595629693 50.7188
21.202993892429635 51.0342
21.22564507473034 51.5627
21.24829709602816 51.7089
21.27112693608965 51.8074
21.293780644891275 51.7296
21.316435195634053 51.1047
21.339090589297417 50.3612
21.361923832041875 49.8148
21.384580921090404 49.2643
21.407238856007325 48.816
21.429897637773326 48.7693
21.45273429906592 48.8437
21.475394784108598 48.8001
21.498056118951983 48.5591
21.520718304578022 48.8001
21.543558400304388 49.0262
21.566222297108816 49.2668
21.58888704765135 49.3086
21.61155265291521 49.8148
21.63439619898156 50.1289
21.657063523335786 50.3673
21.67973170537063 50.9554
21.7024007460706 51.5381
21.72524775840385 52.2027
21.747918526116475 53.2372
21.770590155457388 54.3391
21.79326264741238 56.2023
21.816113141960237 57.9399
21.838787368860547 59.5729
21.861462461341976 61.5875
21.884315579735777 63.3403
21.90699241312273 64.5868
21.92967011506078 65.2613
21.95234868653799 64.8573
21.9752053151131 63.6257
21.997885635446785 61.6551
22.020566828293532 59.7882
22.04324889464272 58.073
22.066109049404666 56.7642
22.088792872571794 56.3664
22.111477572219204 56.3346
22.1341631493376 56.4829
22.157026846313123 56.2912
22.179714188221507 55.6398
22.202402410582668 54.5623
22.22509151438863 53.1119
22.24795876962584 51.7325
22.270649646204486 50.7872
22.293341407213727 50.088
22.316034053646906 49.5883
22.338904883215342 49.4035
22.36159931041458 49.4164
22.38429462602756 49.4468
22.40699083104897 49.1392
22.429865251039757 49.1603
22.452563244831367 49.1585
22.47526213102522 49.2099
22.49813925616515 49.078
22.520839937143307 48.8193
22.543541513520587 48.8969
22.56624398629403 48.794
22.589124730075895 48.6903
22.611829005656723 49.0949
22.63453418063466 48.9374
22.657240256008077 49.2283
22.680124634582935 49.4587
22.70283252079775 49.6819
22.725541310413075 49.9838
22.74825100442868 50.1787
22.771139033969575 50.6927
22.79385054687155 51.0486
22.81656296718292 51.4999
22.83927629590484 52.4757
22.862167992606945 53.4894
22.88488314827121 54.5872
22.907599215359284 55.5566
22.93031619487366 56.5399
22.953211574954405 57.3792
22.975930389478226 58.3853
22.998650119445763 58.5128
23.02137076586092 57.6664
23.044269845560063 56.2739
23.06699233506288 54.5981
23.089715744034912 52.9805
23.112617610931565 51.2738
23.135342869061212 50.1533
23.158069049684816 49.5691
23.1807961538087 49.0326
23.20370174880544 49.1578
23.226430710184808 49.2571
23.249160598093425 49.2898
23.271891413539002 49.2007
23.294800752937697 49.2677
23.31753343374794 49.5308
23.340267045128353 49.5222
23.36300158808808 49.8804
23.38591468821339 50.1832
23.408651104658304 50.5509
23.431388455719986 51.2778
23.454126742409 52.2025
23.4770436196085 53.2587
23.499783787914662 54.4242
23.522524894889884 55.4743
23.54526694154616 56.3701
23.56818761219047 57.3748
23.59093154860734 57.7606
23.613676427751283 58.3523
23.636422250635754 57.3683
23.659346731118656 55.888999999999996
23.68209445191868 53.8095
23.704843119509587 52.0012
23.72759273490623 49.8185
23.750521041644767 48.4157
23.77327256312355 47.4385
23.796025035462787 46.9993
23.818956224555475 46.4365
23.841710609113413 46.2851
23.86446594758979 46.0017
23.887222241002014 45.835
23.910157285144578 45.6048
23.932915498962537 45.5174
23.955674670778713 45.3312
23.978434801611975 45.1308
24.001373717286125 44.9744
24.024135776723917 44.9802
24.046898798245582 44.8613
24.06966278287146 44.8048
24.092605586582614 44.5583
24.115371508023642 44.4312
24.1381383956401 44.2372
24.16090625045381 44.2045
24.183852958731244 44.2927
24.206622758582608 44.1239
24.229393528706886 43.8237
24.252165270127392 43.9554
24.27511589952438 43.9048
24.297889594216997 43.6109
24.32066426328598 43.6233
24.34343990775613 43.5672
24.36639447485003 43.402
24.38917208083877 43.3361
24.41195066531332 43.297
24.43490819850244 43.4604
24.457688750692377 43.2617
24.48047028445616 43.1547
24.503252800821233 43.3112
24.526214300784112 43.3635
24.548998793132213 43.3946
24.57178427117417 43.1688
24.59457073593893 43.1332
24.617536219319863 43.2389
24.64032466834748 43.3184
24.663114107195035 43.1615
24.685904536893013 42.8168
24.708874020360852 42.7723
24.731666442613744 42.6943
24.754459858818787 42.7017
24.777254270007962 42.5211
24.80022777025625 42.5846
24.82302418230472 42.5575
24.845821592443674 42.5935
24.86862000170663 42.4742
24.891597535453727 42.4312
24.914397953892728 42.672
24.93719937456671 42.5227
24.96000179851076 42.6092
24.98298338249997 42.9162
25.00578782394922 43.0341
25.028593271784167 43.1893
25.05157790644186 43.4388
25.07438537804115 43.6771
25.097193859145293 43.8191
25.120003350792075 44.0214
25.142992065061257 44.4677
25.165803588823465 44.6648
25.18861612625217 45.0685
25.211429678386736 44.9978
25.234422489079968 45.0952
25.257238081693636 45.0598
25.280054692141732 45.0646
25.3028723214652 45.1654
25.325869245420463 45.2135
25.348688923599397 45.1059
25.371509623787006 45.1587
25.394331347025812 44.8394
25.41733240110666 44.479
25.440156181590016 43.8544
25.46298098826268 43.1888
25.48580682216873 42.6612
25.50881202326435 42.0814
25.53163992281684 41.6853
25.55446885274561 41.5084
25.577298814096377 41.333999999999996
25.600308179121807 41.0002
25.623140214533745 41.1837
25.64597328451537 41.0681
25.66898578564376 40.857
25.691820936010206 40.8405
25.714657124097695 40.9683
25.737494350954734 40.8571
25.760511045684957 40.5988
25.783350361364224 40.6637
25.806190718969255 40.766
25.82903211955018 40.9212
25.852053024868923 40.943000000000005
25.874896522722523 40.9152
25.897741066713106 40.8945
25.920586657892454 41.0475
25.943611790812668 41.1375
25.966459487728237 41.2586
25.989308234998564 41.1952
26.01215803367705 41.6701
26.03518741123814 41.7174
26.05803932412957 41.863
26.080892291600094 41.8299
26.10374631470478 41.9443
26.12677995397268 42.0283
26.14963609978026 41.85
26.172493304397875 41.5975
26.19535156888223 41.5205
26.218389486949604 41.0858
26.241249882640123 40.6931
26.26411134137826 40.6584
26.28715248187403 40.6852
26.31001607820869 40.4038
26.3328807407756 40.3561
26.35574647063438 40.5
26.37879191991473 40.338
26.401659795896734 40.4268
26.424528742360263 40.609
26.447398760366614 40.742
26.470448535598294 40.7942
26.49332070826805 41.0309
26.516193955675355 41.3719
26.53906827888316 41.6343
26.562122397260108 41.6667
26.584998883685063 41.9197
26.607876449110325 42.1799
26.63075509460056 42.3542
26.65381357334404 42.4675
26.67669439061878 42.4253
26.699576291163382 42.2836
26.722459276044212 42.2397
26.745522132402975 41.9585
26.768407297649354 41.7244
26.791293550442003 41.3701
26.814180891848974 41.1397
26.837248143099337 40.8287
26.860137673466657 40.6728
26.88302829566349 40.3307
26.90592001075963 40.2901
26.92899167420566 40.1131
26.951885586870763 39.7288
26.974780595655517 39.5666
26.99785558178161 39.4607
27.020752794605112 39.3901
27.043651106772522 39.2517
27.06655051935668 39.1811
27.089629948036183 39.0181
27.112531573292053 38.9383
27.135434302194138 38.9689
27.158338135817015 38.7827
27.181422024430987 38.9508
27.204328079372566 38.6969
27.22723524226965 38.7465
27.250143514198573 38.8888
27.273231880156334 38.7459
27.296142382065014 38.6102
27.319053996245536 38.6862
27.341966723775965 38.6464
27.365059584515222 38.7699
27.38797455070062 38.7286
27.410890633481237 38.6695
27.433807833936918 38.69
27.456905206923906 38.742
27.47982465472398 38.7211
27.502745223449743 38.7236
27.525666914182825 38.7823
27.548768816912457 38.8174
27.571692763693633 38.7131
27.59461783573812 38.6492
27.617723149491244 38.6167
27.640650484125285 38.5662
27.66357894728264 38.4044
27.686508540048052 38.4468
27.709618414237887 38.2495
27.732550278321757 38.1211
27.755483275279115 38.0438
27.778417406196485 38.1489
27.801531858397514 38.0991
27.824468269376716 37.9653
27.847405817586786 37.992
27.870344504116094 38.2514
27.893463551932008 38.4156
27.916404527281053 38.6506
27.93934664422563 38.7634
27.962289903855886 38.6718
27.98541356491974 38.8911
28.00835912214229 38.9235
28.03130582533231 39.2989
28.054253675581805 39.3668
28.077381967556104 39.3486
28.100332124185126 39.2687
28.123283431160893 39.1047
28.146235889577238 38.9981
28.169368830154156 38.8712
28.192323603752033 38.6029
28.215279532083304 38.4037
28.238415973016764 38.0968
28.261374223145094 37.955999999999996
28.284333631303806 37.8643
28.307294198589954 37.7268
28.330435319167677 37.4115
28.353398217078915 37.1378
28.376362277420153 36.9317
28.39932750129032 36.7931
28.422473319286713 36.535
28.44544088262495 36.6495
28.468409612800283 36.4748
28.491379510913497 36.2838
28.51453004413313 36.1751
28.53750229057244 36.2015
28.56047570826344 36.0447
28.583450298308804 36.2234
28.606605564586562 35.9465
28.629582511831156 35.9736
28.65256063474956 35.7438
28.675539934446338 35.8286
28.698699951647605 35.8792
28.72168161743193 35.6983
28.74466446331978 35.7448
28.767648490417624 35.7077
28.790813276438353 35.7423
28.813799678527303 35.7029
28.836787265157085 35.6501
28.859955641890075 35.6312
28.882945610203045 35.8017
28.905936766392035 35.4938
28.928929111566863 35.5816
28.952102288520145 35.5453
28.975097024308607 35.3461
28.998092952423807 35.3298
29.021090073977508 35.1767
29.04426806913204 35.0841
29.067267590245258 34.8595
29.090268308143695 34.7624
29.11327022394099 34.7821
29.13645305530891 34.6695
29.159457379627167 34.5842
29.18246290519685 34.5218
29.20546963313352 34.6129
29.22865731875826 34.6958
29.25166646419296 34.6298
29.27467681535305 34.3433
29.29768837335608 34.6131
29.320880931312562 34.6363
29.34389491580634 34.5303
29.366910110507334 34.4693
29.38992651653503 34.5148
29.41312396492981 34.4857
29.436142806456754 34.4879
29.45916286268059 34.302
29.48236399319994 34.2044
29.50538649169417 34.0771
29.528410208259935 33.939
29.55143514402014 33.7243
29.574641196749695 33.6697
29.597668583816574 33.5445
29.6206971934585 33.2877
29.64372702680042 33.4402
29.666938019934474 33.1968
29.689970313635285 33.2116
29.713003834422636 33.0796
29.73603858342347 33.1485
29.759254535188578 32.9904
29.78229175361658 33.0635
29.80533020365064 33.0506
29.82836988641968 33.1421
29.85159081507472 33.0419
29.874632976355343 32.8452
29.89767637376955 33.0381
29.920721008448314 32.8081
29.9439469322847 32.7576
29.96699405457564 32.7656
29.9900424175358 32.84
30.013092022298157 32.7118
30.03632295963995 32.6655
30.059375061131373 32.8122
30.08242840783577 32.6663
30.105483000888153 32.7523
30.128718970092244 32.6627
30.151776069006917 32.5167
30.17483441768648 32.5834
30.198074175317235 32.5304
30.221135036724256 32.5771
30.24419715131772 32.5483
30.267260520236203 32.5104
30.290505341942243 32.5544
30.313571232750228 32.569
30.336638381310948 32.4447
30.35970678876503 32.3573
30.38295669299435 32.3325
30.40602763151657 32.2889
30.429099832366074 32.3319
30.452173296685572 32.2767
30.47542830191959 32.2884
30.498504306502497 32.2566
30.521581577995562 32.3262
30.544660117543582 32.3601
30.56792024229725 32.4132
30.59100133132069 32.3597
30.614083691845494 32.3448
30.637167325018545 32.3865
30.660432587840603 32.43
30.683518779717886 32.324
30.70660624769615 32.5073
30.729694992924372 32.4325
30.75296541239743 32.3875
30.77605672557558 32.3582
30.799149319462742 32.2679
30.8224236211637 32.2084
30.845518789950724 32.1282
30.868615242910597 32.0687
30.891712981195973 31.8829
30.91499247215866 31.8586
30.938092794619365 31.7831
30.96119440587579 31.7214
30.984297307082752 31.6519
31.00758200598383 31.4693
31.030687500658694 31.449
31.053794288760695 31.4017
31.076902371446767 31.2538
31.100192296997445 31.3264
31.12330298246119 31.314
31.14641496599209 31.2483
31.169528248749216 31.1988
31.19282341969534 31.0491
31.215939314557186 31.0972
31.239056512134788 31.1244
31.262175013589378 31.1303
31.28547544871168 31.0307
31.30859657161541 30.9808
31.331719001892175 30.9577
31.35484274070538 31.2058
31.378148458819545 31.1999
31.401274828443725 31.0711
31.424402510106933 31.1407
31.447712205419993 31.1385
31.470842524931633 31.1414
31.493974159989783 31.0721
31.51710711176168 31.0041
31.54042212308802 30.9919
31.563557722100917 31.0604
31.586694641341655 30.8237
31.609832881979628 30.7577
31.63315322823208 30.6639
31.656294125521327 30.4711
31.679436347728515 30.5048
31.70257989602529 30.4306
31.725905596152327 30.2967
31.74905181052835 30.3089
31.772199354521323 30.3776
31.79534822930507 30.3102
31.818679302290967 30.3902
31.84183085259981 30.2715
31.864983737233473 30.2939
31.88813795736804 30.3794
31.911474422233013 30.2284
31.934631327356435 30.3136
31.9577895715215 30.2545
31.980949155906522 30.2124
32.004291031706956 30.2629
32.027453310562606 30.0931
32.05061693318573 29.9279
32.07396288236386 29.9356
32.09712920658542 29.9456
32.12029687812702 29.7903
32.14346589817093 29.7105
32.166817291729984 29.7533
32.18998902288583 29.6724
32.21316210610336 29.5985
32.23633654256711 29.3997
32.259693399663725 29.4655
32.282870556771144 29.2884
32.30604907069099 29.3848
32.329228942610065 29.3044
32.35259128243769 29.1641
32.375773884550505 29.1363
32.398957848235646 29.0812
32.422143174682176 29.1204
32.445511016471215 28.9777
32.468699082679954 28.8136
32.49188851523011 28.8465
32.51507931531304 28.7667
32.538452678331 28.8541
32.56164622776311 28.7858
32.58484114831493 28.76
32.60803744118015 28.7902
32.631416344731896 28.7068
32.654615396551876 28.6489
32.67781582427913 28.6539
32.701198898634416 28.5571
32.72440209253756 28.535999999999998
32.747606665947124 28.5396
32.77081262006088 28.3125
32.79420126883317 28.3312
32.81740999876112 28.3932
32.840620112999424 28.2232
32.86383161274818 28.2169
32.88722585534586 28.1945
32.91044014056596 28.2747
32.933655814909734 28.138
32.95687287957963 28.2293
32.98027273544904 28.1386
33.00349259526636 28.0392
33.026713849030116 28.1968
33.04993649794511 28.0616
33.073341986570746 28.0153
33.09656744032826 27.9985
33.11979429286444 27.9078
33.14302254538647 27.9656
33.166433686291185 27.9293
33.18966475336992 27.9352
33.212897224069096 27.8522
33.23613109959831 27.863000000000003
33.259547912343415 27.785
33.2827846121627 27.7182
33.306022720453775 27.6902
33.32926223842861 27.5738
33.352684742614166 27.5793
33.37592709463173 27.7311
33.399170859982064 27.5158
33.422597648419426 27.4577
33.44584425514446 27.337
33.46909227885668 27.3314
33.4923417207723 27.234
33.51577423505344 27.1974
33.539026528130385 27.0885
33.56228024307245 27.0741
33.585535381098246 26.9889
33.60897364093058 26.8473
33.63223163992385 26.8715
33.6554910656699 26.8119
33.678751919389796 26.8329
33.702195944520106 26.8067
33.72545966903325 26.7985
33.74872482519663 26.7093
33.771991414233746 26.7724
33.79544122444841 26.6306
33.81871069412428 26.5518
33.84198160035767 26.4966
33.86525394437455 26.5353
33.88870955949969 26.554000000000002
33.911984794020626 26.5009
33.93526147001624 26.4321
33.958539588715006 26.4995
33.98200102861669 26.3302
34.0052820477047 26.2508
34.02856451319451 26.1529
34.05203033759056 26.1353
34.07531571090147 26.122
34.09860253431845 26.0681
34.121890809074316 26.0024
34.145362493118924 26.0753
34.16865368561615 25.9726
34.191946333164054 25.9263
34.21524043699793 25.939
34.23871800066799 25.8895
34.26201503218366 25.8043
34.28531352370466 25.8038
34.30861347646881 25.7481
34.33209693978188 25.6732
34.3553998301885 25.6347
34.378704185565205 25.6066
34.402010007152356 25.5024
34.42549939016683 25.5326
34.44880815937748 25.3731
34.472118398533134 25.4203
34.49543010887669 25.4629
34.51892543169198 25.3504
34.54224009966052 25.3507
34.56555624255917 25.2912
34.58887386163339 25.1451
34.61237514439016 25.1559
34.6356957311114 25.0949
34.65901779775809 25.1229
34.68252356662995 25.1838
34.705848608458616 25.0692
34.72917513396849 24.9652
34.75250314440949 25.0114
34.77601490857862 24.9365
34.799345904259795 24.8838
34.82267838863559 24.8858
34.846012362958525 24.7981
34.869530142679984 24.8566
34.89286711232212 24.8197
34.91620557568269 24.7451
34.93954553401677 24.6963
34.9630693495876 24.6454
34.986412313340814 24.7022
35.00975677584668 24.6853
35.033102738362956 24.4985
35.05663261012228 24.4767
35.0799815881786 24.4959
35.10333207003229 24.4528
35.12668405694369 24.4095
35.150220005273056 24.4537
35.17357501786656 24.3728
35.19693153931268 24.3758
35.220289570874385 24.3727
35.24383161619786 24.3443
35.267192683604904 24.2416
35.290555264930376 24.2025
35.314101899412165 24.2881
35.33746752422433 24.1451
35.36083466676374 24.2037
35.38420332829803 24.1306
35.407756095629054 24.1375
35.43112781085063 24.1341
35.45450104888391 24.0969
35.477875810999194 24.1106
35.50143473172161 24.0258
35.52481255774625 24.0444
35.54819191167777 23.9727
35.57157279478914 24.0136
35.595137889488406 23.9487
35.61852184675279 23.840999999999998
35.641907337029984 23.7077
35.665294361595684 23.7001
35.68886565090076 23.7905
35.7122557598848 23.7052
35.73564740699838 23.7805
35.759040593519934 23.6583
35.78261809810353 23.5911
35.80601437933051 23.5334
35.829412203814705 23.4929
35.85281157283719 23.3687
35.876395313415884 23.4602
35.8997977874528 23.3113
35.92320180988546 23.3393
35.946790244133936 23.2373
35.97019737933222 23.3077
35.993606066789866 23.2659
36.01701630779276 23.2449
36.04061101440684 23.1904
36.06402437852291 23.1263
36.08743930005611 23.0547
36.1108557802951 22.979
36.13445678011326 23.0476
36.15787639383515 23.103
36.18129757014299 23.0344
36.20472031032821 22.906999999999996
36.22832762423364 22.8304
36.25175350829375 22.878
36.275180960119776 22.8554
36.298609981005924 22.85
36.32222362992669 22.7988
36.34565580510207 22.7345
36.36908955323448 22.6982
36.39252487562093 22.6183
36.416144880530226 22.6142
36.43958336764275 22.5829
36.463023432914625 22.5956
36.486465077645676 22.5437
36.51009145956204 22.5606
36.53353627947859 22.5135
36.55698268276811 22.4899
36.58043067073321 22.4362
36.60406345072071 22.3404
36.62751462435344 22.3554
36.65096738658405 22.3861
36.67460498210655 22.2406
36.69806093788647 22.3125
36.72151848619297 22.2292
36.744977628333636 22.177
36.76862165890998 22.1273
36.79208400512205 22.122
36.81554794910557 22.1269
36.83901349217101 22.0274
36.862663978991606 21.9797
36.88613273667352 21.9544
36.90960309738324 21.9429
36.933075062434064 21.8554
36.95673202673572 21.8414
36.98020721697122 21.8474
37.003684015502365 21.6543
37.027162423645365 21.7646
37.050825886711465 21.7562
37.07430753063053 21.6934
37.09779078812467 21.607
37.121275660513014 21.5952
37.144945643673694 21.5214
37.16843376245278 21.4852
37.19192350009803 21.5795
37.215414857931435 21.503
37.239091382563885 21.498
37.262585997426164 21.4167
37.28608223645736 21.3834
37.309763684451696 21.3632
37.33326318851098 21.2951
37.356764320726555 21.2878
37.380267082425526 21.2671
37.40395510942588 21.2719
37.42746114683234 21.2152
37.45096881771841 21.0869
37.474478123414166 21.1815
37.49817275092816 21.1188
37.52168534303452 21.0698
37.54519957395567 20.9712
37.568715445024665 20.9206
37.592416694607714 20.9384
37.61593586281424 20.9496
37.63945667518264 20.9896
37.66297913304891 20.8968
37.68668702630454 20.8388
37.710212792059274 20.7848
37.733740207334854 20.7822
37.757269273470364 20.7116
37.780983832050374 20.5973
37.80451621684926 20.6078
37.82805025654007 20.5999
37.851585952464795 20.5853
37.8753071980695 20.5283
37.89884622345676 20.472
37.92238690911902 20.3993
37.94611318753442 20.3416
37.969657210779765 20.3843
37.99320289834801 20.4668
38.016750251586465 20.3071
38.04048325513017 20.3476
38.06403395679343 20.2307
38.087586328183946 20.2119
38.11114037065203 20.2265
38.13488012115898 20.2644
38.1584375229181 20.1413
38.181996599821 20.0259
38.205557353221124 20.0371
38.229303872575656 20.0102
38.2528679961576 20.064
38.27643380031219 20.0112
38.30000128639589 19.9858
38.32375459653193 20.0202
38.34732546371299 19.9266
38.37089801690786 19.8518
38.39447225747609 19.7904
38.418232380377425 19.7678
38.441810012983396 19.7991
38.46538933705673 19.7181
38.488970353960084 19.7292
38.51273731166058 19.7302
38.536321731567014 19.6383
38.55990784840681 19.5726
38.58367995004091 19.5695
38.60726947812959 19.4976
38.63086070726198 19.5187
38.654453638806274 19.5009
38.678232613930824 19.4432
38.70182896773327 19.3706
38.72542702806741 19.3615
38.7490267963045 19.3972
38.77281266709232 19.3939
38.79641586862214 19.3202
38.8200207821842 19.2879
38.843627409152944 19.2689
38.86742019782782 19.2174
38.891030269149255 19.0928
38.914642058016156 19.1571
38.938255565806124 19.2145
38.96205529464307 19.0709
38.98567225787121 19.1193
39.00929094417078 19.0945
39.03291135492255 19.0108
39.05671804624804 19.0198
39.080341923549106 18.9811
39.103967529460334 18.9295
39.127594865365744 18.8823
39.15140854155791 18.8035
39.17503935514948 18.8216
39.19867190290282 18.8157
39.22249083587951 18.7387
39.24612686969409 18.7547
39.269764641845306 18.7566
39.293404153722804 18.7177
39.317230110864074 18.6439
39.34087311998506 18.6137
39.36451787301696 18.611
39.388164371352595 18.4936
39.41199737518003 18.5063
39.43564738196752 18.4746
39.45929913825317 18.4888
39.48295264543308 18.4188
39.506792718520884 18.3716
39.530449745387216 18.438
39.55410852735203 18.3442
39.57776906581474 18.4125
39.60161623079 18.2854
39.625280300200025 18.2387
39.64894613032202 18.2344
39.67261372255866 18.2506
39.6964680021016 18.1729
39.72013913657293 18.2155
39.74381203738292 18.1353
39.76748670593756 18.1248
39.79134812278169 18.0956
39.81502634488497 18.0335
39.83870633896685 18.0382
39.862388106436654 17.9894
39.88625668336918 17.919
39.90994201572829 17.9283
39.933629125719285 17.8457
39.957503091207826 17.8456
39.9811937746168 17.863
40.00488623990914 17.7863
40.02858048850006 17.7215
40.05246165409549 17.7668
40.076159487492085 17.6943
40.099859108448875 17.7265
40.123560518384345 17.6506
40.1474489070226 17.7272
40.171153913178564 17.6218
40.194860712584955 17.5374
40.2185693066637 17.5214
40.242464941335314 17.4781
40.26617714307655 17.4159
40.289891143772046 17.5084
40.3136069448471 17.438
40.33750984859743 17.4391
40.3612292688043 17.3144
40.3849504936829 17.3948
40.40867352466194 17.3656
40.43258372059144 17.284000000000002
40.45631038219906 17.2821
40.48003885420956 17.2216
40.503769138055105 17.227
40.52768664931955 17.2631
40.55142057531802 17.2138
40.57515631746428 17.1871
40.599079334038514 17.1153
40.62281872700477 17.0958
40.64655994043941 17.0653
40.67030297578061 17.0725
40.69423334835778 17.0424
40.71798004609188 17.0274
40.74172857006355 16.9464
40.76547892171441 16.9353
40.7894166736039 16.8944
40.813170699248566 16.9177
40.83692655691388 16.889
40.86068424804498 16.8776
40.884629402612525 16.7874
40.908390779366385 16.7697
40.932153993938 16.7496
40.95591904777605 16.6566
40.979871628443995 16.7309
41.003640379561936 16.7751
41.02741097430883 16.6636
41.05118341413683 16.5678
41.075143444384416 16.5357
41.098919593177826 16.5629
41.1226975914255 16.5584
41.14647744058318 16.4568
41.170444943946755 16.4789
41.19422851378379 16.4676
41.218013938914645 16.4635
41.24198706625173 16.3483
41.26577622087193 16.3435
41.289567235177785 16.3463
41.31336011063129 16.3126
41.337340752422875 16.2352
41.361137369129835 16.2659
41.38493585138705 16.2552
41.40873620066004 16.1673
41.43272438060107 16.1773
41.45652848292052 16.1391
41.48033445666918 16.0956
41.50414230331616 16.0854
41.528138045159764 16.0659
41.551949656675205 16.0011
41.575763145513235 15.9555
41.59957851314666 15.9999
41.62358184070442 15.9612
41.64740098505737 15.9066
41.6712220126409 15.8571
41.69504492493139 15.8643
41.71905586207357 15.8746
41.74288256296395 15.8213
41.766711153007456 15.8357
41.79054163368412 15.8104
41.814560204340054 15.8086
41.838394485526365 15.7258
41.86223066180303 15.7366
41.88625497706819 15.6753
41.910094962812 15.6125
41.93393684811168 15.6181
41.95778063445365 15.5377
41.981812625263366 15.5178
42.00566023303407 15.4533
42.029509746323676 15.5154
42.05336116662236 15.4936
42.077400857069705 15.4592
42.10125611078846 15.4367
42.12511327600405 15.386
42.14897235421036 15.3635
42.173019768448455 15.366
42.19688269209613 15.335999999999999
42.22074753323349 15.3265
42.24461429335818 15.2429
42.268669455600495 15.2283
42.292540073217886 15.2278
42.31641261433284 15.2013
42.34028708044675 15.2077
42.36435001496739 15.174000000000001
42.38822835065557 15.1904
42.41210861586426 15.1104
42.4359908120986 15.0969
42.46006154323262 15.0655
42.48394762115317 15.0311
42.507835634632315 14.997
42.531912233047436 14.9742
42.55580413732265 14.9308
42.579697981698 14.9055
42.60359376768525 14.8916
42.62767820545945 14.8614
42.65157789440821 14.8435
42.67547952952185 14.8008
42.699383112316 14.7609
42.72347541395347 14.7307
42.74738291190531 14.7163
42.771292362102166 14.7124
42.795203766063516 14.67
42.819303956130405 14.6639
42.843219287476536 14.6477
42.86713657716324 14.645
42.89105582671383 14.575999999999999
42.91516392983864 14.5839
42.939087119032166 14.5817
42.963012272677304 14.5427
42.98693939230129 14.5143
43.01105543317513 14.4575
43.034986504731386 14.4857
43.05891954686589 14.4317
43.08285456110972 14.3944
43.10697856448665 14.3468
43.130917542983475 14.3573
43.15485849820081 14.3136
43.17880143167367 14.2425
43.20293342237094 14.2158
43.226880332449 14.2637
43.25082922540554 14.2523
43.27496722682525 14.1772
43.29892010567796 14.1792
43.32287497204102 14.1094
43.34683182745632 14.0847
43.370977859791836 14.1188
43.39493871351105 14.0616
43.41890156092628 14.055
43.44286640358341 14.0569
43.46702049182749 14.0153
43.49098934522816 13.9305
43.51496019852649 13.9557
43.5389330532723 13.8817
43.56309522248204 13.9135
43.58707210044314 13.8397
43.61105098451946 13.8158
43.63503187626491 13.7928
43.659202151562134 13.7944
43.68318707902681 13.79
43.70717401884041 13.7474
43.731162972560874 13.7444
43.75534137913236 13.7398
43.779334381108384 13.695
43.803329401683186 13.616
43.82732644241872 13.6294
43.8515130055166 13.6181
43.87551410707659 13.5875
43.89951723350145 13.5713
43.923709934595614 13.5407
43.94771713129917 13.5185
43.97172635758096 13.5108
43.99573761501002 13.463
44.0199385169922 13.4614
44.04395385732619 13.4568
44.067971233533086 13.3962
44.09199064718605 13.3177
44.11619977548961 13.332
44.14022328470671 13.3198
44.16424883610785 13.3172
44.18827643127035 13.3228
44.21249381139513 13.3086
44.236525514814076 13.2254
44.26055926674478 13.241
44.28459506876863 13.2359
44.3088207262813 13.1605
44.33286064928722 13.1236
44.35690262714919 13.1571
44.38094666145278 13.0832
44.4051806219871 13.1178
44.42922879003185 13.0884
44.45327901929361 13.0408
44.477331311362136 13.071
44.501573600619416 12.9627
44.525630039221795 12.9756
44.54968854541895 12.9507
44.573937102200176 12.9572
44.5979997645541 12.9349
44.622064499300315 12.8954
44.64613130803592 12.86
44.67038823869318 12.8674
44.69445921643748 12.8082
44.718532272981385 12.7725
44.742607409926194 12.7722
44.76687274034801 12.7644
44.79095205918753 12.6734
44.81503346325094 12.7131
44.839116954143876 12.7073
44.86339071028742 12.6702
44.88747839599524 12.6679
44.91156817336837 12.6166
44.93566004401666 12.5536
44.959942251908146 12.5612
44.984038330325966 12.5356
45.00813650686762 12.4663
45.03223678314731 12.4818
45.05652746888232 12.4384
45.08063196592069 12.4445
45.104738567558705 12.4321
45.128847275414856 12.4351
45.15314646515866 12.374
45.17725940679741 12.3633
45.20137445952892 12.3596
45.22568004865265 12.3481
45.24979934496396 12.2836
45.27392075725247 12.2914
45.29804428714431 12.2775
45.322358426247604 12.2551
45.346486212804315 12.2017
45.370616121861914 12.2243
45.39474815505086 12.1884
45.41907087049246 12.1315
45.4432071734666 12.1044
45.46734560548283 12.1513
45.49148616817604 12.1175
45.51581748638564 12.0548
45.5399623320197 12.0315
45.56410931325473 12.009
45.58825843173002 12.0383
45.61259837920865 11.9599
45.636751793816 11.9645
45.66090735060093 11.921
45.68506505120716 11.9006
45.7094136545275 11.901
45.73357566449271 11.8447
45.75773982322992 11.8265
45.78190613238733 11.8539
45.806263418194064 11.7927
45.83043404997326 11.7571
45.85460683713677 11.7671
45.87897065658495 11.7333
45.90314777634752 11.72
45.92732705646868 11.7358
45.9515084986045 11.7567
45.97588104735473 11.7058
46.00006683541565 11.6312
46.02425479047904 11.6146
46.04844491420549 11.5986
46.0728262191024 11.5973
46.09702070211635 11.595999999999998
46.12121735879483 11.5832
46.14541619080294 11.5343
46.169806278764455 11.5082
46.194009483459034 11.5388
46.21821486849841 11.4818
46.24242243555223 11.4612
46.266821333570014 11.3832
46.29103328674601 11.3978
46.31524742696538 11.3598
46.33946375590237 11.3704
46.36387149104216 11.3554
46.38809221957392 11.3019
46.41231514186606 11.3167
46.436540259597464 11.2652
46.460956858999374 11.2143
46.48518638983522 11.2158
46.509418121166966 11.217
46.533652054678114 11.2278
46.55807754555709 11.1654
46.58231590571962 11.1787
46.60655647313217 11.1302
46.630988654873654 11.088
46.655233659129024 11.075
46.67948087571551 11.0304
46.70373030632484 11.0718
46.72817142736393 11.0648
46.752425308428684 10.9813
46.77668140861147 10.9785
46.80093972960865 10.9164
46.82538981736788 10.9396
46.849652602470904 10.8915
46.87391761349769 10.8974
46.8981848521493 10.8667
46.9226439341274 10.8627
46.946915650573224 10.8225
46.97118959976749 10.822000000000001
46.99546578341598 10.7503
47.019933887188216 10.7669
47.04421456235744 10.7445
47.06849747711879 10.7524
47.09278263318286 10.7196
47.11725978640143 10.6417
47.14154944775105 10.6433
47.165841355555656 10.6365
47.1901355115306 10.6231
47.214621741924994 10.6317
47.23892041698887 10.6336
47.26322134538975 10.5661
47.28771440635075 10.555
47.31201986422527 10.524000000000001
47.33632758061436 10.5522
47.360637557241866 10.5257
47.38513974410611 10.4965
47.40945426407847 10.4689
47.43377104948137 10.4722
47.45809010204344 10.4368
47.48260144275502 10.3887
47.506925052572285 10.387
47.53125093475548 10.3768
47.55557909103813 10.3176
47.58009961361992 10.3008
47.60443234110732 10.2883
47.62876734791564 10.2753
47.65310463578333 10.2786
47.6776343683373 10.2538
47.7019762413987 10.2148
47.72632040075572 10.2091
47.75066684815169 10.1844
47.77520581885936 10.1438
47.799556865477655 10.1245
47.823910205386 10.1549
47.84826584033272 10.1318
47.87281407745551 10.0764
47.89717432569297 10.0999
47.92153687423484 10.0678
47.94609208429692 10.0779
47.97045925671401 10.0263
47.99482873471275 9.996210000000001
48.01920052005013 9.99917
48.04376504619224 9.9834
48.068141469543484 9.972560000000001
48.09252020552573 9.959430000000001
48.11690125590099 9.93716
48.1414751266064 9.9067
48.16586082917454 9.88768
48.19024885144316 9.8144
48.2146391951793 9.81822
48.239222439012764 9.841339999999999
48.26361744916137 9.81964
48.28801478610016 9.792539999999999
48.31241445160131 9.83394
48.337007097209366 9.749410000000001
48.36141144338331 9.74962
48.38581812345755 9.7186
48.41022713920929 9.73512
48.434829215320704 9.66274
48.45924292604658 9.7028
48.48365897780325 9.666
48.50807737237308 9.62226
48.532688907799276 9.6289
48.55711201168574 9.60953
48.581537463754074 9.58732
48.60615611725119 9.59553
48.63058628942721 9.570780000000001
48.65501881516546 9.520430000000001
48.6794536962573 9.514489999999999
48.70408185970339 9.51062
48.72852147531801 9.51515
48.75296345168211 9.44095
48.77740779059232 9.426919999999999
48.80204549302823 9.44133
48.82649458091802 9.4206
48.85094603676547 9.42261
48.87539986237231 9.401769999999999
48.90004713292306 9.37853
48.92450572200832 9.342880000000001
48.94896668628025 9.31321
48.97343002754588 9.28483
48.99808689542115 9.27759
49.02255501470614 9.27582
49.04702551642794 9.31484
49.0714984023988 9.26406
49.096164896893235 9.23873
49.120642575466796 9.19537
49.145122643748394 9.18019
49.16960510355558 9.15502
49.19428125404938 9.15156
49.2187685210852 9.15555
49.243258185121555 9.11802
49.26794160167084 9.1124
49.2924360839405 9.133560000000001
49.31693296869764 9.05138
49.34143225776915 9.03767
49.36612538195438 9.03106
49.39062950396021 9.023639999999999
49.41513603578346 9.01158
49.4396449792564 8.96373
49.46434784069503 8.99342
49.488861631846454 8.91872
49.513377840166804 8.93905
49.537896467493745 8.909130000000001
49.56260909589029 8.86882
49.587132585683285 8.86449
49.611658500018365 8.83997
49.636186840738596 8.83872
49.66090926588511 8.82666
49.685442483902584 8.81473
49.70997813385706 8.78705
49.734516217597076 8.77899
49.75924846937352 8.757639999999999
49.7837914452858 8.7343
49.80833686055187 8.6671
49.83288471702571 8.701080000000001
49.85762682540054 8.67871
49.882179588965734 8.6324
49.9067347993235 8.62833
49.93129245833333 8.62347
49.95604445336378 8.59635
49.98060703442832 8.60697
50.005172069746266 8.58913
50.02993150438364 8.57921
50.05450147301533 8.55293
50.07907390151433 8.525730000000001
50.10364879174981 8.509730000000001
50.12841816587289 8.488760000000001
50.1529980044635 8.48725
50.17758031042124 8.48242
50.20216508562089 8.46418
50.22694442953363 8.42965
50.25153416817468 8.39555
50.27612638170508 8.426219999999999
50.300721072005196 8.38015
50.325510416102105 8.35008
50.350110084975064 8.35063
50.37471223628208 8.35926
50.39931687190919 8.34486
50.424116246675766 8.3143
50.44872587605249 8.292489999999999
50.47333799543065 8.281310000000001
50.49795260670191 8.26003
50.52276204271512 8.24692
50.54738166295838 8.2304
50.57200378079314 8.2281
50.596628398116835 8.21175
50.62144792604559 8.17563
50.646077567609396 8.14639
50.670709714377715 8.1753
50.69553683636198 8.12626
50.72017401885922 8.083219999999999
50.7448137122895 8.10845
50.76945591856022 8.09944
50.79429318636823 8.055819999999999
50.818940443716784 8.059510000000001
50.84359021965163 8.06152
50.868242516085964 8.039810000000001
50.893089960641895 8.02966
50.917747323549435 8.01946
50.94240721271973 7.9823699999999995
50.96706963007175 7.94953
50.99192728239342 7.9088199999999995
51.01659478166073 7.93744
51.04126481489051 7.93205
51.06593738400761 7.90285
51.090805275207074 7.89228
51.11548294172845 7.867139999999999
51.14016314993547 7.86567
51.164845901758845 7.840669999999999
51.18972406304274 7.837089999999999
51.21441192780656 7.792999999999999
51.23910234200271 7.76394
51.2637953075678 7.801839999999999
51.288683770237945 7.755789999999999
51.31338186432707 7.72
51.33808251561888 7.72925
51.362978729967345 7.69274
51.387684521509755 7.71398
51.41239287610203 7.66985
51.437103795691165 7.650060000000001
51.46201036644977 7.640569999999999
51.486726441956634 7.631889999999999
51.51144508832545 7.6390899999999995
51.536166307509156 7.60562
51.56108326624387 7.56618
51.58580965706056 7.566339999999999
51.61053862657523 7.527480000000001
51.635270176746864 7.5219
51.66019755512065 7.49715
51.68493429268881 7.4897100000000005
51.70967361681515 7.489789999999999
51.73441552946465 7.445189999999999
51.759353359237934 7.49511
51.7841004750961 7.464589999999999
51.80885018539685 7.480639999999999
51.833602492111254 7.3978
51.8585508051424 7.3803600000000005
51.883308330926425 7.38824
51.90806845906181 7.32875
51.932831191525715 7.32252
51.95779001977161 7.31585
51.98255798721516 7.327160000000001
52.00732856494335 7.29845
52.03229530577543 7.32647
52.057071130455945 7.29709
52.081849571391054 7.27234
52.106630630568695 7.262230000000001
52.13160794279417 7.21753
52.15639426492067 7.22997
52.18118321127822 7.21984
52.205974783860896 7.17815
52.23096269971011 7.167039999999999
52.255759551287994 7.16661
52.280559035098186 7.145789999999999
52.30536115314103 7.1376
52.33035970494467 7.109139999999999
52.35516711807904 7.1074
52.37997717147198 7.087339999999999
52.40478986713005 7.09007
52.42979908731974 7.06643
52.454617094216 7.064769999999999
52.47943774942214 6.99712
52.50426105495102 6.9839199999999995
52.529280976059844 6.9797
52.554109609024096 6.9774
52.57894089837482 6.97475
52.60377484613117 6.9529
52.62880550079408 6.93847
52.65364479223379 6.94227
52.67848674816189 6.9063300000000005
52.70352547971946 6.8731100000000005
52.72837279155837 6.86528
52.753222773982785 6.858810000000001
52.778075429022984 6.82292
52.80312495150885 6.86155
52.827982978797436 6.82862
52.85284368481815 6.80088
52.87770707160767 6.8
52.90276741793998 6.7527
52.92763619336701 6.781110000000001
52.952507655698504 6.766360000000001
52.977381806977576 6.72721
53.00245301017842 6.71886
53.02733256653592 6.7298
53.052214817996074 6.7107600000000005
53.077099766608484 6.6581
53.102181859804446 6.64838
53.127072229988265 6.693630000000001
53.15196530349892 6.62672
53.17686108239249 6.61896
53.20195409881522 6.627689999999999
53.22685531582556 6.566669999999999
53.25175924441303 6.52808
53.27666588664027 6.55895
53.30176985962693 6.55628
53.3266819565689 6.51436
53.35159677336455 6.520569999999999
53.376514312083096 6.51847
53.40162927507703 6.48144
53.42655228516116 6.46264
53.45147802340193 6.47524
53.47660125628886 6.4585
53.50153247842639 6.4399
53.52646643496923 6.42438
53.55140312799818 6.4257800000000005
53.576537409691696 6.42659
53.60147960336152 6.37334
53.626424539786164 6.40868
53.65137222105307 6.36701
53.67651758529126 6.36278
53.70147078399681 6.29191
53.72642673383343 6.32529
53.75138543689533 6.30234
53.776541917524526 6.27487
53.801506154876755 6.26229
53.826473151763246 6.27907
53.851442910284916 6.22253
53.87661054126026 6.23951
53.9015858509782 6.211
53.92656392866066 6.1986300000000005
53.95154477641532 6.17558
53.976723591801296 6.15221
54.00171000771266 6.13319
54.02669920004598 6.14105
54.051691170915745 6.12649
54.076881204886796 6.1907
54.101878760928514 6.16028
54.12687910187696 6.07057
54.152077577768296 6.08157
54.1770835166946 6.01864
54.20209224691339 6.04243
54.22710377055121 6.01775
54.25231352511594 6.00874
54.27733066384342 5.99435
54.30235060239643 6.03378
54.32737334290836 5.997269999999999
54.35259441062629 5.91517
54.377622783395324 5.89783
54.40265396455061 5.91716
54.42768795623251 5.8968300000000005
54.45292037169559 5.8578
54.477960012857906 5.9321
54.50300247099511 5.8733900000000006
54.52804774825457 5.81439
54.55329154616743 5.80164
54.57834249018678 5.76054
54.6033962597977 5.73476
54.6284528571545 5.7651
54.653708072335164 5.71281
54.67877035378786 5.6672400000000005
54.70383546947698 5.68136
54.72890342156389 5.69139
54.7541700889442 5.69492
54.77924374251975 5.66686
54.8043202390049 5.56851
54.82959552413022 5.55324
54.8546777351945 5.57676
54.87976279569621 5.568280000000001
54.90485070780914 5.56759
54.930137506558005 5.50346
54.95523115074295 5.48454
54.98032765308844 5.42882
55.005427015775496 5.50174
55.03072536339621 5.4877
55.05583047570572 5.42059
55.080938454927676 5.40104
55.10604930325027 5.36903
55.131359235107396 5.38895
55.15647585066083 5.32447
55.181595341907496 5.28527
55.20671771104285 5.2861400000000005
55.232039262617704 5.27982
55.25716741665048 5.248480000000001
55.28229845518636 5.257569999999999
55.30743238042802 5.17096
55.33276558731939 5.1502
55.357905315183636 5.18029
55.383047936390035 5.153969999999999
55.40819345314859 5.0827599999999995
55.433538351073295 5.07889
55.458689688238415 5.11325
55.483843927614096 5.06608
55.509197623043605 5.05056
55.53435769621134 4.97082
55.55952067826466 5.01156
55.5846865714265 4.98838
55.61005202069737 4.93276
55.63522376553902 4.91236
55.66039842818645 4.926
55.68557601087004 4.86992
55.7109532500271 4.830430000000001
55.73613670233794 4.836
