TT I
1.2716486653135266 7.66829
1.2939594142134223 7.3044
1.3162702121660406 6.92421
1.3385810600174564 6.47069
1.3608919586137629 7.165539999999999
1.383202908801069 6.58714
1.405513911425503 5.6691
1.4278249673332093 6.19008
1.4501343378461518 6.09696
1.4724455028545926 6.04343
1.4947567236847858 6.19008
1.517068001182951 6.67731
1.5393793361953272 6.07179
1.5616907295681737 5.59129
1.5840021821477681 5.42963
1.60631369478041 5.2245099999999995
1.6286252683124185 5.31302
1.6509369035901333 5.08018
1.6732468618895553 4.93251
1.695558623192809 5.20755
1.7178704487808514 5.504980000000001
1.7401823395001077 5.17191
1.7625012545597203 4.77613
1.7848028405262486 5.07468
1.8071218901122095 4.45582
1.8294236121921872 4.17638
1.8517427996910911 4.95183
1.8740620574440425 5.137490000000001
1.8963639900671978 4.75012
1.9186833908139995 4.52819
1.9409854680117449 4.45629
1.9633050151394713 4.59711
1.9856246367570705 4.603269999999999
2.0079269371922672 4.2816
2.03024671027244 5.02686
2.0525491637446027 4.18852
2.074869091674931 4.4435
2.097171701569106 4.92266
2.1194917877373847 4.69069
2.141811954326636 4.88831
2.164114805233074 4.58761
2.186435135143035 5.22967
2.208738150935709 9.45087
2.231058647554722 18.2891
2.2533792288321184 14.4638
2.275682498336085 7.44839
2.298003251406138 5.5701
2.3203066942619714 5.68115
2.3426276225136022 5.57486
2.3649486396617507 5.3745400000000005
2.387252348930071 5.44806
2.4095735463442893 5.81112
2.4318774374315884 5.400519999999999
2.4541988185014043 5.82302
2.476502894794693 6.51701
2.498824462909887 6.61487
2.521146125856138 6.645980000000001
2.5434504863470337 7.116739999999999
2.5657723414244717 7.4008899999999995
2.588076895590662 7.68792
2.610398946189713 8.169139999999999
2.6327210958598384 7.6703399999999995
2.6550259469304716 7.6274
2.6773482972090137 8.1499
2.6996533504259 8.21367
2.7219759047039602 8.25353
2.744298562293959 8.31502
2.7666039251246595 8.07702
2.7889267918020164 8.1492
2.8112323652516555 7.9576
2.833555444408179 8.08867
2.8558786311183852 8.47488
2.8781845268938557 9.05532
2.9005079311721484 9.16516
2.9228140460410397 8.67484
2.9451376712799635 8.975
2.967444008632326 9.5846
2.9897678582247247 9.80649
3.0120918213106695 10.3
3.0343984987899373 10.4873
3.0567226913198637 10.7798
3.079029599759726 11.3564
3.101354025127254 11.8864
3.123678568232338 12.696
3.145985829517914 12.5463
3.16831061055229 13.3999
3.1906181112775593 14.2761
3.212943133635653 14.9441
3.2352682779763207 14.8473
3.2575761442691227 15.3027
3.2799015350264273 15.5284
3.302209649240067 16.2821
3.3245352898092655 16.8183
3.3468436553365257 17.1536
3.369169549113219 17.3904
3.3914955708171384 18.2332
3.413804319727358 18.8167
3.4361305997334863 18.7496
3.4584396084414553 19.0961
3.4807661501462652 19.7859
3.503092824025881 20.6301
3.5254022288463154 21.0882
3.5477291695206588 21.6583
3.5700388426251948 21.6395
3.5923660534916446 23.1583
3.6146934007816114 32.4261
3.637003482731501 60.6148
3.6593311053109985 65.7436
3.681641464033634 42.3572
3.7039693653009733 27.6229
3.726297407241705 25.3989
3.7486081875460804 25.2658
3.7709365132734978 25.8763
3.793247578841633 26.0899
3.8155761917550093 26.4048
3.8378875459837216 27.0197
3.8602164494827234 27.0571
3.882545499606844 27.8945
3.9048572932539183 28.4853
3.9271866390645718 28.7087
3.9494987298666713 29.2796
3.971828374764527 30.1036
3.9941581705403255 30.5454
4.016470713506008 31.1706
4.038800813471445 31.9556
4.061113662089144 32.218
4.0834440696459176 32.9546
4.105774632334751 33.7872
4.128087945865126 34.4343
4.150418821249301 35.0823
4.172732448931298 35.7617
4.195063640413578 37.2347
4.2173775856475215 39.7006
4.239709096631102 57.9022
4.262040768704612 149.013
4.284355196706267 193.93
4.306687193387355 129.501
4.329001947444346 62.4858
4.35133427213731 44.92
4.373666762177566 43.3857
4.395982011761091 43.5613
4.418314834921175 44.5243
4.44063041906622 49.8773
4.4629635787515625 55.5482
4.4852969080429785 56.4247
4.5076130004776225 52.8361
4.529946671403969 52.9011
4.552263106909177 55.2357
4.574597122877047 54.3886
4.596931312711224 52.9959
4.619248269273446 52.9393
4.6415828092605835 54.2368
4.663900117405352 55.2505
4.686235010953232 56.9107
4.708552674085913 58.5426
4.730887924602802 59.9673
4.753223354952695 61.3956
4.775541557023902 64.1647
4.797877349456786 66.3382
4.820195915032126 67.1033
4.842532072957498 67.9148
4.864868414979744 70.1673
4.88718753227192 73.4431
4.909524244902505 75.3566
4.931843734218147 76.1016
4.954180820867835 78.2313
4.976518095879839 81.0543
4.998838149695359 83.5927
5.021175803844231 87.2436
5.043496238205739 91.1507
5.065834274903528 95.3699
5.088172504230693 100.85600000000001
5.1104935158799565 106.79
5.132832132875765 126.031
5.155153533596801 159.076
5.1774925416746225 202.872
5.199814334878411 419.365
5.2221537374521505 1109.61
5.244493338631803 3022.83
5.266815727034316 7833.45
5.289155727832427 12782.9
5.311478517248165 8646.25
5.333818921080011 2681.03
5.356159527788849 530.188
5.3784829252032536 191.673
5.400823940070432 149.082
5.423147747031976 129.35
5.445489173474152 119.059
5.467830807066149 116.34100000000001
5.490155234831516 114.302
5.512497285125229 108.814
5.534822130975162 105.306
5.557164601388673 102.00200000000001
5.579489868738879 99.4809
5.601832762690846 98.4212
5.6241758697774475 97.3701
5.646501775867269 96.5092
5.668845311622074 95.0282
5.691171647754637 94.2883
5.713515615597765 93.4391
5.735859800852677 93.0256
5.758186788542988 93.0363
5.780531411018185 95.0816
5.802858837297399 94.8067
5.825203900414495 94.6748
5.8475491852224 96.5344
5.869877275883075 96.6774
5.892223006467101 96.0686
5.914551544266608 95.7613
5.936897724049891 98.1085
5.959244129804903 105.444
5.981573344815301 133.289
6.0039202049061 245.59400000000002
6.026249875609095 504.33
6.04859719346037 1019.7
6.070927323278297 2267.53
6.093275102315365 4578.14
6.115623113320588 5185.29
6.137953938319995 3156.33
6.160302415650845 923.296
6.182633708324452 217.23
6.2049826554078376 110.71700000000001
6.227331838745022 91.3142
6.249663839443684 84.3991
6.27201349767565 81.2513
6.294345974611799 83.5503
6.316696111167083 88.4537
6.339046488263839 84.7149
6.361379686074702 75.6435
6.383730546639482 70.92399999999999
6.406064229255215 68.9436
6.428415576718203 69.258
6.450749747566656 68.0487
6.47310158535871 66.2657
6.495453669698332 65.396
6.517788579421056 64.855
6.540141159237969 63.4449
6.562476565766648 62.6457
6.5848296444934045 62.7389
6.607182974060425 62.3504
6.6295191323281015 62.3629
6.651872965955752 63.94
6.6742096296068985 78.0189
6.6965639707294615 103.59299999999999
6.71891856698715 103.647
6.741255995248479 78.8748
6.763611104154477 63.8534
6.785949046381137 59.3278
6.808304671371482 58.6068
6.8306605557940046 59.0451
6.852999275508618 58.2484
6.875355681171544 57.4234
6.897694923437771 56.407
6.92005185377892 56.3343
6.9423916220322655 56.083
6.964749080490181 55.2104
6.987106804399774 55.2003
7.009447368180821 55.8771
7.031805625367033 55.2096
7.054146723727803 55.1579
7.076505517631004 54.6214
7.098864581288365 54.751999999999995
7.121206488070854 54.7623
7.143566093607822 54.3957
7.165908543567245 55.5477
7.188268694426048 55.4121
7.2106291193438095 55.1483
7.232972390625943 55.6622
7.255333366030969 62.7991
7.277677189091925 91.4804
7.300038718428332 118.23200000000001
7.322400526130865 103.88799999999999
7.344745183422596 72.9177
7.367107550224791 57.7276
7.389452767901992 55.3461
7.411815697249891 54.5669
7.434161478756298 53.8069
7.456524974096713 53.96
7.478888753837185 53.8981
7.501235387657368 54.12
7.523599738562711 54.2071
7.545946944825532 54.5252
7.568311870344528 54.9624
7.5906770845765665 55.0257
7.613025156078678 55.8254
7.635390950099687 56.8865
7.657739602662809 56.2839
7.680105979923558 55.5629
7.702472650212829 56.1411
7.724822180948224 56.2524
7.747189439655568 56.0704
7.769539560075357 56.0573
7.791907410653562 56.395
7.81425812420825 56.4467
7.836626570110925 56.6873
7.858995315087906 57.6024
7.881346924933401 57.6577
7.903716270417482 58.1369
7.926068482028405 58.4538
7.948438431475253 58.7801
7.9708086843180235 59.7349
7.993161805171116 60.1979
8.015532667162402 60.5815
8.037886398416653 61.9013
8.060257873014221 62.513000000000005
8.082629655331942 62.995
8.104984308787587 63.651
8.127356708900503 66.3136
8.149711981398308 70.5899
8.172085002766314 72.4445
8.194458336181368 70.6886
8.216814543847752 68.92
8.23918850371002 69.3102
8.26154533906492 70.318
8.283919928836452 71.8493
8.306277395339652 72.7246
8.328652618483376 74.215
8.351028159736202 76.4091
8.373386579575245 78.6577
8.395762759396959 80.4257
8.418121819038275 84.4563
8.440498640894003 93.7346
8.462875785192262 106.171
8.485235811156207 129.411
8.507613602688501 184.912
8.529974277114228 274.454
8.552352719347912 409.814
8.574731488360351 683.6619999999999
8.59709314210385 1232.45
8.619472567021075 1926.3
8.64183487789147 2242.2
8.664214962183097 1762.05
8.686577933647762 873.052
8.708958680784317 346.92900000000003
8.731339760774953 153.52
8.753703729764451 107.90100000000001
8.77608547780821 98.4848
8.798450116065078 95.0578
8.820832535634787 92.3423
8.843215292401656 91.7072
8.865580941199045 90.6998
8.887964374703538 90.0487
8.910330701447199 90.4256
8.932714815164482 90.7127
8.955099270424924 89.0579
8.977466620733543 86.8064
8.999851761421976 84.8934
9.022219798361645 83.6975
9.04460562795561 83.5418
9.066991803441677 83.29700000000001
9.089360876979615 83.5439
9.111747746589993 83.0574
9.13411751544971 82.4967
9.156505082664324 81.9148
9.178875550323522 82.0209
9.20126381862328 81.89399999999999
9.223652438908596 82.4927
9.246023961427412 82.2642
9.26841328802173 81.9557
9.290785518039224 82.0779
9.313175554425882 83.40100000000001
9.335565947154315 84.4165
9.357939245086508 84.8302
9.380330352834827 84.7576
9.40270436697103 84.664
9.425096193225055 84.0504
9.447488380180165 84.6878
9.469863475295412 84.535
9.492256385987508 84.711
9.514632206018318 85.1848
9.537025843935714 85.6475
9.559402392368193 86.5736
9.581796761000229 88.6003
9.604191496441521 89.7936
9.626569144158516 92.5167
9.648964615551032 94.7737
9.671343000390081 95.56299999999999
9.693739211225699 94.2997
9.716135793237463 93.1085
9.738515290448102 93.3425
9.760912617143402 94.53399999999999
9.783292860202891 96.0893
9.805690935076182 97.861
9.828089385495742 99.0494
9.850470754023561 100.959
9.872869957865444 105.568
9.89525208097539 115.134
9.917652041736662 124.208
9.940052382417589 130.53
9.962435644102392 152.54399999999998
9.984836746950979 197.71400000000003
10.007220771957746 260.168
10.029622640473708 365.96
10.052007432299963 549.411
10.074410069984072 852.252
10.096813093716005 1296.7
10.119199042482517 1796.6
10.141602840636468 1985.34
10.163989564971628 1561.98
10.186394141051062 839.66
10.208799107559706 363.71
10.231187001965623 175.92700000000002
10.253592751657669 122.82799999999999
10.275981430388155 111.73899999999999
10.298387966769793 110.29899999999999
10.320794897965431 111.12799999999999
10.343184759907361 109.609
10.36559248305461 106.24799999999999
10.387983138083852 105.16799999999999
10.410391656691655 111.67299999999999
10.432800574501677 124.286
10.455192425893369 140.561
10.47760214443012 166.08
10.499994797678786 213.08599999999998
10.522405320453982 292.765
10.54479877906917 411.273
10.567210109595656 514.479
10.5896218454736 568.803
10.612016518879773 493.98800000000006
10.634429067781074 330.55800000000005
10.656824555333241 193.155
10.679237920773568 119.83
10.701651695961992 94.4536
10.724048411481384 88.6099
10.746463008485165 85.9687
10.768860546937125 84.5361
10.791275969274796 82.806
10.81369180576079 81.8992
10.836090585366925 80.788
10.858507252467449 79.5295
10.88090686379991 78.3697
10.903324365036394 78.2015
10.925724811614439 77.914
10.948143150509463 78.314
10.970561909719066 77.8372
10.992963615930844 76.1925
11.015383218085756 74.7856
11.037785768347074 73.4912
11.06020621697282 72.3688
11.082627090322113 71.7525
11.105030913430326 71.4765
11.12745263854165 71.5014
11.149857314510728 72.9137
11.172279894912576 76.2069
11.194702904450653 76.3005
11.217108866490921 74.0309
11.239532736615194 71.1672
11.26193956033512 69.9062
11.284364294577085 68.5727
11.306789462371718 67.7795
11.329197585398376 67.0365
11.351623622610898 66.5076
11.37403261614354 65.8252
11.396459526308487 65.6637
11.418869393879497 65.3994
11.441297180532617 65.0744
11.463725406927658 64.8569
11.486136592353875 64.4399
11.508565700543707 64.3283
11.530977768845315 65.7622
11.553407762368774 66.0119
11.575838200059769 65.9211
11.598251599479612 64.4924
11.620682927815501 63.8219
11.64309721895548 63.3275
11.665529441478206 62.8854
11.687962112597958 62.6179
11.710377748130886 62.6228
11.732811318753434 62.644
11.755227854859067 62.7643
11.777662328529495 62.7514
11.800079768750786 62.3841
11.822515149015453 62.3967
11.844950984084935 62.7197
11.867369787303163 62.2216
11.889806534289491 62.2957
11.912226250487029 62.5337
11.934663912939751 62.8213
11.9571020346363 63.0184
11.979523127133968 62.8872
12.001962169624331 63.8938
12.024384183972964 65.7049
12.046824150809913 69.2708
12.069264581333726 74.0168
12.091687985297767 79.7643
12.11412934550045 89.2202
12.136553680195208 105.171
12.158995973632788 127.81299999999999
12.181438735204349 155.03799999999998
12.20386447284199 183.274
12.226308172985636 205.017
12.24873485024193 197.049
12.271179492516982 157.382
12.293607112949127 120.802
12.316052700916226 89.0437
12.338498763250042 74.3532
12.360927805303868 67.7847
12.383374818673879 65.3249
12.405804812803074 64.1549
12.428252780773262 63.7618
12.45070122756722 64.048
12.473132656675375 64.1948
12.49558206341869 64.3828
12.518014453510101 64.4194
12.540464823770117 64.7197
12.562915677315177 64.6976
12.58534951575545 65.1497
12.607801338171472 66.2915
12.630236146511358 68.9939
12.652688941369085 72.0331
12.675124723177234 72.506
12.697578494048786 70.65100000000001
12.720032754458185 68.4061
12.742470003354093 67.6756
12.764925245138771 67.6751
12.787363476431278 67.5712
12.809819703166806 68.0528
12.83227642391173 68.9961
12.854716135692716 69.6189
12.877173846755147 70.7965
12.899614549869717 71.2619
12.9220732548287 72.0772
12.94453245827299 72.7289
12.966974655289818 73.6736
12.989434858002571 74.2261
13.011878055298721 75.179
13.034339260862497 76.1499
13.056800969391883 77.1541
13.079245674017244 79.9253
13.101708390774869 83.7795
13.12415410463411 92.6598
13.146617833206086 103.428
13.169064559883248 114.32700000000001
13.191529303857127 129.386
13.213994557076367 153.127
13.236442809902437 192.512
13.258909083908291 248.553
13.28135835851934 315.789
13.30382565690295 380.856
13.326293469022952 428.306
13.348744283242008 420.654
13.371213125129904 339.74800000000005
13.39366497011003 247.771
13.416134845360597 164.122
13.438605238843131 120.34899999999999
13.46105863690397 106.956
13.483530069144786 108.689
13.505984506951902 113.81299999999999
13.528456981549432 123.337
13.550929978879088 138.621
13.573385983253365 163.843
13.595860028340867 203.66099999999997
13.618317081455832 256.42900000000003
13.64079217790333 313.145
13.663250283359057 353.88699999999994
13.685726434770173 369.087
13.708203115221277 326.678
13.730662806148091 246.513
13.75314054697177 171.528
13.775601299246777 119.874
13.798080104050406 93.9462
13.820559442405358 84.2765
13.843021793671388 81.3394
13.865502201420897 80.0149
13.887965623051947 79.4241
13.910447103807167 78.2157
13.932929122629764 76.9551
13.955394156785959 76.6578
13.977877254034569 75.9734
14.000343367582113 74.7576
14.022827546871707 74.2693
14.045294743423524 73.5875
14.06778000837062 72.9997
14.090265817715476 72.657
14.112734645763819 72.3324
14.13522154619454 72.2253
14.157691466286913 71.9118
14.180179461423874 71.8436
14.202668005486178 71.1464
14.22513957064374 70.7325
14.247629214846473 70.4394
14.270101881097517 69.9946
14.29259262906496 70.0218
14.315083930490205 70.4317
14.337558255389705 70.6692
14.360050666019726 70.5312
14.382526101071944 69.8624
14.405019624534942 69.0199
14.427513705993134 68.7503
14.449990813291825 68.6532
14.47248601302899 68.6233
14.49496423954951 68.7988
14.517460561197822 68.6707
14.539939910570322 68.3763
14.562437357763558 68.7774
14.58493536931253 69.5488
14.607416409993311 70.3353
14.62991555254159 70.968
14.652397725157423 70.7136
14.674898002342799 70.6091
14.697398848433282 70.4815
14.719882725991326 71.7039
14.74238471217934 73.9858
14.764869730765593 77.3886
14.787372860692983 80.2854
14.809876564079925 84.5562
14.83236330125751 90.2762
14.854868153850365 99.3935
14.877356041159485 113.72
14.899862046604186 132.877
14.922351087688757 159.017
14.944858249632887 187.99599999999998
14.967365991421232 212.43
14.989856770231246 227.984
15.012365673994204 216.56799999999998
15.03485761569738 182.886
15.05736768508665 140.42700000000002
15.07987833888692 108.735
15.102372032001655 86.9147
15.124883856909658 75.6515
15.14737872204565 71.9571
15.169891721717274 70.6251
15.192405310371893 70.0695
15.214901940621196 69.91
15.237416709527137 69.795
15.259914520936249 69.6544
15.282430473753607 68.9904
15.304947020131227 68.1267
15.327446610371178 67.5342
15.349964346154254 66.8494
15.372465126703139 66.5874
15.394984055556009 66.3839
15.417486030076159 66.1473
15.44000615566487 65.941
15.462526881230803 65.96
15.485030653812652 65.9802
15.507552581617434 66.013
15.530057557334603 65.9939
15.55258069104857 66.0163
15.575104429329837 66.0322
15.597611216864632 65.9157
15.620136166564563 66.5575
15.6426441664095 68.0963
15.665170331202765 70.6345
15.687697105158826 73.8199
15.710206930593545 76.9083
15.732734925158933 80.6783
15.755245972089478 87.4316
15.77777519094324 96.6564
15.800287463046663 110.97200000000001
15.822817909869592 130.376
15.84534897229804 151.799
15.867863089299354 175.12599999999998
15.890395385222186 191.27700000000002
15.912910736597423 195.282
15.935444269699861 176.611
15.957978423016485 150.27100000000002
15.980495633101265 116.565
16.003031029129367 91.6725
16.02554948280019 74.2881
16.048086125229432 66.6104
16.070623392487107 64.2118
16.09314371869582 63.1898
16.11568223789321 62.3634
16.13820381691126 61.5081
16.160743591742527 60.943999999999996
16.183283996022084 60.1604
16.205807461423195 59.3414
16.228349126881973 58.7084
16.25087385432698 58.63399999999999
16.27341678466365 58.1042
16.29594277784926 57.9547
16.31848697676433 58.0288
16.341031811604868 57.7809
16.36355971058487 58.0132
16.3861058195587 57.8721
16.40863499352978 56.9462
16.431182380342005 56.4091
16.453730407713202 55.8826
16.476261501364792 55.6329
16.498810812136167 55.4781
16.52134319004079 55.602
16.54389378792203 55.3726
16.566445031001553 55.1914
16.588979342490088 54.8064
16.61153187824822 54.9383
16.634067483263312 54.7571
16.656621315414416 54.7597
16.679175797408888 54.3517
16.701713349928728 54.6873
16.72426913389191 54.7211
16.74680798922351 54.718999999999994
16.76936507887444 54.6938
16.791905240734874 54.8414
16.814463639794468 54.7489
16.837022695210294 54.7529
16.859564824093756 54.7981
16.882125194503903 55.1206
16.904668639217885 55.6438
16.927230328348003 55.9292
16.949792678493612 55.9395
16.972338104193863 55.6785
16.994901778652235 55.3364
17.017448529496576 55.5849
17.040013531998152 55.8614
17.06257920018044 56.6088
17.0851279459922 57.4409
17.107694947817667 58.0553
17.130245028099072 58.9416
17.15281336730298 60.1488
17.17536478578733 61.8088
17.19793446610687 64.1701
17.220504818648422 67.1929
17.243058251703697 70.6339
17.265629950971032 75.2163
17.288184731571736 79.4107
17.310757781306908 83.2449
17.33333150794385 84.21600000000001
17.355888317140174 81.2163
17.37846339986244 75.3068
17.401021565958885 69.8529
17.42359800851343 64.3737
17.44617513265564 61.4236
17.468735341390783 59.9237
17.491261035594565 58.966
17.51396340099364 58.8815
17.536490463869136 59.0104
17.559018209820174 58.9134
17.58154663977963 59.0877
17.604251766089718 59.4249
17.626781572227713 59.613
17.64931206518155 59.8043
17.671843245885103 60.1375
17.69455114821572 60.2814
17.717083712612634 60.5275
17.739616967569667 60.8343
17.762150914021706 61.2663
17.78486160749854 61.6226
17.807396945166804 62.2976
17.829932977143503 63.6774
17.85246970436452 65.3723
17.875183204129467 67.133
17.897721330097664 69.0286
17.920260154126645 71.1549
17.942799677153296 74.5026
17.9655159983646 78.3997
17.988056927677544 83.8339
18.010598558807683 92.2606
18.033140892692916 102.51700000000001
18.05586005052525 113.564
18.07840379824407 125.22
18.10094825154059 135.563
18.12366954819864 142.702
18.146215420998306 140.325
18.16876200220057 131.09799999999998
18.191309292745153 115.235
18.214033452627167 100.961
18.236582170236648 89.8078
18.259131600016456 85.8441
18.281681742907335 87.0607
18.304408781233683 91.6356
18.32696035875955 96.7387
18.349512652227624 101.23899999999999
18.372065662579683 105.184
18.394795594587553 105.79299999999999
18.41735004715306 101.721
18.43990521943684 94.5063
18.46246111238171 84.3707
18.485193953325208 75.3102
18.507751296070428 68.857
18.530309362314178 65.1493
18.552868153000343 63.1329
18.57560391815056 61.9439
18.59816416623245 61.4343
18.620725141597372 61.2255
18.643286845190268 60.4305
18.666025549835414 60.2924
18.688588718427933 59.6378
18.711152618092243 59.523
18.73389353884365 59.1136
18.75645890921984 58.8131
18.77902501351406 58.4082
18.801591852673102 58.4561
18.824335739722738 58.0229
18.846904057212626 57.6932
18.8694731124168 57.4836
18.89204290628315 57.6154
18.914789774966803 57.4118
18.937361054791623 57.0575
18.959933076131318 56.9952
18.982505839934877 57.0419
19.00525570560582 56.8958
19.027829963004184 56.7121
19.05040496572238 56.8424
19.072980714710468 56.7709
19.095733592739563 57.1156
19.11831084296757 57.3164
19.140888842324735 57.6757
19.16346759176222 57.9074
19.18622349753803 58.6273
19.208803755869358 59.5311
19.231384767143577 60.839
19.253966532312948 62.4513
19.276725481241822 64.6878
19.29930876296784 67.0539
19.3218928014549 70.3896
19.34465404436217 73.3727
19.36723960516257 75.5857
19.389825925592426 76.0161
19.412413006605938 74.6372
19.43517731967805 71.3087
19.457765930683355 66.622
19.48035530514408 62.1528
19.50294544401556 58.4928
19.525712842708348 56.0996
19.54830451925909 54.7885
19.570896963095727 53.924
19.593490175174704 53.6959
19.616260674962184 53.5654
19.638855432416964 53.3228
19.661450960992624 53.7261
19.68404726164677 53.6346
19.706820878021247 53.39
19.729418731756834 53.4567
19.752017360452857 53.2702
19.77461676506804 53.5828
19.797393513540218 53.696000000000005
19.819994478951667 53.9164
19.84259622316767 54.456
19.8651987471481 54.9518
19.887978643247177 54.9623
19.91058273574792 55.5369
19.933187610901943 56.2825
19.955969879466828 57.6217
19.97857632894404 59.1304
20.00118356396599 60.8779
20.023791585494575 63.0966
20.046577028914875 65.5323
20.069186632506966 67.5691
20.091797025500632 69.3092
20.114408208858933 69.9264
20.137196842715273 69.3789
20.159809615886765 67.7263
20.18242318232135 65.3787
20.20503754298326 63.2835
20.227829382875154 62.0297
20.250445341109344 62.185
20.27306209647285 62.821999999999996
20.29567964993108 64.2801
20.31847471147704 65.1507
20.34109387027612 65.3664
20.363713830075454 64.8179
20.386334591841646 63.291000000000004
20.409132890679302 60.6376
20.431755265564437 57.6554
20.454378445325528 54.9193
20.477002430930366 52.9078
20.499803982716553 51.6882
20.522429589228004 51.0452
20.54505600449589 50.728
20.567683229489194 50.6025
20.590488049900088 50.1407
20.61311690359731 50.231
20.63574656993626 49.9156
20.658553853717297 49.4294
20.681185154618298 49.586999999999996
20.703817271080066 49.3647
20.72645020407368 48.992
20.749260783967177 48.9384
20.771895359337133 48.8331
20.794530754161617 48.801
20.817166969412938 48.8096
20.83998086114876 48.7726
20.86261872660049 48.6648
20.885257415405402 48.5508
20.90789692853701 48.4985
20.930714147864748 48.3256
20.953355319030678 48.4312
20.97599731745334 48.7141
20.99864014410749 48.7678
21.021460706796564 48.6162
21.044105199328826 48.808
21.06675052302631 48.9413
21.089396678865015 49.0175
21.112220600704806 49.2815
21.134868430275347 49.7487
21.15751709492456 50.0108
21.180166595629693 50.3861
21.202993892429635 50.7965
21.22564507473034 51.1517
21.24829709602816 51.4943
21.27112693608965 51.4671
21.293780644891275 51.2622
21.316435195634053 50.4771
21.339090589297417 49.8282
21.361923832041875 49.281000000000006
21.384580921090404 48.7078
21.407238856007325 48.2956
21.429897637773326 48.2969
21.45273429906592 48.4748
21.475394784108598 48.4453
21.498056118951983 48.3548
21.520718304578022 48.6496
21.543558400304388 48.6054
21.566222297108816 48.8809
21.58888704765135 48.9654
21.61155265291521 49.3619
21.63439619898156 49.8741
21.657063523335786 50.0743
21.67973170537063 50.368
21.7024007460706 50.9528
21.72524775840385 51.6372
21.747918526116475 52.8155
21.770590155457388 54.12
21.79326264741238 55.8337
21.816113141960237 57.711000000000006
21.838787368860547 59.656000000000006
21.861462461341976 61.4257
21.884315579735777 63.2836
21.90699241312273 64.4401
21.92967011506078 64.8817
21.95234868653799 64.2826
21.9752053151131 62.7848
21.997885635446785 60.703
22.020566828293532 58.9778
22.04324889464272 57.2679
22.066109049404666 56.3197
22.088792872571794 55.94
22.111477572219204 56.1012
22.1341631493376 56.1369
22.157026846313123 55.7393
22.179714188221507 54.9946
22.202402410582668 53.9228
22.22509151438863 52.4274
22.24795876962584 51.0657
22.270649646204486 50.3689
22.293341407213727 49.6793
22.316034053646906 49.0776
22.338904883215342 48.9845
22.36159931041458 48.971000000000004
22.38429462602756 48.8296
22.40699083104897 48.6505
22.429865251039757 48.8672
22.452563244831367 48.7853
22.47526213102522 48.5512
22.49813925616515 48.6609
22.520839937143307 48.5053
22.543541513520587 48.5358
22.56624398629403 48.6448
22.589124730075895 48.5475
22.611829005656723 48.6123
22.63453418063466 48.6353
22.657240256008077 48.9336
22.680124634582935 49.07
22.70283252079775 49.3506
22.725541310413075 49.4379
22.74825100442868 49.803000000000004
22.771139033969575 50.3268
22.79385054687155 50.645
22.81656296718292 51.2279
22.83927629590484 52.2113
22.862167992606945 53.1026
22.88488314827121 54.1681
22.907599215359284 55.3146
22.93031619487366 56.38399999999999
22.953211574954405 57.235
22.975930389478226 57.9221
22.998650119445763 57.9943
23.02137076586092 57.0623
23.044269845560063 55.7724
23.06699233506288 54.0727
23.089715744034912 52.3336
23.112617610931565 50.7533
23.135342869061212 49.6486
23.158069049684816 49.001000000000005
23.1807961538087 48.729
23.20370174880544 48.7345
23.226430710184808 48.8343
23.249160598093425 49.0255
23.271891413539002 48.8938
23.294800752937697 48.8128
23.31753343374794 48.9912
23.340267045128353 49.0391
23.36300158808808 49.5417
23.38591468821339 49.6733
23.408651104658304 50.1456
23.431388455719986 50.8076
23.454126742409 51.7492
23.4770436196085 52.8491
23.499783787914662 54.0683
23.522524894889884 55.1485
23.54526694154616 56.3224
23.56818761219047 57.1792
23.59093154860734 57.6381
23.613676427751283 57.8566
23.636422250635754 56.7587
23.659346731118656 55.0565
23.68209445191868 53.3696
23.704843119509587 51.0863
23.72759273490623 49.0957
23.750521041644767 47.9396
23.77327256312355 47.0138
23.796025035462787 46.4675
23.818956224555475 46.0503
23.841710609113413 45.8371
23.86446594758979 45.6446
23.887222241002014 45.5009
23.910157285144578 45.0479
23.932915498962537 45.1142
23.955674670778713 45.005
23.978434801611975 44.8787
24.001373717286125 44.6815
24.024135776723917 44.5654
24.046898798245582 44.5686
24.06966278287146 44.3122
24.092605586582614 44.1126
24.115371508023642 43.8854
24.1381383956401 43.9579
24.16090625045381 43.9473
24.183852958731244 43.8608
24.206622758582608 43.4987
24.229393528706886 43.5353
24.252165270127392 43.6399
24.27511589952438 43.5692
24.297889594216997 43.2573
24.32066426328598 43.32
24.34343990775613 43.3353
24.36639447485003 43.1484
24.38917208083877 43.093
24.41195066531332 42.9488
24.43490819850244 43.1225
24.457688750692377 43.0057
24.48047028445616 42.8568
24.503252800821233 42.9127
24.526214300784112 43.033
24.548998793132213 43.0326
24.57178427117417 42.977
24.59457073593893 42.9563
24.617536219319863 42.9113
24.64032466834748 42.8831
24.663114107195035 42.7695
24.685904536893013 42.4399
24.708874020360852 42.323
24.731666442613744 42.4735
24.754459858818787 42.4616
24.777254270007962 42.2508
24.80022777025625 42.1911
24.82302418230472 42.1917
24.845821592443674 42.1945
24.86862000170663 42.3165
24.891597535453727 42.1363
24.914397953892728 42.349
24.93719937456671 42.1845
24.96000179851076 42.2683
24.98298338249997 42.5551
25.00578782394922 42.7248
25.028593271784167 42.8477
25.05157790644186 43.1432
25.07438537804115 43.3813
25.097193859145293 43.5987
25.120003350792075 43.8981
25.142992065061257 44.1043
25.165803588823465 44.3644
25.18861612625217 44.5456
25.211429678386736 44.548
25.234422489079968 44.7121
25.257238081693636 44.7447
25.280054692141732 44.817
25.3028723214652 44.7214
25.325869245420463 44.9303
25.348688923599397 44.9267
25.371509623787006 44.8697
25.394331347025812 44.3957
25.41733240110666 43.9925
25.440156181590016 43.2252
25.46298098826268 42.8467
25.48580682216873 42.096000000000004
25.50881202326435 41.6055
25.53163992281684 41.2438
25.55446885274561 41.0394
25.577298814096377 40.8815
25.600308179121807 40.641999999999996
25.623140214533745 40.7261
25.64597328451537 40.6839
25.66898578564376 40.4603
25.691820936010206 40.62
25.714657124097695 40.5084
25.737494350954734 40.3994
25.760511045684957 40.3344
25.783350361364224 40.4999
25.806190718969255 40.4682
25.82903211955018 40.6235
25.852053024868923 40.5821
25.874896522722523 40.5505
25.897741066713106 40.3777
25.920586657892454 40.6486
25.943611790812668 40.7584
25.966459487728237 40.9076
25.989308234998564 40.896
26.01215803367705 41.2506
26.03518741123814 41.5534
26.05803932412957 41.5234
26.080892291600094 41.5799
26.10374631470478 41.6363
26.12677995397268 41.6656
26.14963609978026 41.5716
26.172493304397875 41.2519
26.19535156888223 41.1077
26.218389486949604 40.6372
26.241249882640123 40.4049
26.26411134137826 40.2466
26.28715248187403 40.292
26.31001607820869 40.0139
26.3328807407756 39.8236
26.35574647063438 40.0422
26.37879191991473 40.1347
26.401659795896734 40.1963
26.424528742360263 40.1514
26.447398760366614 40.3773
26.470448535598294 40.4746
26.49332070826805 40.741
26.516193955675355 41.0704
26.53906827888316 41.3067
26.562122397260108 41.555
26.584998883685063 41.658
26.607876449110325 41.8983
26.63075509460056 42.0873
26.65381357334404 42.3787
26.67669439061878 42.3579
26.699576291163382 41.9861
26.722459276044212 41.8927
26.745522132402975 41.6001
26.768407297649354 41.3028
26.791293550442003 40.9636
26.814180891848974 40.7279
26.837248143099337 40.3469
26.860137673466657 40.2915
26.88302829566349 40.0806
26.90592001075963 39.9572
26.92899167420566 39.6494
26.951885586870763 39.3574
26.974780595655517 39.1905
26.99785558178161 39.2469
27.020752794605112 39.0338
27.043651106772522 38.7927
27.06655051935668 38.7867
27.089629948036183 38.6859
27.112531573292053 38.7168
27.135434302194138 38.742
27.158338135817015 38.5726
27.181422024430987 38.431
27.204328079372566 38.4022
27.22723524226965 38.398
27.250143514198573 38.4546
27.273231880156334 38.5311
27.296142382065014 38.3272
27.319053996245536 38.2637
27.341966723775965 38.3753
27.365059584515222 38.4344
27.38797455070062 38.4586
27.410890633481237 38.3426
27.433807833936918 38.4213
27.456905206923906 38.3805
27.47982465472398 38.3879
27.502745223449743 38.4464
27.525666914182825 38.4643
27.548768816912457 38.4674
27.571692763693633 38.4807
27.59461783573812 38.3429
27.617723149491244 38.0791
27.640650484125285 38.1483
27.66357894728264 38.1598
27.686508540048052 38.0697
27.709618414237887 37.9803
27.732550278321757 37.7537
27.755483275279115 37.7629
27.778417406196485 37.8658
27.801531858397514 37.7796
27.824468269376716 37.7632
27.847405817586786 37.8378
27.870344504116094 38.0496
27.893463551932008 38.0415
27.916404527281053 38.309
27.93934664422563 38.3921
27.962289903855886 38.4791
27.98541356491974 38.7428
28.00835912214229 38.803000000000004
28.03130582533231 39.0164
28.054253675581805 39.1845
28.077381967556104 39.0049
28.100332124185126 38.9438
28.123283431160893 38.902
28.146235889577238 38.6184
28.169368830154156 38.626
28.192323603752033 38.3499
28.215279532083304 38.1279
28.238415973016764 37.8175
28.261374223145094 37.8308
28.284333631303806 37.6155
28.307294198589954 37.4426
28.330435319167677 37.0472
28.353398217078915 36.7414
28.376362277420153 36.5184
28.39932750129032 36.4592
28.422473319286713 36.3631
28.44544088262495 36.2635
28.468409612800283 36.1495
28.491379510913497 35.9202
28.51453004413313 35.8139
28.53750229057244 35.8335
28.56047570826344 35.8633
28.583450298308804 35.9008
28.606605564586562 35.728
28.629582511831156 35.735
28.65256063474956 35.5803
28.675539934446338 35.641
28.698699951647605 35.5888
28.72168161743193 35.4498
28.74466446331978 35.3562
28.767648490417624 35.524
28.790813276438353 35.2765
28.813799678527303 35.3618
28.836787265157085 35.3064
28.859955641890075 35.4278
28.882945610203045 35.2864
28.905936766392035 35.2174
28.928929111566863 35.3248
28.952102288520145 35.2206
28.975097024308607 35.1306
28.998092952423807 34.9387
29.021090073977508 34.8801
29.04426806913204 34.7686
29.067267590245258 34.592
29.090268308143695 34.5867
29.11327022394099 34.5098
29.13645305530891 34.398
29.159457379627167 34.4089
29.18246290519685 34.353
29.20546963313352 34.2542
29.22865731875826 34.2703
29.25166646419296 34.2885
29.27467681535305 34.2038
29.29768837335608 34.2664
29.320880931312562 34.3862
29.34389491580634 34.2282
29.366910110507334 34.2254
29.38992651653503 34.3277
29.41312396492981 34.2911
29.436142806456754 34.0336
29.45916286268059 33.8763
29.48236399319994 33.9435
29.50538649169417 33.6954
29.528410208259935 33.714
29.55143514402014 33.4348
29.574641196749695 33.2755
29.597668583816574 33.2177
29.6206971934585 33.0655
29.64372702680042 33.1265
29.666938019934474 33.0212
29.689970313635285 32.957
29.713003834422636 32.8328
29.73603858342347 32.9134
29.759254535188578 32.7319
29.78229175361658 32.7632
29.80533020365064 32.8701
29.82836988641968 32.8129
29.85159081507472 32.8428
29.874632976355343 32.6628
29.89767637376955 32.6957
29.920721008448314 32.5424
29.9439469322847 32.6165
29.96699405457564 32.5694
29.9900424175358 32.5622
30.013092022298157 32.385
30.03632295963995 32.3788
30.059375061131373 32.5309
30.08242840783577 32.4774
30.105483000888153 32.5143
30.128718970092244 32.2529
30.151776069006917 32.355
30.17483441768648 32.4946
30.198074175317235 32.3785
30.221135036724256 32.3338
30.24419715131772 32.2505
30.267260520236203 32.2725
30.290505341942243 32.2375
30.313571232750228 32.2917
30.336638381310948 32.2407
30.35970678876503 32.245
30.38295669299435 32.1619
30.40602763151657 32.0509
30.429099832366074 32.037
30.452173296685572 31.9431
30.47542830191959 31.9897
30.498504306502497 32.0072
30.521581577995562 32.015
30.544660117543582 32.0818
30.56792024229725 32.1616
30.59100133132069 32.1223
30.614083691845494 32.1788
30.637167325018545 32.1624
30.660432587840603 32.1608
30.683518779717886 32.1375
30.70660624769615 32.2615
30.729694992924372 32.1511
30.75296541239743 32.1747
30.77605672557558 32.1093
30.799149319462742 32.0818
30.8224236211637 31.9727
30.845518789950724 31.8778
30.868615242910597 31.8336
30.891712981195973 31.6317
30.91499247215866 31.5632
30.938092794619365 31.5987
30.96119440587579 31.4999
30.984297307082752 31.3192
31.00758200598383 31.2911
31.030687500658694 31.2417
31.053794288760695 31.1333
31.076902371446767 30.9426
31.100192296997445 31.045
31.12330298246119 31.0284
31.14641496599209 30.8494
31.169528248749216 30.7784
31.19282341969534 30.8087
31.215939314557186 30.9884
31.239056512134788 30.8748
31.262175013589378 30.9066
31.28547544871168 30.9294
31.30859657161541 30.7667
31.331719001892175 30.843000000000004
31.35484274070538 30.9357
31.378148458819545 30.8866
31.401274828443725 30.9369
31.424402510106933 30.9268
31.447712205419993 31.006
31.470842524931633 30.8222
31.493974159989783 30.7601
31.51710711176168 30.7814
31.54042212308802 30.6562
31.563557722100917 30.669
31.586694641341655 30.5376
31.609832881979628 30.4736
31.63315322823208 30.3471
31.656294125521327 30.2762
31.679436347728515 30.2993
31.70257989602529 30.2305
31.725905596152327 30.1581
31.74905181052835 29.9996
31.772199354521323 30.1031
31.79534822930507 30.1254
31.818679302290967 30.179000000000002
31.84183085259981 30.1178
31.864983737233473 30.1055
31.88813795736804 30.1459
31.911474422233013 30.0198
31.934631327356435 30.1068
31.9577895715215 30.0241
31.980949155906522 30.0141
32.004291031706956 29.8865
32.027453310562606 29.8897
32.05061693318573 29.804000000000002
32.07396288236386 29.7592
32.09712920658542 29.647
32.12029687812702 29.5552
32.14346589817093 29.4519
32.166817291729984 29.5414
32.18998902288583 29.3838
32.21316210610336 29.3224
32.23633654256711 29.2012
32.259693399663725 29.239
32.282870556771144 29.122
32.30604907069099 29.0414
32.329228942610065 29.0753
32.35259128243769 28.8695
32.375773884550505 28.8456
32.398957848235646 28.7997
32.422143174682176 28.7938
32.445511016471215 28.6961
32.468699082679954 28.7458
32.49188851523011 28.6865
32.51507931531304 28.6504
32.538452678331 28.5979
32.56164622776311 28.5499
32.58484114831493 28.4905
32.60803744118015 28.4887
32.631416344731896 28.464000000000002
32.654615396551876 28.5219
32.67781582427913 28.3611
32.701198898634416 28.3091
32.72440209253756 28.2084
32.747606665947124 28.2465
32.77081262006088 28.0381
32.79420126883317 28.1321
32.81740999876112 28.1513
32.840620112999424 28.0343
32.86383161274818 27.9589
32.88722585534586 27.985
32.91044014056596 28.0349
32.933655814909734 28.0119
32.95687287957963 27.9459
32.98027273544904 27.8697
33.00349259526636 27.7893
33.026713849030116 27.7482
33.04993649794511 27.7504
33.073341986570746 27.7044
33.09656744032826 27.7403
33.11979429286444 27.7817
33.14302254538647 27.8071
33.166433686291185 27.6754
33.18966475336992 27.6577
33.212897224069096 27.6045
33.23613109959831 27.539
33.259547912343415 27.5413
33.2827846121627 27.4941
33.306022720453775 27.4091
33.32926223842861 27.2902
33.352684742614166 27.2995
33.37592709463173 27.2528
33.399170859982064 27.3086
33.422597648419426 27.1962
33.44584425514446 27.0973
33.46909227885668 27.0954
33.4923417207723 26.9771
33.51577423505344 26.9757
33.539026528130385 26.7726
33.56228024307245 26.8305
33.585535381098246 26.7345
33.60897364093058 26.749000000000002
33.63223163992385 26.7221
33.6554910656699 26.5928
33.678751919389796 26.5973
33.702195944520106 26.5562
33.72545966903325 26.4866
33.74872482519663 26.4827
33.771991414233746 26.4543
33.79544122444841 26.4653
33.81871069412428 26.3952
33.84198160035767 26.3333
33.86525394437455 26.2887
33.88870955949969 26.2778
33.911984794020626 26.2799
33.93526147001624 26.2929
33.958539588715006 26.2069
33.98200102861669 26.0861
34.0052820477047 26.0132
34.02856451319451 26.0516
34.05203033759056 26.0125
34.07531571090147 25.8709
34.09860253431845 25.9748
34.121890809074316 25.8682
34.145362493118924 25.8535
34.16865368561615 25.734
34.191946333164054 25.6809
34.21524043699793 25.7188
34.23871800066799 25.6992
34.26201503218366 25.5884
34.28531352370466 25.6
34.30861347646881 25.4827
34.33209693978188 25.3936
34.3553998301885 25.4498
34.378704185565205 25.3616
34.402010007152356 25.3278
34.42549939016683 25.3027
34.44880815937748 25.3284
34.472118398533134 25.1925
34.49543010887669 25.1611
34.51892543169198 25.1087
34.54224009966052 25.1322
34.56555624255917 25.1568
34.58887386163339 25.0355
34.61237514439016 24.9722
34.6356957311114 24.9001
34.65901779775809 24.9368
34.68252356662995 24.9117
34.705848608458616 24.819000000000003
34.72917513396849 24.766
34.75250314440949 24.72
34.77601490857862 24.7007
34.799345904259795 24.6813
34.82267838863559 24.6667
34.846012362958525 24.6398
34.869530142679984 24.629
34.89286711232212 24.5691
34.91620557568269 24.4763
34.93954553401677 24.5218
34.9630693495876 24.5065
34.986412313340814 24.4697
35.00975677584668 24.4534
35.033102738362956 24.3474
35.05663261012228 24.2527
35.0799815881786 24.2877
35.10333207003229 24.2311
35.12668405694369 24.218000000000004
35.150220005273056 24.2567
35.17357501786656 24.2081
35.19693153931268 24.1878
35.220289570874385 24.0564
35.24383161619786 24.1265
35.267192683604904 24.105
35.290555264930376 24.0438
35.314101899412165 24.0216
35.33746752422433 24.0288
35.36083466676374 23.9781
35.38420332829803 23.9554
35.407756095629054 24.0397
35.43112781085063 23.9375
35.45450104888391 23.8818
35.477875810999194 23.9028
35.50143473172161 23.8869
35.52481255774625 23.9083
35.54819191167777 23.72
35.57157279478914 23.7056
35.595137889488406 23.714000000000002
35.61852184675279 23.6607
35.641907337029984 23.5656
35.665294361595684 23.5803
35.68886565090076 23.5121
35.7122557598848 23.5337
35.73564740699838 23.5268
35.759040593519934 23.4351
35.78261809810353 23.4296
35.80601437933051 23.302
35.829412203814705 23.2955
35.85281157283719 23.2463
35.876395313415884 23.2592
35.8997977874528 23.1004
35.92320180988546 23.1304
35.946790244133936 23.0905
35.97019737933222 23.1299
35.993606066789866 23.0253
36.01701630779276 22.9739
36.04061101440684 23.0044
36.06402437852291 22.9641
36.08743930005611 22.9513
36.1108557802951 22.8911
36.13445678011326 22.8644
36.15787639383515 22.7965
36.18129757014299 22.7865
36.20472031032821 22.8013
36.22832762423364 22.6446
36.25175350829375 22.686999999999998
36.275180960119776 22.563000000000002
36.298609981005924 22.6273
36.32222362992669 22.5535
36.34565580510207 22.5456
36.36908955323448 22.5117
36.39252487562093 22.3657
36.416144880530226 22.4006
36.43958336764275 22.384
36.463023432914625 22.3741
36.486465077645676 22.2796
36.51009145956204 22.3754
36.53353627947859 22.313000000000002
36.55698268276811 22.2912
36.58043067073321 22.2924
36.60406345072071 22.1877
36.62751462435344 22.2324
36.65096738658405 22.1775
36.67460498210655 22.141
36.69806093788647 22.1417
36.72151848619297 22.0081
36.744977628333636 21.9539
36.76862165890998 21.9605
36.79208400512205 21.9795
36.81554794910557 21.9587
36.83901349217101 21.8557
36.862663978991606 21.8271
36.88613273667352 21.7801
36.90960309738324 21.7493
36.933075062434064 21.701
36.95673202673572 21.6538
36.98020721697122 21.6658
37.003684015502365 21.5156
37.027162423645365 21.4875
37.050825886711465 21.5349
37.07430753063053 21.5099
37.09779078812467 21.4708
37.121275660513014 21.3523
37.144945643673694 21.4302
37.16843376245278 21.4277
37.19192350009803 21.4167
37.215414857931435 21.3144
37.239091382563885 21.2661
37.262585997426164 21.2153
37.28608223645736 21.2261
37.309763684451696 21.1732
37.33326318851098 21.1282
37.356764320726555 21.1158
37.380267082425526 21.1507
37.40395510942588 21.0699
37.42746114683234 21.0129
37.45096881771841 21.0038
37.474478123414166 20.9468
37.49817275092816 20.8921
37.52168534303452 20.9244
37.54519957395567 20.8292
37.568715445024665 20.7891
37.592416694607714 20.7961
37.61593586281424 20.8037
37.63945667518264 20.8197
37.66297913304891 20.7356
37.68668702630454 20.6791
37.710212792059274 20.5842
37.733740207334854 20.563000000000002
37.757269273470364 20.5292
37.780983832050374 20.4953
37.80451621684926 20.5023
37.82805025654007 20.4548
37.851585952464795 20.3911
37.8753071980695 20.3356
37.89884622345676 20.3217
37.92238690911902 20.3206
37.94611318753442 20.2032
37.969657210779765 20.2361
37.99320289834801 20.2337
38.016750251586465 20.1834
38.04048325513017 20.0825
38.06403395679343 20.0859
38.087586328183946 20.0764
38.11114037065203 20.0893
38.13488012115898 20.11
38.1584375229181 19.9828
38.181996599821 19.918
38.205557353221124 19.9045
38.229303872575656 19.9203
38.2528679961576 19.9125
38.27643380031219 19.8427
38.30000128639589 19.7985
38.32375459653193 19.808
38.34732546371299 19.7902
38.37089801690786 19.6817
38.39447225747609 19.6571
38.418232380377425 19.6209
38.441810012983396 19.6463
38.46538933705673 19.5878
38.488970353960084 19.5312
38.51273731166058 19.5109
38.536321731567014 19.5074
38.55990784840681 19.4621
38.58367995004091 19.438
38.60726947812959 19.3353
38.63086070726198 19.3832
38.654453638806274 19.4164
38.678232613930824 19.2935
38.70182896773327 19.2664
38.72542702806741 19.192
38.7490267963045 19.2257
38.77281266709232 19.2124
38.79641586862214 19.1612
38.8200207821842 19.1154
38.843627409152944 19.1265
38.86742019782782 19.0937
38.891030269149255 19.0494
38.914642058016156 19.0444
38.938255565806124 18.9862
38.96205529464307 18.9116
38.98567225787121 18.9427
39.00929094417078 18.8869
39.03291135492255 18.9015
39.05671804624804 18.838
39.080341923549106 18.805
39.103967529460334 18.7757
39.127594865365744 18.6757
39.15140854155791 18.6698
39.17503935514948 18.6713
39.19867190290282 18.6401
39.22249083587951 18.6478
39.24612686969409 18.5973
39.269764641845306 18.5339
39.293404153722804 18.5209
39.317230110864074 18.4479
39.34087311998506 18.4751
39.36451787301696 18.4525
39.388164371352595 18.3897
39.41199737518003 18.3292
39.43564738196752 18.2751
39.45929913825317 18.3068
39.48295264543308 18.2981
39.506792718520884 18.2946
39.530449745387216 18.256
39.55410852735203 18.2476
39.57776906581474 18.1762
39.60161623079 18.1254
39.625280300200025 18.0944
39.64894613032202 18.0226
39.67261372255866 17.975
39.6964680021016 17.9968
39.72013913657293 18.0242
39.74381203738292 17.9923
39.76748670593756 17.965999999999998
39.79134812278169 18.0109
39.81502634488497 17.9618
39.83870633896685 17.8728
39.862388106436654 17.8274
39.88625668336918 17.7962
39.90994201572829 17.8149
39.933629125719285 17.6868
39.957503091207826 17.6591
39.9811937746168 17.7063
40.00488623990914 17.706
40.02858048850006 17.6449
40.05246165409549 17.5941
40.076159487492085 17.5722
40.099859108448875 17.5383
40.123560518384345 17.574
40.1474489070226 17.5212
40.171153913178564 17.4482
40.194860712584955 17.417
40.2185693066637 17.4291
40.242464941335314 17.3951
40.26617714307655 17.3051
40.289891143772046 17.2773
40.3136069448471 17.3545
40.33750984859743 17.3306
40.3612292688043 17.2352
40.3849504936829 17.2329
40.40867352466194 17.225
40.43258372059144 17.1316
40.45631038219906 17.1971
40.48003885420956 17.1305
40.503769138055105 17.0956
40.52768664931955 17.0635
40.55142057531802 17.0392
40.57515631746428 16.998
40.599079334038514 16.9836
40.62281872700477 16.9348
40.64655994043941 16.8748
40.67030297578061 16.9059
40.69423334835778 16.9075
40.71798004609188 16.8633
40.74172857006355 16.8343
40.76547892171441 16.7822
40.7894166736039 16.7374
40.813170699248566 16.7143
40.83692655691388 16.6361
40.86068424804498 16.7304
40.884629402612525 16.6684
40.908390779366385 16.6426
40.932153993938 16.5888
40.95591904777605 16.5416
40.979871628443995 16.5736
41.003640379561936 16.516
41.02741097430883 16.5
41.05118341413683 16.4261
41.075143444384416 16.4351
41.098919593177826 16.4713
41.1226975914255 16.4094
41.14647744058318 16.3711
41.170444943946755 16.2647
41.19422851378379 16.3343
41.218013938914645 16.3346
41.24198706625173 16.2131
41.26577622087193 16.2239
41.289567235177785 16.2
41.31336011063129 16.1448
41.337340752422875 16.1311
41.361137369129835 16.1159
41.38493585138705 16.1061
41.40873620066004 16.03
41.43272438060107 16.0021
41.45652848292052 15.9954
41.48033445666918 15.9479
41.50414230331616 15.9366
41.528138045159764 15.9024
41.551949656675205 15.8414
41.575763145513235 15.8342
41.59957851314666 15.8594
41.62358184070442 15.8058
41.64740098505737 15.7516
41.6712220126409 15.7711
41.69504492493139 15.7135
41.71905586207357 15.6332
41.74288256296395 15.6789
41.766711153007456 15.6586
41.79054163368412 15.6022
41.814560204340054 15.5874
41.838394485526365 15.5685
41.86223066180303 15.5362
41.88625497706819 15.4988
41.910094962812 15.5113
41.93393684811168 15.4871
41.95778063445365 15.4023
41.981812625263366 15.395
42.00566023303407 15.3571
42.029509746323676 15.3628
42.05336116662236 15.3457
42.077400857069705 15.2864
42.10125611078846 15.3017
42.12511327600405 15.2932
42.14897235421036 15.2189
42.173019768448455 15.2307
42.19688269209613 15.1369
42.22074753323349 15.1553
42.24461429335818 15.0916
42.268669455600495 15.0884
42.292540073217886 15.0953
42.31641261433284 15.0463
42.34028708044675 14.9715
42.36435001496739 14.9902
42.38822835065557 15.0241
42.41210861586426 14.9778
42.4359908120986 14.9024
42.46006154323262 14.8295
42.48394762115317 14.8346
42.507835634632315 14.8522
42.531912233047436 14.8727
42.55580413732265 14.8121
42.579697981698 14.8195
42.60359376768525 14.7903
42.62767820545945 14.7247
42.65157789440821 14.6958
42.67547952952185 14.7238
42.699383112316 14.7139
42.72347541395347 14.633
42.74738291190531 14.6006
42.771292362102166 14.6505
42.795203766063516 14.5765
42.819303956130405 14.5662
42.843219287476536 14.539000000000001
42.86713657716324 14.5158
42.89105582671383 14.4792
42.91516392983864 14.4054
42.939087119032166 14.3913
42.963012272677304 14.3814
42.98693939230129 14.3625
43.01105543317513 14.3283
43.034986504731386 14.3361
43.05891954686589 14.3284
43.08285456110972 14.2816
43.10697856448665 14.2937
43.130917542983475 14.2221
43.15485849820081 14.1785
43.17880143167367 14.1285
43.20293342237094 14.1084
43.226880332449 14.1274
43.25082922540554 14.1364
43.27496722682525 14.0871
43.29892010567796 14.0666
43.32287497204102 14.0508
43.34683182745632 13.9922
43.370977859791836 13.9811
43.39493871351105 13.9636
43.41890156092628 13.9599
43.44286640358341 13.9033
43.46702049182749 13.9245
43.49098934522816 13.878
43.51496019852649 13.8303
43.5389330532723 13.8358
43.56309522248204 13.7834
43.58707210044314 13.7916
43.61105098451946 13.7168
43.63503187626491 13.6987
43.659202151562134 13.6558
43.68318707902681 13.6615
43.70717401884041 13.6347
43.731162972560874 13.6198
43.75534137913236 13.585
43.779334381108384 13.617
43.803329401683186 13.5412
43.82732644241872 13.5632
43.8515130055166 13.5542
43.87551410707659 13.4945
43.89951723350145 13.4282
43.923709934595614 13.4272
43.94771713129917 13.4054
43.97172635758096 13.405
43.99573761501002 13.3851
44.0199385169922 13.3982
44.04395385732619 13.3774
44.067971233533086 13.3596
44.09199064718605 13.3155
44.11619977548961 13.261
44.14022328470671 13.1793
44.16424883610785 13.2276
44.18827643127035 13.1558
44.21249381139513 13.1489
44.236525514814076 13.1386
44.26055926674478 13.1092
44.28459506876863 13.1742
44.3088207262813 13.0911
44.33286064928722 13.0606
44.35690262714919 13.0387
44.38094666145278 13.0161
44.4051806219871 13.0102
44.42922879003185 12.9593
44.45327901929361 12.9448
44.477331311362136 12.9127
44.501573600619416 12.8305
44.525630039221795 12.8358
44.54968854541895 12.8381
44.573937102200176 12.7636
44.5979997645541 12.764000000000001
44.622064499300315 12.7899
44.64613130803592 12.7249
44.67038823869318 12.7109
44.69445921643748 12.7139
44.718532272981385 12.6802
44.742607409926194 12.681
44.76687274034801 12.6519
44.79095205918753 12.5843
44.81503346325094 12.5708
44.839116954143876 12.5559
44.86339071028742 12.5157
44.88747839599524 12.5095
44.91156817336837 12.4923
44.93566004401666 12.5147
44.959942251908146 12.5116
44.984038330325966 12.4647
45.00813650686762 12.4245
45.03223678314731 12.3722
45.05652746888232 12.305
45.08063196592069 12.365
45.104738567558705 12.2998
45.128847275414856 12.3192
45.15314646515866 12.2178
45.17725940679741 12.262
45.20137445952892 12.2521
45.22568004865265 12.2614
45.24979934496396 12.2317
45.27392075725247 12.2015
45.29804428714431 12.1429
45.322358426247604 12.0827
45.346486212804315 12.1405
45.370616121861914 12.1226
45.39474815505086 12.1206
45.41907087049246 12.0286
45.4432071734666 11.995
45.46734560548283 11.9917
45.49148616817604 11.9946
45.51581748638564 11.9949
45.5399623320197 11.9765
45.56410931325473 11.9382
45.58825843173002 11.953
45.61259837920865 11.8851
45.636751793816 11.8777
45.66090735060093 11.8203
45.68506505120716 11.8133
45.7094136545275 11.8001
45.73357566449271 11.7481
45.75773982322992 11.7623
45.78190613238733 11.7545
45.806263418194064 11.6935
45.83043404997326 11.6898
45.85460683713677 11.7227
45.87897065658495 11.6255
45.90314777634752 11.5644
45.92732705646868 11.5766
45.9515084986045 11.5496
45.97588104735473 11.5865
46.00006683541565 11.5544
46.02425479047904 11.5282
46.04844491420549 11.5053
46.0728262191024 11.489
46.09702070211635 11.5043
46.12121735879483 11.4553
46.14541619080294 11.4254
46.169806278764455 11.4209
46.194009483459034 11.4335
46.21821486849841 11.3546
46.24242243555223 11.3252
46.266821333570014 11.3409
46.29103328674601 11.3143
46.31524742696538 11.332
46.33946375590237 11.2911
46.36387149104216 11.2199
46.38809221957392 11.1733
46.41231514186606 11.1931
46.436540259597464 11.2048
46.460956858999374 11.1441
46.48518638983522 11.1015
46.509418121166966 11.120999999999999
46.533652054678114 11.072000000000001
46.55807754555709 11.0557
46.58231590571962 11.1054
46.60655647313217 11.050999999999998
46.630988654873654 11.0084
46.655233659129024 10.9735
46.67948087571551 10.9748
46.70373030632484 10.9356
46.72817142736393 10.955
46.752425308428684 10.905
46.77668140861147 10.8996
46.80093972960865 10.8219
46.82538981736788 10.8295
46.849652602470904 10.7901
46.87391761349769 10.8021
46.8981848521493 10.7964
46.9226439341274 10.742
46.946915650573224 10.7203
46.97118959976749 10.7448
46.99546578341598 10.6695
47.019933887188216 10.6718
47.04421456235744 10.6679
47.06849747711879 10.6223
47.09278263318286 10.6288
47.11725978640143 10.6018
47.14154944775105 10.6139
47.165841355555656 10.5593
47.1901355115306 10.5349
47.214621741924994 10.5554
47.23892041698887 10.5055
47.26322134538975 10.5067
47.28771440635075 10.482000000000001
47.31201986422527 10.4853
47.33632758061436 10.4168
47.360637557241866 10.405
47.38513974410611 10.4265
47.40945426407847 10.41
47.43377104948137 10.3898
47.45809010204344 10.3493
47.48260144275502 10.3092
47.506925052572285 10.306
47.53125093475548 10.2643
47.55557909103813 10.2388
47.58009961361992 10.171
47.60443234110732 10.2172
47.62876734791564 10.2125
47.65310463578333 10.1736
47.6776343683373 10.1367
47.7019762413987 10.1288
47.72632040075572 10.1319
47.75066684815169 10.1127
47.77520581885936 10.1171
47.799556865477655 10.0668
47.823910205386 10.1072
47.84826584033272 10.0462
47.87281407745551 9.99807
47.89717432569297 10.0092
47.92153687423484 10.0071
47.94609208429692 9.96376
47.97045925671401 9.95669
47.99482873471275 9.93483
48.01920052005013 9.93253
48.04376504619224 9.869069999999999
48.068141469543484 9.892000000000001
48.09252020552573 9.87422
48.11690125590099 9.831719999999999
48.1414751266064 9.86479
48.16586082917454 9.84479
48.19024885144316 9.80219
48.2146391951793 9.79233
48.239222439012764 9.79984
48.26361744916137 9.75258
48.28801478610016 9.717989999999999
48.31241445160131 9.72592
48.337007097209366 9.7165
48.36141144338331 9.6989
48.38581812345755 9.65935
48.41022713920929 9.61983
48.434829215320704 9.62532
48.45924292604658 9.5884
48.48365897780325 9.631110000000001
48.50807737237308 9.57902
48.532688907799276 9.54552
48.55711201168574 9.5121
48.581537463754074 9.50938
48.60615611725119 9.51263
48.63058628942721 9.517439999999999
48.65501881516546 9.467360000000001
48.6794536962573 9.443769999999999
48.70408185970339 9.43835
48.72852147531801 9.41618
48.75296345168211 9.3958
48.77740779059232 9.40349
48.80204549302823 9.38975
48.82649458091802 9.35033
48.85094603676547 9.3606
48.87539986237231 9.29914
48.90004713292306 9.299619999999999
48.92450572200832 9.26962
48.94896668628025 9.22441
48.97343002754588 9.22617
48.99808689542115 9.22653
49.02255501470614 9.21144
49.04702551642794 9.20112
49.0714984023988 9.12505
49.096164896893235 9.144789999999999
49.120642575466796 9.107389999999999
49.145122643748394 9.10237
49.16960510355558 9.06759
49.19428125404938 9.09436
49.2187685210852 9.04601
49.243258185121555 9.014610000000001
49.26794160167084 8.98955
49.2924360839405 8.999360000000001
49.31693296869764 8.96535
49.34143225776915 8.982460000000001
49.36612538195438 8.93673
49.39062950396021 8.92653
49.41513603578346 8.91348
49.4396449792564 8.88048
49.46434784069503 8.89915
49.488861631846454 8.85224
49.513377840166804 8.8557
49.537896467493745 8.83902
49.56260909589029 8.80224
49.587132585683285 8.77973
49.611658500018365 8.75065
49.636186840738596 8.785789999999999
49.66090926588511 8.77551
49.685442483902584 8.75221
49.70997813385706 8.69881
49.734516217597076 8.67271
49.75924846937352 8.677010000000001
49.7837914452858 8.65397
49.80833686055187 8.631
49.83288471702571 8.62945
49.85762682540054 8.632439999999999
49.882179588965734 8.62472
49.9067347993235 8.54707
49.93129245833333 8.57674
49.95604445336378 8.559289999999999
49.98060703442832 8.51031
50.005172069746266 8.50574
50.02993150438364 8.50818
50.05450147301533 8.5103
50.07907390151433 8.49052
50.10364879174981 8.45027
50.12841816587289 8.42995
50.1529980044635 8.41542
50.17758031042124 8.42878
50.20216508562089 8.3782
50.22694442953363 8.3601
50.25153416817468 8.33704
50.27612638170508 8.33803
50.300721072005196 8.28091
50.325510416102105 8.29752
50.350110084975064 8.29647
50.37471223628208 8.305530000000001
50.39931687190919 8.2596
50.424116246675766 8.2474
50.44872587605249 8.21603
50.47333799543065 8.23157
50.49795260670191 8.19872
50.52276204271512 8.176160000000001
50.54738166295838 8.12995
50.57200378079314 8.11631
50.596628398116835 8.12336
50.62144792604559 8.12444
50.646077567609396 8.10643
50.670709714377715 8.1091
50.69553683636198 8.083789999999999
50.72017401885922 8.05555
50.7448137122895 8.038969999999999
50.76945591856022 7.98146
50.79429318636823 7.991789999999999
50.818940443716784 7.971369999999999
50.84359021965163 7.982810000000001
50.868242516085964 7.956639999999999
50.893089960641895 7.93049
50.917747323549435 7.8818399999999995
50.94240721271973 7.884060000000001
50.96706963007175 7.88895
50.99192728239342 7.9046199999999995
51.01659478166073 7.90227
51.04126481489051 7.8588
51.06593738400761 7.84583
51.090805275207074 7.83577
51.11548294172845 7.813460000000001
51.14016314993547 7.80916
51.164845901758845 7.784039999999999
51.18972406304274 7.74869
51.21441192780656 7.74555
51.23910234200271 7.71555
51.2637953075678 7.70551
51.288683770237945 7.68647
51.31338186432707 7.66325
51.33808251561888 7.62944
51.362978729967345 7.671530000000001
51.387684521509755 7.6074
51.41239287610203 7.60387
51.437103795691165 7.59766
51.46201036644977 7.564430000000001
51.486726441956634 7.57983
51.51144508832545 7.592280000000001
51.536166307509156 7.518730000000001
51.56108326624387 7.509539999999999
51.58580965706056 7.53137
51.61053862657523 7.467110000000001
51.635270176746864 7.443860000000001
51.66019755512065 7.43093
51.68493429268881 7.461410000000001
51.70967361681515 7.42457
51.73441552946465 7.395980000000001
51.759353359237934 7.39463
51.7841004750961 7.3834800000000005
51.80885018539685 7.356210000000001
51.833602492111254 7.362019999999999
51.8585508051424 7.34099
51.883308330926425 7.303710000000001
51.90806845906181 7.33363
51.932831191525715 7.3226
51.95779001977161 7.25778
51.98255798721516 7.27033
52.00732856494335 7.22996
52.03229530577543 7.217569999999999
52.057071130455945 7.170160000000001
52.081849571391054 7.16932
52.106630630568695 7.13563
52.13160794279417 7.1539
52.15639426492067 7.1986
52.18118321127822 7.17208
52.205974783860896 7.07713
52.23096269971011 7.056010000000001
52.255759551287994 7.10117
52.280559035098186 7.080439999999999
52.30536115314103 7.070869999999999
52.33035970494467 7.075130000000001
52.35516711807904 7.032
52.37997717147198 6.9695800000000006
52.40478986713005 6.9882
52.42979908731974 6.98755
52.454617094216 6.9143
52.47943774942214 6.933680000000001
52.50426105495102 6.94793
52.529280976059844 6.953289999999999
52.554109609024096 6.93422
52.57894089837482 6.90457
52.60377484613117 6.85699
52.62880550079408 6.86326
52.65364479223379 6.8755
52.67848674816189 6.86567
52.70352547971946 6.83345
52.72837279155837 6.85814
52.753222773982785 6.789739999999999
52.778075429022984 6.7923
52.80312495150885 6.80933
52.827982978797436 6.78028
52.85284368481815 6.75018
52.87770707160767 6.675730000000001
52.90276741793998 6.72238
52.92763619336701 6.7011
52.952507655698504 6.708889999999999
52.977381806977576 6.68748
53.00245301017842 6.67338
53.02733256653592 6.645910000000001
53.052214817996074 6.631069999999999
53.077099766608484 6.62392
53.102181859804446 6.62835
53.127072229988265 6.604760000000001
53.15196530349892 6.59362
53.17686108239249 6.579160000000001
53.20195409881522 6.54062
53.22685531582556 6.569489999999999
53.25175924441303 6.49466
53.27666588664027 6.5106
53.30176985962693 6.49714
53.3266819565689 6.48225
53.35159677336455 6.48917
53.376514312083096 6.49247
53.40162927507703 6.44066
53.42655228516116 6.37729
53.45147802340193 6.4169
53.47660125628886 6.397819999999999
53.50153247842639 6.36264
53.52646643496923 6.3728
53.55140312799818 6.34282
53.576537409691696 6.32421
53.60147960336152 6.296069999999999
53.626424539786164 6.2981
53.65137222105307 6.30403
53.67651758529126 6.30463
53.70147078399681 6.25932
53.72642673383343 6.26265
53.75138543689533 6.28639
53.776541917524526 6.24855
53.801506154876755 6.23365
53.826473151763246 6.1986099999999995
53.851442910284916 6.144880000000001
53.87661054126026 6.15797
53.9015858509782 6.16338
53.92656392866066 6.17957
53.95154477641532 6.18374
53.976723591801296 6.14872
54.00171000771266 6.12484
54.02669920004598 6.11849
54.051691170915745 6.09258
54.076881204886796 6.04561
54.101878760928514 6.07228
54.12687910187696 6.0368900000000005
54.152077577768296 6.01021
54.1770835166946 6.00885
54.20209224691339 6.03376
54.22710377055121 5.9813
54.25231352511594 5.94802
54.27733066384342 5.94071
54.30235060239643 5.9370400000000005
54.32737334290836 5.93294
54.35259441062629 5.88051
54.377622783395324 5.89056
54.40265396455061 5.92525
54.42768795623251 5.86261
54.45292037169559 5.86011
54.477960012857906 5.8578
54.50300247099511 5.84048
54.52804774825457 5.82641
54.55329154616743 5.7382800000000005
54.57834249018678 5.7470300000000005
54.6033962597977 5.69031
54.6284528571545 5.72426
54.653708072335164 5.71779
54.67877035378786 5.6611400000000005
54.70383546947698 5.62517
54.72890342156389 5.59399
54.7541700889442 5.60067
54.77924374251975 5.60531
54.8043202390049 5.598990000000001
54.82959552413022 5.53733
54.8546777351945 5.48064
54.87976279569621 5.53189
54.90485070780914 5.4996599999999995
54.930137506558005 5.45619
54.95523115074295 5.5145800000000005
54.98032765308844 5.41437
55.005427015775496 5.45335
55.03072536339621 5.42392
55.05583047570572 5.38815
55.080938454927676 5.357469999999999
55.10604930325027 5.3285
55.131359235107396 5.3127699999999995
55.15647585066083 5.30855
55.181595341907496 5.27827
55.20671771104285 5.29939
55.232039262617704 5.23559
55.25716741665048 5.177969999999999
55.28229845518636 5.21587
55.30743238042802 5.18496
55.33276558731939 5.17328
55.357905315183636 5.12616
55.383047936390035 5.04675
55.40819345314859 5.05156
55.433538351073295 5.026
55.458689688238415 5.04743
55.483843927614096 5.0248
55.509197623043605 5.00895
55.53435769621134 4.95717
55.55952067826466 4.955430000000001
55.5846865714265 4.89876
55.61005202069737 4.91867
55.63522376553902 4.90005
55.66039842818645 4.8838
55.68557601087004 4.902769999999999
55.7109532500271 4.82291
55.73613670233794 4.763330000000001
