TT I
1.2716486653135266 7.47434
1.2939594142134223 6.985639999999999
1.3162702121660406 6.8373
1.3385810600174564 6.74396
1.3608919586137629 6.9699
1.383202908801069 6.2594
1.405513911425503 6.70701
1.4278249673332093 5.9878
1.4501343378461518 6.00356
1.4724455028545926 6.0469
1.4947567236847858 6.1901
1.517068001182951 5.89776
1.5393793361953272 6.0142
1.5616907295681737 5.84349
1.5840021821477681 5.13289
1.60631369478041 5.00009
1.6286252683124185 5.166869999999999
1.6509369035901333 5.6397699999999995
1.6732468618895553 5.7336800000000006
1.695558623192809 5.12033
1.7178704487808514 5.6227800000000006
1.7401823395001077 5.21997
1.7625012545597203 4.53179
1.7848028405262486 4.76766
1.8071218901122095 4.92725
1.8294236121921872 4.69249
1.8517427996910911 4.81985
1.8740620574440425 4.6433800000000005
1.8963639900671978 4.48851
1.9186833908139995 4.66606
1.9409854680117449 5.14824
1.9633050151394713 4.927309999999999
1.9856246367570705 4.92802
2.0079269371922672 4.55924
2.03024671027244 3.9690199999999995
2.0525491637446027 4.4892900000000004
2.074869091674931 4.90889
2.097171701569106 4.6570800000000006
2.1194917877373847 4.81151
2.141811954326636 5.31727
2.164114805233074 5.40555
2.186435135143035 6.49442
2.208738150935709 17.9997
2.231058647554722 39.3762
2.2533792288321184 30.3258
2.275682498336085 12.1405
2.298003251406138 6.165769999999999
2.3203066942619714 5.67468
2.3426276225136022 5.3636
2.3649486396617507 5.58893
2.387252348930071 6.06785
2.4095735463442893 5.80839
2.4318774374315884 6.254
2.4541988185014043 6.15268
2.476502894794693 6.48116
2.498824462909887 7.04373
2.521146125856138 6.815239999999999
2.5434504863470337 6.79057
2.5657723414244717 6.9509300000000005
2.588076895590662 7.33708
2.610398946189713 7.62915
2.6327210958598384 7.71588
2.6550259469304716 7.438680000000001
2.6773482972090137 8.13095
2.6996533504259 8.11716
2.7219759047039602 7.987080000000001
2.744298562293959 7.90528
2.7666039251246595 8.01722
2.7889267918020164 7.841239999999999
2.8112323652516555 8.3368
2.833555444408179 8.582880000000001
2.8558786311183852 8.35407
2.8781845268938557 8.24445
2.9005079311721484 8.526580000000001
2.9228140460410397 8.76267
2.9451376712799635 9.43172
2.967444008632326 9.56066
2.9897678582247247 9.78435
3.0120918213106695 10.244000000000002
3.0343984987899373 10.1798
3.0567226913198637 11.3893
3.079029599759726 11.5672
3.101354025127254 12.517999999999999
3.123678568232338 13.1099
3.145985829517914 13.0108
3.16831061055229 13.1961
3.1906181112775593 14.7982
3.212943133635653 14.5769
3.2352682779763207 15.0925
3.2575761442691227 15.4708
3.2799015350264273 16.0178
3.302209649240067 16.6759
3.3245352898092655 17.1101
3.3468436553365257 17.724
3.369169549113219 17.8888
3.3914955708171384 18.7024
3.413804319727358 19.2757
3.4361305997334863 18.9171
3.4584396084414553 20.021
3.4807661501462652 20.7754
3.503092824025881 21.7683
3.5254022288463154 21.7744
3.5477291695206588 22.4316
3.5700388426251948 23.2015
3.5923660534916446 24.9606
3.6146934007816114 45.3388
3.637003482731501 119.10799999999999
3.6593311053109985 134.894
3.681641464033634 73.4034
3.7039693653009733 34.2073
3.726297407241705 27.185
3.7486081875460804 26.3549
3.7709365132734978 26.8866
3.793247578841633 27.1242
3.8155761917550093 27.5601
3.8378875459837216 27.9249
3.8602164494827234 28.018
3.882545499606844 28.6338
3.9048572932539183 29.3171
3.9271866390645718 30.0389
3.9494987298666713 30.4214
3.971828374764527 30.9716
3.9941581705403255 31.412
4.016470713506008 32.1489
4.038800813471445 32.7224
4.061113662089144 33.5948
4.0834440696459176 34.5517
4.105774632334751 34.8684
4.128087945865126 35.7144
4.150418821249301 36.3551
4.172732448931298 38.0749
4.195063640413578 40.4782
4.2173775856475215 45.3818
4.239709096631102 88.4314
4.262040768704612 320.279
4.284355196706267 455.79
4.306687193387355 289.813
4.329001947444346 100.802
4.35133427213731 51.8004
4.373666762177566 46.101000000000006
4.395982011761091 45.6556
4.418314834921175 47.0611
4.44063041906622 57.9324
4.4629635787515625 74.8941
4.4852969080429785 73.9607
4.5076130004776225 57.558
4.529946671403969 51.0628
4.552263106909177 50.4237
4.574597122877047 51.7096
4.596931312711224 52.7339
4.619248269273446 53.6629
4.6415828092605835 54.8309
4.663900117405352 55.8702
4.686235010953232 57.6124
4.708552674085913 58.3668
4.730887924602802 59.8761
4.753223354952695 61.0058
4.775541557023902 62.6355
4.797877349456786 63.8845
4.820195915032126 66.2127
4.842532072957498 67.4363
4.864868414979744 69.7222
4.88718753227192 71.4839
4.909524244902505 73.7683
4.931843734218147 75.3603
4.954180820867835 78.2701
4.976518095879839 81.2298
4.998838149695359 83.9527
5.021175803844231 87.0156
5.043496238205739 90.6009
5.065834274903528 94.6284
5.088172504230693 99.9577
5.1104935158799565 107.211
5.132832132875765 135.27200000000002
5.155153533596801 194.891
5.1774925416746225 233.21400000000003
5.199814334878411 371.76
5.2221537374521505 1010.59
5.244493338631803 2718.59
5.266815727034316 7025.7
5.289155727832427 11846.1
5.311478517248165 9442.02
5.333818921080011 3383.34
5.356159527788849 688.908
5.3784829252032536 208.15
5.400823940070432 152.939
5.423147747031976 133.912
5.445489173474152 122.542
5.467830807066149 115.87299999999999
5.490155234831516 110.73200000000001
5.512497285125229 107.42299999999999
5.534822130975162 106.04
5.557164601388673 103.23100000000001
5.579489868738879 100.45700000000001
5.601832762690846 100.20299999999999
5.6241758697774475 99.4574
5.646501775867269 98.2924
5.668845311622074 96.2023
5.691171647754637 95.6412
5.713515615597765 93.7652
5.735859800852677 92.524
5.758186788542988 92.1104
5.780531411018185 92.1712
5.802858837297399 91.7794
5.825203900414495 91.6775
5.8475491852224 91.9444
5.869877275883075 92.6414
5.892223006467101 93.5786
5.914551544266608 94.9446
5.936897724049891 97.4358
5.959244129804903 102.795
5.981573344815301 119.984
6.0039202049061 206.632
6.026249875609095 443.675
6.04859719346037 934.566
6.070927323278297 2015.72
6.093275102315365 4057.16
6.115623113320588 5237.24
6.137953938319995 3548.48
6.160302415650845 1209.02
6.182633708324452 288.81
6.2049826554078376 124.51100000000001
6.227331838745022 97.3338
6.249663839443684 88.5648
6.27201349767565 86.0157
6.294345974611799 95.4382
6.316696111167083 114.257
6.339046488263839 106.904
6.361379686074702 85.6782
6.383730546639482 74.1768
6.406064229255215 70.1532
6.428415576718203 69.3723
6.450749747566656 68.3043
6.47310158535871 67.1971
6.495453669698332 66.4988
6.517788579421056 66.0821
6.540141159237969 65.0988
6.562476565766648 64.4444
6.5848296444934045 64.3194
6.607182974060425 64.1082
6.6295191323281015 64.3515
6.651872965955752 69.2114
6.6742096296068985 105.715
6.6965639707294615 176.61700000000002
6.71891856698715 178.338
6.741255995248479 113.421
6.763611104154477 73.9775
6.785949046381137 62.7802
6.808304671371482 59.9236
6.8306605557940046 59.1334
6.852999275508618 58.4365
6.875355681171544 58.2886
6.897694923437771 57.813
6.92005185377892 57.9728
6.9423916220322655 57.6232
6.964749080490181 56.6863
6.987106804399774 56.835
7.009447368180821 56.8305
7.031805625367033 56.5774
7.054146723727803 56.2767
7.076505517631004 56.1117
7.098864581288365 56.2517
7.121206488070854 56.0542
7.143566093607822 56.1445
7.165908543567245 56.5064
7.188268694426048 56.5029
7.2106291193438095 57.1978
7.232972390625943 59.5157
7.255333366030969 76.3717
7.277677189091925 154.828
7.300038718428332 228.61
7.322400526130865 188.737
7.344745183422596 106.63600000000001
7.367107550224791 66.5089
7.389452767901992 58.4077
7.411815697249891 56.8342
7.434161478756298 55.7026
7.456524974096713 55.5682
7.478888753837185 55.6587
7.501235387657368 55.8505
7.523599738562711 55.95399999999999
7.545946944825532 56.4667
7.568311870344528 56.5241
7.5906770845765665 57.1368
7.613025156078678 58.992
7.635390950099687 60.5839
7.657739602662809 59.2517
7.680105979923558 57.5005
7.702472650212829 57.0929
7.724822180948224 56.6154
7.747189439655568 57.2411
7.769539560075357 57.1865
7.791907410653562 57.6284
7.81425812420825 57.5102
7.836626570110925 57.9713
7.858995315087906 58.665
7.881346924933401 58.6286
7.903716270417482 59.3505
7.926068482028405 59.3712
7.948438431475253 60.305
7.9708086843180235 60.6508
7.993161805171116 61.042
8.015532667162402 61.5654
8.037886398416653 62.536
8.060257873014221 63.3027
8.082629655331942 63.4372
8.104984308787587 64.3457
8.127356708900503 69.1497
8.149711981398308 77.1445
8.172085002766314 80.4489
8.194458336181368 74.9974
8.216814543847752 70.9916
8.23918850371002 70.3021
8.26154533906492 70.9413
8.283919928836452 72.3337
8.306277395339652 73.4401
8.328652618483376 74.9551
8.351028159736202 76.5892
8.373386579575245 79.0697
8.395762759396959 80.9193
8.418121819038275 86.7731
8.440498640894003 104.59
8.462875785192262 124.289
8.485235811156207 133.416
8.507613602688501 166.22
8.529974277114228 247.715
8.552352719347912 375.50800000000004
8.574731488360351 626.842
8.59709314210385 1089.37
8.619472567021075 1740.68
8.64183487789147 2149.64
8.664214962183097 1916.85
8.686577933647762 1076.34
8.708958680784317 440.598
8.731339760774953 192.00400000000002
8.753703729764451 119.098
8.77608547780821 102.552
8.798450116065078 97.5869
8.820832535634787 94.4065
8.843215292401656 92.4406
8.865580941199045 90.9084
8.887964374703538 89.8958
8.910330701447199 91.6269
8.932714815164482 95.5376
8.955099270424924 95.0954
8.977466620733543 90.4364
8.999851761421976 86.8809
9.022219798361645 84.7303
9.04460562795561 84.3429
9.066991803441677 83.6715
9.089360876979615 83.5746
9.111747746589993 83.1388
9.13411751544971 82.7629
9.156505082664324 82.4894
9.178875550323522 82.7604
9.20126381862328 83.3202
9.223652438908596 83.9025
9.246023961427412 83.3697
9.26841328802173 82.6029
9.290785518039224 82.6193
9.313175554425882 82.8847
9.335565947154315 83.2827
9.357939245086508 83.5483
9.380330352834827 83.7707
9.40270436697103 84.0221
9.425096193225055 83.9674
9.447488380180165 84.4327
9.469863475295412 84.4793
9.492256385987508 85.065
9.514632206018318 85.8703
9.537025843935714 86.3526
9.559402392368193 86.8521
9.581796761000229 87.8263
9.604191496441521 88.9101
9.626569144158516 93.8358
9.648964615551032 100.40899999999999
9.671343000390081 103.14200000000001
9.693739211225699 99.3592
9.716135793237463 95.4489
9.738515290448102 94.1462
9.760912617143402 94.8529
9.783292860202891 96.0868
9.805690935076182 97.1541
9.828089385495742 97.94200000000001
9.850470754023561 100.978
9.872869957865444 111.01899999999999
9.89525208097539 132.885
9.917652041736662 150.226
9.940052382417589 147.086
9.962435644102392 145.33700000000002
9.984836746950979 174.61599999999999
10.007220771957746 233.199
10.029622640473708 331.44300000000004
10.052007432299963 492.26
10.074410069984072 744.7719999999999
10.096813093716005 1147.88
10.119199042482517 1620.03
10.141602840636468 1949.12
10.163989564971628 1711.49
10.186394141051062 1045.42
10.208799107559706 468.26199999999994
10.231187001965623 213.87900000000002
10.253592751657669 134.15200000000002
10.275981430388155 117.04299999999999
10.298387966769793 117.323
10.320794897965431 121.84200000000001
10.343184759907361 120.772
10.36559248305461 112.852
10.387983138083852 106.944
10.410391656691655 107.916
10.432800574501677 117.652
10.455192425893369 133.34
10.47760214443012 157.705
10.499994797678786 196.46400000000003
10.522405320453982 266.45799999999997
10.54479877906917 372.529
10.567210109595656 497.10400000000004
10.5896218454736 560.599
10.612016518879773 544.045
10.634429067781074 394.533
10.656824555333241 226.62
10.679237920773568 135.371
10.701651695961992 100.165
10.724048411481384 91.2352
10.746463008485165 87.617
10.768860546937125 86.3164
10.791275969274796 84.1319
10.81369180576079 83.0385
10.836090585366925 81.8792
10.858507252467449 80.8779
10.88090686379991 79.8356
10.903324365036394 79.947
10.925724811614439 79.997
10.948143150509463 82.0636
10.970561909719066 81.1392
10.992963615930844 78.9429
11.015383218085756 75.7447
11.037785768347074 73.8849
11.06020621697282 73.8583
11.082627090322113 73.33
11.105030913430326 72.8343
11.12745263854165 73.9561
11.149857314510728 78.9835
11.172279894912576 88.3489
11.194702904450653 89.8791
11.217108866490921 84.2761
11.239532736615194 77.7392
11.26193956033512 74.9305
11.284364294577085 72.4801
11.306789462371718 70.0953
11.329197585398376 68.4299
11.351623622610898 67.7842
11.37403261614354 67.0944
11.396459526308487 66.81
11.418869393879497 66.4826
11.441297180532617 65.8805
11.463725406927658 65.6771
11.486136592353875 65.7036
11.508565700543707 66.5215
11.530977768845315 69.33800000000001
11.553407762368774 70.8421
11.575838200059769 69.9782
11.598251599479612 66.995
11.620682927815501 65.3069
11.64309721895548 64.6923
11.665529441478206 64.0279
11.687962112597958 63.6082
11.710377748130886 63.795
11.732811318753434 63.6927
11.755227854859067 63.977
11.777662328529495 63.9738
11.800079768750786 63.7137
11.822515149015453 63.2988
11.844950984084935 63.4776
11.867369787303163 63.1283
11.889806534289491 63.1145
11.912226250487029 63.5793
11.934663912939751 63.754
11.9571020346363 63.63399999999999
11.979523127133968 63.5446
12.001962169624331 64.234
12.024384183972964 65.3221
12.046824150809913 67.8913
12.069264581333726 73.1997
12.091687985297767 79.4133
12.11412934550045 88.0314
12.136553680195208 101.77
12.158995973632788 120.071
12.181438735204349 147.011
12.20386447284199 175.40900000000002
12.226308172985636 204.139
12.24873485024193 215.157
12.271179492516982 177.855
12.293607112949127 141.004
12.316052700916226 105.95299999999999
12.338498763250042 85.0512
12.360927805303868 73.9597
12.383374818673879 68.5229
12.405804812803074 66.0518
12.428252780773262 65.345
12.45070122756722 65.4143
12.473132656675375 65.0712
12.49558206341869 65.3141
12.518014453510101 65.1524
12.540464823770117 65.4447
12.562915677315177 65.9183
12.58534951575545 66.639
12.607801338171472 69.4301
12.630236146511358 77.0038
12.652688941369085 84.2373
12.675124723177234 84.6433
12.697578494048786 78.6254
12.720032754458185 72.0926
12.742470003354093 69.1671
12.764925245138771 68.7336
12.787363476431278 68.8884
12.809819703166806 69.0584
12.83227642391173 69.7037
12.854716135692716 70.3309
12.877173846755147 71.3868
12.899614549869717 71.6893
12.9220732548287 72.5543
12.94453245827299 72.9065
12.966974655289818 73.7521
12.989434858002571 74.6499
13.011878055298721 75.2403
13.034339260862497 76.1226
13.056800969391883 77.3112
13.079245674017244 79.3557
13.101708390774869 81.2772
13.12415410463411 87.9671
13.146617833206086 99.8436
13.169064559883248 111.757
13.191529303857127 125.09299999999999
13.213994557076367 146.14
13.236442809902437 177.523
13.258909083908291 224.172
13.28135835851934 280.096
13.30382565690295 346.86400000000003
13.326293469022952 410.787
13.348744283242008 436.592
13.371213125129904 389.99
13.39366497011003 291.94599999999997
13.416134845360597 193.843
13.438605238843131 132.496
13.46105863690397 109.31299999999999
13.483530069144786 106.772
13.505984506951902 110.921
13.528456981549432 119.12299999999999
13.550929978879088 132.805
13.573385983253365 153.657
13.595860028340867 187.18
13.618317081455832 231.4
13.64079217790333 282.8
13.663250283359057 332.283
13.685726434770173 368.13800000000003
13.708203115221277 356.05699999999996
13.730662806148091 285.98400000000004
13.75314054697177 205.81
13.775601299246777 141.007
13.798080104050406 103.685
13.820559442405358 87.9314
13.843021793671388 83.2952
13.865502201420897 81.3035
13.887965623051947 80.5803
13.910447103807167 79.3949
13.932929122629764 78.1889
13.955394156785959 77.6229
13.977877254034569 76.5829
14.000343367582113 75.8738
14.022827546871707 75.1445
14.045294743423524 74.5713
14.06778000837062 74.0098
14.090265817715476 73.7943
14.112734645763819 73.3792
14.13522154619454 73.3288
14.157691466286913 73.6157
14.180179461423874 73.3657
14.202668005486178 72.61399999999999
14.22513957064374 71.9853
14.247629214846473 71.056
14.270101881097517 71.0931
14.29259262906496 71.513
14.315083930490205 72.9549
14.337558255389705 73.3284
14.360050666019726 73.0605
14.382526101071944 71.704
14.405019624534942 70.5755
14.427513705993134 69.8192
14.449990813291825 69.5345
14.47248601302899 69.3911
14.49496423954951 69.4234
14.517460561197822 69.4148
14.539939910570322 69.2584
14.562437357763558 69.4385
14.58493536931253 71.1721
14.607416409993311 72.6484
14.62991555254159 73.5498
14.652397725157423 73.3541
14.674898002342799 72.1315
14.697398848433282 71.3531
14.719882725991326 71.6646
14.74238471217934 72.4269
14.764869730765593 75.3391
14.787372860692983 78.6647
14.809876564079925 83.0472
14.83236330125751 88.4942
14.854868153850365 96.5484
14.877356041159485 107.98
14.899862046604186 123.95700000000001
14.922351087688757 145.439
14.944858249632887 172.042
14.967365991421232 198.25
14.989856770231246 220.18200000000002
15.012365673994204 223.737
15.03485761569738 202.215
15.05736768508665 161.827
15.07987833888692 123.56299999999999
15.102372032001655 96.4526
15.124883856909658 80.2329
15.14737872204565 73.8899
15.169891721717274 71.7567
15.192405310371893 71.7336
15.214901940621196 72.6293
15.237416709527137 73.1757
15.259914520936249 73.2751
15.282430473753607 72.1848
15.304947020131227 70.5965
15.327446610371178 69.5427
15.349964346154254 68.3126
15.372465126703139 67.4896
15.394984055556009 67.2705
15.417486030076159 67.1613
15.44000615566487 66.7117
15.462526881230803 66.8899
15.485030653812652 67.1073
15.507552581617434 67.4106
15.530057557334603 67.4079
15.55258069104857 67.3456
15.575104429329837 67.077
15.597611216864632 66.6333
15.620136166564563 66.5538
15.6426441664095 67.2109
15.665170331202765 69.2493
15.687697105158826 72.277
15.710206930593545 75.4106
15.732734925158933 79.6043
15.755245972089478 85.1662
15.77777519094324 93.5284
15.800287463046663 104.306
15.822817909869592 120.368
15.84534897229804 138.203
15.867863089299354 161.339
15.890395385222186 180.59400000000002
15.912910736597423 193.26
15.935444269699861 189.59
15.957978423016485 166.054
15.980495633101265 134.529
16.003031029129367 103.65899999999999
16.02554948280019 81.1791
16.048086125229432 70.7126
16.070623392487107 67.6711
16.09314371869582 66.7386
16.11568223789321 65.8355
16.13820381691126 64.5394
16.160743591742527 63.0789
16.183283996022084 61.9183
16.205807461423195 60.5284
16.228349126881973 59.8206
16.25087385432698 59.9318
16.27341678466365 59.2569
16.29594277784926 59.1297
16.31848697676433 59.8122
16.341031811604868 60.674
16.36355971058487 61.1082
16.3861058195587 60.7657
16.40863499352978 59.071000000000005
16.431182380342005 57.9625
16.453730407713202 57.2543
16.476261501364792 56.825
16.498810812136167 56.2704
16.52134319004079 56.4157
16.54389378792203 56.3778
16.566445031001553 56.0522
16.588979342490088 55.8058
16.61153187824822 55.7296
16.634067483263312 55.7606
16.656621315414416 55.8686
16.679175797408888 55.2723
16.701713349928728 55.4161
16.72426913389191 55.5623
16.74680798922351 55.8589
16.76936507887444 55.8913
16.791905240734874 55.7982
16.814463639794468 55.798
16.837022695210294 55.6984
16.859564824093756 56.0174
16.882125194503903 57.0644
16.904668639217885 58.1635
16.927230328348003 58.5599
16.949792678493612 58.3956
16.972338104193863 57.5205
16.994901778652235 56.7411
17.017448529496576 56.6231
17.040013531998152 56.6131
17.06257920018044 56.8361
17.0851279459922 57.4606
17.107694947817667 58.3733
17.130245028099072 59.1128
17.15281336730298 60.5223
17.17536478578733 61.9109
17.19793446610687 63.8688
17.220504818648422 66.1431
17.243058251703697 68.94
17.265629950971032 73.3291
17.288184731571736 77.3007
17.310757781306908 82.1065
17.33333150794385 83.3655
17.355888317140174 83.1464
17.37846339986244 79.4811
17.401021565958885 73.9079
17.42359800851343 67.9018
17.44617513265564 63.574
17.468735341390783 61.1567
17.491261035594565 60.0187
17.51396340099364 59.7424
17.536490463869136 59.7632
17.559018209820174 59.861000000000004
17.58154663977963 59.9606
17.604251766089718 59.9615
17.626781572227713 60.1655
17.64931206518155 60.5614
17.671843245885103 61.1825
17.69455114821572 61.5645
17.717083712612634 61.727
17.739616967569667 61.5896
17.762150914021706 61.8567
17.78486160749854 61.9154
17.807396945166804 62.4928
17.829932977143503 62.9926
17.85246970436452 64.4586
17.875183204129467 66.1581
17.897721330097664 68.4262
17.920260154126645 70.8829
17.942799677153296 73.6961
17.9655159983646 77.329
17.988056927677544 81.8214
18.010598558807683 88.2482
18.033140892692916 96.6556
18.05586005052525 106.266
18.07840379824407 116.712
18.10094825154059 128.27
18.12366954819864 137.951
18.146215420998306 141.865
18.16876200220057 135.761
18.191309292745153 123.041
18.214033452627167 108.973
18.236582170236648 95.3863
18.259131600016456 88.0204
18.281681742907335 86.5477
18.304408781233683 89.5693
18.32696035875955 93.7806
18.349512652227624 98.8144
18.372065662579683 104.323
18.394795594587553 106.863
18.41735004715306 106.155
18.43990521943684 100.56299999999999
18.46246111238171 91.6985
18.485193953325208 81.4004
18.507751296070428 73.1502
18.530309362314178 67.8133
18.552868153000343 64.7221
18.57560391815056 63.2567
18.59816416623245 62.6873
18.620725141597372 62.0933
18.643286845190268 61.6117
18.666025549835414 61.2039
18.688588718427933 60.4867
18.711152618092243 60.5084
18.73389353884365 60.0562
18.75645890921984 59.6299
18.77902501351406 59.4592
18.801591852673102 59.4573
18.824335739722738 58.8361
18.846904057212626 58.6655
18.8694731124168 58.371
18.89204290628315 58.3055
18.914789774966803 58.2111
18.937361054791623 57.9528
18.959933076131318 57.6915
18.982505839934877 57.7903
19.00525570560582 57.9515
19.027829963004184 57.6466
19.05040496572238 57.7646
19.072980714710468 57.681000000000004
19.095733592739563 57.7558
19.11831084296757 58.2671
19.140888842324735 58.5329
19.16346759176222 58.9936
19.18622349753803 59.6509
19.208803755869358 60.1586
19.231384767143577 61.2646
19.253966532312948 62.3714
19.276725481241822 63.956
19.29930876296784 66.0102
19.3218928014549 68.8983
19.34465404436217 72.01899999999999
19.36723960516257 75.1839
19.389825925592426 77.053
19.412413006605938 77.4304
19.43517731967805 74.3982
19.457765930683355 69.8909
19.48035530514408 65.0924
19.50294544401556 61.0297
19.525712842708348 58.0755
19.54830451925909 56.1427
19.570896963095727 54.9614
19.593490175174704 54.5953
19.616260674962184 54.5912
19.638855432416964 54.2213
19.661450960992624 54.32899999999999
19.68404726164677 54.2063
19.706820878021247 54.0081
19.729418731756834 54.2543
19.752017360452857 53.9305
19.77461676506804 54.1095
19.797393513540218 54.2799
19.819994478951667 54.3972
19.84259622316767 54.9766
19.8651987471481 55.4436
19.887978643247177 55.5976
19.91058273574792 56.0451
19.933187610901943 56.8017
19.955969879466828 57.6619
19.97857632894404 58.7773
20.00118356396599 60.1597
20.023791585494575 61.7871
20.046577028914875 64.3523
20.069186632506966 66.4784
20.091797025500632 69.017
20.114408208858933 70.3199
20.137196842715273 70.6956
20.159809615886765 70.0864
20.18242318232135 67.3792
20.20503754298326 64.9753
20.227829382875154 63.2708
20.250445341109344 62.2564
20.27306209647285 62.7288
20.29567964993108 63.6483
20.31847471147704 64.8238
20.34109387027612 66.21600000000001
20.363713830075454 66.4645
20.386334591841646 65.5435
20.409132890679302 63.1093
20.431755265564437 59.9912
20.454378445325528 57.1158
20.477002430930366 55.0245
20.499803982716553 53.4989
20.522429589228004 52.6359
20.54505600449589 52.0045
20.567683229489194 51.806000000000004
20.590488049900088 51.3889
20.61311690359731 50.992
20.63574656993626 50.6843
20.658553853717297 50.288999999999994
20.681185154618298 50.2014
20.703817271080066 50.0431
20.72645020407368 49.7517
20.749260783967177 49.7012
20.771895359337133 49.6242
20.794530754161617 49.5626
20.817166969412938 49.5407
20.83998086114876 49.5281
20.86261872660049 49.2398
20.885257415405402 49.3676
20.90789692853701 49.0873
20.930714147864748 49.07
20.953355319030678 49.1142
20.97599731745334 49.1393
20.99864014410749 49.038000000000004
21.021460706796564 49.1832
21.044105199328826 49.4453
21.06675052302631 49.6331
21.089396678865015 49.8855
21.112220600704806 49.9013
21.134868430275347 50.1387
21.15751709492456 50.5953
21.180166595629693 50.7442
21.202993892429635 51.1545
21.22564507473034 51.6394
21.24829709602816 51.9246
21.27112693608965 52.0497
21.293780644891275 52.089
21.316435195634053 51.5685
21.339090589297417 50.9919
21.361923832041875 50.5211
21.384580921090404 49.7739
21.407238856007325 49.2818
21.429897637773326 49.0836
21.45273429906592 49.0168
21.475394784108598 49.0878
21.498056118951983 48.8352
21.520718304578022 49.2264
21.543558400304388 49.2066
21.566222297108816 49.3771
21.58888704765135 49.3864
21.61155265291521 49.6317
21.63439619898156 50.1006
21.657063523335786 50.2476
21.67973170537063 50.7359
21.7024007460706 51.4084
21.72524775840385 51.9434
21.747918526116475 52.7803
21.770590155457388 53.8486
21.79326264741238 55.3436
21.816113141960237 56.768
21.838787368860547 58.4934
21.861462461341976 60.2555
21.884315579735777 62.1479
21.90699241312273 63.7159
21.92967011506078 64.9556
21.95234868653799 65.47
21.9752053151131 64.7458
21.997885635446785 63.157
22.020566828293532 61.0052
22.04324889464272 58.9358
22.066109049404666 57.2838
22.088792872571794 56.6096
22.111477572219204 56.2845
22.1341631493376 56.4705
22.157026846313123 56.5878
22.179714188221507 56.3148
22.202402410582668 55.4089
22.22509151438863 53.9032
22.24795876962584 52.5533
22.270649646204486 51.5308
22.293341407213727 50.4943
22.316034053646906 50.1353
22.338904883215342 49.7395
22.36159931041458 49.63
22.38429462602756 49.5732
22.40699083104897 49.571999999999996
22.429865251039757 49.6999
22.452563244831367 49.7231
22.47526213102522 49.6929
22.49813925616515 49.505
22.520839937143307 49.1988
22.543541513520587 49.0936
22.56624398629403 49.022
22.589124730075895 49.0759
22.611829005656723 49.2405
22.63453418063466 49.1766
22.657240256008077 49.3309
22.680124634582935 49.4185
22.70283252079775 49.766000000000005
22.725541310413075 50.0916
22.74825100442868 50.2998
22.771139033969575 50.681999999999995
22.79385054687155 50.7792
22.81656296718292 51.345
22.83927629590484 52.1079
22.862167992606945 53.1201
22.88488314827121 54.0015
22.907599215359284 54.8738
22.93031619487366 55.8578
22.953211574954405 56.9321
22.975930389478226 58.2098
22.998650119445763 58.9274
23.02137076586092 58.5253
23.044269845560063 57.3832
23.06699233506288 55.946000000000005
23.089715744034912 54.1009
23.112617610931565 52.2577
23.135342869061212 50.8814
23.158069049684816 49.9782
23.1807961538087 49.5374
23.20370174880544 49.5378
23.226430710184808 49.5052
23.249160598093425 49.4629
23.271891413539002 49.3407
23.294800752937697 49.2636
23.31753343374794 49.4649
23.340267045128353 49.6351
23.36300158808808 49.8949
23.38591468821339 50.138000000000005
23.408651104658304 50.5446
23.431388455719986 50.9197
23.454126742409 51.563
23.4770436196085 52.6354
23.499783787914662 53.8762
23.522524894889884 54.6584
23.54526694154616 55.6526
23.56818761219047 56.8657
23.59093154860734 57.6351
23.613676427751283 58.3983
23.636422250635754 58.0582
23.659346731118656 56.8736
23.68209445191868 55.218
23.704843119509587 52.9559
23.72759273490623 50.9693
23.750521041644767 49.1996
23.77327256312355 48.0132
23.796025035462787 47.2561
23.818956224555475 46.7213
23.841710609113413 46.6658
23.86446594758979 46.4466
23.887222241002014 46.1623
23.910157285144578 45.7181
23.932915498962537 45.8531
23.955674670778713 45.7105
23.978434801611975 45.4768
24.001373717286125 45.3715
24.024135776723917 45.2547
24.046898798245582 45.1722
24.06966278287146 45.0098
24.092605586582614 44.8805
24.115371508023642 44.6754
24.1381383956401 44.685
24.16090625045381 44.6524
24.183852958731244 44.5197
24.206622758582608 44.427
24.229393528706886 44.0486
24.252165270127392 44.2695
24.27511589952438 44.2814
24.297889594216997 43.9494
24.32066426328598 43.8374
24.34343990775613 43.9513
24.36639447485003 43.6365
24.38917208083877 43.6566
24.41195066531332 43.5925
24.43490819850244 43.6779
24.457688750692377 43.3895
24.48047028445616 43.4727
24.503252800821233 43.5871
24.526214300784112 43.6708
24.548998793132213 43.5843
24.57178427117417 43.5482
24.59457073593893 43.4611
24.617536219319863 43.4622
24.64032466834748 43.4979
24.663114107195035 43.4337
24.685904536893013 43.0267
24.708874020360852 43.0007
24.731666442613744 43.0041
24.754459858818787 42.9485
24.777254270007962 43.00899999999999
24.80022777025625 42.6828
24.82302418230472 42.7495
24.845821592443674 42.738
24.86862000170663 42.7278
24.891597535453727 42.4998
24.914397953892728 42.8615
24.93719937456671 42.7096
24.96000179851076 42.7283
24.98298338249997 43.0188
25.00578782394922 43.1875
25.028593271784167 43.2567
25.05157790644186 43.5678
25.07438537804115 43.6898
25.097193859145293 43.7619
25.120003350792075 44.0417
25.142992065061257 44.3805
25.165803588823465 44.7198
25.18861612625217 45.0455
25.211429678386736 45.0712
25.234422489079968 45.2249
25.257238081693636 45.2025
25.280054692141732 45.1793
25.3028723214652 45.2
25.325869245420463 45.263999999999996
25.348688923599397 45.3682
25.371509623787006 45.4058
25.394331347025812 45.3106
25.41733240110666 44.881
25.440156181590016 44.218
25.46298098826268 43.8846
25.48580682216873 43.2072
25.50881202326435 42.5013
25.53163992281684 41.9732
25.55446885274561 41.7017
25.577298814096377 41.4678
25.600308179121807 41.4353
25.623140214533745 41.4911
25.64597328451537 41.2918
25.66898578564376 40.9906
25.691820936010206 41.0935
25.714657124097695 41.1499
25.737494350954734 41.07899999999999
25.760511045684957 41.0988
25.783350361364224 41.0149
25.806190718969255 41.059
25.82903211955018 41.0855
25.852053024868923 41.2111
25.874896522722523 41.2833
25.897741066713106 41.0753
25.920586657892454 41.1205
25.943611790812668 41.2515
25.966459487728237 41.3318
25.989308234998564 41.2232
26.01215803367705 41.6745
26.03518741123814 41.8355
26.05803932412957 41.7356
26.080892291600094 41.8053
26.10374631470478 42.0097
26.12677995397268 42.2039
26.14963609978026 42.2032
26.172493304397875 41.9375
26.19535156888223 41.8242
26.218389486949604 41.4422
26.241249882640123 41.0834
26.26411134137826 40.8552
26.28715248187403 40.8552
26.31001607820869 40.6357
26.3328807407756 40.4766
26.35574647063438 40.6592
26.37879191991473 40.5925
26.401659795896734 40.5434
26.424528742360263 40.7173
26.447398760366614 40.8582
26.470448535598294 40.9132
26.49332070826805 41.233000000000004
26.516193955675355 41.4909
26.53906827888316 41.5524
26.562122397260108 41.861999999999995
26.584998883685063 42.1074
26.607876449110325 42.236999999999995
26.63075509460056 42.4515
26.65381357334404 42.5001
26.67669439061878 42.5904
26.699576291163382 42.7294
26.722459276044212 42.6198
26.745522132402975 42.3213
26.768407297649354 42.1393
26.791293550442003 41.6158
26.814180891848974 41.403
26.837248143099337 41.117
26.860137673466657 40.9337
26.88302829566349 40.7593
26.90592001075963 40.5708
26.92899167420566 40.4342
26.951885586870763 40.14
26.974780595655517 39.8306
26.99785558178161 39.8203
27.020752794605112 39.4726
27.043651106772522 39.2905
27.06655051935668 39.4167
27.089629948036183 39.0948
27.112531573292053 39.1212
27.135434302194138 39.2015
27.158338135817015 39.0067
27.181422024430987 39.1974
27.204328079372566 38.9422
27.22723524226965 39.0244
27.250143514198573 39.0933
27.273231880156334 39.0721
27.296142382065014 38.7855
27.319053996245536 38.7619
27.341966723775965 38.8318
27.365059584515222 38.9851
27.38797455070062 38.9812
27.410890633481237 38.8986
27.433807833936918 38.7444
27.456905206923906 38.945
27.47982465472398 38.914
27.502745223449743 38.8064
27.525666914182825 39.08
27.548768816912457 39.1081
27.571692763693633 38.9399
27.59461783573812 38.8213
27.617723149491244 38.583
27.640650484125285 38.6315
27.66357894728264 38.7023
27.686508540048052 38.5405
27.709618414237887 38.4255
27.732550278321757 38.3818
27.755483275279115 38.2527
27.778417406196485 38.2356
27.801531858397514 38.2821
27.824468269376716 38.2605
27.847405817586786 38.1697
27.870344504116094 38.3729
27.893463551932008 38.4677
27.916404527281053 38.6477
27.93934664422563 38.635
27.962289903855886 38.6653
27.98541356491974 38.8186
28.00835912214229 39.1346
28.03130582533231 39.2746
28.054253675581805 39.4996
28.077381967556104 39.5851
28.100332124185126 39.4593
28.123283431160893 39.4008
28.146235889577238 39.3274
28.169368830154156 39.1767
28.192323603752033 39.0283
28.215279532083304 38.7126
28.238415973016764 38.3299
28.261374223145094 38.4064
28.284333631303806 38.1658
28.307294198589954 38.0887
28.330435319167677 37.8086
28.353398217078915 37.4286
28.376362277420153 37.2253
28.39932750129032 37.1323
28.422473319286713 36.9762
28.44544088262495 36.7544
28.468409612800283 36.695
28.491379510913497 36.5516
28.51453004413313 36.3857
28.53750229057244 36.2816
28.56047570826344 36.2886
28.583450298308804 36.4606
28.606605564586562 36.0914
28.629582511831156 36.1639
28.65256063474956 36.1738
28.675539934446338 36.0911
28.698699951647605 36.1385
28.72168161743193 35.9713
28.74466446331978 35.9416
28.767648490417624 35.8976
28.790813276438353 35.8132
28.813799678527303 35.8204
28.836787265157085 35.7808
28.859955641890075 35.8221
28.882945610203045 35.7934
28.905936766392035 35.7301
28.928929111566863 35.7315
28.952102288520145 35.6322
28.975097024308607 35.6613
28.998092952423807 35.5344
29.021090073977508 35.4529
29.04426806913204 35.1969
29.067267590245258 35.075
29.090268308143695 35.0477
29.11327022394099 34.9477
29.13645305530891 34.8408
29.159457379627167 34.7267
29.18246290519685 34.647
29.20546963313352 34.7306
29.22865731875826 34.763000000000005
29.25166646419296 34.7552
29.27467681535305 34.626
29.29768837335608 34.8069
29.320880931312562 34.6843
29.34389491580634 34.5711
29.366910110507334 34.7033
29.38992651653503 34.6316
29.41312396492981 34.5901
29.436142806456754 34.5825
29.45916286268059 34.4169
29.48236399319994 34.3839
29.50538649169417 34.2165
29.528410208259935 34.2179
29.55143514402014 33.9975
29.574641196749695 33.9291
29.597668583816574 33.7784
29.6206971934585 33.5227
29.64372702680042 33.5868
29.666938019934474 33.4275
29.689970313635285 33.4195
29.713003834422636 33.4483
29.73603858342347 33.3926
29.759254535188578 33.2648
29.78229175361658 33.1862
29.80533020365064 33.3008
29.82836988641968 33.3302
29.85159081507472 33.2849
29.874632976355343 33.128
29.89767637376955 33.1907
29.920721008448314 33.0651
29.9439469322847 33.0289
29.96699405457564 32.8991
29.9900424175358 32.8998
30.013092022298157 32.8887
30.03632295963995 32.8893
30.059375061131373 32.9204
30.08242840783577 32.8865
30.105483000888153 32.7879
30.128718970092244 32.8305
30.151776069006917 32.7699
30.17483441768648 32.8528
30.198074175317235 32.8017
30.221135036724256 32.9123
30.24419715131772 32.7129
30.267260520236203 32.7818
30.290505341942243 32.8043
30.313571232750228 32.7603
30.336638381310948 32.7143
30.35970678876503 32.7019
30.38295669299435 32.5118
30.40602763151657 32.5268
30.429099832366074 32.5326
30.452173296685572 32.4493
30.47542830191959 32.4539
30.498504306502497 32.3427
30.521581577995562 32.4855
30.544660117543582 32.5074
30.56792024229725 32.5062
30.59100133132069 32.4791
30.614083691845494 32.4489
30.637167325018545 32.4883
30.660432587840603 32.593
30.683518779717886 32.5152
30.70660624769615 32.6403
30.729694992924372 32.6374
30.75296541239743 32.4876
30.77605672557558 32.5369
30.799149319462742 32.5023
30.8224236211637 32.3638
30.845518789950724 32.3417
30.868615242910597 32.3002
30.891712981195973 32.1094
30.91499247215866 32.0272
30.938092794619365 32.0457
30.96119440587579 31.8877
30.984297307082752 31.7709
31.00758200598383 31.6694
31.030687500658694 31.5442
31.053794288760695 31.570999999999998
31.076902371446767 31.4514
31.100192296997445 31.4235
31.12330298246119 31.4479
31.14641496599209 31.248
31.169528248749216 31.3535
31.19282341969534 31.2174
31.215939314557186 31.3608
31.239056512134788 31.3229
31.262175013589378 31.2978
31.28547544871168 31.253
31.30859657161541 31.1823
31.331719001892175 31.1799
31.35484274070538 31.1977
31.378148458819545 31.2338
31.401274828443725 31.3146
31.424402510106933 31.2779
31.447712205419993 31.2936
31.470842524931633 31.2202
31.493974159989783 31.2005
31.51710711176168 31.2026
31.54042212308802 31.1592
31.563557722100917 31.0722
31.586694641341655 31.005
31.609832881979628 30.9461
31.63315322823208 30.9484
31.656294125521327 30.7946
31.679436347728515 30.7781
31.70257989602529 30.6676
31.725905596152327 30.5416
31.74905181052835 30.4137
31.772199354521323 30.4764
31.79534822930507 30.4941
31.818679302290967 30.4617
31.84183085259981 30.4458
31.864983737233473 30.4384
31.88813795736804 30.5118
31.911474422233013 30.2622
31.934631327356435 30.4467
31.9577895715215 30.4639
31.980949155906522 30.3952
32.004291031706956 30.4145
32.027453310562606 30.2548
32.05061693318573 30.2161
32.07396288236386 30.2195
32.09712920658542 30.2082
32.12029687812702 29.9633
32.14346589817093 29.9833
32.166817291729984 29.9937
32.18998902288583 29.8444
32.21316210610336 29.7763
32.23633654256711 29.5825
32.259693399663725 29.6257
32.282870556771144 29.456
32.30604907069099 29.5329
32.329228942610065 29.4695
32.35259128243769 29.3827
32.375773884550505 29.2992
32.398957848235646 29.2441
32.422143174682176 29.1559
32.445511016471215 29.058000000000003
32.468699082679954 29.0541
32.49188851523011 28.9927
32.51507931531304 29.0673
32.538452678331 29.0034
32.56164622776311 28.9219
32.58484114831493 28.9541
32.60803744118015 28.9191
32.631416344731896 28.8837
32.654615396551876 28.8447
32.67781582427913 28.8296
32.701198898634416 28.7603
32.72440209253756 28.6368
32.747606665947124 28.6982
32.77081262006088 28.508000000000003
32.79420126883317 28.5644
32.81740999876112 28.5961
32.840620112999424 28.4096
32.86383161274818 28.3429
32.88722585534586 28.3531
32.91044014056596 28.3226
32.933655814909734 28.2977
32.95687287957963 28.3393
32.98027273544904 28.1909
33.00349259526636 28.1979
33.026713849030116 28.2985
33.04993649794511 28.1911
33.073341986570746 28.1382
33.09656744032826 28.0896
33.11979429286444 28.0675
33.14302254538647 28.1467
33.166433686291185 28.0694
33.18966475336992 27.9499
33.212897224069096 27.897
33.23613109959831 27.8892
33.259547912343415 27.926
33.2827846121627 27.8371
33.306022720453775 27.7483
33.32926223842861 27.7166
33.352684742614166 27.7772
33.37592709463173 27.779
33.399170859982064 27.648000000000003
33.422597648419426 27.5606
33.44584425514446 27.4493
33.46909227885668 27.4879
33.4923417207723 27.3987
33.51577423505344 27.4693
33.539026528130385 27.3715
33.56228024307245 27.2244
33.585535381098246 27.0499
33.60897364093058 27.1119
33.63223163992385 26.9979
33.6554910656699 26.9841
33.678751919389796 26.9662
33.702195944520106 26.8286
33.72545966903325 26.8001
33.74872482519663 26.8216
33.771991414233746 26.793000000000003
33.79544122444841 26.8093
33.81871069412428 26.7813
33.84198160035767 26.6874
33.86525394437455 26.6723
33.88870955949969 26.6359
33.911984794020626 26.6623
33.93526147001624 26.6308
33.958539588715006 26.5513
33.98200102861669 26.5399
34.0052820477047 26.4042
34.02856451319451 26.3732
34.05203033759056 26.3105
34.07531571090147 26.3681
34.09860253431845 26.2638
34.121890809074316 26.279
34.145362493118924 26.295
34.16865368561615 26.1964
34.191946333164054 26.1629
34.21524043699793 26.0301
34.23871800066799 26.1059
34.26201503218366 26.0106
34.28531352370466 25.9797
34.30861347646881 25.8824
34.33209693978188 25.8584
34.3553998301885 25.8508
34.378704185565205 25.7676
34.402010007152356 25.6688
34.42549939016683 25.6603
34.44880815937748 25.6374
34.472118398533134 25.6888
34.49543010887669 25.593000000000004
34.51892543169198 25.4216
34.54224009966052 25.4264
34.56555624255917 25.4473
34.58887386163339 25.3567
34.61237514439016 25.2794
34.6356957311114 25.3118
34.65901779775809 25.3312
34.68252356662995 25.2842
34.705848608458616 25.2246
34.72917513396849 25.1087
34.75250314440949 25.1242
34.77601490857862 25.0652
34.799345904259795 25.0081
34.82267838863559 24.9644
34.846012362958525 25.0118
34.869530142679984 24.9804
34.89286711232212 24.8984
34.91620557568269 24.8826
34.93954553401677 24.9226
34.9630693495876 24.7955
34.986412313340814 24.8465
35.00975677584668 24.809
35.033102738362956 24.6802
35.05663261012228 24.7091
35.0799815881786 24.6532
35.10333207003229 24.6707
35.12668405694369 24.6204
35.150220005273056 24.6523
35.17357501786656 24.5524
35.19693153931268 24.4651
35.220289570874385 24.4886
35.24383161619786 24.4635
35.267192683604904 24.5152
35.290555264930376 24.4649
35.314101899412165 24.3772
35.33746752422433 24.2543
35.36083466676374 24.2991
35.38420332829803 24.3318
35.407756095629054 24.2716
35.43112781085063 24.2524
35.45450104888391 24.2801
35.477875810999194 24.2391
35.50143473172161 24.0998
35.52481255774625 24.2503
35.54819191167777 24.1075
35.57157279478914 24.1074
35.595137889488406 24.0061
35.61852184675279 24.0335
35.641907337029984 23.9315
35.665294361595684 23.8347
35.68886565090076 23.7772
35.7122557598848 23.8223
35.73564740699838 23.824
35.759040593519934 23.7926
35.78261809810353 23.7481
35.80601437933051 23.6633
35.829412203814705 23.6803
35.85281157283719 23.6042
35.876395313415884 23.6318
35.8997977874528 23.5611
35.92320180988546 23.4475
35.946790244133936 23.3913
35.97019737933222 23.502
35.993606066789866 23.3799
36.01701630779276 23.3359
36.04061101440684 23.2546
36.06402437852291 23.3434
36.08743930005611 23.3129
36.1108557802951 23.1766
36.13445678011326 23.2087
36.15787639383515 23.1601
36.18129757014299 23.2199
36.20472031032821 23.0705
36.22832762423364 22.9648
36.25175350829375 23.0039
36.275180960119776 22.8989
36.298609981005924 22.9523
36.32222362992669 22.9491
36.34565580510207 22.9691
36.36908955323448 22.8498
36.39252487562093 22.75
36.416144880530226 22.781999999999996
36.43958336764275 22.7244
36.463023432914625 22.6301
36.486465077645676 22.6167
36.51009145956204 22.6558
36.53353627947859 22.6632
36.55698268276811 22.6365
36.58043067073321 22.6089
36.60406345072071 22.4803
36.62751462435344 22.4424
36.65096738658405 22.4046
36.67460498210655 22.4193
36.69806093788647 22.398000000000003
36.72151848619297 22.3198
36.744977628333636 22.3346
36.76862165890998 22.2739
36.79208400512205 22.2717
36.81554794910557 22.2253
36.83901349217101 22.1322
36.862663978991606 22.0565
36.88613273667352 22.0713
36.90960309738324 22.0699
36.933075062434064 22.0722
36.95673202673572 21.9823
36.98020721697122 21.9389
37.003684015502365 21.8867
37.027162423645365 21.7982
37.050825886711465 21.8249
37.07430753063053 21.701
37.09779078812467 21.686
37.121275660513014 21.739
37.144945643673694 21.684
37.16843376245278 21.6755
37.19192350009803 21.646
37.215414857931435 21.6031
37.239091382563885 21.5038
37.262585997426164 21.5166
37.28608223645736 21.4971
37.309763684451696 21.5347
37.33326318851098 21.4901
37.356764320726555 21.4105
37.380267082425526 21.3507
37.40395510942588 21.3465
37.42746114683234 21.2922
37.45096881771841 21.221
37.474478123414166 21.3152
37.49817275092816 21.3347
37.52168534303452 21.2519
37.54519957395567 21.0914
37.568715445024665 21.1221
37.592416694607714 21.0569
37.61593586281424 21.1403
37.63945667518264 21.0752
37.66297913304891 20.9737
37.68668702630454 21.0261
37.710212792059274 20.9273
37.733740207334854 20.7936
37.757269273470364 20.8123
37.780983832050374 20.811
37.80451621684926 20.8067
37.82805025654007 20.7364
37.851585952464795 20.6852
37.8753071980695 20.6669
37.89884622345676 20.6287
37.92238690911902 20.6319
37.94611318753442 20.5315
37.969657210779765 20.5566
37.99320289834801 20.5594
38.016750251586465 20.4544
38.04048325513017 20.3641
38.06403395679343 20.336
38.087586328183946 20.3206
38.11114037065203 20.2921
38.13488012115898 20.3471
38.1584375229181 20.2184
38.181996599821 20.2282
38.205557353221124 20.2693
38.229303872575656 20.229
38.2528679961576 20.1249
38.27643380031219 20.1393
38.30000128639589 20.1132
38.32375459653193 20.0843
38.34732546371299 20.0696
38.37089801690786 19.9867
38.39447225747609 20.0188
38.418232380377425 19.9407
38.441810012983396 19.8655
38.46538933705673 19.8437
38.488970353960084 19.8495
38.51273731166058 19.8071
38.536321731567014 19.7949
38.55990784840681 19.7804
38.58367995004091 19.7024
38.60726947812959 19.6257
38.63086070726198 19.6101
38.654453638806274 19.6544
38.678232613930824 19.5214
38.70182896773327 19.5366
38.72542702806741 19.5661
38.7490267963045 19.4678
38.77281266709232 19.4264
38.79641586862214 19.3926
38.8200207821842 19.3558
38.843627409152944 19.445999999999998
38.86742019782782 19.3527
38.891030269149255 19.2907
38.914642058016156 19.2368
38.938255565806124 19.2081
38.96205529464307 19.1626
38.98567225787121 19.2162
39.00929094417078 19.1762
39.03291135492255 19.1648
39.05671804624804 19.1109
39.080341923549106 19.101
39.103967529460334 19.0523
39.127594865365744 18.9214
39.15140854155791 18.97
39.17503935514948 18.9622
39.19867190290282 18.9979
39.22249083587951 18.9063
39.24612686969409 18.8846
39.269764641845306 18.8506
39.293404153722804 18.832
39.317230110864074 18.7753
39.34087311998506 18.7394
39.36451787301696 18.7466
39.388164371352595 18.6906
39.41199737518003 18.6746
39.43564738196752 18.6179
39.45929913825317 18.5687
39.48295264543308 18.519000000000002
39.506792718520884 18.5012
39.530449745387216 18.5573
39.55410852735203 18.4568
39.57776906581474 18.4523
39.60161623079 18.4205
39.625280300200025 18.3658
39.64894613032202 18.3228
39.67261372255866 18.3172
39.6964680021016 18.2502
39.72013913657293 18.2822
39.74381203738292 18.206
39.76748670593756 18.2197
39.79134812278169 18.1777
39.81502634488497 18.1343
39.83870633896685 18.0541
39.862388106436654 18.1098
39.88625668336918 18.0156
39.90994201572829 18.0405
39.933629125719285 18.0344
39.957503091207826 17.9753
39.9811937746168 18.0251
40.00488623990914 17.9371
40.02858048850006 17.8849
40.05246165409549 17.8158
40.076159487492085 17.8199
40.099859108448875 17.7962
40.123560518384345 17.7447
40.1474489070226 17.7256
40.171153913178564 17.6835
40.194860712584955 17.6859
40.2185693066637 17.637
40.242464941335314 17.6257
40.26617714307655 17.6451
40.289891143772046 17.6163
40.3136069448471 17.5275
40.33750984859743 17.5043
40.3612292688043 17.5294
40.3849504936829 17.4432
40.40867352466194 17.5079
40.43258372059144 17.4102
40.45631038219906 17.3879
40.48003885420956 17.3282
40.503769138055105 17.3068
40.52768664931955 17.3489
40.55142057531802 17.3408
40.57515631746428 17.2796
40.599079334038514 17.2486
40.62281872700477 17.1439
40.64655994043941 17.1004
40.67030297578061 17.2186
40.69423334835778 17.15
40.71798004609188 17.0149
40.74172857006355 17.0451
40.76547892171441 17.0485
40.7894166736039 17.0015
40.813170699248566 16.9493
40.83692655691388 16.9399
40.86068424804498 16.9256
40.884629402612525 16.9313
40.908390779366385 16.9653
40.932153993938 16.8561
40.95591904777605 16.8473
40.979871628443995 16.7588
41.003640379561936 16.832
41.02741097430883 16.8041
41.05118341413683 16.7321
41.075143444384416 16.6875
41.098919593177826 16.664
41.1226975914255 16.6325
41.14647744058318 16.6287
41.170444943946755 16.6137
41.19422851378379 16.5399
41.218013938914645 16.5002
41.24198706625173 16.4855
41.26577622087193 16.4583
41.289567235177785 16.4363
41.31336011063129 16.4335
41.337340752422875 16.3608
41.361137369129835 16.3586
41.38493585138705 16.3793
41.40873620066004 16.3403
41.43272438060107 16.3257
41.45652848292052 16.2584
41.48033445666918 16.2201
41.50414230331616 16.1708
41.528138045159764 16.1573
41.551949656675205 16.1312
41.575763145513235 16.0982
41.59957851314666 16.0482
41.62358184070442 16.0826
41.64740098505737 16.0637
41.6712220126409 16.0027
41.69504492493139 15.9677
41.71905586207357 15.91
41.74288256296395 15.9157
41.766711153007456 15.8728
41.79054163368412 15.8526
41.814560204340054 15.8471
41.838394485526365 15.8244
41.86223066180303 15.7472
41.88625497706819 15.7682
41.910094962812 15.8031
41.93393684811168 15.7001
41.95778063445365 15.6662
41.981812625263366 15.6645
42.00566023303407 15.6355
42.029509746323676 15.5713
42.05336116662236 15.5773
42.077400857069705 15.593
42.10125611078846 15.5591
42.12511327600405 15.4201
42.14897235421036 15.4127
42.173019768448455 15.4252
42.19688269209613 15.3904
42.22074753323349 15.4018
42.24461429335818 15.3734
42.268669455600495 15.3535
42.292540073217886 15.2836
42.31641261433284 15.2931
42.34028708044675 15.2955
42.36435001496739 15.2893
42.38822835065557 15.2629
42.41210861586426 15.1782
42.4359908120986 15.2408
42.46006154323262 15.1641
42.48394762115317 15.1104
42.507835634632315 15.1004
42.531912233047436 15.0636
42.55580413732265 15.0603
42.579697981698 14.9979
42.60359376768525 14.9983
42.62767820545945 14.9866
42.65157789440821 14.9547
42.67547952952185 14.9312
42.699383112316 14.9162
42.72347541395347 14.8667
42.74738291190531 14.8174
42.771292362102166 14.81
42.795203766063516 14.7873
42.819303956130405 14.8101
42.843219287476536 14.7468
42.86713657716324 14.7253
42.89105582671383 14.6667
42.91516392983864 14.6817
42.939087119032166 14.665999999999999
42.963012272677304 14.6095
42.98693939230129 14.548
43.01105543317513 14.5072
43.034986504731386 14.5623
43.05891954686589 14.5323
43.08285456110972 14.4931
43.10697856448665 14.4623
43.130917542983475 14.4214
43.15485849820081 14.4208
43.17880143167367 14.369000000000002
43.20293342237094 14.3389
43.226880332449 14.3096
43.25082922540554 14.3393
43.27496722682525 14.2866
43.29892010567796 14.312999999999999
43.32287497204102 14.2417
43.34683182745632 14.1697
43.370977859791836 14.1422
43.39493871351105 14.15
43.41890156092628 14.1359
43.44286640358341 14.1269
43.46702049182749 14.1099
43.49098934522816 14.0623
43.51496019852649 13.9915
43.5389330532723 14.0045
43.56309522248204 13.9722
43.58707210044314 13.972999999999999
43.61105098451946 13.9352
43.63503187626491 13.9033
43.659202151562134 13.9036
43.68318707902681 13.8593
43.70717401884041 13.8666
43.731162972560874 13.8228
43.75534137913236 13.8029
43.779334381108384 13.7346
43.803329401683186 13.7844
43.82732644241872 13.7484
43.8515130055166 13.6935
43.87551410707659 13.6607
43.89951723350145 13.6657
43.923709934595614 13.6505
43.94771713129917 13.6122
43.97172635758096 13.5896
43.99573761501002 13.5728
44.0199385169922 13.548
44.04395385732619 13.5318
44.067971233533086 13.4672
44.09199064718605 13.4413
44.11619977548961 13.4304
44.14022328470671 13.4135
44.16424883610785 13.3978
44.18827643127035 13.4329
44.21249381139513 13.4009
44.236525514814076 13.3513
44.26055926674478 13.2844
44.28459506876863 13.357000000000001
44.3088207262813 13.2649
44.33286064928722 13.2448
44.35690262714919 13.2248
44.38094666145278 13.1963
44.4051806219871 13.2011
44.42922879003185 13.1263
44.45327901929361 13.12
44.477331311362136 13.1134
44.501573600619416 13.0873
44.525630039221795 13.0961
44.54968854541895 13.0834
44.573937102200176 13.0532
44.5979997645541 12.9305
44.622064499300315 12.9615
44.64613130803592 12.9445
44.67038823869318 12.9605
44.69445921643748 12.883
44.718532272981385 12.8403
44.742607409926194 12.8566
44.76687274034801 12.8123
44.79095205918753 12.7749
44.81503346325094 12.7838
44.839116954143876 12.7867
44.86339071028742 12.7434
44.88747839599524 12.6816
44.91156817336837 12.6845
44.93566004401666 12.6814
44.959942251908146 12.66
44.984038330325966 12.6347
45.00813650686762 12.5961
45.03223678314731 12.5669
45.05652746888232 12.558
45.08063196592069 12.5409
45.104738567558705 12.4884
45.128847275414856 12.5068
45.15314646515866 12.4828
45.17725940679741 12.4338
45.20137445952892 12.4764
45.22568004865265 12.4439
45.24979934496396 12.3531
45.27392075725247 12.3486
45.29804428714431 12.3272
45.322358426247604 12.2864
45.346486212804315 12.3195
45.370616121861914 12.3013
45.39474815505086 12.2417
45.41907087049246 12.252
45.4432071734666 12.1979
45.46734560548283 12.1848
45.49148616817604 12.1875
45.51581748638564 12.1263
45.5399623320197 12.1235
45.56410931325473 12.1004
45.58825843173002 12.0601
45.61259837920865 12.0233
45.636751793816 12.0885
45.66090735060093 12.03
45.68506505120716 11.9888
45.7094136545275 11.9453
45.73357566449271 11.9087
45.75773982322992 11.8984
45.78190613238733 11.9153
45.806263418194064 11.8607
45.83043404997326 11.8698
45.85460683713677 11.8098
45.87897065658495 11.8245
45.90314777634752 11.7958
45.92732705646868 11.7751
45.9515084986045 11.7363
45.97588104735473 11.7684
46.00006683541565 11.705
46.02425479047904 11.7131
46.04844491420549 11.6966
46.0728262191024 11.6757
46.09702070211635 11.6153
46.12121735879483 11.6324
46.14541619080294 11.5994
46.169806278764455 11.5538
46.194009483459034 11.5707
46.21821486849841 11.5892
46.24242243555223 11.5033
46.266821333570014 11.4435
46.29103328674601 11.4635
46.31524742696538 11.4768
46.33946375590237 11.4096
46.36387149104216 11.4239
46.38809221957392 11.3883
46.41231514186606 11.3797
46.436540259597464 11.3626
46.460956858999374 11.2987
46.48518638983522 11.329
46.509418121166966 11.306
46.533652054678114 11.2346
46.55807754555709 11.2338
46.58231590571962 11.2237
46.60655647313217 11.2365
46.630988654873654 11.1583
46.655233659129024 11.1424
46.67948087571551 11.1566
46.70373030632484 11.1237
46.72817142736393 11.1126
46.752425308428684 11.0862
46.77668140861147 11.0461
46.80093972960865 11.0517
46.82538981736788 10.9906
46.849652602470904 11.0127
46.87391761349769 11.0066
46.8981848521493 10.9866
46.9226439341274 10.9099
46.946915650573224 10.8576
46.97118959976749 10.873
46.99546578341598 10.8399
47.019933887188216 10.8282
47.04421456235744 10.8493
47.06849747711879 10.807
47.09278263318286 10.8095
47.11725978640143 10.7546
47.14154944775105 10.7406
47.165841355555656 10.7259
47.1901355115306 10.669
47.214621741924994 10.6967
47.23892041698887 10.6448
47.26322134538975 10.6317
47.28771440635075 10.5704
47.31201986422527 10.6055
47.33632758061436 10.585
47.360637557241866 10.5775
47.38513974410611 10.5256
47.40945426407847 10.4971
47.43377104948137 10.4831
47.45809010204344 10.4865
47.48260144275502 10.4488
47.506925052572285 10.4533
47.53125093475548 10.443
47.55557909103813 10.4358
47.58009961361992 10.3954
47.60443234110732 10.3656
47.62876734791564 10.3265
47.65310463578333 10.3425
47.6776343683373 10.3096
47.7019762413987 10.2812
47.72632040075572 10.2646
47.75066684815169 10.2713
47.77520581885936 10.2633
47.799556865477655 10.2365
47.823910205386 10.2131
47.84826584033272 10.1796
47.87281407745551 10.1659
47.89717432569297 10.1713
47.92153687423484 10.139
47.94609208429692 10.1087
47.97045925671401 10.1025
47.99482873471275 10.074
48.01920052005013 10.0829
48.04376504619224 10.0364
48.068141469543484 10.0688
48.09252020552573 10.0451
48.11690125590099 9.9934
48.1414751266064 9.95343
48.16586082917454 9.977789999999999
48.19024885144316 9.946480000000001
48.2146391951793 9.952119999999999
48.239222439012764 9.96294
48.26361744916137 9.87218
48.28801478610016 9.885639999999999
48.31241445160131 9.867289999999999
48.337007097209366 9.84019
48.36141144338331 9.844510000000001
48.38581812345755 9.8164
48.41022713920929 9.784880000000001
48.434829215320704 9.73795
48.45924292604658 9.718539999999999
48.48365897780325 9.71225
48.50807737237308 9.70412
48.532688907799276 9.6874
48.55711201168574 9.68241
48.581537463754074 9.66573
48.60615611725119 9.665
48.63058628942721 9.64161
48.65501881516546 9.61714
48.6794536962573 9.61581
48.70408185970339 9.58487
48.72852147531801 9.53939
48.75296345168211 9.540389999999999
48.77740779059232 9.508469999999999
48.80204549302823 9.47973
48.82649458091802 9.48715
48.85094603676547 9.46182
48.87539986237231 9.43356
48.90004713292306 9.451039999999999
48.92450572200832 9.439860000000001
48.94896668628025 9.40537
48.97343002754588 9.35794
48.99808689542115 9.3752
49.02255501470614 9.37151
49.04702551642794 9.36072
49.0714984023988 9.29626
49.096164896893235 9.291030000000001
49.120642575466796 9.22226
49.145122643748394 9.25693
49.16960510355558 9.219619999999999
49.19428125404938 9.17671
49.2187685210852 9.18961
49.243258185121555 9.16516
49.26794160167084 9.161010000000001
49.2924360839405 9.138580000000001
49.31693296869764 9.11632
49.34143225776915 9.1162
49.36612538195438 9.07934
49.39062950396021 9.043389999999999
49.41513603578346 9.04122
49.4396449792564 9.032010000000001
49.46434784069503 9.057310000000001
49.488861631846454 9.014
49.513377840166804 8.96246
49.537896467493745 8.9641
49.56260909589029 8.91569
49.587132585683285 8.94977
49.611658500018365 8.90667
49.636186840738596 8.90167
49.66090926588511 8.91071
49.685442483902584 8.86106
49.70997813385706 8.8293
49.734516217597076 8.84127
49.75924846937352 8.832180000000001
49.7837914452858 8.795819999999999
49.80833686055187 8.7638
49.83288471702571 8.74377
49.85762682540054 8.74873
49.882179588965734 8.734689999999999
49.9067347993235 8.68065
49.93129245833333 8.68623
49.95604445336378 8.70229
49.98060703442832 8.66324
50.005172069746266 8.65733
50.02993150438364 8.62772
50.05450147301533 8.65152
50.07907390151433 8.60812
50.10364879174981 8.57362
50.12841816587289 8.58276
50.1529980044635 8.54154
50.17758031042124 8.51838
50.20216508562089 8.56057
50.22694442953363 8.53606
50.25153416817468 8.4924
50.27612638170508 8.475010000000001
50.300721072005196 8.46203
50.325510416102105 8.42797
50.350110084975064 8.45369
50.37471223628208 8.42918
50.39931687190919 8.37219
50.424116246675766 8.37156
50.44872587605249 8.36177
50.47333799543065 8.35177
50.49795260670191 8.3022
50.52276204271512 8.32216
50.54738166295838 8.28732
50.57200378079314 8.283539999999999
50.596628398116835 8.27145
50.62144792604559 8.24356
50.646077567609396 8.23075
50.670709714377715 8.183589999999999
50.69553683636198 8.18314
50.72017401885922 8.20238
50.7448137122895 8.15908
50.76945591856022 8.14338
50.79429318636823 8.136610000000001
50.818940443716784 8.115860000000001
50.84359021965163 8.09724
50.868242516085964 8.065560000000001
50.893089960641895 8.067680000000001
50.917747323549435 8.0735
50.94240721271973 8.027460000000001
50.96706963007175 8.01642
50.99192728239342 7.98795
51.01659478166073 8.0006
51.04126481489051 7.9785
51.06593738400761 7.95937
51.090805275207074 7.9330300000000005
51.11548294172845 7.940010000000001
51.14016314993547 7.94822
51.164845901758845 7.9231300000000005
51.18972406304274 7.89297
51.21441192780656 7.839060000000001
51.23910234200271 7.823239999999999
51.2637953075678 7.8193600000000005
51.288683770237945 7.84017
51.31338186432707 7.794860000000001
51.33808251561888 7.76575
51.362978729967345 7.7720899999999995
51.387684521509755 7.7676300000000005
51.41239287610203 7.72393
51.437103795691165 7.707330000000001
51.46201036644977 7.69021
51.486726441956634 7.6835
51.51144508832545 7.692419999999999
51.536166307509156 7.67374
51.56108326624387 7.63955
51.58580965706056 7.602580000000001
51.61053862657523 7.6322
51.635270176746864 7.5792600000000006
51.66019755512065 7.538880000000001
51.68493429268881 7.54637
51.70967361681515 7.54632
51.73441552946465 7.507210000000001
51.759353359237934 7.533639999999999
51.7841004750961 7.522539999999999
51.80885018539685 7.478289999999999
51.833602492111254 7.47376
51.8585508051424 7.44694
51.883308330926425 7.43838
51.90806845906181 7.42634
51.932831191525715 7.3985199999999995
51.95779001977161 7.394880000000001
51.98255798721516 7.352069999999999
52.00732856494335 7.34192
52.03229530577543 7.3163
52.057071130455945 7.318239999999999
52.081849571391054 7.3363
52.106630630568695 7.30515
52.13160794279417 7.29775
52.15639426492067 7.2796199999999995
52.18118321127822 7.24039
52.205974783860896 7.20165
52.23096269971011 7.1743
52.255759551287994 7.16546
52.280559035098186 7.16363
52.30536115314103 7.15879
52.33035970494467 7.16983
52.35516711807904 7.128439999999999
52.37997717147198 7.18308
52.40478986713005 7.1597
52.42979908731974 7.083480000000001
52.454617094216 7.10318
52.47943774942214 7.02119
52.50426105495102 7.06982
52.529280976059844 7.04545
52.554109609024096 7.024780000000001
52.57894089837482 7.028989999999999
52.60377484613117 7.00672
52.62880550079408 6.99763
52.65364479223379 6.97744
52.67848674816189 6.9086
52.70352547971946 6.9387300000000005
52.72837279155837 6.95637
52.753222773982785 6.875319999999999
52.778075429022984 6.89962
52.80312495150885 6.88334
52.827982978797436 6.88352
52.85284368481815 6.87369
52.87770707160767 6.8612
52.90276741793998 6.83343
52.92763619336701 6.807860000000001
52.952507655698504 6.8231
52.977381806977576 6.7900100000000005
53.00245301017842 6.784960000000001
53.02733256653592 6.77585
53.052214817996074 6.7247
53.077099766608484 6.707439999999999
53.102181859804446 6.6999
53.127072229988265 6.7108300000000005
53.15196530349892 6.68363
53.17686108239249 6.6541
53.20195409881522 6.65982
53.22685531582556 6.67172
53.25175924441303 6.62794
53.27666588664027 6.604410000000001
53.30176985962693 6.63805
53.3266819565689 6.592210000000001
53.35159677336455 6.593960000000001
53.376514312083096 6.5822199999999995
53.40162927507703 6.5639199999999995
53.42655228516116 6.5444
53.45147802340193 6.56245
53.47660125628886 6.52226
53.50153247842639 6.49218
53.52646643496923 6.474019999999999
53.55140312799818 6.4412
53.576537409691696 6.45054
53.60147960336152 6.44263
53.626424539786164 6.41213
53.65137222105307 6.4336199999999995
53.67651758529126 6.42347
53.70147078399681 6.402480000000001
53.72642673383343 6.34441
53.75138543689533 6.34183
53.776541917524526 6.36303
53.801506154876755 6.35382
53.826473151763246 6.3307
53.851442910284916 6.29456
53.87661054126026 6.256959999999999
53.9015858509782 6.26805
53.92656392866066 6.21634
53.95154477641532 6.24249
53.976723591801296 6.208069999999999
54.00171000771266 6.22717
54.02669920004598 6.2262
54.051691170915745 6.17333
54.076881204886796 6.17854
54.101878760928514 6.16397
54.12687910187696 6.19699
54.152077577768296 6.10741
54.1770835166946 6.12102
54.20209224691339 6.14711
54.22710377055121 6.0913900000000005
54.25231352511594 6.070469999999999
54.27733066384342 6.06037
54.30235060239643 6.0684
54.32737334290836 6.027819999999999
54.35259441062629 6.01106
54.377622783395324 6.0214300000000005
54.40265396455061 6.00589
54.42768795623251 5.98501
54.45292037169559 5.91782
54.477960012857906 5.88729
54.50300247099511 5.8855900000000005
54.52804774825457 5.89726
54.55329154616743 5.85152
54.57834249018678 5.79876
54.6033962597977 5.792669999999999
54.6284528571545 5.7988599999999995
54.653708072335164 5.78951
54.67877035378786 5.77004
54.70383546947698 5.74601
54.72890342156389 5.72079
54.7541700889442 5.68315
54.77924374251975 5.72941
54.8043202390049 5.6931199999999995
54.82959552413022 5.62948
54.8546777351945 5.61635
54.87976279569621 5.61948
54.90485070780914 5.58651
54.930137506558005 5.54915
54.95523115074295 5.55165
54.98032765308844 5.5111300000000005
55.005427015775496 5.54579
55.03072536339621 5.52861
55.05583047570572 5.406219999999999
55.080938454927676 5.4311300000000005
55.10604930325027 5.41421
55.131359235107396 5.46726
55.15647585066083 5.37509
55.181595341907496 5.3632
55.20671771104285 5.3406
55.232039262617704 5.343030000000001
55.25716741665048 5.29928
55.28229845518636 5.29525
55.30743238042802 5.25242
55.33276558731939 5.21586
55.357905315183636 5.16527
55.383047936390035 5.1652
55.40819345314859 5.12197
55.433538351073295 5.1352199999999995
55.458689688238415 5.12939
55.483843927614096 5.04721
55.509197623043605 5.05399
55.53435769621134 4.9996599999999995
55.55952067826466 4.99642
55.5846865714265 4.99611
55.61005202069737 5.02273
55.63522376553902 4.92146
55.66039842818645 4.9110000000000005
55.68557601087004 4.90285
55.7109532500271 4.83995
55.73613670233794 4.8614
