TT I
1.2716486653135266 7.547689999999999
1.2939594142134223 6.682689999999999
1.3162702121660406 6.46304
1.3385810600174564 6.3583099999999995
1.3608919586137629 6.57498
1.383202908801069 6.2035800000000005
1.405513911425503 5.47735
1.4278249673332093 6.20149
1.4501343378461518 6.084890000000001
1.4724455028545926 6.22475
1.4947567236847858 6.09267
1.517068001182951 6.29975
1.5393793361953272 6.120419999999999
1.5616907295681737 6.11646
1.5840021821477681 5.62474
1.60631369478041 5.5749
1.6286252683124185 5.87216
1.6509369035901333 5.74926
1.6732468618895553 4.868530000000001
1.695558623192809 4.49763
1.7178704487808514 5.7132
1.7401823395001077 5.28138
1.7625012545597203 4.87415
1.7848028405262486 5.4548
1.8071218901122095 4.99186
1.8294236121921872 4.11465
1.8517427996910911 5.15531
1.8740620574440425 4.70172
1.8963639900671978 5.18636
1.9186833908139995 5.04349
1.9409854680117449 5.56935
1.9633050151394713 5.64675
1.9856246367570705 5.3503300000000005
2.0079269371922672 4.75545
2.03024671027244 4.42809
2.0525491637446027 4.72403
2.074869091674931 5.01544
2.097171701569106 4.755319999999999
2.1194917877373847 5.00544
2.141811954326636 5.27842
2.164114805233074 5.35203
2.186435135143035 5.71729
2.208738150935709 11.9528
2.231058647554722 25.0827
2.2533792288321184 18.9506
2.275682498336085 9.83469
2.298003251406138 5.95343
2.3203066942619714 5.75401
2.3426276225136022 5.62426
2.3649486396617507 6.1399
2.387252348930071 5.72618
2.4095735463442893 6.18181
2.4318774374315884 6.54736
2.4541988185014043 6.43853
2.476502894794693 7.09341
2.498824462909887 6.99488
2.521146125856138 7.43232
2.5434504863470337 6.821439999999999
2.5657723414244717 7.27085
2.588076895590662 8.01827
2.610398946189713 8.711780000000001
2.6327210958598384 8.71815
2.6550259469304716 8.1917
2.6773482972090137 8.19256
2.6996533504259 8.22518
2.7219759047039602 8.10705
2.744298562293959 8.0154
2.7666039251246595 7.71992
2.7889267918020164 8.515089999999999
2.8112323652516555 8.79973
2.833555444408179 8.34815
2.8558786311183852 8.27288
2.8781845268938557 8.923160000000001
2.9005079311721484 8.838410000000001
2.9228140460410397 9.50083
2.9451376712799635 9.39513
2.967444008632326 9.63482
2.9897678582247247 9.91338
3.0120918213106695 10.3321
3.0343984987899373 10.6954
3.0567226913198637 11.3679
3.079029599759726 11.9463
3.101354025127254 12.2532
3.123678568232338 13.0146
3.145985829517914 13.595999999999998
3.16831061055229 13.7421
3.1906181112775593 13.6462
3.212943133635653 14.5087
3.2352682779763207 14.8995
3.2575761442691227 15.3357
3.2799015350264273 15.732000000000001
3.302209649240067 16.0264
3.3245352898092655 16.5669
3.3468436553365257 17.1316
3.369169549113219 17.8386
3.3914955708171384 18.4749
3.413804319727358 18.747
3.4361305997334863 18.74
3.4584396084414553 19.6374
3.4807661501462652 20.3088
3.503092824025881 20.8446
3.5254022288463154 21.3265
3.5477291695206588 21.839000000000002
3.5700388426251948 22.5753
3.5923660534916446 23.7593
3.6146934007816114 37.2868
3.637003482731501 79.9633
3.6593311053109985 88.7775
3.681641464033634 51.7737
3.7039693653009733 29.6417
3.726297407241705 25.9165
3.7486081875460804 25.6784
3.7709365132734978 25.9465
3.793247578841633 26.5627
3.8155761917550093 26.885
3.8378875459837216 26.9831
3.8602164494827234 27.5644
3.882545499606844 28.5739
3.9048572932539183 28.9073
3.9271866390645718 29.1048
3.9494987298666713 29.5487
3.971828374764527 30.3563
3.9941581705403255 30.9024
4.016470713506008 31.2224
4.038800813471445 32.1926
4.061113662089144 32.5998
4.0834440696459176 33.4352
4.105774632334751 33.7602
4.128087945865126 34.4077
4.150418821249301 35.311
4.172732448931298 36.1304
4.195063640413578 37.8787
4.2173775856475215 42.0444
4.239709096631102 68.7973
4.262040768704612 209.685
4.284355196706267 275.464
4.306687193387355 179.59099999999998
4.329001947444346 74.4866
4.35133427213731 47.1359
4.373666762177566 44.3238
4.395982011761091 44.1947
4.418314834921175 46.1493
4.44063041906622 52.2973
4.4629635787515625 61.7134
4.4852969080429785 61.4011
4.5076130004776225 53.0256
4.529946671403969 49.9093
4.552263106909177 49.9436
4.574597122877047 51.3773
4.596931312711224 52.4266
4.619248269273446 53.4508
4.6415828092605835 54.2122
4.663900117405352 55.1829
4.686235010953232 56.958999999999996
4.708552674085913 58.1297
4.730887924602802 59.4979
4.753223354952695 61.0882
4.775541557023902 62.6046
4.797877349456786 63.7327
4.820195915032126 65.9663
4.842532072957498 67.7502
4.864868414979744 69.3545
4.88718753227192 71.3933
4.909524244902505 73.2485
4.931843734218147 75.0929
4.954180820867835 77.5613
4.976518095879839 81.1252
4.998838149695359 83.8514
5.021175803844231 87.3504
5.043496238205739 90.0744
5.065834274903528 94.4056
5.088172504230693 99.7267
5.1104935158799565 106.051
5.132832132875765 126.704
5.155153533596801 166.572
5.1774925416746225 199.745
5.199814334878411 364.719
5.2221537374521505 1040.06
5.244493338631803 2923.85
5.266815727034316 7716.99
5.289155727832427 12556.4
5.311478517248165 8728.79
5.333818921080011 2774.71
5.356159527788849 529.61
5.3784829252032536 180.813
5.400823940070432 142.463
5.423147747031976 126.90899999999999
5.445489173474152 118.045
5.467830807066149 112.603
5.490155234831516 108.54899999999999
5.512497285125229 105.67200000000001
5.534822130975162 103.852
5.557164601388673 101.73
5.579489868738879 98.7048
5.601832762690846 97.8825
5.6241758697774475 96.8587
5.646501775867269 96.2518
5.668845311622074 95.0285
5.691171647754637 93.8648
5.713515615597765 92.9754
5.735859800852677 92.098
5.758186788542988 90.9639
5.780531411018185 91.2742
5.802858837297399 90.6749
5.825203900414495 90.9639
5.8475491852224 91.3071
5.869877275883075 91.9409
5.892223006467101 93.1331
5.914551544266608 94.412
5.936897724049891 97.3861
5.959244129804903 103.75
5.981573344815301 124.29700000000001
6.0039202049061 215.622
6.026249875609095 470.506
6.04859719346037 988.188
6.070927323278297 2214.91
6.093275102315365 4504.23
6.115623113320588 5214.04
6.137953938319995 3246.07
6.160302415650845 950.789
6.182633708324452 222.743
6.2049826554078376 112.01100000000001
6.227331838745022 91.7395
6.249663839443684 84.4498
6.27201349767565 81.7602
6.294345974611799 86.955
6.316696111167083 96.3607
6.339046488263839 91.5169
6.361379686074702 78.3083
6.383730546639482 71.5787
6.406064229255215 68.6704
6.428415576718203 67.9651
6.450749747566656 67.1624
6.47310158535871 66.2054
6.495453669698332 65.1651
6.517788579421056 64.7312
6.540141159237969 63.6959
6.562476565766648 63.1141
6.5848296444934045 62.6935
6.607182974060425 62.4304
6.6295191323281015 62.375
6.651872965955752 65.2479
6.6742096296068985 87.3923
6.6965639707294615 125.977
6.71891856698715 126.881
6.741255995248479 89.1753
6.763611104154477 66.3977
6.785949046381137 60.0317
6.808304671371482 58.35
6.8306605557940046 57.8151
6.852999275508618 57.085
6.875355681171544 56.797
6.897694923437771 56.9914
6.92005185377892 56.6307
6.9423916220322655 56.2692
6.964749080490181 55.4068
6.987106804399774 55.6593
7.009447368180821 55.619
7.031805625367033 54.8391
7.054146723727803 55.2525
7.076505517631004 54.8499
7.098864581288365 55.1848
7.121206488070854 54.9855
7.143566093607822 54.6423
7.165908543567245 55.0763
7.188268694426048 55.1672
7.2106291193438095 55.1844
7.232972390625943 56.0324
7.255333366030969 67.7876
7.277677189091925 114.985
7.300038718428332 153.775
7.322400526130865 130.28799999999998
7.344745183422596 83.9048
7.367107550224791 60.619
7.389452767901992 55.8842
7.411815697249891 55.0912
7.434161478756298 53.9657
7.456524974096713 54.1126
7.478888753837185 54.2545
7.501235387657368 54.5969
7.523599738562711 54.4805
7.545946944825532 54.7619
7.568311870344528 54.7693
7.5906770845765665 55.2676
7.613025156078678 56.405
7.635390950099687 58.0548
7.657739602662809 57.3998
7.680105979923558 55.9764
7.702472650212829 55.7963
7.724822180948224 55.5309
7.747189439655568 55.8716
7.769539560075357 56.3786
7.791907410653562 56.7927
7.81425812420825 56.5226
7.836626570110925 56.5347
7.858995315087906 57.4477
7.881346924933401 57.4242
7.903716270417482 58.1239
7.926068482028405 58.424
7.948438431475253 59.099
7.9708086843180235 59.8526
7.993161805171116 60.2951
8.015532667162402 60.7848
8.037886398416653 61.5938
8.060257873014221 61.9501
8.082629655331942 62.5781
8.104984308787587 63.6334
8.127356708900503 66.5006
8.149711981398308 71.6062
8.172085002766314 73.7431
8.194458336181368 71.3554
8.216814543847752 69.0637
8.23918850371002 69.6172
8.26154533906492 70.1191
8.283919928836452 71.7543
8.306277395339652 72.7156
8.328652618483376 73.9688
8.351028159736202 76.1363
8.373386579575245 78.5014
8.395762759396959 80.2152
8.418121819038275 84.9531
8.440498640894003 97.0623
8.462875785192262 110.40700000000001
8.485235811156207 124.71700000000001
8.507613602688501 169.959
8.529974277114228 261.74
8.552352719347912 399.775
8.574731488360351 665.316
8.59709314210385 1221.03
8.619472567021075 1919.41
8.64183487789147 2182.97
8.664214962183097 1773.72
8.686577933647762 930.258
8.708958680784317 355.157
8.731339760774953 154.843
8.753703729764451 108.469
8.77608547780821 98.2566
8.798450116065078 94.7297
8.820832535634787 91.7553
8.843215292401656 90.4275
8.865580941199045 89.4506
8.887964374703538 88.0891
8.910330701447199 89.0224
8.932714815164482 90.601
8.955099270424924 89.7981
8.977466620733543 86.9778
8.999851761421976 85.0275
9.022219798361645 83.4778
9.04460562795561 83.0286
9.066991803441677 82.87799999999999
9.089360876979615 82.8923
9.111747746589993 82.2991
9.13411751544971 81.6926
9.156505082664324 81.7291
9.178875550323522 81.9035
9.20126381862328 82.1995
9.223652438908596 82.5883
9.246023961427412 82.5556
9.26841328802173 81.8145
9.290785518039224 81.3542
9.313175554425882 82.1339
9.335565947154315 82.3084
9.357939245086508 82.3618
9.380330352834827 82.4746
9.40270436697103 83.1076
9.425096193225055 82.8788
9.447488380180165 83.7035
9.469863475295412 83.7799
9.492256385987508 84.1921
9.514632206018318 84.8946
9.537025843935714 85.2414
9.559402392368193 86.3482
9.581796761000229 87.1954
9.604191496441521 87.8412
9.626569144158516 91.0557
9.648964615551032 95.1655
9.671343000390081 96.7045
9.693739211225699 95.3227
9.716135793237463 93.1234
9.738515290448102 92.8132
9.760912617143402 93.5794
9.783292860202891 94.9184
9.805690935076182 96.2999
9.828089385495742 97.2596
9.850470754023561 99.809
9.872869957865444 106.736
9.89525208097539 120.463
9.917652041736662 131.30700000000002
9.940052382417589 133.213
9.962435644102392 142.826
9.984836746950979 181.97299999999998
10.007220771957746 248.63099999999997
10.029622640473708 355.409
10.052007432299963 534.508
10.074410069984072 834.0160000000001
10.096813093716005 1291.08
10.119199042482517 1784.57
10.141602840636468 2014.04
10.163989564971628 1566.57
10.186394141051062 862.679
10.208799107559706 370.81699999999995
10.231187001965623 177.97
10.253592751657669 123.43
10.275981430388155 112.105
10.298387966769793 111.911
10.320794897965431 113.463
10.343184759907361 112.24700000000001
10.36559248305461 107.48
10.387983138083852 104.292
10.410391656691655 107.569
10.432800574501677 119.255
10.455192425893369 137.38
10.47760214443012 163.149
10.499994797678786 207.567
10.522405320453982 286.827
10.54479877906917 404.49
10.567210109595656 515.181
10.5896218454736 578.119
10.612016518879773 503.36300000000006
10.634429067781074 346.49199999999996
10.656824555333241 190.75400000000002
10.679237920773568 119.459
10.701651695961992 94.7625
10.724048411481384 88.5732
10.746463008485165 86.0616
10.768860546937125 84.7478
10.791275969274796 82.9229
10.81369180576079 81.7197
10.836090585366925 80.8549
10.858507252467449 79.5461
10.88090686379991 78.5688
10.903324365036394 77.9368
10.925724811614439 77.7492
10.948143150509463 78.6385
10.970561909719066 78.1177
10.992963615930844 76.2383
11.015383218085756 74.4375
11.037785768347074 72.9343
11.06020621697282 72.2438
11.082627090322113 71.8406
11.105030913430326 71.9373
11.12745263854165 71.9464
11.149857314510728 74.9763
11.172279894912576 79.9202
11.194702904450653 80.3608
11.217108866490921 76.9265
11.239532736615194 73.1083
11.26193956033512 71.1987
11.284364294577085 69.5662
11.306789462371718 67.9061
11.329197585398376 66.8077
11.351623622610898 66.7545
11.37403261614354 65.7425
11.396459526308487 65.7243
11.418869393879497 65.0847
11.441297180532617 65.1793
11.463725406927658 64.7957
11.486136592353875 64.5116
11.508565700543707 64.8604
11.530977768845315 66.7729
11.553407762368774 67.1582
11.575838200059769 66.7864
11.598251599479612 65.0526
11.620682927815501 63.8357
11.64309721895548 63.3966
11.665529441478206 63.2625
11.687962112597958 62.9872
11.710377748130886 62.9819
11.732811318753434 62.6716
11.755227854859067 62.5693
11.777662328529495 62.5301
11.800079768750786 62.4262
11.822515149015453 62.4156
11.844950984084935 62.6979
11.867369787303163 62.2419
11.889806534289491 62.2883
11.912226250487029 62.5749
11.934663912939751 62.5831
11.9571020346363 62.7388
11.979523127133968 62.7078
12.001962169624331 63.6146
12.024384183972964 64.5495
12.046824150809913 67.8952
12.069264581333726 73.3404
12.091687985297767 79.5896
12.11412934550045 88.6145
12.136553680195208 103.861
12.158995973632788 125.932
12.181438735204349 154.83
12.20386447284199 182.733
12.226308172985636 206.252
12.24873485024193 200.78099999999998
12.271179492516982 160.809
12.293607112949127 121.404
12.316052700916226 90.6732
12.338498763250042 76.0654
12.360927805303868 69.1181
12.383374818673879 65.9547
12.405804812803074 64.3782
12.428252780773262 63.946000000000005
12.45070122756722 64.0222
12.473132656675375 63.6758
12.49558206341869 64.0591
12.518014453510101 64.2807
12.540464823770117 64.2773
12.562915677315177 64.6034
12.58534951575545 65.2031
12.607801338171472 66.9996
12.630236146511358 71.3876
12.652688941369085 75.3866
12.675124723177234 76.0629
12.697578494048786 73.1855
12.720032754458185 69.5662
12.742470003354093 67.8093
12.764925245138771 67.4764
12.787363476431278 67.8385
12.809819703166806 68.0522
12.83227642391173 68.3724
12.854716135692716 69.578
12.877173846755147 70.5349
12.899614549869717 70.8616
12.9220732548287 71.4725
12.94453245827299 72.2018
12.966974655289818 73.0605
12.989434858002571 74.0664
13.011878055298721 74.7506
13.034339260862497 75.4656
13.056800969391883 76.7678
13.079245674017244 79.2035
13.101708390774869 81.3604
13.12415410463411 88.9055
13.146617833206086 101.26799999999999
13.169064559883248 113.301
13.191529303857127 127.87200000000001
13.213994557076367 150.651
13.236442809902437 187.63
13.258909083908291 243.90200000000002
13.28135835851934 312.972
13.30382565690295 379.499
13.326293469022952 433.75699999999995
13.348744283242008 424.983
13.371213125129904 354.411
13.39366497011003 253.708
13.416134845360597 167.78400000000002
13.438605238843131 120.899
13.46105863690397 104.47200000000001
13.483530069144786 105.946
13.505984506951902 112.131
13.528456981549432 121.551
13.550929978879088 136.386
13.573385983253365 160.56
13.595860028340867 199.71099999999998
13.618317081455832 253.155
13.64079217790333 310.058
13.663250283359057 357.908
13.685726434770173 373.74699999999996
13.708203115221277 332.19699999999995
13.730662806148091 253.824
13.75314054697177 174.415
13.775601299246777 122.58
13.798080104050406 94.7331
13.820559442405358 84.4497
13.843021793671388 81.1907
13.865502201420897 79.7178
13.887965623051947 79.3108
13.910447103807167 78.2163
13.932929122629764 77.066
13.955394156785959 76.3186
13.977877254034569 75.6311
14.000343367582113 74.5925
14.022827546871707 74.2087
14.045294743423524 73.5961
14.06778000837062 72.7316
14.090265817715476 72.5417
14.112734645763819 72.3219
14.13522154619454 71.8246
14.157691466286913 72.199
14.180179461423874 71.8242
14.202668005486178 71.1298
14.22513957064374 70.6723
14.247629214846473 70.1613
14.270101881097517 69.8234
14.29259262906496 70.2788
14.315083930490205 70.8832
14.337558255389705 71.1294
14.360050666019726 71.0434
14.382526101071944 69.9176
14.405019624534942 69.1113
14.427513705993134 68.7058
14.449990813291825 68.634
14.47248601302899 68.6481
14.49496423954951 68.6338
14.517460561197822 68.5938
14.539939910570322 68.618
14.562437357763558 69.2974
14.58493536931253 70.0108
14.607416409993311 70.613
14.62991555254159 71.2542
14.652397725157423 71.0764
14.674898002342799 70.5388
14.697398848433282 70.4125
14.719882725991326 71.1332
14.74238471217934 71.9913
14.764869730765593 75.2536
14.787372860692983 79.2014
14.809876564079925 83.5963
14.83236330125751 89.4362
14.854868153850365 98.0931
14.877356041159485 111.395
14.899862046604186 130.939
14.922351087688757 156.591
14.944858249632887 186.81799999999998
14.967365991421232 211.38099999999997
14.989856770231246 226.55
15.012365673994204 217.03900000000002
15.03485761569738 184.003
15.05736768508665 142.511
15.07987833888692 109.61
15.102372032001655 87.5178
15.124883856909658 75.6455
15.14737872204565 71.633
15.169891721717274 70.2539
15.192405310371893 70.0937
15.214901940621196 70.5809
15.237416709527137 70.4142
15.259914520936249 70.3948
15.282430473753607 69.6825
15.304947020131227 68.3038
15.327446610371178 67.768
15.349964346154254 66.8569
15.372465126703139 66.5554
15.394984055556009 66.2275
15.417486030076159 66.5341
15.44000615566487 65.9937
15.462526881230803 65.9279
15.485030653812652 66.0507
15.507552581617434 65.766
15.530057557334603 66.0006
15.55258069104857 66.0541
15.575104429329837 66.3084
15.597611216864632 65.8976
15.620136166564563 65.9837
15.6426441664095 66.8131
15.665170331202765 69.1999
15.687697105158826 72.5002
15.710206930593545 76.2633
15.732734925158933 80.2484
15.755245972089478 86.4992
15.77777519094324 95.9377
15.800287463046663 108.65
15.822817909869592 127.925
15.84534897229804 149.262
15.867863089299354 174.84900000000002
15.890395385222186 191.422
15.912910736597423 196.398
15.935444269699861 181.608
15.957978423016485 154.028
15.980495633101265 119.428
16.003031029129367 93.7861
16.02554948280019 75.0622
16.048086125229432 66.7575
16.070623392487107 64.7536
16.09314371869582 64.0761
16.11568223789321 63.0454
16.13820381691126 61.9793
16.160743591742527 61.3532
16.183283996022084 60.3728
16.205807461423195 59.4709
16.228349126881973 58.658
16.25087385432698 58.7576
16.27341678466365 58.4118
16.29594277784926 58.131
16.31848697676433 58.4798
16.341031811604868 58.6334
16.36355971058487 58.8702
16.3861058195587 58.4729
16.40863499352978 57.3893
16.431182380342005 56.5214
16.453730407713202 56.2152
16.476261501364792 55.8312
16.498810812136167 55.45399999999999
16.52134319004079 55.7136
16.54389378792203 55.4095
16.566445031001553 55.1368
16.588979342490088 55.1625
16.61153187824822 54.9593
16.634067483263312 54.9001
16.656621315414416 54.6385
16.679175797408888 54.2329
16.701713349928728 54.3882
16.72426913389191 54.5963
16.74680798922351 54.7786
16.76936507887444 54.6866
16.791905240734874 54.7382
16.814463639794468 54.6311
16.837022695210294 54.7911
16.859564824093756 55.2265
16.882125194503903 55.6607
16.904668639217885 56.4002
16.927230328348003 56.4724
16.949792678493612 56.555
16.972338104193863 56.027
16.994901778652235 55.523
17.017448529496576 55.6274
17.040013531998152 55.7864
17.06257920018044 56.2699
17.0851279459922 57.0667
17.107694947817667 57.9821
17.130245028099072 58.5684
17.15281336730298 59.946999999999996
17.17536478578733 61.7261
17.19793446610687 64.016
17.220504818648422 66.955
17.243058251703697 70.2118
17.265629950971032 74.934
17.288184731571736 79.2583
17.310757781306908 83.3026
17.33333150794385 83.9555
17.355888317140174 81.6223
17.37846339986244 75.9375
17.401021565958885 70.1282
17.42359800851343 64.7259
17.44617513265564 61.4318
17.468735341390783 59.6826
17.491261035594565 58.9076
17.51396340099364 58.6291
17.536490463869136 58.8881
17.559018209820174 59.0035
17.58154663977963 59.053999999999995
17.604251766089718 59.3518
17.626781572227713 59.4678
17.64931206518155 59.7064
17.671843245885103 60.0956
17.69455114821572 60.3268
17.717083712612634 60.6509
17.739616967569667 60.9234
17.762150914021706 61.1453
17.78486160749854 61.0399
17.807396945166804 61.8065
17.829932977143503 62.7586
17.85246970436452 64.3173
17.875183204129467 66.484
17.897721330097664 68.5951
17.920260154126645 70.8494
17.942799677153296 73.9698
17.9655159983646 77.5854
17.988056927677544 83.1364
18.010598558807683 90.8378
18.033140892692916 101.11399999999999
18.05586005052525 112.484
18.07840379824407 124.08200000000001
18.10094825154059 135.148
18.12366954819864 142.842
18.146215420998306 140.958
18.16876200220057 130.066
18.191309292745153 115.772
18.214033452627167 101.17
18.236582170236648 90.866
18.259131600016456 86.1069
18.281681742907335 86.4784
18.304408781233683 91.0362
18.32696035875955 96.4733
18.349512652227624 100.932
18.372065662579683 104.935
18.394795594587553 105.975
18.41735004715306 102.01799999999999
18.43990521943684 94.8373
18.46246111238171 84.9514
18.485193953325208 75.8114
18.507751296070428 68.9644
18.530309362314178 65.2298
18.552868153000343 63.2315
18.57560391815056 62.0538
18.59816416623245 61.4098
18.620725141597372 61.077
18.643286845190268 60.5926
18.666025549835414 60.1023
18.688588718427933 59.5041
18.711152618092243 59.5116
18.73389353884365 59.2083
18.75645890921984 58.7219
18.77902501351406 58.4946
18.801591852673102 58.3176
18.824335739722738 57.766999999999996
18.846904057212626 57.8203
18.8694731124168 57.5416
18.89204290628315 57.5526
18.914789774966803 57.2705
18.937361054791623 57.0087
18.959933076131318 56.7342
18.982505839934877 56.755
19.00525570560582 56.9217
19.027829963004184 56.8183
19.05040496572238 56.8524
19.072980714710468 56.7982
19.095733592739563 56.9985
19.11831084296757 57.2682
19.140888842324735 57.7492
19.16346759176222 57.928999999999995
19.18622349753803 58.547
19.208803755869358 59.5456
19.231384767143577 60.606
19.253966532312948 62.1009
19.276725481241822 64.1378
19.29930876296784 67.1664
19.3218928014549 70.1453
19.34465404436217 73.6094
19.36723960516257 76.0051
19.389825925592426 76.8403
19.412413006605938 75.607
19.43517731967805 71.8177
19.457765930683355 67.2818
19.48035530514408 62.5876
19.50294544401556 58.7088
19.525712842708348 56.0278
19.54830451925909 54.8077
19.570896963095727 53.9948
19.593490175174704 53.7
19.616260674962184 53.7043
19.638855432416964 53.2731
19.661450960992624 53.6291
19.68404726164677 53.3781
19.706820878021247 53.2854
19.729418731756834 53.591
19.752017360452857 53.3421
19.77461676506804 53.5325
19.797393513540218 53.3478
19.819994478951667 53.7934
19.84259622316767 54.5968
19.8651987471481 54.6933
19.887978643247177 54.7488
19.91058273574792 55.4364
19.933187610901943 56.2195
19.955969879466828 57.2972
19.97857632894404 59.0068
20.00118356396599 60.57899999999999
20.023791585494575 62.6043
20.046577028914875 65.3079
20.069186632506966 67.4898
20.091797025500632 69.2866
20.114408208858933 69.7702
20.137196842715273 69.2543
20.159809615886765 67.6987
20.18242318232135 64.7849
20.20503754298326 62.8857
20.227829382875154 61.8588
20.250445341109344 62.008
20.27306209647285 62.8392
20.29567964993108 64.2608
20.31847471147704 64.8992
20.34109387027612 65.5999
20.363713830075454 65.0812
20.386334591841646 63.4008
20.409132890679302 60.6508
20.431755265564437 57.4458
20.454378445325528 55.0175
20.477002430930366 52.9816
20.499803982716553 52.0858
20.522429589228004 51.4474
20.54505600449589 50.8991
20.567683229489194 50.7633
20.590488049900088 50.4245
20.61311690359731 50.2382
20.63574656993626 49.8907
20.658553853717297 49.4725
20.681185154618298 49.5017
20.703817271080066 49.3656
20.72645020407368 48.9365
20.749260783967177 48.9916
20.771895359337133 48.8886
20.794530754161617 48.8583
20.817166969412938 48.7693
20.83998086114876 48.9382
20.86261872660049 48.6479
20.885257415405402 48.8106
20.90789692853701 48.5042
20.930714147864748 48.2106
20.953355319030678 48.4801
20.97599731745334 48.5666
20.99864014410749 48.3792
21.021460706796564 48.4991
21.044105199328826 48.8157
21.06675052302631 48.8855
21.089396678865015 49.0795
21.112220600704806 49.3014
21.134868430275347 49.7737
21.15751709492456 50.1476
21.180166595629693 50.3479
21.202993892429635 50.8146
21.22564507473034 51.1448
21.24829709602816 51.4932
21.27112693608965 51.2778
21.293780644891275 51.3526
21.316435195634053 50.6211
21.339090589297417 49.8592
21.361923832041875 49.2513
21.384580921090404 48.6976
21.407238856007325 48.4038
21.429897637773326 48.2646
21.45273429906592 48.1464
21.475394784108598 48.251000000000005
21.498056118951983 48.1827
21.520718304578022 48.3309
21.543558400304388 48.5488
21.566222297108816 48.7361
21.58888704765135 48.971000000000004
21.61155265291521 49.2644
21.63439619898156 49.5157
21.657063523335786 49.8086
21.67973170537063 50.238
21.7024007460706 50.7102
21.72524775840385 51.6108
21.747918526116475 52.5237
21.770590155457388 53.7262
21.79326264741238 55.3243
21.816113141960237 57.4121
21.838787368860547 59.2834
21.861462461341976 61.2554
21.884315579735777 63.0818
21.90699241312273 64.3068
21.92967011506078 64.9039
21.95234868653799 64.4606
21.9752053151131 63.1229
21.997885635446785 60.8859
22.020566828293532 59.2362
22.04324889464272 57.6182
22.066109049404666 56.4271
22.088792872571794 55.8476
22.111477572219204 55.8379
22.1341631493376 56.2227
22.157026846313123 55.8438
22.179714188221507 55.099
22.202402410582668 53.853
22.22509151438863 52.4413
22.24795876962584 51.1478
22.270649646204486 50.3758
22.293341407213727 49.6886
22.316034053646906 49.1549
22.338904883215342 48.8696
22.36159931041458 48.8325
22.38429462602756 48.9125
22.40699083104897 48.6359
22.429865251039757 48.9319
22.452563244831367 48.7368
22.47526213102522 48.7016
22.49813925616515 48.5576
22.520839937143307 48.5204
22.543541513520587 48.6281
22.56624398629403 48.411
22.589124730075895 48.3365
22.611829005656723 48.5088
22.63453418063466 48.5392
22.657240256008077 48.6471
22.680124634582935 48.8699
22.70283252079775 49.2563
22.725541310413075 49.6729
22.74825100442868 49.5877
22.771139033969575 50.1719
22.79385054687155 50.3628
22.81656296718292 51.0957
22.83927629590484 52.0213
22.862167992606945 53.0022
22.88488314827121 54.1862
22.907599215359284 55.2266
22.93031619487366 56.4039
22.953211574954405 57.3706
22.975930389478226 58.1522
22.998650119445763 57.8765
23.02137076586092 57.0464
23.044269845560063 55.7653
23.06699233506288 54.1131
23.089715744034912 52.3244
23.112617610931565 50.6815
23.135342869061212 49.5204
23.158069049684816 49.028
23.1807961538087 48.5927
23.20370174880544 48.6534
23.226430710184808 48.6978
23.249160598093425 48.6855
23.271891413539002 48.5666
23.294800752937697 48.7366
23.31753343374794 48.9423
23.340267045128353 48.9965
23.36300158808808 49.3338
23.38591468821339 49.6792
23.408651104658304 50.04600000000001
23.431388455719986 50.8122
23.454126742409 51.7255
23.4770436196085 52.7196
23.499783787914662 53.8933
23.522524894889884 54.9192
23.54526694154616 56.0513
23.56818761219047 57.0823
23.59093154860734 57.6364
23.613676427751283 57.8006
23.636422250635754 56.723
23.659346731118656 55.0495
23.68209445191868 53.0346
23.704843119509587 50.8778
23.72759273490623 49.013000000000005
23.750521041644767 47.8868
23.77327256312355 47.0131
23.796025035462787 46.4426
23.818956224555475 45.8971
23.841710609113413 45.7139
23.86446594758979 45.7817
23.887222241002014 45.4967
23.910157285144578 45.0773
23.932915498962537 45.1587
23.955674670778713 44.9907
23.978434801611975 44.74100000000001
24.001373717286125 44.6514
24.024135776723917 44.6283
24.046898798245582 44.5202
24.06966278287146 44.2779
24.092605586582614 44.076
24.115371508023642 44.0071
24.1381383956401 43.8277
24.16090625045381 43.8365
24.183852958731244 43.7128
24.206622758582608 43.573
24.229393528706886 43.4683
24.252165270127392 43.5794
24.27511589952438 43.5747
24.297889594216997 43.3098
24.32066426328598 43.178999999999995
24.34343990775613 43.2264
24.36639447485003 43.0821
24.38917208083877 43.1436
24.41195066531332 42.9976
24.43490819850244 43.0806
24.457688750692377 42.9146
24.48047028445616 42.7017
24.503252800821233 42.8307
24.526214300784112 42.8756
24.548998793132213 43.0919
24.57178427117417 42.8578
24.59457073593893 42.8974
24.617536219319863 42.8988
24.64032466834748 42.7033
24.663114107195035 42.5625
24.685904536893013 42.5032
24.708874020360852 42.425
24.731666442613744 42.3394
24.754459858818787 42.3921
24.777254270007962 42.1997
24.80022777025625 42.0017
24.82302418230472 42.117
24.845821592443674 41.9691
24.86862000170663 42.1127
24.891597535453727 41.9181
24.914397953892728 42.1133
24.93719937456671 42.1509
24.96000179851076 42.3986
24.98298338249997 42.5167
25.00578782394922 42.7057
25.028593271784167 42.9323
25.05157790644186 43.1374
25.07438537804115 43.2395
25.097193859145293 43.5227
25.120003350792075 43.6688
25.142992065061257 44.0678
25.165803588823465 44.3369
25.18861612625217 44.6057
25.211429678386736 44.6763
25.234422489079968 44.5898
25.257238081693636 44.5356
25.280054692141732 44.8113
25.3028723214652 44.7119
25.325869245420463 44.9234
25.348688923599397 44.8479
25.371509623787006 44.8068
25.394331347025812 44.4013
25.41733240110666 44.0506
25.440156181590016 43.2237
25.46298098826268 42.7099
25.48580682216873 42.2818
25.50881202326435 41.6453
25.53163992281684 41.38399999999999
25.55446885274561 41.0747
25.577298814096377 40.7882
25.600308179121807 40.7511
25.623140214533745 40.7844
25.64597328451537 40.7948
25.66898578564376 40.512
25.691820936010206 40.5809
25.714657124097695 40.4083
25.737494350954734 40.5065
25.760511045684957 40.2602
25.783350361364224 40.4162
25.806190718969255 40.4254
25.82903211955018 40.4434
25.852053024868923 40.4799
25.874896522722523 40.6132
25.897741066713106 40.4513
25.920586657892454 40.6773
25.943611790812668 40.7405
25.966459487728237 40.9382
25.989308234998564 41.0507
26.01215803367705 41.242
26.03518741123814 41.402
26.05803932412957 41.5625
26.080892291600094 41.4557
26.10374631470478 41.6425
26.12677995397268 41.6919
26.14963609978026 41.6473
26.172493304397875 41.277
26.19535156888223 40.9444
26.218389486949604 40.5681
26.241249882640123 40.4591
26.26411134137826 40.1214
26.28715248187403 40.2444
26.31001607820869 40.0038
26.3328807407756 39.8966
26.35574647063438 40.1381
26.37879191991473 40.0464
26.401659795896734 40.0295
26.424528742360263 40.0555
26.447398760366614 40.2993
26.470448535598294 40.4774
26.49332070826805 40.5998
26.516193955675355 40.9884
26.53906827888316 41.2022
26.562122397260108 41.4493
26.584998883685063 41.656000000000006
26.607876449110325 41.8528
26.63075509460056 42.0952
26.65381357334404 42.276
26.67669439061878 42.1573
26.699576291163382 41.8944
26.722459276044212 41.8731
26.745522132402975 41.5848
26.768407297649354 41.3095
26.791293550442003 40.9221
26.814180891848974 40.7691
26.837248143099337 40.4624
26.860137673466657 40.2993
26.88302829566349 40.0851
26.90592001075963 39.9604
26.92899167420566 39.7251
26.951885586870763 39.4514
26.974780595655517 39.2578
26.99785558178161 39.1251
27.020752794605112 38.861
27.043651106772522 38.746
27.06655051935668 38.6724
27.089629948036183 38.5851
27.112531573292053 38.6214
27.135434302194138 38.7758
27.158338135817015 38.5476
27.181422024430987 38.622
27.204328079372566 38.4206
27.22723524226965 38.4768
27.250143514198573 38.5392
27.273231880156334 38.4459
27.296142382065014 38.305
27.319053996245536 38.2173
27.341966723775965 38.365
27.365059584515222 38.4598
27.38797455070062 38.4347
27.410890633481237 38.3309
27.433807833936918 38.478
27.456905206923906 38.5146
27.47982465472398 38.4343
27.502745223449743 38.4915
27.525666914182825 38.5704
27.548768816912457 38.4761
27.571692763693633 38.4014
27.59461783573812 38.2589
27.617723149491244 38.2127
27.640650484125285 37.9751
27.66357894728264 37.8366
27.686508540048052 37.9815
27.709618414237887 37.9117
27.732550278321757 37.7553
27.755483275279115 37.6771
27.778417406196485 37.9093
27.801531858397514 37.902
27.824468269376716 37.7743
27.847405817586786 37.8166
27.870344504116094 37.7605
27.893463551932008 37.9675
27.916404527281053 38.1975
27.93934664422563 38.2707
27.962289903855886 38.3046
27.98541356491974 38.5884
28.00835912214229 38.7994
28.03130582533231 39.007
28.054253675581805 39.0947
28.077381967556104 38.9765
28.100332124185126 38.9492
28.123283431160893 38.7854
28.146235889577238 38.7815
28.169368830154156 38.5842
28.192323603752033 38.33
28.215279532083304 38.0521
28.238415973016764 37.755
28.261374223145094 37.7157
28.284333631303806 37.48
28.307294198589954 37.3282
28.330435319167677 37.0351
28.353398217078915 36.723
28.376362277420153 36.6311
28.39932750129032 36.4054
28.422473319286713 36.4034
28.44544088262495 36.2769
28.468409612800283 36.1016
28.491379510913497 36.0055
28.51453004413313 35.9004
28.53750229057244 35.755
28.56047570826344 35.7559
28.583450298308804 35.797
28.606605564586562 35.5706
28.629582511831156 35.7244
28.65256063474956 35.6714
28.675539934446338 35.6023
28.698699951647605 35.5275
28.72168161743193 35.4124
28.74466446331978 35.378
28.767648490417624 35.3928
28.790813276438353 35.3687
28.813799678527303 35.4264
28.836787265157085 35.4343
28.859955641890075 35.4139
28.882945610203045 35.4423
28.905936766392035 35.2341
28.928929111566863 35.3689
28.952102288520145 35.2753
28.975097024308607 35.1121
28.998092952423807 34.9476
29.021090073977508 34.8589
29.04426806913204 34.7654
29.067267590245258 34.6048
29.090268308143695 34.4304
29.11327022394099 34.5261
29.13645305530891 34.3595
29.159457379627167 34.325
29.18246290519685 34.1893
29.20546963313352 34.2247
29.22865731875826 34.2722
29.25166646419296 34.3018
29.27467681535305 34.1895
29.29768837335608 34.2037
29.320880931312562 34.1796
29.34389491580634 34.2021
29.366910110507334 34.2248
29.38992651653503 34.1519
29.41312396492981 34.1373
29.436142806456754 34.044000000000004
29.45916286268059 34.0119
29.48236399319994 33.8737
29.50538649169417 33.7467
29.528410208259935 33.6466
29.55143514402014 33.4987
29.574641196749695 33.2522
29.597668583816574 33.2016
29.6206971934585 33.0016
29.64372702680042 33.0163
29.666938019934474 32.9853
29.689970313635285 33.0555
29.713003834422636 32.9089
29.73603858342347 32.8965
29.759254535188578 32.866
29.78229175361658 32.8437
29.80533020365064 32.803000000000004
29.82836988641968 32.7795
29.85159081507472 32.6404
29.874632976355343 32.6272
29.89767637376955 32.6563
29.920721008448314 32.515
29.9439469322847 32.5778
29.96699405457564 32.544000000000004
29.9900424175358 32.5092
30.013092022298157 32.4864
30.03632295963995 32.4066
30.059375061131373 32.4335
30.08242840783577 32.373000000000005
30.105483000888153 32.3968
30.128718970092244 32.3616
30.151776069006917 32.3443
30.17483441768648 32.4106
30.198074175317235 32.3915
30.221135036724256 32.3103
30.24419715131772 32.3446
30.267260520236203 32.2572
30.290505341942243 32.2886
30.313571232750228 32.4212
30.336638381310948 32.2383
30.35970678876503 32.1585
30.38295669299435 32.035
30.40602763151657 32.0989
30.429099832366074 32.0922
30.452173296685572 32.0919
30.47542830191959 32.025
30.498504306502497 32.0343
30.521581577995562 32.0929
30.544660117543582 32.1598
30.56792024229725 32.1017
30.59100133132069 32.0492
30.614083691845494 32.0677
30.637167325018545 32.0998
30.660432587840603 32.1692
30.683518779717886 32.2078
30.70660624769615 32.1724
30.729694992924372 32.133
30.75296541239743 32.1193
30.77605672557558 32.1221
30.799149319462742 32.07
30.8224236211637 31.8717
30.845518789950724 31.7459
30.868615242910597 31.7672
30.891712981195973 31.698
30.91499247215866 31.5565
30.938092794619365 31.5033
30.96119440587579 31.4505
30.984297307082752 31.2424
31.00758200598383 31.2156
31.030687500658694 31.1098
31.053794288760695 31.1539
31.076902371446767 30.9466
31.100192296997445 31.0044
31.12330298246119 30.9918
31.14641496599209 30.9902
31.169528248749216 30.8776
31.19282341969534 30.8228
31.215939314557186 30.8714
31.239056512134788 30.9483
31.262175013589378 30.8218
31.28547544871168 30.8203
31.30859657161541 30.7798
31.331719001892175 30.7863
31.35484274070538 30.8962
31.378148458819545 30.8429
31.401274828443725 30.883000000000003
31.424402510106933 30.8757
31.447712205419993 30.9041
31.470842524931633 30.8921
31.493974159989783 30.8026
31.51710711176168 30.6596
31.54042212308802 30.7263
31.563557722100917 30.6757
31.586694641341655 30.5489
31.609832881979628 30.3921
31.63315322823208 30.483
31.656294125521327 30.3411
31.679436347728515 30.2708
31.70257989602529 30.1891
31.725905596152327 30.1295
31.74905181052835 30.0521
31.772199354521323 29.9897
31.79534822930507 30.0921
31.818679302290967 30.1176
31.84183085259981 30.0001
31.864983737233473 30.0632
31.88813795736804 30.1618
31.911474422233013 30.0297
31.934631327356435 29.9699
31.9577895715215 30.0179
31.980949155906522 29.9307
32.004291031706956 30.0744
32.027453310562606 29.9338
32.05061693318573 29.7499
32.07396288236386 29.7566
32.09712920658542 29.7512
32.12029687812702 29.5962
32.14346589817093 29.554000000000002
32.166817291729984 29.469
32.18998902288583 29.3822
32.21316210610336 29.3284
32.23633654256711 29.2271
32.259693399663725 29.1843
32.282870556771144 29.1507
32.30604907069099 29.0955
32.329228942610065 29.0357
32.35259128243769 28.9319
32.375773884550505 28.9193
32.398957848235646 28.8417
32.422143174682176 28.8064
32.445511016471215 28.6991
32.468699082679954 28.7033
32.49188851523011 28.6668
32.51507931531304 28.5563
32.538452678331 28.5973
32.56164622776311 28.467
32.58484114831493 28.4503
32.60803744118015 28.4504
32.631416344731896 28.3715
32.654615396551876 28.4019
32.67781582427913 28.3799
32.701198898634416 28.305
32.72440209253756 28.2415
32.747606665947124 28.279
32.77081262006088 28.1115
32.79420126883317 28.0539
32.81740999876112 28.0539
32.840620112999424 28.0483
32.86383161274818 27.921999999999997
32.88722585534586 27.9154
32.91044014056596 28.0692
32.933655814909734 28.0479
32.95687287957963 27.9533
32.98027273544904 27.8474
33.00349259526636 27.862
33.026713849030116 27.8986
33.04993649794511 27.7406
33.073341986570746 27.7658
33.09656744032826 27.7682
33.11979429286444 27.8199
33.14302254538647 27.7005
33.166433686291185 27.6508
33.18966475336992 27.6737
33.212897224069096 27.5371
33.23613109959831 27.517
33.259547912343415 27.5281
33.2827846121627 27.5211
33.306022720453775 27.4009
33.32926223842861 27.3475
33.352684742614166 27.3331
33.37592709463173 27.3281
33.399170859982064 27.3264
33.422597648419426 27.1379
33.44584425514446 27.0518
33.46909227885668 27.0255
33.4923417207723 26.869
33.51577423505344 26.9004
33.539026528130385 26.8521
33.56228024307245 26.8644
33.585535381098246 26.697
33.60897364093058 26.6285
33.63223163992385 26.6528
33.6554910656699 26.611
33.678751919389796 26.6313
33.702195944520106 26.6025
33.72545966903325 26.5774
33.74872482519663 26.5012
33.771991414233746 26.5181
33.79544122444841 26.4762
33.81871069412428 26.37
33.84198160035767 26.3267
33.86525394437455 26.3264
33.88870955949969 26.2479
33.911984794020626 26.2081
33.93526147001624 26.1952
33.958539588715006 26.1849
33.98200102861669 26.1058
34.0052820477047 26.0277
34.02856451319451 26.0447
34.05203033759056 25.9778
34.07531571090147 25.936999999999998
34.09860253431845 25.9988
34.121890809074316 25.9068
34.145362493118924 25.9232
34.16865368561615 25.9072
34.191946333164054 25.7705
34.21524043699793 25.715
34.23871800066799 25.6796
34.26201503218366 25.6213
34.28531352370466 25.6334
34.30861347646881 25.4983
34.33209693978188 25.498
34.3553998301885 25.4631
34.378704185565205 25.3618
34.402010007152356 25.3593
34.42549939016683 25.3937
34.44880815937748 25.1938
34.472118398533134 25.1646
34.49543010887669 25.2288
34.51892543169198 25.1552
34.54224009966052 25.1347
34.56555624255917 25.1292
34.58887386163339 24.9398
34.61237514439016 24.878
34.6356957311114 24.8999
34.65901779775809 24.8352
34.68252356662995 24.8298
34.705848608458616 24.8306
34.72917513396849 24.6983
34.75250314440949 24.7112
34.77601490857862 24.6416
34.799345904259795 24.6396
34.82267838863559 24.6686
34.846012362958525 24.6409
34.869530142679984 24.5885
34.89286711232212 24.5236
34.91620557568269 24.5583
34.93954553401677 24.469
34.9630693495876 24.3885
34.986412313340814 24.4822
35.00975677584668 24.4261
35.033102738362956 24.3926
35.05663261012228 24.3211
35.0799815881786 24.3376
35.10333207003229 24.2635
35.12668405694369 24.2345
35.150220005273056 24.27
35.17357501786656 24.1857
35.19693153931268 24.1331
35.220289570874385 24.1011
35.24383161619786 24.0995
35.267192683604904 24.0753
35.290555264930376 24.1174
35.314101899412165 24.1494
35.33746752422433 24.0777
35.36083466676374 24.0692
35.38420332829803 24.033
35.407756095629054 23.9038
35.43112781085063 23.9824
35.45450104888391 23.9301
35.477875810999194 23.9513
35.50143473172161 23.8053
35.52481255774625 23.8479
35.54819191167777 23.7827
35.57157279478914 23.7969
35.595137889488406 23.7424
35.61852184675279 23.6842
35.641907337029984 23.6484
35.665294361595684 23.574
35.68886565090076 23.4227
35.7122557598848 23.4247
35.73564740699838 23.5125
35.759040593519934 23.4282
35.78261809810353 23.3434
35.80601437933051 23.2697
35.829412203814705 23.2814
35.85281157283719 23.2461
35.876395313415884 23.2167
35.8997977874528 23.1549
35.92320180988546 23.1469
35.946790244133936 23.0802
35.97019737933222 23.0863
35.993606066789866 23.046999999999997
36.01701630779276 23.0469
36.04061101440684 22.9867
36.06402437852291 22.9336
36.08743930005611 23.0238
36.1108557802951 22.8809
36.13445678011326 22.8322
36.15787639383515 22.7546
36.18129757014299 22.7521
36.20472031032821 22.7238
36.22832762423364 22.6346
36.25175350829375 22.6694
36.275180960119776 22.660999999999998
36.298609981005924 22.6813
36.32222362992669 22.5615
36.34565580510207 22.5727
36.36908955323448 22.5704
36.39252487562093 22.393
36.416144880530226 22.3413
36.43958336764275 22.335
36.463023432914625 22.4148
36.486465077645676 22.2969
36.51009145956204 22.346999999999998
36.53353627947859 22.4145
36.55698268276811 22.3837
36.58043067073321 22.2723
36.60406345072071 22.1503
36.62751462435344 22.0963
36.65096738658405 22.059
36.67460498210655 22.112
36.69806093788647 22.0333
36.72151848619297 21.9831
36.744977628333636 21.9762
36.76862165890998 21.9726
36.79208400512205 21.9426
36.81554794910557 21.86
36.83901349217101 21.8155
36.862663978991606 21.8513
36.88613273667352 21.82
36.90960309738324 21.6882
36.933075062434064 21.7111
36.95673202673572 21.6798
36.98020721697122 21.6608
37.003684015502365 21.5902
37.027162423645365 21.4881
37.050825886711465 21.4989
37.07430753063053 21.4936
37.09779078812467 21.3992
37.121275660513014 21.4103
37.144945643673694 21.4005
37.16843376245278 21.3207
37.19192350009803 21.3193
37.215414857931435 21.302
37.239091382563885 21.2228
37.262585997426164 21.1876
37.28608223645736 21.254
37.309763684451696 21.2452
37.33326318851098 21.1784
37.356764320726555 21.1916
37.380267082425526 21.1839
37.40395510942588 21.101999999999997
37.42746114683234 20.9877
37.45096881771841 21.0101
37.474478123414166 20.9903
37.49817275092816 20.9188
37.52168534303452 20.8511
37.54519957395567 20.7688
37.568715445024665 20.8268
37.592416694607714 20.7895
37.61593586281424 20.8487
37.63945667518264 20.8119
37.66297913304891 20.7255
37.68668702630454 20.7154
37.710212792059274 20.6172
37.733740207334854 20.5455
37.757269273470364 20.4859
37.780983832050374 20.4866
37.80451621684926 20.4853
37.82805025654007 20.4371
37.851585952464795 20.4296
37.8753071980695 20.3049
37.89884622345676 20.2669
37.92238690911902 20.2576
37.94611318753442 20.2774
37.969657210779765 20.2347
37.99320289834801 20.2047
38.016750251586465 20.1924
38.04048325513017 20.1361
38.06403395679343 20.0711
38.087586328183946 20.0342
38.11114037065203 20.0531
38.13488012115898 20.086
38.1584375229181 20.0354
38.181996599821 19.9583
38.205557353221124 19.9286
38.229303872575656 19.9094
38.2528679961576 19.8654
38.27643380031219 19.7734
38.30000128639589 19.7628
38.32375459653193 19.7752
38.34732546371299 19.7955
38.37089801690786 19.7308
38.39447225747609 19.6664
38.418232380377425 19.5916
38.441810012983396 19.5755
38.46538933705673 19.5674
38.488970353960084 19.6037
38.51273731166058 19.5372
38.536321731567014 19.4452
38.55990784840681 19.4301
38.58367995004091 19.4617
38.60726947812959 19.3542
38.63086070726198 19.3944
38.654453638806274 19.3657
38.678232613930824 19.3042
38.70182896773327 19.2396
38.72542702806741 19.2234
38.7490267963045 19.2438
38.77281266709232 19.2273
38.79641586862214 19.2238
38.8200207821842 19.1687
38.843627409152944 19.1195
38.86742019782782 19.0874
38.891030269149255 19.0216
38.914642058016156 19.035999999999998
38.938255565806124 18.9679
38.96205529464307 18.8789
38.98567225787121 18.8905
39.00929094417078 18.8284
39.03291135492255 18.8493
39.05671804624804 18.8332
39.080341923549106 18.7986
39.103967529460334 18.7851
39.127594865365744 18.7267
39.15140854155791 18.7084
39.17503935514948 18.7334
39.19867190290282 18.6901
39.22249083587951 18.5793
39.24612686969409 18.6368
39.269764641845306 18.6081
39.293404153722804 18.5771
39.317230110864074 18.4385
39.34087311998506 18.4594
39.36451787301696 18.3999
39.388164371352595 18.333
39.41199737518003 18.3554
39.43564738196752 18.3445
39.45929913825317 18.2906
39.48295264543308 18.2076
39.506792718520884 18.1843
39.530449745387216 18.177
39.55410852735203 18.1741
39.57776906581474 18.1921
39.60161623079 18.1304
39.625280300200025 18.0906
39.64894613032202 18.1356
39.67261372255866 18.0328
39.6964680021016 18.0248
39.72013913657293 17.9947
39.74381203738292 17.9719
39.76748670593756 17.9159
39.79134812278169 17.8846
39.81502634488497 17.9075
39.83870633896685 17.8612
39.862388106436654 17.8225
39.88625668336918 17.8485
39.90994201572829 17.8162
39.933629125719285 17.7519
39.957503091207826 17.7302
39.9811937746168 17.7437
40.00488623990914 17.6988
40.02858048850006 17.6107
40.05246165409549 17.5303
40.076159487492085 17.5878
40.099859108448875 17.6059
40.123560518384345 17.5158
40.1474489070226 17.4765
40.171153913178564 17.429000000000002
40.194860712584955 17.4737
40.2185693066637 17.424
40.242464941335314 17.3896
40.26617714307655 17.3686
40.289891143772046 17.292
40.3136069448471 17.3003
40.33750984859743 17.2835
40.3612292688043 17.2303
40.3849504936829 17.2376
40.40867352466194 17.1949
40.43258372059144 17.1269
40.45631038219906 17.1542
40.48003885420956 17.0797
40.503769138055105 17.0792
40.52768664931955 17.0796
40.55142057531802 17.0999
40.57515631746428 17.0587
40.599079334038514 16.9728
40.62281872700477 16.9256
40.64655994043941 16.9578
40.67030297578061 16.9393
40.69423334835778 16.8899
40.71798004609188 16.8506
40.74172857006355 16.7813
40.76547892171441 16.8085
40.7894166736039 16.7933
40.813170699248566 16.7362
40.83692655691388 16.6812
40.86068424804498 16.7375
40.884629402612525 16.7025
40.908390779366385 16.6435
40.932153993938 16.5536
40.95591904777605 16.6126
40.979871628443995 16.5801
41.003640379561936 16.5799
41.02741097430883 16.4986
41.05118341413683 16.5412
41.075143444384416 16.4541
41.098919593177826 16.4543
41.1226975914255 16.4077
41.14647744058318 16.3836
41.170444943946755 16.2855
41.19422851378379 16.2985
41.218013938914645 16.2219
41.24198706625173 16.2302
41.26577622087193 16.2094
41.289567235177785 16.2051
41.31336011063129 16.1427
41.337340752422875 16.1515
41.361137369129835 16.1075
41.38493585138705 16.105
41.40873620066004 16.0857
41.43272438060107 16.0569
41.45652848292052 16.0093
41.48033445666918 15.9811
41.50414230331616 15.9536
41.528138045159764 15.9344
41.551949656675205 15.8852
41.575763145513235 15.874
41.59957851314666 15.8561
41.62358184070442 15.8076
41.64740098505737 15.7831
41.6712220126409 15.7903
41.69504492493139 15.7519
41.71905586207357 15.6811
41.74288256296395 15.6606
41.766711153007456 15.6303
41.79054163368412 15.6209
41.814560204340054 15.6225
41.838394485526365 15.6212
41.86223066180303 15.5379
41.88625497706819 15.5412
41.910094962812 15.5355
41.93393684811168 15.5399
41.95778063445365 15.4601
41.981812625263366 15.3865
42.00566023303407 15.3923
42.029509746323676 15.3542
42.05336116662236 15.3365
42.077400857069705 15.3096
42.10125611078846 15.2974
42.12511327600405 15.2918
42.14897235421036 15.2696
42.173019768448455 15.2226
42.19688269209613 15.1935
42.22074753323349 15.1331
42.24461429335818 15.1818
42.268669455600495 15.1616
42.292540073217886 15.115
42.31641261433284 15.0899
42.34028708044675 15.0747
42.36435001496739 15.0358
42.38822835065557 15.0147
42.41210861586426 14.9636
42.4359908120986 14.9881
42.46006154323262 14.9453
42.48394762115317 14.9114
42.507835634632315 14.8985
42.531912233047436 14.8665
42.55580413732265 14.8276
42.579697981698 14.7832
42.60359376768525 14.7623
42.62767820545945 14.7435
42.65157789440821 14.7466
42.67547952952185 14.7417
42.699383112316 14.7059
42.72347541395347 14.6513
42.74738291190531 14.6037
42.771292362102166 14.6242
42.795203766063516 14.5521
42.819303956130405 14.556
42.843219287476536 14.5281
42.86713657716324 14.5477
42.89105582671383 14.5104
42.91516392983864 14.4597
42.939087119032166 14.4451
42.963012272677304 14.4169
42.98693939230129 14.3706
43.01105543317513 14.3246
43.034986504731386 14.3022
43.05891954686589 14.319
43.08285456110972 14.2781
43.10697856448665 14.2284
43.130917542983475 14.228
43.15485849820081 14.2367
43.17880143167367 14.1395
43.20293342237094 14.1631
43.226880332449 14.0879
43.25082922540554 14.1349
43.27496722682525 14.0632
43.29892010567796 14.0492
43.32287497204102 14.0529
43.34683182745632 13.9705
43.370977859791836 13.9795
43.39493871351105 13.9508
43.41890156092628 13.9441
43.44286640358341 13.8915
43.46702049182749 13.8799
43.49098934522816 13.8741
43.51496019852649 13.8614
43.5389330532723 13.8066
43.56309522248204 13.747
43.58707210044314 13.7698
43.61105098451946 13.6868
43.63503187626491 13.7066
43.659202151562134 13.6687
43.68318707902681 13.6539
43.70717401884041 13.6395
43.731162972560874 13.6494
43.75534137913236 13.607999999999999
43.779334381108384 13.5587
43.803329401683186 13.5492
43.82732644241872 13.5243
43.8515130055166 13.5568
43.87551410707659 13.4884
43.89951723350145 13.4681
43.923709934595614 13.437999999999999
43.94771713129917 13.4304
43.97172635758096 13.4027
43.99573761501002 13.3825
44.0199385169922 13.3281
44.04395385732619 13.345
44.067971233533086 13.372
44.09199064718605 13.3478
44.11619977548961 13.2959
44.14022328470671 13.2272
44.16424883610785 13.2191
44.18827643127035 13.1898
44.21249381139513 13.2105
44.236525514814076 13.1038
44.26055926674478 13.1257
44.28459506876863 13.1223
44.3088207262813 13.0533
44.33286064928722 13.0354
44.35690262714919 12.9928
44.38094666145278 13.0099
44.4051806219871 12.9637
44.42922879003185 12.9477
44.45327901929361 12.8833
44.477331311362136 12.902000000000001
44.501573600619416 12.9128
44.525630039221795 12.8814
44.54968854541895 12.8558
44.573937102200176 12.8576
44.5979997645541 12.8026
44.622064499300315 12.8335
44.64613130803592 12.8036
44.67038823869318 12.7813
44.69445921643748 12.685
44.718532272981385 12.6807
44.742607409926194 12.6719
44.76687274034801 12.6332
44.79095205918753 12.6298
44.81503346325094 12.5779
44.839116954143876 12.5788
44.86339071028742 12.5872
44.88747839599524 12.5359
44.91156817336837 12.4843
44.93566004401666 12.4492
44.959942251908146 12.4768
44.984038330325966 12.4431
45.00813650686762 12.3832
45.03223678314731 12.4106
45.05652746888232 12.395
45.08063196592069 12.3348
45.104738567558705 12.3317
45.128847275414856 12.3423
45.15314646515866 12.2803
45.17725940679741 12.2835
45.20137445952892 12.2173
45.22568004865265 12.2587
45.24979934496396 12.2138
45.27392075725247 12.1584
45.29804428714431 12.1745
45.322358426247604 12.1183
45.346486212804315 12.1242
45.370616121861914 12.1068
45.39474815505086 12.0745
45.41907087049246 12.0448
45.4432071734666 12.0329
45.46734560548283 12.0704
45.49148616817604 12.0253
45.51581748638564 11.9703
45.5399623320197 11.9783
45.56410931325473 11.9045
45.58825843173002 11.9044
45.61259837920865 11.8931
45.636751793816 11.8604
45.66090735060093 11.8057
45.68506505120716 11.8105
45.7094136545275 11.7832
45.73357566449271 11.7229
45.75773982322992 11.7496
45.78190613238733 11.7695
45.806263418194064 11.7196
45.83043404997326 11.7011
45.85460683713677 11.6643
45.87897065658495 11.667
45.90314777634752 11.6218
45.92732705646868 11.6041
45.9515084986045 11.6159
45.97588104735473 11.5448
46.00006683541565 11.5389
46.02425479047904 11.5471
46.04844491420549 11.5049
46.0728262191024 11.4928
46.09702070211635 11.5074
46.12121735879483 11.4807
46.14541619080294 11.4232
46.169806278764455 11.3666
46.194009483459034 11.3878
46.21821486849841 11.4192
46.24242243555223 11.3428
46.266821333570014 11.3043
46.29103328674601 11.3066
46.31524742696538 11.2874
46.33946375590237 11.2845
46.36387149104216 11.2325
46.38809221957392 11.1606
46.41231514186606 11.1853
46.436540259597464 11.2273
46.460956858999374 11.1619
46.48518638983522 11.1549
46.509418121166966 11.133
46.533652054678114 11.0742
46.55807754555709 11.1084
46.58231590571962 11.1141
46.60655647313217 11.0763
46.630988654873654 11.0358
46.655233659129024 11.0098
46.67948087571551 10.9848
46.70373030632484 11.0045
46.72817142736393 10.9845
46.752425308428684 10.9344
46.77668140861147 10.9158
46.80093972960865 10.8516
46.82538981736788 10.8525
46.849652602470904 10.7975
46.87391761349769 10.8078
46.8981848521493 10.8336
46.9226439341274 10.7694
46.946915650573224 10.7689
46.97118959976749 10.7403
46.99546578341598 10.7222
47.019933887188216 10.6961
47.04421456235744 10.6688
47.06849747711879 10.6777
47.09278263318286 10.6449
47.11725978640143 10.6163
47.14154944775105 10.6033
47.165841355555656 10.5691
47.1901355115306 10.5318
47.214621741924994 10.548
47.23892041698887 10.5027
47.26322134538975 10.4815
47.28771440635075 10.4832
47.31201986422527 10.4904
47.33632758061436 10.4329
47.360637557241866 10.3961
47.38513974410611 10.4097
47.40945426407847 10.4008
47.43377104948137 10.3795
47.45809010204344 10.3498
47.48260144275502 10.3496
47.506925052572285 10.2694
47.53125093475548 10.2615
47.55557909103813 10.2725
47.58009961361992 10.2107
47.60443234110732 10.1939
47.62876734791564 10.2337
47.65310463578333 10.2021
47.6776343683373 10.1699
47.7019762413987 10.1591
47.72632040075572 10.1229
47.75066684815169 10.1081
47.77520581885936 10.0957
47.799556865477655 10.0831
47.823910205386 10.0637
47.84826584033272 10.0594
47.87281407745551 10.0469
47.89717432569297 10.0515
47.92153687423484 9.992180000000001
47.94609208429692 9.93944
47.97045925671401 9.9392
47.99482873471275 9.92901
48.01920052005013 9.90582
48.04376504619224 9.924380000000001
48.068141469543484 9.92863
48.09252020552573 9.86382
48.11690125590099 9.832469999999999
48.1414751266064 9.83508
48.16586082917454 9.81386
48.19024885144316 9.80275
48.2146391951793 9.80893
48.239222439012764 9.80926
48.26361744916137 9.741019999999999
48.28801478610016 9.72156
48.31241445160131 9.71968
48.337007097209366 9.685310000000001
48.36141144338331 9.6818
48.38581812345755 9.64312
48.41022713920929 9.64509
48.434829215320704 9.62953
48.45924292604658 9.6212
48.48365897780325 9.57858
48.50807737237308 9.559989999999999
48.532688907799276 9.54285
48.55711201168574 9.54925
48.581537463754074 9.51978
48.60615611725119 9.50667
48.63058628942721 9.48141
48.65501881516546 9.459810000000001
48.6794536962573 9.47816
48.70408185970339 9.42057
48.72852147531801 9.39225
48.75296345168211 9.40343
48.77740779059232 9.400789999999999
48.80204549302823 9.41116
48.82649458091802 9.35092
48.85094603676547 9.32249
48.87539986237231 9.30674
48.90004713292306 9.25817
48.92450572200832 9.27206
48.94896668628025 9.273539999999999
48.97343002754588 9.24902
48.99808689542115 9.22955
49.02255501470614 9.2003
49.04702551642794 9.18562
49.0714984023988 9.17179
49.096164896893235 9.1489
49.120642575466796 9.11732
49.145122643748394 9.12278
49.16960510355558 9.09961
49.19428125404938 9.09062
49.2187685210852 9.05299
49.243258185121555 9.02234
49.26794160167084 9.03848
49.2924360839405 9.0221
49.31693296869764 8.96366
49.34143225776915 8.9727
49.36612538195438 8.9315
49.39062950396021 8.96968
49.41513603578346 8.92116
49.4396449792564 8.91559
49.46434784069503 8.89524
49.488861631846454 8.87514
49.513377840166804 8.84961
49.537896467493745 8.83256
49.56260909589029 8.77617
49.587132585683285 8.80636
49.611658500018365 8.7805
49.636186840738596 8.77125
49.66090926588511 8.779910000000001
49.685442483902584 8.75075
49.70997813385706 8.73703
49.734516217597076 8.705919999999999
49.75924846937352 8.69357
49.7837914452858 8.68212
49.80833686055187 8.65705
49.83288471702571 8.62134
49.85762682540054 8.6414
49.882179588965734 8.57814
49.9067347993235 8.55677
49.93129245833333 8.58197
49.95604445336378 8.56548
49.98060703442832 8.53163
50.005172069746266 8.50205
50.02993150438364 8.47588
50.05450147301533 8.49267
50.07907390151433 8.47945
50.10364879174981 8.41812
50.12841816587289 8.41127
50.1529980044635 8.429310000000001
50.17758031042124 8.4429
50.20216508562089 8.3757
50.22694442953363 8.383519999999999
50.25153416817468 8.35131
50.27612638170508 8.33958
50.300721072005196 8.295069999999999
50.325510416102105 8.27951
50.350110084975064 8.3131
50.37471223628208 8.28129
50.39931687190919 8.23575
50.424116246675766 8.238560000000001
50.44872587605249 8.20912
50.47333799543065 8.1721
50.49795260670191 8.212110000000001
50.52276204271512 8.16527
50.54738166295838 8.19458
50.57200378079314 8.16051
50.596628398116835 8.141
50.62144792604559 8.12142
50.646077567609396 8.071439999999999
50.670709714377715 8.08124
50.69553683636198 8.07018
50.72017401885922 8.044830000000001
50.7448137122895 8.04448
50.76945591856022 8.00452
50.79429318636823 8.00711
50.818940443716784 8.01945
50.84359021965163 7.97133
50.868242516085964 7.97204
50.893089960641895 7.93894
50.917747323549435 7.90115
50.94240721271973 7.90233
50.96706963007175 7.87401
50.99192728239342 7.88295
51.01659478166073 7.88276
51.04126481489051 7.847360000000001
51.06593738400761 7.83852
51.090805275207074 7.81343
51.11548294172845 7.79812
51.14016314993547 7.78967
51.164845901758845 7.7957
51.18972406304274 7.751410000000001
51.21441192780656 7.72315
51.23910234200271 7.71909
51.2637953075678 7.68536
51.288683770237945 7.689660000000001
51.31338186432707 7.6607
51.33808251561888 7.64221
51.362978729967345 7.642460000000001
51.387684521509755 7.63744
51.41239287610203 7.616339999999999
51.437103795691165 7.59404
51.46201036644977 7.58661
51.486726441956634 7.5696699999999995
51.51144508832545 7.52937
51.536166307509156 7.5274600000000005
51.56108326624387 7.517589999999999
51.58580965706056 7.518730000000001
51.61053862657523 7.47354
51.635270176746864 7.44685
51.66019755512065 7.461689999999999
51.68493429268881 7.4474100000000005
51.70967361681515 7.42369
51.73441552946465 7.43324
51.759353359237934 7.400930000000001
51.7841004750961 7.4199399999999995
51.80885018539685 7.37213
51.833602492111254 7.37127
51.8585508051424 7.316660000000001
51.883308330926425 7.33971
51.90806845906181 7.3392800000000005
51.932831191525715 7.31959
51.95779001977161 7.2465
51.98255798721516 7.26445
52.00732856494335 7.24308
52.03229530577543 7.23252
52.057071130455945 7.1954899999999995
52.081849571391054 7.201810000000001
52.106630630568695 7.19745
52.13160794279417 7.17334
52.15639426492067 7.16803
52.18118321127822 7.14208
52.205974783860896 7.11233
52.23096269971011 7.09807
52.255759551287994 7.087739999999999
52.280559035098186 7.062360000000001
52.30536115314103 7.066110000000001
52.33035970494467 7.02997
52.35516711807904 7.04938
52.37997717147198 7.0519300000000005
52.40478986713005 7.018910000000001
52.42979908731974 6.999289999999999
52.454617094216 6.984210000000001
52.47943774942214 6.97585
52.50426105495102 6.965669999999999
52.529280976059844 6.9173
52.554109609024096 6.94994
52.57894089837482 6.9282699999999995
52.60377484613117 6.9086300000000005
52.62880550079408 6.884710000000001
52.65364479223379 6.83983
52.67848674816189 6.875
52.70352547971946 6.821969999999999
52.72837279155837 6.84575
52.753222773982785 6.775
52.778075429022984 6.7812600000000005
52.80312495150885 6.8066
52.827982978797436 6.7869399999999995
52.85284368481815 6.75057
52.87770707160767 6.73292
52.90276741793998 6.7131
52.92763619336701 6.71433
52.952507655698504 6.718369999999999
52.977381806977576 6.694439999999999
53.00245301017842 6.67932
53.02733256653592 6.668710000000001
53.052214817996074 6.6672199999999995
53.077099766608484 6.6104
53.102181859804446 6.5698300000000005
53.127072229988265 6.61181
53.15196530349892 6.58748
53.17686108239249 6.57782
53.20195409881522 6.562360000000001
53.22685531582556 6.52234
53.25175924441303 6.52628
53.27666588664027 6.51159
53.30176985962693 6.47927
53.3266819565689 6.47309
53.35159677336455 6.45316
53.376514312083096 6.51216
53.40162927507703 6.47703
53.42655228516116 6.40351
53.45147802340193 6.405530000000001
53.47660125628886 6.4238800000000005
53.50153247842639 6.39102
53.52646643496923 6.34595
53.55140312799818 6.39843
53.576537409691696 6.3586599999999995
53.60147960336152 6.33561
53.626424539786164 6.35499
53.65137222105307 6.29842
53.67651758529126 6.277909999999999
53.70147078399681 6.255780000000001
53.72642673383343 6.24598
53.75138543689533 6.26561
53.776541917524526 6.21906
53.801506154876755 6.24806
53.826473151763246 6.22469
53.851442910284916 6.19296
53.87661054126026 6.21499
53.9015858509782 6.14471
53.92656392866066 6.1992400000000005
53.95154477641532 6.1458699999999995
53.976723591801296 6.14329
54.00171000771266 6.1435900000000006
54.02669920004598 6.12635
54.051691170915745 6.09109
54.076881204886796 6.09106
54.101878760928514 6.094130000000001
54.12687910187696 6.04873
54.152077577768296 6.04419
54.1770835166946 6.01909
54.20209224691339 6.01704
54.22710377055121 5.98562
54.25231352511594 5.9816199999999995
54.27733066384342 5.9057
54.30235060239643 5.92318
54.32737334290836 5.92856
54.35259441062629 5.87523
54.377622783395324 5.88855
54.40265396455061 5.87745
54.42768795623251 5.86753
54.45292037169559 5.81726
54.477960012857906 5.81629
54.50300247099511 5.8394900000000005
54.52804774825457 5.7909
54.55329154616743 5.76285
54.57834249018678 5.726
54.6033962597977 5.69843
54.6284528571545 5.71506
54.653708072335164 5.67211
54.67877035378786 5.69402
54.70383546947698 5.6536
54.72890342156389 5.65855
54.7541700889442 5.59005
54.77924374251975 5.56051
54.8043202390049 5.57161
54.82959552413022 5.5347599999999995
54.8546777351945 5.53878
54.87976279569621 5.5031099999999995
54.90485070780914 5.5079
54.930137506558005 5.49463
54.95523115074295 5.47058
54.98032765308844 5.41522
55.005427015775496 5.42478
55.03072536339621 5.45639
55.05583047570572 5.381069999999999
55.080938454927676 5.3455699999999995
55.10604930325027 5.28934
55.131359235107396 5.34921
55.15647585066083 5.2535099999999995
55.181595341907496 5.26547
55.20671771104285 5.25436
55.232039262617704 5.22507
55.25716741665048 5.22636
55.28229845518636 5.20867
55.30743238042802 5.1435900000000006
55.33276558731939 5.14228
55.357905315183636 5.12214
55.383047936390035 5.09138
55.40819345314859 5.08175
55.433538351073295 5.04766
55.458689688238415 5.04972
55.483843927614096 4.9902
55.509197623043605 5.00094
55.53435769621134 4.96483
55.55952067826466 4.937119999999999
55.5846865714265 4.89124
55.61005202069737 4.89711
55.63522376553902 4.93311
55.66039842818645 4.875719999999999
55.68557601087004 4.86946
55.7109532500271 4.81184
55.73613670233794 4.79427
