TT I
1.2716486653135266 7.652769999999999
1.2939594142134223 6.89918
1.3162702121660406 6.4939
1.3385810600174564 6.1868300000000005
1.3608919586137629 6.3552599999999995
1.383202908801069 6.17949
1.405513911425503 6.0929199999999994
1.4278249673332093 5.8653900000000005
1.4501343378461518 5.53984
1.4724455028545926 5.49984
1.4947567236847858 6.02807
1.517068001182951 6.692889999999999
1.5393793361953272 5.60794
1.5616907295681737 5.31365
1.5840021821477681 4.94097
1.60631369478041 5.21739
1.6286252683124185 5.1382699999999994
1.6509369035901333 5.31645
1.6732468618895553 5.12405
1.695558623192809 4.74974
1.7178704487808514 4.9596
1.7401823395001077 5.06496
1.7625012545597203 4.55534
1.7848028405262486 4.64168
1.8071218901122095 4.46969
1.8294236121921872 4.337280000000001
1.8517427996910911 5.02707
1.8740620574440425 5.15932
1.8963639900671978 4.86386
1.9186833908139995 4.620369999999999
1.9409854680117449 5.060969999999999
1.9633050151394713 5.2982
1.9856246367570705 4.49302
2.0079269371922672 4.7668800000000005
2.03024671027244 5.04546
2.0525491637446027 4.28766
2.074869091674931 4.39395
2.097171701569106 4.84555
2.1194917877373847 4.83594
2.141811954326636 4.5938300000000005
2.164114805233074 4.26045
2.186435135143035 5.18471
2.208738150935709 10.3274
2.231058647554722 16.6352
2.2533792288321184 13.1572
2.275682498336085 7.8328
2.298003251406138 5.844180000000001
2.3203066942619714 5.59886
2.3426276225136022 5.44262
2.3649486396617507 6.2748800000000005
2.387252348930071 6.255330000000001
2.4095735463442893 5.81645
2.4318774374315884 6.74856
2.4541988185014043 6.67853
2.476502894794693 7.167089999999999
2.498824462909887 7.47222
2.521146125856138 6.902260000000001
2.5434504863470337 8.09625
2.5657723414244717 8.15045
2.588076895590662 8.7953
2.610398946189713 8.557039999999999
2.6327210958598384 8.090119999999999
2.6550259469304716 8.77599
2.6773482972090137 8.63722
2.6996533504259 9.08911
2.7219759047039602 8.844389999999999
2.744298562293959 8.87304
2.7666039251246595 8.84229
2.7889267918020164 8.9382
2.8112323652516555 8.89552
2.833555444408179 8.52086
2.8558786311183852 8.600539999999999
2.8781845268938557 8.80483
2.9005079311721484 9.30157
2.9228140460410397 9.1489
2.9451376712799635 9.34154
2.967444008632326 9.086269999999999
2.9897678582247247 9.89021
3.0120918213106695 10.709000000000001
3.0343984987899373 11.6804
3.0567226913198637 11.2284
3.079029599759726 11.6114
3.101354025127254 12.1846
3.123678568232338 12.919
3.145985829517914 13.2521
3.16831061055229 14.0082
3.1906181112775593 14.3888
3.212943133635653 14.759
3.2352682779763207 15.1928
3.2575761442691227 15.7757
3.2799015350264273 16.0077
3.302209649240067 16.4023
3.3245352898092655 16.3905
3.3468436553365257 17.1571
3.369169549113219 17.5509
3.3914955708171384 18.284000000000002
3.413804319727358 18.9478
3.4361305997334863 19.1287
3.4584396084414553 19.5143
3.4807661501462652 20.0682
3.503092824025881 20.5264
3.5254022288463154 20.8919
3.5477291695206588 20.9051
3.5700388426251948 22.1064
3.5923660534916446 23.2123
3.6146934007816114 31.4084
3.637003482731501 55.6459
3.6593311053109985 59.2532
3.681641464033634 39.6696
3.7039693653009733 27.0635
3.726297407241705 25.3888
3.7486081875460804 25.2294
3.7709365132734978 26.1679
3.793247578841633 26.3799
3.8155761917550093 26.5772
3.8378875459837216 26.6394
3.8602164494827234 27.1468
3.882545499606844 28.0937
3.9048572932539183 28.6055
3.9271866390645718 28.7402
3.9494987298666713 29.5702
3.971828374764527 29.9788
3.9941581705403255 30.4808
4.016470713506008 30.9867
4.038800813471445 31.8262
4.061113662089144 32.3853
4.0834440696459176 33.3227
4.105774632334751 33.7817
4.128087945865126 33.9484
4.150418821249301 34.4627
4.172732448931298 36.0789
4.195063640413578 37.3208
4.2173775856475215 40.3012
4.239709096631102 58.7265
4.262040768704612 138.64600000000002
4.284355196706267 174.245
4.306687193387355 117.52799999999999
4.329001947444346 59.6637
4.35133427213731 44.701
4.373666762177566 43.4834
4.395982011761091 43.3478
4.418314834921175 44.5301
4.44063041906622 49.1583
4.4629635787515625 54.9475
4.4852969080429785 55.2754
4.5076130004776225 52.4609
4.529946671403969 54.6867
4.552263106909177 57.9167
4.574597122877047 55.8569
4.596931312711224 53.644
4.619248269273446 53.4345
4.6415828092605835 53.9825
4.663900117405352 54.8039
4.686235010953232 56.4597
4.708552674085913 57.5615
4.730887924602802 59.3366
4.753223354952695 61.0867
4.775541557023902 63.86600000000001
4.797877349456786 66.3967
4.820195915032126 67.4514
4.842532072957498 67.6853
4.864868414979744 69.9293
4.88718753227192 73.4142
4.909524244902505 75.5212
4.931843734218147 75.7257
4.954180820867835 77.6153
4.976518095879839 80.0943
4.998838149695359 82.8434
5.021175803844231 86.2658
5.043496238205739 89.1394
5.065834274903528 93.4299
5.088172504230693 98.2607
5.1104935158799565 104.601
5.132832132875765 123.551
5.155153533596801 155.02
5.1774925416746225 189.27900000000002
5.199814334878411 358.852
5.2221537374521505 945.1419999999999
5.244493338631803 2772.48
5.266815727034316 8052.77
5.289155727832427 13600.6
5.311478517248165 8906.86
5.333818921080011 2588.73
5.356159527788849 472.11699999999996
5.3784829252032536 183.48
5.400823940070432 147.062
5.423147747031976 127.559
5.445489173474152 118.023
5.467830807066149 116.12
5.490155234831516 115.238
5.512497285125229 109.28
5.534822130975162 103.89299999999999
5.557164601388673 100.833
5.579489868738879 98.09
5.601832762690846 96.8557
5.6241758697774475 95.8408
5.646501775867269 94.7399
5.668845311622074 93.8499
5.691171647754637 93.0771
5.713515615597765 92.2469
5.735859800852677 91.585
5.758186788542988 92.3753
5.780531411018185 95.2411
5.802858837297399 95.6889
5.825203900414495 95.1292
5.8475491852224 97.7114
5.869877275883075 97.9102
5.892223006467101 94.3446
5.914551544266608 93.4342
5.936897724049891 95.3621
5.959244129804903 102.052
5.981573344815301 125.47200000000001
6.0039202049061 219.813
6.026249875609095 446.535
6.04859719346037 944.0239999999999
6.070927323278297 2285.97
6.093275102315365 4734.72
6.115623113320588 5269.27
6.137953938319995 2971.41
6.160302415650845 794.0980000000001
6.182633708324452 189.735
6.2049826554078376 104.62299999999999
6.227331838745022 87.6067
6.249663839443684 81.9128
6.27201349767565 79.376
6.294345974611799 81.6683
6.316696111167083 85.6924
6.339046488263839 82.0346
6.361379686074702 74.0791
6.383730546639482 70.2099
6.406064229255215 69.1817
6.428415576718203 69.8211
6.450749747566656 68.5047
6.47310158535871 66.4071
6.495453669698332 64.6667
6.517788579421056 63.9393
6.540141159237969 62.5286
6.562476565766648 62.1864
6.5848296444934045 61.8113
6.607182974060425 62.4667
6.6295191323281015 62.2591
6.651872965955752 63.3649
6.6742096296068985 76.9428
6.6965639707294615 98.8798
6.71891856698715 97.1777
6.741255995248479 74.9458
6.763611104154477 62.287
6.785949046381137 58.7873
6.808304671371482 58.6382
6.8306605557940046 59.6855
6.852999275508618 58.7364
6.875355681171544 57.4338
6.897694923437771 56.2968
6.92005185377892 56.0207
6.9423916220322655 55.3273
6.964749080490181 54.9782
6.987106804399774 55.114
7.009447368180821 55.6356
7.031805625367033 55.3396
7.054146723727803 54.9312
7.076505517631004 54.3763
7.098864581288365 54.3256
7.121206488070854 54.29
7.143566093607822 54.5129
7.165908543567245 55.1957
7.188268694426048 55.601000000000006
7.2106291193438095 54.802
7.232972390625943 54.7467
7.255333366030969 62.0119
7.277677189091925 89.2431
7.300038718428332 109.46600000000001
7.322400526130865 95.8699
7.344745183422596 69.6773
7.367107550224791 57.2706
7.389452767901992 54.2697
7.411815697249891 54.1738
7.434161478756298 53.2348
7.456524974096713 53.2834
7.478888753837185 53.005
7.501235387657368 53.5258
7.523599738562711 53.66
7.545946944825532 53.8786
7.568311870344528 54.614
7.5906770845765665 54.5633
7.613025156078678 55.2514
7.635390950099687 56.1132
7.657739602662809 56.1837
7.680105979923558 55.9241
7.702472650212829 56.0347
7.724822180948224 55.7226
7.747189439655568 56.0331
7.769539560075357 55.7411
7.791907410653562 55.853
7.81425812420825 55.6417
7.836626570110925 56.0056
7.858995315087906 56.9015
7.881346924933401 57.2399
7.903716270417482 57.6639
7.926068482028405 58.0554
7.948438431475253 58.3994
7.9708086843180235 58.8166
7.993161805171116 59.8207
8.015532667162402 60.2866
8.037886398416653 61.3032
8.060257873014221 61.7493
8.082629655331942 62.501000000000005
8.104984308787587 63.43899999999999
8.127356708900503 66.133
8.149711981398308 70.16
8.172085002766314 72.0664
8.194458336181368 69.9553
8.216814543847752 68.4589
8.23918850371002 68.5783
8.26154533906492 69.5055
8.283919928836452 70.7786
8.306277395339652 71.8432
8.328652618483376 73.2915
8.351028159736202 75.6813
8.373386579575245 77.4752
8.395762759396959 78.8053
8.418121819038275 83.1675
8.440498640894003 91.6415
8.462875785192262 102.68
8.485235811156207 122.734
8.507613602688501 169.28900000000002
8.529974277114228 247.97299999999998
8.552352719347912 366.31
8.574731488360351 624.939
8.59709314210385 1214.48
8.619472567021075 1978.73
8.64183487789147 2274.59
8.664214962183097 1713.0
8.686577933647762 824.923
8.708958680784317 296.349
8.731339760774953 139.958
8.753703729764451 104.369
8.77608547780821 96.1482
8.798450116065078 93.2746
8.820832535634787 91.0595
8.843215292401656 90.8441
8.865580941199045 90.395
8.887964374703538 90.4618
8.910330701447199 90.6333
8.932714815164482 91.2179
8.955099270424924 89.0788
8.977466620733543 85.8292
8.999851761421976 84.1706
9.022219798361645 83.2122
9.04460562795561 83.2598
9.066991803441677 82.8407
9.089360876979615 82.6736
9.111747746589993 82.5825
9.13411751544971 81.8588
9.156505082664324 80.9814
9.178875550323522 81.1046
9.20126381862328 81.1535
9.223652438908596 81.1513
9.246023961427412 81.2807
9.26841328802173 80.8976
9.290785518039224 81.221
9.313175554425882 83.2033
9.335565947154315 84.5197
9.357939245086508 84.7266
9.380330352834827 84.7055
9.40270436697103 84.6802
9.425096193225055 83.9014
9.447488380180165 83.9534
9.469863475295412 83.5542
9.492256385987508 83.6505
9.514632206018318 84.4413
9.537025843935714 84.5253
9.559402392368193 85.9222
9.581796761000229 87.885
9.604191496441521 89.9986
9.626569144158516 93.2452
9.648964615551032 94.9989
9.671343000390081 94.7603
9.693739211225699 93.3122
9.716135793237463 92.0235
9.738515290448102 92.4156
9.760912617143402 93.6112
9.783292860202891 95.6437
9.805690935076182 97.9947
9.828089385495742 98.6359
9.850470754023561 99.7503
9.872869957865444 104.425
9.89525208097539 113.14
9.917652041736662 120.77600000000001
9.940052382417589 125.555
9.962435644102392 144.958
9.984836746950979 182.69799999999998
10.007220771957746 239.33
10.029622640473708 332.94199999999995
10.052007432299963 515.515
10.074410069984072 828.294
10.096813093716005 1317.16
10.119199042482517 1865.94
10.141602840636468 2007.29
10.163989564971628 1450.43
10.186394141051062 760.3969999999999
10.208799107559706 317.115
10.231187001965623 159.091
10.253592751657669 118.16
10.275981430388155 109.234
10.298387966769793 108.09299999999999
10.320794897965431 108.962
10.343184759907361 107.67200000000001
10.36559248305461 104.595
10.387983138083852 103.094
10.410391656691655 108.508
10.432800574501677 118.809
10.455192425893369 133.215
10.47760214443012 158.03799999999998
10.499994797678786 203.51
10.522405320453982 291.32
10.54479877906917 420.848
10.567210109595656 553.252
10.5896218454736 586.349
10.612016518879773 487.163
10.634429067781074 312.574
10.656824555333241 174.41
10.679237920773568 112.124
10.701651695961992 91.9974
10.724048411481384 87.2854
10.746463008485165 84.8415
10.768860546937125 83.6785
10.791275969274796 81.9089
10.81369180576079 80.7681
10.836090585366925 79.9373
10.858507252467449 78.7289
10.88090686379991 77.8032
10.903324365036394 77.3085
10.925724811614439 76.8998
10.948143150509463 77.4878
10.970561909719066 77.0643
10.992963615930844 76.2236
11.015383218085756 74.3193
11.037785768347074 72.6058
11.06020621697282 72.0187
11.082627090322113 71.0658
11.105030913430326 70.1808
11.12745263854165 70.6043
11.149857314510728 72.1235
11.172279894912576 74.7525
11.194702904450653 74.5523
11.217108866490921 72.6074
11.239532736615194 70.0961
11.26193956033512 68.7873
11.284364294577085 67.8801
11.306789462371718 66.4968
11.329197585398376 65.8063
11.351623622610898 65.891
11.37403261614354 65.1315
11.396459526308487 65.2402
11.418869393879497 64.6886
11.441297180532617 64.1869
11.463725406927658 63.8993
11.486136592353875 63.9297
11.508565700543707 63.7919
11.530977768845315 64.6997
11.553407762368774 65.273
11.575838200059769 64.7273
11.598251599479612 63.4435
11.620682927815501 62.7714
11.64309721895548 62.7272
11.665529441478206 62.1611
11.687962112597958 62.0024
11.710377748130886 62.1226
11.732811318753434 61.7005
11.755227854859067 61.787
11.777662328529495 61.7695
11.800079768750786 61.5137
11.822515149015453 61.7817
11.844950984084935 62.3063
11.867369787303163 61.7163
11.889806534289491 61.3237
11.912226250487029 61.8769
11.934663912939751 62.152
11.9571020346363 62.0893
11.979523127133968 62.3026
12.001962169624331 63.163000000000004
12.024384183972964 64.4933
12.046824150809913 67.4494
12.069264581333726 71.4178
12.091687985297767 77.3177
12.11412934550045 85.721
12.136553680195208 101.62100000000001
12.158995973632788 126.869
12.181438735204349 158.105
12.20386447284199 189.31900000000002
12.226308172985636 209.199
12.24873485024193 196.12099999999998
12.271179492516982 152.056
12.293607112949127 111.839
12.316052700916226 85.199
12.338498763250042 71.4229
12.360927805303868 66.0455
12.383374818673879 64.03399999999999
12.405804812803074 63.3205
12.428252780773262 63.3464
12.45070122756722 63.222
12.473132656675375 63.0998
12.49558206341869 63.7642
12.518014453510101 63.6996
12.540464823770117 63.9167
12.562915677315177 63.8467
12.58534951575545 64.4308
12.607801338171472 65.3747
12.630236146511358 68.2448
12.652688941369085 70.6695
12.675124723177234 70.7425
12.697578494048786 69.0398
12.720032754458185 67.1031
12.742470003354093 66.623
12.764925245138771 66.8685
12.787363476431278 67.3601
12.809819703166806 67.4648
12.83227642391173 68.1807
12.854716135692716 68.8624
12.877173846755147 69.9083
12.899614549869717 70.3201
12.9220732548287 71.2722
12.94453245827299 71.6564
12.966974655289818 72.5767
12.989434858002571 73.3061
13.011878055298721 74.1059
13.034339260862497 74.8946
13.056800969391883 76.2708
13.079245674017244 78.953
13.101708390774869 82.22200000000001
13.12415410463411 90.2185
13.146617833206086 100.102
13.169064559883248 109.264
13.191529303857127 122.995
13.213994557076367 145.596
13.236442809902437 184.48
13.258909083908291 245.84900000000002
13.28135835851934 314.538
13.30382565690295 390.38199999999995
13.326293469022952 437.936
13.348744283242008 420.106
13.371213125129904 329.135
13.39366497011003 227.47099999999998
13.416134845360597 151.248
13.438605238843131 113.64399999999999
13.46105863690397 102.715
13.483530069144786 104.075
13.505984506951902 108.404
13.528456981549432 117.631
13.550929978879088 132.286
13.573385983253365 157.12
13.595860028340867 200.02700000000002
13.618317081455832 258.922
13.64079217790333 328.153
13.663250283359057 379.01
13.685726434770173 381.626
13.708203115221277 322.592
13.730662806148091 237.71900000000002
13.75314054697177 164.965
13.775601299246777 114.715
13.798080104050406 91.1314
13.820559442405358 82.9075
13.843021793671388 80.1742
13.865502201420897 78.7095
13.887965623051947 78.362
13.910447103807167 77.3061
13.932929122629764 76.0731
13.955394156785959 75.2758
13.977877254034569 74.5922
14.000343367582113 73.756
14.022827546871707 73.2036
14.045294743423524 72.5063
14.06778000837062 71.8301
14.090265817715476 71.7761
14.112734645763819 71.1845
14.13522154619454 70.8253
14.157691466286913 70.9786
14.180179461423874 70.7577
14.202668005486178 70.0794
14.22513957064374 69.6754
14.247629214846473 69.4902
14.270101881097517 69.0133
14.29259262906496 68.8685
14.315083930490205 69.339
14.337558255389705 69.5931
14.360050666019726 69.4284
14.382526101071944 68.8615
14.405019624534942 68.1898
14.427513705993134 67.9177
14.449990813291825 67.7148
14.47248601302899 67.7483
14.49496423954951 67.6636
14.517460561197822 67.8338
14.539939910570322 67.6926
14.562437357763558 68.0378
14.58493536931253 68.737
14.607416409993311 69.1693
14.62991555254159 69.6173
14.652397725157423 69.5751
14.674898002342799 69.5457
14.697398848433282 69.6861
14.719882725991326 70.8937
14.74238471217934 72.3779
14.764869730765593 75.6704
14.787372860692983 78.3613
14.809876564079925 82.2556
14.83236330125751 87.359
14.854868153850365 95.7956
14.877356041159485 110.185
14.899862046604186 130.04
14.922351087688757 157.906
14.944858249632887 188.77900000000002
14.967365991421232 216.019
14.989856770231246 226.91
15.012365673994204 212.18
15.03485761569738 176.688
15.05736768508665 135.912
15.07987833888692 102.679
15.102372032001655 83.5422
15.124883856909658 73.7932
15.14737872204565 70.6221
15.169891721717274 69.2482
15.192405310371893 69.1254
15.214901940621196 69.1608
15.237416709527137 68.5624
15.259914520936249 68.5456
15.282430473753607 67.7629
15.304947020131227 66.9756
15.327446610371178 66.4423
15.349964346154254 66.0349
15.372465126703139 65.6699
15.394984055556009 65.5931
15.417486030076159 65.218
15.44000615566487 65.0714
15.462526881230803 64.916
15.485030653812652 65.03399999999999
15.507552581617434 64.9815
15.530057557334603 64.5582
15.55258069104857 64.6882
15.575104429329837 65.1763
15.597611216864632 65.0163
15.620136166564563 65.477
15.6426441664095 66.667
15.665170331202765 68.9921
15.687697105158826 71.5695
15.710206930593545 74.3685
15.732734925158933 78.6099
15.755245972089478 84.7214
15.77777519094324 93.8995
15.800287463046663 108.25200000000001
15.822817909869592 129.32299999999998
15.84534897229804 153.085
15.867863089299354 178.428
15.890395385222186 193.387
15.912910736597423 194.199
15.935444269699861 175.085
15.957978423016485 143.643
15.980495633101265 110.611
16.003031029129367 86.2398
16.02554948280019 70.9609
16.048086125229432 64.6257
16.070623392487107 62.9913
16.09314371869582 62.2303
16.11568223789321 61.2367
16.13820381691126 60.7104
16.160743591742527 59.8832
16.183283996022084 59.3475
16.205807461423195 58.5532
16.228349126881973 58.0276
16.25087385432698 57.6731
16.27341678466365 57.1806
16.29594277784926 57.0119
16.31848697676433 57.1737
16.341031811604868 57.1141
16.36355971058487 57.1557
16.3861058195587 56.6755
16.40863499352978 55.993
16.431182380342005 55.5354
16.453730407713202 55.0025
16.476261501364792 54.7851
16.498810812136167 54.4622
16.52134319004079 54.6789
16.54389378792203 54.4743
16.566445031001553 54.2265
16.588979342490088 54.3961
16.61153187824822 54.0681
16.634067483263312 53.9623
16.656621315414416 53.9384
16.679175797408888 53.7513
16.701713349928728 53.6297
16.72426913389191 53.8265
16.74680798922351 53.8944
16.76936507887444 53.781000000000006
16.791905240734874 53.7877
16.814463639794468 53.7579
16.837022695210294 53.8763
16.859564824093756 53.9752
16.882125194503903 54.5308
16.904668639217885 54.8125
16.927230328348003 54.6772
16.949792678493612 54.888000000000005
16.972338104193863 54.5949
16.994901778652235 54.4334
17.017448529496576 54.6456
17.040013531998152 55.0825
17.06257920018044 55.7134
17.0851279459922 56.3846
17.107694947817667 56.8596
17.130245028099072 57.7578
17.15281336730298 58.801
17.17536478578733 60.538000000000004
17.19793446610687 62.9876
17.220504818648422 66.2123
17.243058251703697 69.9174
17.265629950971032 74.7441
17.288184731571736 79.4187
17.310757781306908 83.4835
17.33333150794385 83.0955
17.355888317140174 79.7215
17.37846339986244 73.7685
17.401021565958885 67.3594
17.42359800851343 62.6432
17.44617513265564 60.2246
17.468735341390783 58.9
17.491261035594565 58.4534
17.51396340099364 58.0839
17.536490463869136 58.2019
17.559018209820174 58.1962
17.58154663977963 58.1609
17.604251766089718 58.5153
17.626781572227713 58.6239
17.64931206518155 58.8626
17.671843245885103 59.2087
17.69455114821572 59.5174
17.717083712612634 59.8441
17.739616967569667 60.0104
17.762150914021706 60.3573
17.78486160749854 60.5046
17.807396945166804 61.376000000000005
17.829932977143503 62.5138
17.85246970436452 63.9736
17.875183204129467 65.6113
17.897721330097664 67.2406
17.920260154126645 69.3072
17.942799677153296 72.3596
17.9655159983646 76.2404
17.988056927677544 81.6441
18.010598558807683 90.0439
18.033140892692916 100.60600000000001
18.05586005052525 113.116
18.07840379824407 125.926
18.10094825154059 135.024
18.12366954819864 139.664
18.146215420998306 136.364
18.16876200220057 124.31700000000001
18.191309292745153 109.795
18.214033452627167 95.4466
18.236582170236648 86.3517
18.259131600016456 83.6288
18.281681742907335 85.605
18.304408781233683 90.8435
18.32696035875955 96.8699
18.349512652227624 102.303
18.372065662579683 105.6
18.394795594587553 104.931
18.41735004715306 98.5593
18.43990521943684 90.0963
18.46246111238171 80.9981
18.485193953325208 72.6678
18.507751296070428 66.9863
18.530309362314178 63.7301
18.552868153000343 62.0319
18.57560391815056 60.9504
18.59816416623245 60.5344
18.620725141597372 60.2631
18.643286845190268 59.6761
18.666025549835414 59.3336
18.688588718427933 58.7642
18.711152618092243 58.576
18.73389353884365 58.4045
18.75645890921984 57.994
18.77902501351406 57.7369
18.801591852673102 57.7087
18.824335739722738 57.1794
18.846904057212626 57.1071
18.8694731124168 56.826
18.89204290628315 56.7868
18.914789774966803 56.6412
18.937361054791623 56.3988
18.959933076131318 56.1507
18.982505839934877 56.0058
19.00525570560582 56.2124
19.027829963004184 55.7569
19.05040496572238 56.1194
19.072980714710468 56.04600000000001
19.095733592739563 56.0864
19.11831084296757 56.2327
19.140888842324735 56.6482
19.16346759176222 56.8658
19.18622349753803 57.4629
19.208803755869358 58.3155
19.231384767143577 59.2824
19.253966532312948 60.9759
19.276725481241822 63.391000000000005
19.29930876296784 66.2143
19.3218928014549 69.3139
19.34465404436217 72.5076
19.36723960516257 74.7875
19.389825925592426 74.9965
19.412413006605938 73.17699999999999
19.43517731967805 68.993
19.457765930683355 64.7388
19.48035530514408 60.3726
19.50294544401556 57.2895
19.525712842708348 54.8646
19.54830451925909 53.9637
19.570896963095727 53.1016
19.593490175174704 52.8728
19.616260674962184 53.0106
19.638855432416964 52.7706
19.661450960992624 53.0165
19.68404726164677 52.6491
19.706820878021247 52.2874
19.729418731756834 52.5516
19.752017360452857 52.3796
19.77461676506804 52.6549
19.797393513540218 52.7917
19.819994478951667 53.0276
19.84259622316767 53.585
19.8651987471481 53.7619
19.887978643247177 54.1703
19.91058273574792 54.5784
19.933187610901943 55.2202
19.955969879466828 56.4845
19.97857632894404 58.2688
20.00118356396599 59.9414
20.023791585494575 62.1863
20.046577028914875 65.0697
20.069186632506966 67.5162
20.091797025500632 68.9238
20.114408208858933 69.1201
20.137196842715273 67.785
20.159809615886765 65.931
20.18242318232135 63.1289
20.20503754298326 61.3918
20.227829382875154 60.7998
20.250445341109344 61.302
20.27306209647285 62.4027
20.29567964993108 64.2251
20.31847471147704 64.78
20.34109387027612 64.9509
20.363713830075454 64.1795
20.386334591841646 61.7056
20.409132890679302 59.1981
20.431755265564437 55.9429
20.454378445325528 53.5924
20.477002430930366 51.9909
20.499803982716553 50.9789
20.522429589228004 50.2297
20.54505600449589 49.8943
20.567683229489194 49.8646
20.590488049900088 49.6665
20.61311690359731 49.2214
20.63574656993626 49.2482
20.658553853717297 48.8332
20.681185154618298 48.8304
20.703817271080066 48.6325
20.72645020407368 48.278999999999996
20.749260783967177 48.2102
20.771895359337133 48.0828
20.794530754161617 48.1103
20.817166969412938 48.0635
20.83998086114876 47.8929
20.86261872660049 48.0026
20.885257415405402 48.105
20.90789692853701 47.9558
20.930714147864748 47.7033
20.953355319030678 47.8045
20.97599731745334 48.1079
20.99864014410749 47.7524
21.021460706796564 47.6985
21.044105199328826 47.9467
21.06675052302631 48.1509
21.089396678865015 48.3766
21.112220600704806 48.5223
21.134868430275347 49.06399999999999
21.15751709492456 49.4238
21.180166595629693 49.7709
21.202993892429635 50.3027
21.22564507473034 50.7009
21.24829709602816 50.6603
21.27112693608965 50.6443
21.293780644891275 50.7112
21.316435195634053 49.8204
21.339090589297417 49.1771
21.361923832041875 48.6417
21.384580921090404 47.9765
21.407238856007325 47.5887
21.429897637773326 47.4942
21.45273429906592 47.6965
21.475394784108598 47.5189
21.498056118951983 47.523
21.520718304578022 47.7423
21.543558400304388 47.9598
21.566222297108816 48.1222
21.58888704765135 48.2751
21.61155265291521 48.422
21.63439619898156 48.9027
21.657063523335786 49.0025
21.67973170537063 49.5372
21.7024007460706 50.1307
21.72524775840385 50.9787
21.747918526116475 51.8834
21.770590155457388 53.1992
21.79326264741238 55.0745
21.816113141960237 57.0084
21.838787368860547 58.8513
21.861462461341976 60.9986
21.884315579735777 63.0158
21.90699241312273 64.1159
21.92967011506078 64.0986
21.95234868653799 62.9469
21.9752053151131 61.2636
21.997885635446785 59.0909
22.020566828293532 57.4889
22.04324889464272 56.0969
22.066109049404666 55.3098
22.088792872571794 55.2956
22.111477572219204 55.3885
22.1341631493376 55.4688
22.157026846313123 54.9452
22.179714188221507 54.0333
22.202402410582668 52.6472
22.22509151438863 51.0714
22.24795876962584 49.9768
22.270649646204486 49.2913
22.293341407213727 48.7547
22.316034053646906 48.3514
22.338904883215342 48.2364
22.36159931041458 48.3208
22.38429462602756 48.03
22.40699083104897 47.793
22.429865251039757 47.8867
22.452563244831367 47.8416
22.47526213102522 48.0017
22.49813925616515 47.8759
22.520839937143307 47.7963
22.543541513520587 47.7577
22.56624398629403 47.6772
22.589124730075895 47.6432
22.611829005656723 47.9178
22.63453418063466 47.9884
22.657240256008077 48.15
22.680124634582935 48.1846
22.70283252079775 48.3358
22.725541310413075 48.7343
22.74825100442868 48.9251
22.771139033969575 49.2465
22.79385054687155 49.6444
22.81656296718292 50.3752
22.83927629590484 51.3236
22.862167992606945 52.2966
22.88488314827121 53.7442
22.907599215359284 54.8417
22.93031619487366 55.895
22.953211574954405 56.7678
22.975930389478226 57.4741
22.998650119445763 57.2799
23.02137076586092 56.0466
23.044269845560063 54.3198
23.06699233506288 52.833999999999996
23.089715744034912 50.9158
23.112617610931565 49.6758
23.135342869061212 48.8357
23.158069049684816 48.1012
23.1807961538087 47.9342
23.20370174880544 47.9433
23.226430710184808 48.0677
23.249160598093425 47.9406
23.271891413539002 48.0863
23.294800752937697 48.0263
23.31753343374794 48.1405
23.340267045128353 48.2039
23.36300158808808 48.6031
23.38591468821339 48.9577
23.408651104658304 49.3515
23.431388455719986 50.0348
23.454126742409 50.9252
23.4770436196085 52.0206
23.499783787914662 53.5342
23.522524894889884 54.7089
23.54526694154616 55.8491
23.56818761219047 56.7575
23.59093154860734 57.1252
23.613676427751283 57.0979
23.636422250635754 55.8958
23.659346731118656 53.8607
23.68209445191868 51.8822
23.704843119509587 49.7404
23.72759273490623 48.1627
23.750521041644767 46.8857
23.77327256312355 46.15
23.796025035462787 45.606
23.818956224555475 45.2714
23.841710609113413 45.1398
23.86446594758979 44.9893
23.887222241002014 44.8649
23.910157285144578 44.3763
23.932915498962537 44.323
23.955674670778713 44.1835
23.978434801611975 44.0079
24.001373717286125 44.0271
24.024135776723917 43.8292
24.046898798245582 43.6273
24.06966278287146 43.6877
24.092605586582614 43.519
24.115371508023642 43.2765
24.1381383956401 43.3616
24.16090625045381 43.2526
24.183852958731244 43.2521
24.206622758582608 43.0794
24.229393528706886 42.8892
24.252165270127392 42.8624
24.27511589952438 42.8207
24.297889594216997 42.7446
24.32066426328598 42.6608
24.34343990775613 42.503
24.36639447485003 42.3618
24.38917208083877 42.42
24.41195066531332 42.3669
24.43490819850244 42.3399
24.457688750692377 42.1856
24.48047028445616 42.3221
24.503252800821233 42.4446
24.526214300784112 42.4748
24.548998793132213 42.4528
24.57178427117417 42.181000000000004
24.59457073593893 42.1946
24.617536219319863 42.2017
24.64032466834748 42.3621
24.663114107195035 42.1293
24.685904536893013 41.7365
24.708874020360852 41.8379
24.731666442613744 41.8039
24.754459858818787 41.8012
24.777254270007962 41.5902
24.80022777025625 41.547
24.82302418230472 41.3645
24.845821592443674 41.5211
24.86862000170663 41.4906
24.891597535453727 41.38399999999999
24.914397953892728 41.6316
24.93719937456671 41.5472
24.96000179851076 41.7579
24.98298338249997 41.882
25.00578782394922 42.119
25.028593271784167 42.108000000000004
25.05157790644186 42.4994
25.07438537804115 42.6856
25.097193859145293 42.8811
25.120003350792075 43.2219
25.142992065061257 43.4088
25.165803588823465 43.7275
25.18861612625217 43.857
25.211429678386736 43.9861
25.234422489079968 43.9868
25.257238081693636 44.0532
25.280054692141732 44.1652
25.3028723214652 44.2202
25.325869245420463 44.3916
25.348688923599397 44.3045
25.371509623787006 44.1098
25.394331347025812 43.7391
25.41733240110666 43.108000000000004
25.440156181590016 42.3488
25.46298098826268 41.9729
25.48580682216873 41.3919
25.50881202326435 40.9749
25.53163992281684 40.6883
25.55446885274561 40.5079
25.577298814096377 40.079
25.600308179121807 39.9935
25.623140214533745 40.1779
25.64597328451537 39.9588
25.66898578564376 39.8069
25.691820936010206 39.8975
25.714657124097695 39.7993
25.737494350954734 39.9451
25.760511045684957 39.8368
25.783350361364224 39.8003
25.806190718969255 39.7872
25.82903211955018 39.7998
25.852053024868923 39.8037
25.874896522722523 39.8675
25.897741066713106 39.8883
25.920586657892454 40.0855
25.943611790812668 40.0872
25.966459487728237 40.3292
25.989308234998564 40.3542
26.01215803367705 40.7543
26.03518741123814 40.9064
26.05803932412957 40.9911
26.080892291600094 41.0408
26.10374631470478 40.9927
26.12677995397268 40.9396
26.14963609978026 40.8863
26.172493304397875 40.5957
26.19535156888223 40.2781
26.218389486949604 39.8996
26.241249882640123 39.6592
26.26411134137826 39.4689
26.28715248187403 39.5688
26.31001607820869 39.3274
26.3328807407756 39.1919
26.35574647063438 39.4836
26.37879191991473 39.4537
26.401659795896734 39.4562
26.424528742360263 39.6357
26.447398760366614 39.8875
26.470448535598294 39.8618
26.49332070826805 40.0473
26.516193955675355 40.4544
26.53906827888316 40.6829
26.562122397260108 40.8747
26.584998883685063 41.2827
26.607876449110325 41.4575
26.63075509460056 41.4728
26.65381357334404 41.6402
26.67669439061878 41.5704
26.699576291163382 41.3176
26.722459276044212 41.1518
26.745522132402975 40.796
26.768407297649354 40.5688
26.791293550442003 40.3202
26.814180891848974 40.068000000000005
26.837248143099337 39.8443
26.860137673466657 39.6874
26.88302829566349 39.483000000000004
26.90592001075963 39.2167
26.92899167420566 39.105
26.951885586870763 38.8939
26.974780595655517 38.6684
26.99785558178161 38.5633
27.020752794605112 38.4269
27.043651106772522 38.1945
27.06655051935668 38.2492
27.089629948036183 38.0487
27.112531573292053 38.071
27.135434302194138 38.039
27.158338135817015 37.8784
27.181422024430987 37.9874
27.204328079372566 37.8694
27.22723524226965 37.9946
27.250143514198573 37.964
27.273231880156334 37.9226
27.296142382065014 37.6132
27.319053996245536 37.7138
27.341966723775965 37.7622
27.365059584515222 37.8559
27.38797455070062 37.8776
27.410890633481237 37.8075
27.433807833936918 37.7977
27.456905206923906 37.9585
27.47982465472398 37.9077
27.502745223449743 37.9968
27.525666914182825 38.1081
27.548768816912457 37.9092
27.571692763693633 37.9094
27.59461783573812 37.8156
27.617723149491244 37.5452
27.640650484125285 37.3685
27.66357894728264 37.5106
27.686508540048052 37.5004
27.709618414237887 37.3467
27.732550278321757 37.2418
27.755483275279115 37.2146
27.778417406196485 37.3694
27.801531858397514 37.2591
27.824468269376716 37.2075
27.847405817586786 37.1394
27.870344504116094 37.3892
27.893463551932008 37.3771
27.916404527281053 37.6808
27.93934664422563 37.7686
27.962289903855886 37.9456
27.98541356491974 38.1752
28.00835912214229 38.3159
28.03130582533231 38.4144
28.054253675581805 38.5201
28.077381967556104 38.4823
28.100332124185126 38.2856
28.123283431160893 38.3245
28.146235889577238 38.1059
28.169368830154156 38.029
28.192323603752033 37.6876
28.215279532083304 37.4209
28.238415973016764 37.2636
28.261374223145094 37.2052
28.284333631303806 36.9046
28.307294198589954 36.8627
28.330435319167677 36.4265
28.353398217078915 36.1278
28.376362277420153 35.8876
28.39932750129032 35.9008
28.422473319286713 35.6909
28.44544088262495 35.6488
28.468409612800283 35.7009
28.491379510913497 35.4407
28.51453004413313 35.2836
28.53750229057244 35.235
28.56047570826344 35.2168
28.583450298308804 35.3011
28.606605564586562 35.0446
28.629582511831156 35.1513
28.65256063474956 34.9933
28.675539934446338 35.0809
28.698699951647605 35.1231
28.72168161743193 34.9544
28.74466446331978 34.9086
28.767648490417624 34.8154
28.790813276438353 34.749
28.813799678527303 34.8614
28.836787265157085 34.7804
28.859955641890075 34.8451
28.882945610203045 34.7776
28.905936766392035 34.7492
28.928929111566863 34.809
28.952102288520145 34.7294
28.975097024308607 34.4815
28.998092952423807 34.3814
29.021090073977508 34.3505
29.04426806913204 34.2147
29.067267590245258 33.9922
29.090268308143695 33.994
29.11327022394099 33.9824
29.13645305530891 33.8634
29.159457379627167 33.9359
29.18246290519685 33.7824
29.20546963313352 33.7473
29.22865731875826 33.8824
29.25166646419296 33.7752
29.27467681535305 33.6549
29.29768837335608 33.6509
29.320880931312562 33.749
29.34389491580634 33.795
29.366910110507334 33.6796
29.38992651653503 33.6963
29.41312396492981 33.6317
29.436142806456754 33.6005
29.45916286268059 33.4695
29.48236399319994 33.3879
29.50538649169417 33.2673
29.528410208259935 33.0878
29.55143514402014 32.948
29.574641196749695 32.7905
29.597668583816574 32.6609
29.6206971934585 32.6188
29.64372702680042 32.7317
29.666938019934474 32.5168
29.689970313635285 32.4532
29.713003834422636 32.4098
29.73603858342347 32.4347
29.759254535188578 32.336
29.78229175361658 32.2753
29.80533020365064 32.3258
29.82836988641968 32.3501
29.85159081507472 32.2287
29.874632976355343 32.094
29.89767637376955 32.2068
29.920721008448314 32.1895
29.9439469322847 32.1309
29.96699405457564 32.0614
29.9900424175358 32.0514
30.013092022298157 31.9061
30.03632295963995 31.8588
30.059375061131373 31.9656
30.08242840783577 31.9356
30.105483000888153 31.9711
30.128718970092244 31.901999999999997
30.151776069006917 31.8565
30.17483441768648 31.9199
30.198074175317235 31.8508
30.221135036724256 31.8934
30.24419715131772 31.7772
30.267260520236203 31.6712
30.290505341942243 31.8224
30.313571232750228 31.9749
30.336638381310948 31.7638
30.35970678876503 31.6263
30.38295669299435 31.6481
30.40602763151657 31.7013
30.429099832366074 31.5661
30.452173296685572 31.5002
30.47542830191959 31.5843
30.498504306502497 31.5515
30.521581577995562 31.4957
30.544660117543582 31.5836
30.56792024229725 31.6458
30.59100133132069 31.6393
30.614083691845494 31.679000000000002
30.637167325018545 31.6921
30.660432587840603 31.7082
30.683518779717886 31.7044
30.70660624769615 31.7085
30.729694992924372 31.6481
30.75296541239743 31.6386
30.77605672557558 31.6069
30.799149319462742 31.5847
30.8224236211637 31.4697
30.845518789950724 31.2863
30.868615242910597 31.206999999999997
30.891712981195973 31.1212
30.91499247215866 31.0721
30.938092794619365 31.1208
30.96119440587579 30.9676
30.984297307082752 30.7646
31.00758200598383 30.6656
31.030687500658694 30.6915
31.053794288760695 30.7154
31.076902371446767 30.5087
31.100192296997445 30.6085
31.12330298246119 30.6179
31.14641496599209 30.4537
31.169528248749216 30.4134
31.19282341969534 30.3252
31.215939314557186 30.4148
31.239056512134788 30.5933
31.262175013589378 30.4474
31.28547544871168 30.3406
31.30859657161541 30.3389
31.331719001892175 30.406
31.35484274070538 30.3844
31.378148458819545 30.3753
31.401274828443725 30.3935
31.424402510106933 30.5031
31.447712205419993 30.5272
31.470842524931633 30.3229
31.493974159989783 30.2902
31.51710711176168 30.2946
31.54042212308802 30.2357
31.563557722100917 30.1813
31.586694641341655 30.0663
31.609832881979628 29.8719
31.63315322823208 29.8696
31.656294125521327 29.8248
31.679436347728515 29.7438
31.70257989602529 29.7802
31.725905596152327 29.6145
31.74905181052835 29.5983
31.772199354521323 29.601
31.79534822930507 29.7296
31.818679302290967 29.753
31.84183085259981 29.6935
31.864983737233473 29.6998
31.88813795736804 29.7033
31.911474422233013 29.6106
31.934631327356435 29.6017
31.9577895715215 29.5669
31.980949155906522 29.5492
32.004291031706956 29.5352
32.027453310562606 29.4962
32.05061693318573 29.2616
32.07396288236386 29.2433
32.09712920658542 29.1775
32.12029687812702 29.0802
32.14346589817093 28.901999999999997
32.166817291729984 29.0152
32.18998902288583 28.8612
32.21316210610336 28.8321
32.23633654256711 28.6949
32.259693399663725 28.721999999999998
32.282870556771144 28.6352
32.30604907069099 28.7147
32.329228942610065 28.6643
32.35259128243769 28.4862
32.375773884550505 28.454
32.398957848235646 28.4263
32.422143174682176 28.4043
32.445511016471215 28.3112
32.468699082679954 28.2553
32.49188851523011 28.2175
32.51507931531304 28.1416
32.538452678331 28.1567
32.56164622776311 28.1156
32.58484114831493 27.9877
32.60803744118015 27.9373
32.631416344731896 28.0046
32.654615396551876 27.9439
32.67781582427913 27.9356
32.701198898634416 27.8502
32.72440209253756 27.8826
32.747606665947124 27.8583
32.77081262006088 27.7341
32.79420126883317 27.7084
32.81740999876112 27.6335
32.840620112999424 27.5152
32.86383161274818 27.5335
32.88722585534586 27.4714
32.91044014056596 27.614
32.933655814909734 27.5309
32.95687287957963 27.5755
32.98027273544904 27.426
33.00349259526636 27.4858
33.026713849030116 27.4862
33.04993649794511 27.4629
33.073341986570746 27.3804
33.09656744032826 27.4384
33.11979429286444 27.3859
33.14302254538647 27.3915
33.166433686291185 27.2991
33.18966475336992 27.2242
33.212897224069096 27.1515
33.23613109959831 27.1907
33.259547912343415 27.0244
33.2827846121627 27.1164
33.306022720453775 27.0438
33.32926223842861 26.9451
33.352684742614166 27.01
33.37592709463173 26.9286
33.399170859982064 26.8291
33.422597648419426 26.8393
33.44584425514446 26.659000000000002
33.46909227885668 26.6166
33.4923417207723 26.5898
33.51577423505344 26.5814
33.539026528130385 26.4325
33.56228024307245 26.4961
33.585535381098246 26.34
33.60897364093058 26.3557
33.63223163992385 26.2921
33.6554910656699 26.1806
33.678751919389796 26.2202
33.702195944520106 26.1126
33.72545966903325 26.2123
33.74872482519663 26.0425
33.771991414233746 26.153000000000002
33.79544122444841 26.1374
33.81871069412428 25.9036
33.84198160035767 25.9525
33.86525394437455 25.9459
33.88870955949969 25.8582
33.911984794020626 25.8476
33.93526147001624 25.8131
33.958539588715006 25.7543
33.98200102861669 25.7372
34.0052820477047 25.6397
34.02856451319451 25.6484
34.05203033759056 25.5716
34.07531571090147 25.497
34.09860253431845 25.5564
34.121890809074316 25.4659
34.145362493118924 25.5145
34.16865368561615 25.4446
34.191946333164054 25.3275
34.21524043699793 25.3605
34.23871800066799 25.2554
34.26201503218366 25.2116
34.28531352370466 25.1439
34.30861347646881 25.1392
34.33209693978188 25.0184
34.3553998301885 25.0695
34.378704185565205 25.025
34.402010007152356 24.9691
34.42549939016683 24.9472
34.44880815937748 24.8394
34.472118398533134 24.7992
34.49543010887669 24.8571
34.51892543169198 24.764
34.54224009966052 24.6744
34.56555624255917 24.7569
34.58887386163339 24.6065
34.61237514439016 24.5393
34.6356957311114 24.4928
34.65901779775809 24.4233
34.68252356662995 24.5798
34.705848608458616 24.4603
34.72917513396849 24.4204
34.75250314440949 24.38
34.77601490857862 24.3542
34.799345904259795 24.2445
34.82267838863559 24.2472
34.846012362958525 24.2422
34.869530142679984 24.1746
34.89286711232212 24.1548
34.91620557568269 24.2043
34.93954553401677 24.1582
34.9630693495876 24.1147
34.986412313340814 24.0707
35.00975677584668 24.0443
35.033102738362956 23.9611
35.05663261012228 23.8999
35.0799815881786 23.8836
35.10333207003229 23.8145
35.12668405694369 23.8499
35.150220005273056 23.905
35.17357501786656 23.8454
35.19693153931268 23.8329
35.220289570874385 23.7487
35.24383161619786 23.7933
35.267192683604904 23.8121
35.290555264930376 23.7437
35.314101899412165 23.6321
35.33746752422433 23.6987
35.36083466676374 23.6504
35.38420332829803 23.6082
35.407756095629054 23.5894
35.43112781085063 23.6226
35.45450104888391 23.594
35.477875810999194 23.5542
35.50143473172161 23.5195
35.52481255774625 23.5543
35.54819191167777 23.4271
35.57157279478914 23.3168
35.595137889488406 23.3552
35.61852184675279 23.3521
35.641907337029984 23.1776
35.665294361595684 23.243000000000002
35.68886565090076 23.1461
35.7122557598848 23.1592
35.73564740699838 23.1224
35.759040593519934 22.9758
35.78261809810353 23.0018
35.80601437933051 23.0433
35.829412203814705 22.9188
35.85281157283719 22.8009
35.876395313415884 22.8717
35.8997977874528 22.8876
35.92320180988546 22.8885
35.946790244133936 22.7914
35.97019737933222 22.7989
35.993606066789866 22.6933
36.01701630779276 22.6916
36.04061101440684 22.6192
36.06402437852291 22.6157
36.08743930005611 22.5885
36.1108557802951 22.4988
36.13445678011326 22.5052
36.15787639383515 22.4872
36.18129757014299 22.3592
36.20472031032821 22.4417
36.22832762423364 22.3368
36.25175350829375 22.3288
36.275180960119776 22.2472
36.298609981005924 22.3165
36.32222362992669 22.3258
36.34565580510207 22.2698
36.36908955323448 22.147
36.39252487562093 22.0788
36.416144880530226 22.0107
36.43958336764275 22.1145
36.463023432914625 22.1418
36.486465077645676 22.0196
36.51009145956204 22.0876
36.53353627947859 21.9801
36.55698268276811 21.9746
36.58043067073321 22.0432
36.60406345072071 21.8334
36.62751462435344 21.8156
36.65096738658405 21.7947
36.67460498210655 21.7632
36.69806093788647 21.7546
36.72151848619297 21.6766
36.744977628333636 21.6451
36.76862165890998 21.5614
36.79208400512205 21.6678
36.81554794910557 21.5601
36.83901349217101 21.4527
36.862663978991606 21.4813
36.88613273667352 21.4288
36.90960309738324 21.4448
36.933075062434064 21.3809
36.95673202673572 21.3956
36.98020721697122 21.3125
37.003684015502365 21.2194
37.027162423645365 21.1863
37.050825886711465 21.2147
37.07430753063053 21.1103
37.09779078812467 21.1658
37.121275660513014 21.1396
37.144945643673694 21.0633
37.16843376245278 21.0319
37.19192350009803 21.0256
37.215414857931435 20.997
37.239091382563885 20.9065
37.262585997426164 20.8961
37.28608223645736 20.9705
37.309763684451696 20.8951
37.33326318851098 20.8151
37.356764320726555 20.8159
37.380267082425526 20.8014
37.40395510942588 20.7039
37.42746114683234 20.7386
37.45096881771841 20.6197
37.474478123414166 20.6148
37.49817275092816 20.5275
37.52168534303452 20.5798
37.54519957395567 20.4989
37.568715445024665 20.428
37.592416694607714 20.4844
37.61593586281424 20.4455
37.63945667518264 20.4572
37.66297913304891 20.3062
37.68668702630454 20.2772
37.710212792059274 20.2501
37.733740207334854 20.1975
37.757269273470364 20.1587
37.780983832050374 20.1785
37.80451621684926 20.257
37.82805025654007 20.1132
37.851585952464795 20.0669
37.8753071980695 20.0668
37.89884622345676 20.0301
37.92238690911902 19.9405
37.94611318753442 19.9436
37.969657210779765 19.9257
37.99320289834801 19.9163
38.016750251586465 19.8549
38.04048325513017 19.8985
38.06403395679343 19.7943
38.087586328183946 19.7968
38.11114037065203 19.7711
38.13488012115898 19.7401
38.1584375229181 19.7219
38.181996599821 19.6347
38.205557353221124 19.6531
38.229303872575656 19.5955
38.2528679961576 19.5367
38.27643380031219 19.4805
38.30000128639589 19.472
38.32375459653193 19.5019
38.34732546371299 19.5039
38.37089801690786 19.4055
38.39447225747609 19.3659
38.418232380377425 19.2782
38.441810012983396 19.3067
38.46538933705673 19.2543
38.488970353960084 19.2813
38.51273731166058 19.2362
38.536321731567014 19.17
38.55990784840681 19.087
38.58367995004091 19.1136
38.60726947812959 19.0664
38.63086070726198 19.1167
38.654453638806274 19.1048
38.678232613930824 19.0473
38.70182896773327 18.9646
38.72542702806741 18.9066
38.7490267963045 18.8745
38.77281266709232 18.8715
38.79641586862214 18.8677
38.8200207821842 18.7443
38.843627409152944 18.7995
38.86742019782782 18.7557
38.891030269149255 18.7153
38.914642058016156 18.7055
38.938255565806124 18.7088
38.96205529464307 18.6005
38.98567225787121 18.6136
39.00929094417078 18.6587
39.03291135492255 18.6098
39.05671804624804 18.5657
39.080341923549106 18.5355
39.103967529460334 18.4533
39.127594865365744 18.4379
39.15140854155791 18.3472
39.17503935514948 18.3386
39.19867190290282 18.3543
39.22249083587951 18.3152
39.24612686969409 18.32
39.269764641845306 18.3203
39.293404153722804 18.28
39.317230110864074 18.17
39.34087311998506 18.18
39.36451787301696 18.1872
39.388164371352595 18.0659
39.41199737518003 18.0919
39.43564738196752 18.0816
39.45929913825317 18.0303
39.48295264543308 17.9984
39.506792718520884 17.9134
39.530449745387216 17.9078
39.55410852735203 17.8524
39.57776906581474 17.9571
39.60161623079 17.8391
39.625280300200025 17.7959
39.64894613032202 17.7791
39.67261372255866 17.7492
39.6964680021016 17.7526
39.72013913657293 17.7137
39.74381203738292 17.6388
39.76748670593756 17.698
39.79134812278169 17.7095
39.81502634488497 17.6647
39.83870633896685 17.5101
39.862388106436654 17.5614
39.88625668336918 17.5502
39.90994201572829 17.5204
39.933629125719285 17.4633
39.957503091207826 17.4223
39.9811937746168 17.4828
40.00488623990914 17.3942
40.02858048850006 17.3135
40.05246165409549 17.2597
40.076159487492085 17.2956
40.099859108448875 17.2792
40.123560518384345 17.305
40.1474489070226 17.2871
40.171153913178564 17.1964
40.194860712584955 17.1669
40.2185693066637 17.1637
40.242464941335314 17.1135
40.26617714307655 17.1032
40.289891143772046 17.0487
40.3136069448471 16.9899
40.33750984859743 16.9614
40.3612292688043 16.968
40.3849504936829 16.9106
40.40867352466194 16.9157
40.43258372059144 16.9326
40.45631038219906 16.8884
40.48003885420956 16.7951
40.503769138055105 16.8332
40.52768664931955 16.8014
40.55142057531802 16.7726
40.57515631746428 16.7201
40.599079334038514 16.7074
40.62281872700477 16.6248
40.64655994043941 16.6043
40.67030297578061 16.5826
40.69423334835778 16.5459
40.71798004609188 16.5721
40.74172857006355 16.5275
40.76547892171441 16.5819
40.7894166736039 16.5388
40.813170699248566 16.4505
40.83692655691388 16.4158
40.86068424804498 16.4696
40.884629402612525 16.3589
40.908390779366385 16.4362
40.932153993938 16.3246
40.95591904777605 16.3291
40.979871628443995 16.3653
41.003640379561936 16.2356
41.02741097430883 16.2525
41.05118341413683 16.1871
41.075143444384416 16.1825
41.098919593177826 16.1836
41.1226975914255 16.1224
41.14647744058318 16.1111
41.170444943946755 16.1134
41.19422851378379 16.0595
41.218013938914645 16.0128
41.24198706625173 15.9417
41.26577622087193 15.9693
41.289567235177785 15.9146
41.31336011063129 15.9116
41.337340752422875 15.9222
41.361137369129835 15.9012
41.38493585138705 15.8332
41.40873620066004 15.8351
41.43272438060107 15.809000000000001
41.45652848292052 15.754000000000001
41.48033445666918 15.6776
41.50414230331616 15.6553
41.528138045159764 15.7063
41.551949656675205 15.6589
41.575763145513235 15.5957
41.59957851314666 15.6167
41.62358184070442 15.5822
41.64740098505737 15.5658
41.6712220126409 15.52
41.69504492493139 15.4852
41.71905586207357 15.5038
41.74288256296395 15.4767
41.766711153007456 15.475999999999999
41.79054163368412 15.3665
41.814560204340054 15.341
41.838394485526365 15.3883
41.86223066180303 15.2779
41.88625497706819 15.2786
41.910094962812 15.2774
41.93393684811168 15.2164
41.95778063445365 15.1567
41.981812625263366 15.1797
42.00566023303407 15.1865
42.029509746323676 15.1229
42.05336116662236 15.113
42.077400857069705 15.0996
42.10125611078846 15.0987
42.12511327600405 15.0692
42.14897235421036 15.017999999999999
42.173019768448455 14.9957
42.19688269209613 14.9606
42.22074753323349 14.9642
42.24461429335818 14.9659
42.268669455600495 14.8821
42.292540073217886 14.8412
42.31641261433284 14.8644
42.34028708044675 14.7893
42.36435001496739 14.7987
42.38822835065557 14.8072
42.41210861586426 14.7982
42.4359908120986 14.762
42.46006154323262 14.7432
42.48394762115317 14.6307
42.507835634632315 14.6572
42.531912233047436 14.6597
42.55580413732265 14.620999999999999
42.579697981698 14.5578
42.60359376768525 14.4846
42.62767820545945 14.4681
42.65157789440821 14.524000000000001
42.67547952952185 14.529000000000002
42.699383112316 14.4567
42.72347541395347 14.439
42.74738291190531 14.3654
42.771292362102166 14.3533
42.795203766063516 14.3087
42.819303956130405 14.3129
42.843219287476536 14.2727
42.86713657716324 14.2719
42.89105582671383 14.2234
42.91516392983864 14.238
42.939087119032166 14.2234
42.963012272677304 14.1578
42.98693939230129 14.1634
43.01105543317513 14.0989
43.034986504731386 14.0716
43.05891954686589 14.0691
43.08285456110972 14.0612
43.10697856448665 14.0094
43.130917542983475 13.9729
43.15485849820081 13.9993
43.17880143167367 13.9066
43.20293342237094 13.9357
43.226880332449 13.929
43.25082922540554 13.8925
43.27496722682525 13.8312
43.29892010567796 13.8371
43.32287497204102 13.7809
43.34683182745632 13.7638
43.370977859791836 13.7608
43.39493871351105 13.7766
43.41890156092628 13.7585
43.44286640358341 13.6563
43.46702049182749 13.6625
43.49098934522816 13.6254
43.51496019852649 13.5995
43.5389330532723 13.6224
43.56309522248204 13.5695
43.58707210044314 13.5315
43.61105098451946 13.4867
43.63503187626491 13.5296
43.659202151562134 13.5035
43.68318707902681 13.4365
43.70717401884041 13.4339
43.731162972560874 13.3847
43.75534137913236 13.3521
43.779334381108384 13.3369
43.803329401683186 13.3204
43.82732644241872 13.3304
43.8515130055166 13.3468
43.87551410707659 13.3289
43.89951723350145 13.2594
43.923709934595614 13.2466
43.94771713129917 13.224
43.97172635758096 13.1747
43.99573761501002 13.1328
44.0199385169922 13.1426
44.04395385732619 13.0811
44.067971233533086 13.1548
44.09199064718605 13.0553
44.11619977548961 13.0305
44.14022328470671 13.0086
44.16424883610785 13.0215
44.18827643127035 13.0111
44.21249381139513 12.9868
44.236525514814076 12.9443
44.26055926674478 12.8979
44.28459506876863 12.9527
44.3088207262813 12.8824
44.33286064928722 12.8257
44.35690262714919 12.8262
44.38094666145278 12.7963
44.4051806219871 12.8024
44.42922879003185 12.7488
44.45327901929361 12.7288
44.477331311362136 12.7266
44.501573600619416 12.6578
44.525630039221795 12.6389
44.54968854541895 12.6611
44.573937102200176 12.6397
44.5979997645541 12.619000000000002
44.622064499300315 12.5787
44.64613130803592 12.5298
44.67038823869318 12.5499
44.69445921643748 12.4764
44.718532272981385 12.4845
44.742607409926194 12.5006
44.76687274034801 12.4566
44.79095205918753 12.4114
44.81503346325094 12.3657
44.839116954143876 12.3906
44.86339071028742 12.3742
44.88747839599524 12.3403
44.91156817336837 12.2713
44.93566004401666 12.2787
44.959942251908146 12.284
44.984038330325966 12.2422
45.00813650686762 12.1986
45.03223678314731 12.2045
45.05652746888232 12.1314
45.08063196592069 12.1161
45.104738567558705 12.13
45.128847275414856 12.157
45.15314646515866 12.0702
45.17725940679741 12.0642
45.20137445952892 12.0335
45.22568004865265 12.0064
45.24979934496396 11.9947
45.27392075725247 11.9862
45.29804428714431 11.9714
45.322358426247604 11.9315
45.346486212804315 11.8708
45.370616121861914 11.9104
45.39474815505086 11.9065
45.41907087049246 11.8665
45.4432071734666 11.8104
45.46734560548283 11.8611
45.49148616817604 11.8515
45.51581748638564 11.7656
45.5399623320197 11.7905
45.56410931325473 11.769
45.58825843173002 11.7768
45.61259837920865 11.7035
45.636751793816 11.7256
45.66090735060093 11.6924
45.68506505120716 11.6229
45.7094136545275 11.610999999999999
45.73357566449271 11.6071
45.75773982322992 11.5763
45.78190613238733 11.5307
45.806263418194064 11.4903
45.83043404997326 11.5172
45.85460683713677 11.5066
45.87897065658495 11.4842
45.90314777634752 11.3965
45.92732705646868 11.4248
45.9515084986045 11.4432
45.97588104735473 11.4117
46.00006683541565 11.3619
46.02425479047904 11.3324
46.04844491420549 11.3001
46.0728262191024 11.284
46.09702070211635 11.2792
46.12121735879483 11.2864
46.14541619080294 11.2837
46.169806278764455 11.2357
46.194009483459034 11.2038
46.21821486849841 11.1942
46.24242243555223 11.1287
46.266821333570014 11.1215
46.29103328674601 11.1125
46.31524742696538 11.1488
46.33946375590237 11.0775
46.36387149104216 11.117
46.38809221957392 11.0508
46.41231514186606 11.0699
46.436540259597464 11.0598
46.460956858999374 11.0365
46.48518638983522 10.9853
46.509418121166966 10.9402
46.533652054678114 10.9028
46.55807754555709 10.9166
46.58231590571962 10.9272
46.60655647313217 10.833
46.630988654873654 10.8285
46.655233659129024 10.8237
46.67948087571551 10.8095
46.70373030632484 10.802999999999999
46.72817142736393 10.7746
46.752425308428684 10.7364
46.77668140861147 10.7396
46.80093972960865 10.6758
46.82538981736788 10.6489
46.849652602470904 10.664000000000001
46.87391761349769 10.6298
46.8981848521493 10.647
46.9226439341274 10.5761
46.946915650573224 10.5669
46.97118959976749 10.5749
46.99546578341598 10.5249
47.019933887188216 10.5518
47.04421456235744 10.5214
47.06849747711879 10.4984
47.09278263318286 10.4763
47.11725978640143 10.4262
47.14154944775105 10.4276
47.165841355555656 10.4111
47.1901355115306 10.3842
47.214621741924994 10.3872
47.23892041698887 10.383
47.26322134538975 10.3323
47.28771440635075 10.308
47.31201986422527 10.3356
47.33632758061436 10.269
47.360637557241866 10.2374
47.38513974410611 10.2654
47.40945426407847 10.2247
47.43377104948137 10.208
47.45809010204344 10.2017
47.48260144275502 10.2
47.506925052572285 10.1094
47.53125093475548 10.1143
47.55557909103813 10.0642
47.58009961361992 10.0532
47.60443234110732 10.0493
47.62876734791564 10.0662
47.65310463578333 10.0116
47.6776343683373 10.0034
47.7019762413987 9.980889999999999
47.72632040075572 9.90265
47.75066684815169 9.9538
47.77520581885936 9.91947
47.799556865477655 9.862860000000001
47.823910205386 9.910839999999999
47.84826584033272 9.89921
47.87281407745551 9.822230000000001
47.89717432569297 9.844330000000001
47.92153687423484 9.84711
47.94609208429692 9.834710000000001
47.97045925671401 9.80069
47.99482873471275 9.751539999999999
48.01920052005013 9.732489999999999
48.04376504619224 9.71846
48.068141469543484 9.694410000000001
48.09252020552573 9.730960000000001
48.11690125590099 9.695889999999999
48.1414751266064 9.66527
48.16586082917454 9.674439999999999
48.19024885144316 9.635760000000001
48.2146391951793 9.61021
48.239222439012764 9.58814
48.26361744916137 9.56007
48.28801478610016 9.55769
48.31241445160131 9.55985
48.337007097209366 9.50651
48.36141144338331 9.54518
48.38581812345755 9.50608
48.41022713920929 9.50942
48.434829215320704 9.44184
48.45924292604658 9.43874
48.48365897780325 9.45497
48.50807737237308 9.44261
48.532688907799276 9.40704
48.55711201168574 9.4003
48.581537463754074 9.39391
48.60615611725119 9.35725
48.63058628942721 9.35238
48.65501881516546 9.32344
48.6794536962573 9.31015
48.70408185970339 9.28127
48.72852147531801 9.26486
48.75296345168211 9.22356
48.77740779059232 9.225480000000001
48.80204549302823 9.23819
48.82649458091802 9.23485
48.85094603676547 9.17481
48.87539986237231 9.13641
48.90004713292306 9.148769999999999
48.92450572200832 9.11346
48.94896668628025 9.10783
48.97343002754588 9.098410000000001
48.99808689542115 9.07189
49.02255501470614 9.050360000000001
49.04702551642794 9.03215
49.0714984023988 9.01843
49.096164896893235 8.98108
49.120642575466796 8.980080000000001
49.145122643748394 8.95544
49.16960510355558 8.945960000000001
49.19428125404938 8.93555
49.2187685210852 8.94064
49.243258185121555 8.90738
49.26794160167084 8.90048
49.2924360839405 8.855789999999999
49.31693296869764 8.82649
49.34143225776915 8.78695
49.36612538195438 8.79092
49.39062950396021 8.7852
49.41513603578346 8.76627
49.4396449792564 8.750169999999999
49.46434784069503 8.76453
49.488861631846454 8.72297
49.513377840166804 8.6679
49.537896467493745 8.70551
49.56260909589029 8.69882
49.587132585683285 8.64048
49.611658500018365 8.628789999999999
49.636186840738596 8.61655
49.66090926588511 8.59723
49.685442483902584 8.57678
49.70997813385706 8.51635
49.734516217597076 8.550239999999999
49.75924846937352 8.53622
49.7837914452858 8.51936
49.80833686055187 8.518889999999999
49.83288471702571 8.49935
49.85762682540054 8.51919
49.882179588965734 8.48129
49.9067347993235 8.44703
49.93129245833333 8.43075
49.95604445336378 8.39322
49.98060703442832 8.41721
50.005172069746266 8.3917
50.02993150438364 8.3803
50.05450147301533 8.36856
50.07907390151433 8.333839999999999
50.10364879174981 8.33399
50.12841816587289 8.27411
50.1529980044635 8.26095
50.17758031042124 8.25798
50.20216508562089 8.274939999999999
50.22694442953363 8.26552
50.25153416817468 8.21119
50.27612638170508 8.19713
50.300721072005196 8.1758
50.325510416102105 8.19443
50.350110084975064 8.16136
50.37471223628208 8.17099
50.39931687190919 8.133230000000001
50.424116246675766 8.13299
50.44872587605249 8.10886
50.47333799543065 8.09565
50.49795260670191 8.08416
50.52276204271512 8.02095
50.54738166295838 8.04454
50.57200378079314 8.02524
50.596628398116835 8.002419999999999
50.62144792604559 8.01233
50.646077567609396 7.9732
50.670709714377715 7.96731
50.69553683636198 7.954689999999999
50.72017401885922 7.941319999999999
50.7448137122895 7.913689999999999
50.76945591856022 7.882960000000001
50.79429318636823 7.87943
50.818940443716784 7.9061
50.84359021965163 7.8132399999999995
50.868242516085964 7.846889999999999
50.893089960641895 7.814089999999999
50.917747323549435 7.791689999999999
50.94240721271973 7.792260000000001
50.96706963007175 7.78598
50.99192728239342 7.73882
51.01659478166073 7.748639999999999
51.04126481489051 7.702389999999999
51.06593738400761 7.693989999999999
51.090805275207074 7.71754
51.11548294172845 7.69255
51.14016314993547 7.684260000000001
51.164845901758845 7.660010000000001
51.18972406304274 7.642760000000001
51.21441192780656 7.63967
51.23910234200271 7.606489999999999
51.2637953075678 7.56739
51.288683770237945 7.57665
51.31338186432707 7.5712
51.33808251561888 7.54253
51.362978729967345 7.56958
51.387684521509755 7.54175
51.41239287610203 7.50275
51.437103795691165 7.48175
51.46201036644977 7.419810000000001
51.486726441956634 7.4126199999999995
51.51144508832545 7.4483
51.536166307509156 7.431430000000001
51.56108326624387 7.38317
51.58580965706056 7.38634
51.61053862657523 7.33299
51.635270176746864 7.34587
51.66019755512065 7.3457300000000005
51.68493429268881 7.31727
51.70967361681515 7.34893
51.73441552946465 7.28828
51.759353359237934 7.2854
51.7841004750961 7.260210000000001
51.80885018539685 7.283180000000001
51.833602492111254 7.253489999999999
51.8585508051424 7.2002
51.883308330926425 7.204460000000001
51.90806845906181 7.175110000000001
51.932831191525715 7.102339999999999
51.95779001977161 7.11707
51.98255798721516 7.13536
52.00732856494335 7.13203
52.03229530577543 7.111680000000001
52.057071130455945 7.102530000000001
52.081849571391054 7.1258
52.106630630568695 7.084630000000001
52.13160794279417 7.0166699999999995
52.15639426492067 7.0252300000000005
52.18118321127822 7.03361
52.205974783860896 7.04758
52.23096269971011 6.999860000000001
52.255759551287994 7.00328
52.280559035098186 6.984710000000001
52.30536115314103 6.96973
52.33035970494467 6.984089999999999
52.35516711807904 6.931139999999999
52.37997717147198 6.93998
52.40478986713005 6.93192
52.42979908731974 6.87782
52.454617094216 6.84475
52.47943774942214 6.821560000000001
52.50426105495102 6.84448
52.529280976059844 6.84466
52.554109609024096 6.814589999999999
52.57894089837482 6.805339999999999
52.60377484613117 6.78263
52.62880550079408 6.79138
52.65364479223379 6.73601
52.67848674816189 6.72205
52.70352547971946 6.7109
52.72837279155837 6.75033
52.753222773982785 6.69228
52.778075429022984 6.71554
52.80312495150885 6.65234
52.827982978797436 6.6453
52.85284368481815 6.67346
52.87770707160767 6.679119999999999
52.90276741793998 6.6394899999999994
52.92763619336701 6.611560000000001
52.952507655698504 6.56769
52.977381806977576 6.58338
53.00245301017842 6.59013
53.02733256653592 6.54936
53.052214817996074 6.53146
53.077099766608484 6.5683300000000004
53.102181859804446 6.5071900000000005
53.127072229988265 6.51449
53.15196530349892 6.48402
53.17686108239249 6.44693
53.20195409881522 6.47242
53.22685531582556 6.43802
53.25175924441303 6.43786
53.27666588664027 6.42847
53.30176985962693 6.40803
53.3266819565689 6.40709
53.35159677336455 6.38291
53.376514312083096 6.3247599999999995
53.40162927507703 6.35826
53.42655228516116 6.341080000000001
53.45147802340193 6.3139
53.47660125628886 6.33188
53.50153247842639 6.31715
53.52646643496923 6.3123
53.55140312799818 6.252999999999999
53.576537409691696 6.25474
53.60147960336152 6.23278
53.626424539786164 6.22945
53.65137222105307 6.23093
53.67651758529126 6.22003
53.70147078399681 6.19313
53.72642673383343 6.18351
53.75138543689533 6.17026
53.776541917524526 6.1135
53.801506154876755 6.15184
53.826473151763246 6.13225
53.851442910284916 6.08294
53.87661054126026 6.0532900000000005
53.9015858509782 6.03826
53.92656392866066 6.10009
53.95154477641532 6.0846800000000005
53.976723591801296 6.04953
54.00171000771266 6.012169999999999
54.02669920004598 6.02534
54.051691170915745 6.00796
54.076881204886796 5.99986
54.101878760928514 5.99867
54.12687910187696 5.96914
54.152077577768296 5.9331
54.1770835166946 5.93807
54.20209224691339 5.89729
54.22710377055121 5.92249
54.25231352511594 5.90131
54.27733066384342 5.84662
54.30235060239643 5.87819
54.32737334290836 5.89966
54.35259441062629 5.84624
54.377622783395324 5.80321
54.40265396455061 5.79539
54.42768795623251 5.75073
54.45292037169559 5.75927
54.477960012857906 5.73592
54.50300247099511 5.73473
54.52804774825457 5.718459999999999
54.55329154616743 5.7265
54.57834249018678 5.69625
54.6033962597977 5.656680000000001
54.6284528571545 5.63121
54.653708072335164 5.6202
54.67877035378786 5.61381
54.70383546947698 5.5633300000000006
54.72890342156389 5.576890000000001
54.7541700889442 5.53085
54.77924374251975 5.503419999999999
54.8043202390049 5.51318
54.82959552413022 5.44359
54.8546777351945 5.47202
54.87976279569621 5.4057
54.90485070780914 5.42253
54.930137506558005 5.3747
54.95523115074295 5.43714
54.98032765308844 5.37858
55.005427015775496 5.33779
55.03072536339621 5.3215699999999995
55.05583047570572 5.29553
55.080938454927676 5.22577
55.10604930325027 5.26816
55.131359235107396 5.2472199999999996
55.15647585066083 5.21318
55.181595341907496 5.21849
55.20671771104285 5.15415
55.232039262617704 5.17164
55.25716741665048 5.18232
55.28229845518636 5.12942
55.30743238042802 5.044230000000001
55.33276558731939 5.09927
55.357905315183636 5.05244
55.383047936390035 5.04251
55.40819345314859 5.00855
55.433538351073295 5.01907
55.458689688238415 4.96481
55.483843927614096 4.9269
55.509197623043605 4.9039
55.53435769621134 4.8775
55.55952067826466 4.8863
55.5846865714265 4.85215
55.61005202069737 4.84384
55.63522376553902 4.8144599999999995
55.66039842818645 4.74239
55.68557601087004 4.78373
55.7109532500271 4.69421
55.73613670233794 4.74524
