TT I
1.2716486653135266 6.70137
1.2939594142134223 6.96134
1.3162702121660406 6.5254900000000005
1.3385810600174564 6.4082099999999995
1.3608919586137629 6.49371
1.383202908801069 5.66234
1.405513911425503 6.0048900000000005
1.4278249673332093 5.6529
1.4501343378461518 6.29461
1.4724455028545926 5.9271400000000005
1.4947567236847858 5.19855
1.517068001182951 5.53369
1.5393793361953272 5.494190000000001
1.5616907295681737 5.33289
1.5840021821477681 4.761769999999999
1.60631369478041 4.883859999999999
1.6286252683124185 4.95869
1.6509369035901333 4.41173
1.6732468618895553 4.3735
1.695558623192809 3.94145
1.7178704487808514 5.17441
1.7401823395001077 4.52916
1.7625012545597203 4.48961
1.7848028405262486 4.40572
1.8071218901122095 4.5419599999999996
1.8294236121921872 4.21979
1.8517427996910911 4.21061
1.8740620574440425 3.96924
1.8963639900671978 4.07705
1.9186833908139995 4.7875
1.9409854680117449 4.71804
1.9633050151394713 4.4714
1.9856246367570705 4.31871
2.0079269371922672 4.13402
2.03024671027244 4.27449
2.0525491637446027 3.8347800000000003
2.074869091674931 3.9131400000000003
2.097171701569106 4.18341
2.1194917877373847 4.592890000000001
2.141811954326636 4.29185
2.164114805233074 4.35912
2.186435135143035 3.9055400000000002
2.208738150935709 5.2035
2.231058647554722 6.704219999999999
2.2533792288321184 6.5737
2.275682498336085 5.436030000000001
2.298003251406138 5.61037
2.3203066942619714 5.243530000000001
2.3426276225136022 4.97614
2.3649486396617507 5.31562
2.387252348930071 5.7309
2.4095735463442893 6.29933
2.4318774374315884 6.54102
2.4541988185014043 6.31372
2.476502894794693 6.89653
2.498824462909887 7.557580000000001
2.521146125856138 7.24125
2.5434504863470337 7.76525
2.5657723414244717 7.872039999999999
2.588076895590662 8.12635
2.610398946189713 8.21377
2.6327210958598384 8.06829
2.6550259469304716 8.02083
2.6773482972090137 8.48887
2.6996533504259 8.14285
2.7219759047039602 8.28787
2.744298562293959 8.36915
2.7666039251246595 8.98738
2.7889267918020164 8.44999
2.8112323652516555 8.06789
2.833555444408179 8.43952
2.8558786311183852 7.73005
2.8781845268938557 8.82646
2.9005079311721484 9.62663
2.9228140460410397 9.53705
2.9451376712799635 9.46325
2.967444008632326 9.43062
2.9897678582247247 9.37712
3.0120918213106695 10.1113
3.0343984987899373 10.6478
3.0567226913198637 10.8211
3.079029599759726 11.2818
3.101354025127254 11.8432
3.123678568232338 12.7321
3.145985829517914 12.8966
3.16831061055229 13.2162
3.1906181112775593 13.8648
3.212943133635653 14.8565
3.2352682779763207 14.6638
3.2575761442691227 15.1949
3.2799015350264273 15.2495
3.302209649240067 16.0053
3.3245352898092655 16.4735
3.3468436553365257 17.1436
3.369169549113219 17.2432
3.3914955708171384 17.8652
3.413804319727358 18.1743
3.4361305997334863 17.9888
3.4584396084414553 18.7289
3.4807661501462652 19.2182
3.503092824025881 19.6098
3.5254022288463154 19.8672
3.5477291695206588 20.3562
3.5700388426251948 20.54
3.5923660534916446 21.0598
3.6146934007816114 22.6339
3.637003482731501 28.3126
3.6593311053109985 30.4087
3.681641464033634 26.9345
3.7039693653009733 24.0243
3.726297407241705 23.8146
3.7486081875460804 24.2569
3.7709365132734978 24.7784
3.793247578841633 25.2355
3.8155761917550093 25.5924
3.8378875459837216 25.4721
3.8602164494827234 25.6046
3.882545499606844 26.5412
3.9048572932539183 27.3132
3.9271866390645718 27.4721
3.9494987298666713 28.3172
3.971828374764527 28.3995
3.9941581705403255 29.0612
4.016470713506008 29.7155
4.038800813471445 30.1547
4.061113662089144 30.7543
4.0834440696459176 31.5499
4.105774632334751 31.6673
4.128087945865126 32.1886
4.150418821249301 32.9177
4.172732448931298 33.6097
4.195063640413578 34.3729
4.2173775856475215 35.6547
4.239709096631102 37.8537
4.262040768704612 52.6227
4.284355196706267 65.0268
4.306687193387355 57.2087
4.329001947444346 44.2455
4.35133427213731 40.7839
4.373666762177566 40.2943
4.395982011761091 40.4275
4.418314834921175 41.6958
4.44063041906622 43.3288
4.4629635787515625 44.8478
4.4852969080429785 45.7655
4.5076130004776225 46.228
4.529946671403969 46.8162
4.552263106909177 47.015
4.574597122877047 48.3489
4.596931312711224 49.7395
4.619248269273446 50.3256
4.6415828092605835 51.3779
4.663900117405352 52.9952
4.686235010953232 53.7357
4.708552674085913 55.2889
4.730887924602802 56.3571
4.753223354952695 57.4733
4.775541557023902 59.1647
4.797877349456786 60.522
4.820195915032126 62.5199
4.842532072957498 64.0681
4.864868414979744 65.569
4.88718753227192 67.707
4.909524244902505 69.7445
4.931843734218147 71.1963
4.954180820867835 73.1985
4.976518095879839 76.3377
4.998838149695359 78.7263
5.021175803844231 82.4177
5.043496238205739 85.6119
5.065834274903528 89.06299999999999
5.088172504230693 93.5776
5.1104935158799565 97.2796
5.132832132875765 104.62
5.155153533596801 117.24799999999999
5.1774925416746225 136.906
5.199814334878411 228.312
5.2221537374521505 772.206
5.244493338631803 2419.51
5.266815727034316 7080.34
5.289155727832427 13479.6
5.311478517248165 9597.37
5.333818921080011 3359.29
5.356159527788849 717.0
5.3784829252032536 221.94299999999998
5.400823940070432 148.185
5.423147747031976 124.20700000000001
5.445489173474152 113.566
5.467830807066149 108.085
5.490155234831516 103.932
5.512497285125229 100.613
5.534822130975162 98.7564
5.557164601388673 96.6955
5.579489868738879 94.5359
5.601832762690846 93.0031
5.6241758697774475 91.4546
5.646501775867269 90.5946
5.668845311622074 90.2468
5.691171647754637 89.4914
5.713515615597765 88.6064
5.735859800852677 88.1126
5.758186788542988 86.8312
5.780531411018185 86.5775
5.802858837297399 86.0902
5.825203900414495 85.8339
5.8475491852224 86.2397
5.869877275883075 86.8672
5.892223006467101 87.4474
5.914551544266608 88.6479
5.936897724049891 91.0515
5.959244129804903 94.8342
5.981573344815301 106.295
6.0039202049061 160.192
6.026249875609095 380.12199999999996
6.04859719346037 864.693
6.070927323278297 2027.93
6.093275102315365 4533.72
6.115623113320588 5747.49
6.137953938319995 3566.21
6.160302415650845 1065.84
6.182633708324452 243.403
6.2049826554078376 110.181
6.227331838745022 86.9222
6.249663839443684 79.7464
6.27201349767565 75.9458
6.294345974611799 73.5486
6.316696111167083 72.5842
6.339046488263839 71.5353
6.361379686074702 68.3675
6.383730546639482 66.41199999999999
6.406064229255215 64.5726
6.428415576718203 64.1997
6.450749747566656 63.0617
6.47310158535871 61.8485
6.495453669698332 61.5423
6.517788579421056 60.7378
6.540141159237969 59.8768
6.562476565766648 59.1153
6.5848296444934045 58.5473
6.607182974060425 58.3747
6.6295191323281015 57.5253
6.651872965955752 57.6467
6.6742096296068985 58.3134
6.6965639707294615 63.2468
6.71891856698715 64.2949
6.741255995248479 59.8474
6.763611104154477 56.6651
6.785949046381137 55.1181
6.808304671371482 54.1844
6.8306605557940046 54.3139
6.852999275508618 53.5774
6.875355681171544 53.3411
6.897694923437771 53.0852
6.92005185377892 53.2608
6.9423916220322655 53.3119
6.964749080490181 52.1841
6.987106804399774 52.1993
7.009447368180821 52.3236
7.031805625367033 52.0074
7.054146723727803 52.0803
7.076505517631004 51.9948
7.098864581288365 51.9055
7.121206488070854 51.6396
7.143566093607822 51.2184
7.165908543567245 51.1545
7.188268694426048 51.1914
7.2106291193438095 50.8281
7.232972390625943 51.1039
7.255333366030969 51.4993
7.277677189091925 55.6773
7.300038718428332 61.9937
7.322400526130865 61.2528
7.344745183422596 55.8884
7.367107550224791 52.2905
7.389452767901992 51.6628
7.411815697249891 51.4796
7.434161478756298 51.0234
7.456524974096713 51.6158
7.478888753837185 51.6452
7.501235387657368 53.3173
7.523599738562711 60.3482
7.545946944825532 72.9923
7.568311870344528 78.0598
7.5906770845765665 68.0843
7.613025156078678 57.7075
7.635390950099687 54.028
7.657739602662809 52.8451
7.680105979923558 52.8221
7.702472650212829 53.0652
7.724822180948224 52.4881
7.747189439655568 52.8452
7.769539560075357 53.1233
7.791907410653562 53.5656
7.81425812420825 53.5423
7.836626570110925 53.7862
7.858995315087906 54.6097
7.881346924933401 54.6399
7.903716270417482 55.1189
7.926068482028405 54.9717
7.948438431475253 55.715
7.9708086843180235 56.6961
7.993161805171116 57.0307
8.015532667162402 57.0743
8.037886398416653 58.3747
8.060257873014221 58.7311
8.082629655331942 58.9982
8.104984308787587 59.9394
8.127356708900503 60.763000000000005
8.149711981398308 62.43899999999999
8.172085002766314 63.0435
8.194458336181368 63.6149
8.216814543847752 64.0825
8.23918850371002 64.9909
8.26154533906492 66.4419
8.283919928836452 68.186
8.306277395339652 68.973
8.328652618483376 70.0414
8.351028159736202 71.7588
8.373386579575245 73.8244
8.395762759396959 74.8992
8.418121819038275 77.3108
8.440498640894003 80.9667
8.462875785192262 85.4859
8.485235811156207 93.2294
8.507613602688501 125.535
8.529974277114228 222.697
8.552352719347912 358.355
8.574731488360351 597.427
8.59709314210385 1062.91
8.619472567021075 1805.3
8.64183487789147 2242.25
8.664214962183097 1966.55
8.686577933647762 1109.68
8.708958680784317 426.092
8.731339760774953 177.69400000000002
8.753703729764451 109.785
8.77608547780821 94.7881
8.798450116065078 91.0488
8.820832535634787 88.0289
8.843215292401656 86.2628
8.865580941199045 85.6696
8.887964374703538 84.1456
8.910330701447199 83.194
8.932714815164482 82.9139
8.955099270424924 82.33200000000001
8.977466620733543 81.3461
8.999851761421976 80.6521
9.022219798361645 79.748
9.04460562795561 79.6986
9.066991803441677 79.3676
9.089360876979615 79.1972
9.111747746589993 78.9138
9.13411751544971 78.5489
9.156505082664324 78.562
9.178875550323522 79.4105
9.20126381862328 82.212
9.223652438908596 93.2558
9.246023961427412 112.20200000000001
9.26841328802173 120.229
9.290785518039224 108.01799999999999
9.313175554425882 91.6651
9.335565947154315 82.3879
9.357939245086508 79.9183
9.380330352834827 79.5343
9.40270436697103 79.5582
9.425096193225055 79.4573
9.447488380180165 80.1144
9.469863475295412 80.2714
9.492256385987508 80.5955
9.514632206018318 81.1767
9.537025843935714 81.2372
9.559402392368193 81.8821
9.581796761000229 82.7571
9.604191496441521 83.5519
9.626569144158516 84.1312
9.648964615551032 84.7137
9.671343000390081 85.7444
9.693739211225699 86.7264
9.716135793237463 87.5339
9.738515290448102 88.0139
9.760912617143402 88.7453
9.783292860202891 90.035
9.805690935076182 91.1395
9.828089385495742 91.6645
9.850470754023561 93.5422
9.872869957865444 95.2294
9.89525208097539 98.2012
9.917652041736662 102.079
9.940052382417589 105.62700000000001
9.962435644102392 114.325
9.984836746950979 145.091
10.007220771957746 221.445
10.029622640473708 336.55400000000003
10.052007432299963 497.577
10.074410069984072 751.7080000000001
10.096813093716005 1180.75
10.119199042482517 1743.23
10.141602840636468 2095.89
10.163989564971628 1681.22
10.186394141051062 1016.05
10.208799107559706 449.80400000000003
10.231187001965623 206.22799999999998
10.253592751657669 126.345
10.275981430388155 107.387
10.298387966769793 102.514
10.320794897965431 101.402
10.343184759907361 100.31299999999999
10.36559248305461 98.6965
10.387983138083852 97.1311
10.410391656691655 97.8811
10.432800574501677 106.62899999999999
10.455192425893369 128.001
10.47760214443012 156.886
10.499994797678786 196.835
10.522405320453982 262.66900000000004
10.54479877906917 373.219
10.567210109595656 502.369
10.5896218454736 589.163
10.612016518879773 541.198
10.634429067781074 380.7
10.656824555333241 227.263
10.679237920773568 142.726
10.701651695961992 105.87100000000001
10.724048411481384 93.8741
10.746463008485165 86.5771
10.768860546937125 82.3632
10.791275969274796 79.7336
10.81369180576079 78.71
10.836090585366925 77.2788
10.858507252467449 75.7584
10.88090686379991 74.9371
10.903324365036394 74.0801
10.925724811614439 73.1902
10.948143150509463 72.8232
10.970561909719066 72.1715
10.992963615930844 71.6262
11.015383218085756 70.3378
11.037785768347074 69.4249
11.06020621697282 68.9507
11.082627090322113 68.4183
11.105030913430326 67.7421
11.12745263854165 67.3033
11.149857314510728 66.667
11.172279894912576 67.4818
11.194702904450653 67.1424
11.217108866490921 66.2923
11.239532736615194 65.4933
11.26193956033512 64.8346
11.284364294577085 64.3474
11.306789462371718 63.6385
11.329197585398376 63.2679
11.351623622610898 63.1528
11.37403261614354 62.6339
11.396459526308487 62.3002
11.418869393879497 62.2357
11.441297180532617 61.8485
11.463725406927658 61.7287
11.486136592353875 61.4184
11.508565700543707 60.9459
11.530977768845315 61.1869
11.553407762368774 60.7522
11.575838200059769 60.777
11.598251599479612 60.5317
11.620682927815501 60.1055
11.64309721895548 60.2527
11.665529441478206 59.8927
11.687962112597958 59.7538
11.710377748130886 59.6135
11.732811318753434 59.4453
11.755227854859067 59.7273
11.777662328529495 59.5723
11.800079768750786 59.5354
11.822515149015453 59.5649
11.844950984084935 59.9198
11.867369787303163 59.7561
11.889806534289491 60.0785
11.912226250487029 61.9407
11.934663912939751 66.0671
11.9571020346363 69.5474
11.979523127133968 69.9755
12.001962169624331 67.5834
12.024384183972964 63.9889
12.046824150809913 64.1333
12.069264581333726 68.8177
12.091687985297767 75.8477
12.11412934550045 84.741
12.136553680195208 97.7212
12.158995973632788 117.741
12.181438735204349 145.878
12.20386447284199 177.229
12.226308172985636 206.953
12.24873485024193 210.92
12.271179492516982 176.048
12.293607112949127 133.94899999999998
12.316052700916226 96.2249
12.338498763250042 73.1306
12.360927805303868 64.1986
12.383374818673879 61.71
12.405804812803074 60.9681
12.428252780773262 61.0887
12.45070122756722 60.9297
12.473132656675375 60.6784
12.49558206341869 61.0044
12.518014453510101 61.0555
12.540464823770117 61.085
12.562915677315177 61.1052
12.58534951575545 61.4232
12.607801338171472 61.4972
12.630236146511358 62.2217
12.652688941369085 63.1455
12.675124723177234 63.6752
12.697578494048786 64.0974
12.720032754458185 63.8283
12.742470003354093 63.6977
12.764925245138771 63.8347
12.787363476431278 64.4942
12.809819703166806 64.6234
12.83227642391173 65.5522
12.854716135692716 66.1296
12.877173846755147 67.1372
12.899614549869717 67.5747
12.9220732548287 68.1955
12.94453245827299 68.3662
12.966974655289818 69.8019
12.989434858002571 70.4946
13.011878055298721 71.2609
13.034339260862497 72.3725
13.056800969391883 73.7634
13.079245674017244 76.3886
13.101708390774869 78.0199
13.12415410463411 82.046
13.146617833206086 91.5346
13.169064559883248 106.17200000000001
13.191529303857127 123.07799999999999
13.213994557076367 144.10299999999998
13.236442809902437 175.572
13.258909083908291 223.044
13.28135835851934 287.664
13.30382565690295 361.36
13.326293469022952 426.194
13.348744283242008 440.494
13.371213125129904 377.903
13.39366497011003 281.449
13.416134845360597 185.815
13.438605238843131 127.535
13.46105863690397 102.39
13.483530069144786 98.46799999999999
13.505984506951902 105.741
13.528456981549432 118.03200000000001
13.550929978879088 132.877
13.573385983253365 153.588
13.595860028340867 184.998
13.618317081455832 233.428
13.64079217790333 291.314
13.663250283359057 352.87800000000004
13.685726434770173 391.327
13.708203115221277 363.17800000000005
13.730662806148091 292.577
13.75314054697177 208.33900000000003
13.775601299246777 139.54399999999998
13.798080104050406 101.32700000000001
13.820559442405358 84.6661
13.843021793671388 79.4822
13.865502201420897 77.3159
13.887965623051947 76.6846
13.910447103807167 75.5891
13.932929122629764 73.9922
13.955394156785959 73.9087
13.977877254034569 73.2315
14.000343367582113 72.4109
14.022827546871707 71.6833
14.045294743423524 71.0342
14.06778000837062 70.4682
14.090265817715476 71.0027
14.112734645763819 71.9147
14.13522154619454 73.9532
14.157691466286913 76.4275
14.180179461423874 76.7396
14.202668005486178 74.3491
14.22513957064374 71.043
14.247629214846473 68.8154
14.270101881097517 67.8115
14.29259262906496 67.1304
14.315083930490205 67.1844
14.337558255389705 67.1199
14.360050666019726 66.6859
14.382526101071944 66.5111
14.405019624534942 66.2257
14.427513705993134 65.943
14.449990813291825 66.1205
14.47248601302899 65.999
14.49496423954951 66.1211
14.517460561197822 66.1081
14.539939910570322 65.6947
14.562437357763558 65.946
14.58493536931253 66.2982
14.607416409993311 66.3485
14.62991555254159 66.6734
14.652397725157423 66.7011
14.674898002342799 67.0081
14.697398848433282 67.0355
14.719882725991326 67.7865
14.74238471217934 68.1791
14.764869730765593 70.1478
14.787372860692983 73.8161
14.809876564079925 80.2836
14.83236330125751 87.4765
14.854868153850365 95.8671
14.877356041159485 107.523
14.899862046604186 123.264
14.922351087688757 145.91299999999998
14.944858249632887 176.882
14.967365991421232 206.99200000000002
14.989856770231246 226.275
15.012365673994204 229.081
15.03485761569738 201.102
15.05736768508665 161.355
15.07987833888692 122.90100000000001
15.102372032001655 93.7487
15.124883856909658 77.3139
15.14737872204565 70.7084
15.169891721717274 68.3915
15.192405310371893 67.7822
15.214901940621196 67.0339
15.237416709527137 66.4355
15.259914520936249 66.2519
15.282430473753607 65.4177
15.304947020131227 64.8827
15.327446610371178 64.5361
15.349964346154254 64.1335
15.372465126703139 63.9878
15.394984055556009 63.7079
15.417486030076159 63.7545
15.44000615566487 63.3937
15.462526881230803 63.3748
15.485030653812652 63.1707
15.507552581617434 63.0209
15.530057557334603 62.9558
15.55258069104857 62.8769
15.575104429329837 63.3501
15.597611216864632 62.9985
15.620136166564563 63.0621
15.6426441664095 63.2594
15.665170331202765 64.5809
15.687697105158826 67.9341
15.710206930593545 72.9191
15.732734925158933 78.4423
15.755245972089478 85.1954
15.77777519094324 93.0493
15.800287463046663 104.008
15.822817909869592 120.564
15.84534897229804 141.953
15.867863089299354 167.11
15.890395385222186 188.835
15.912910736597423 200.891
15.935444269699861 191.82299999999998
15.957978423016485 167.924
15.980495633101265 133.172
16.003031029129367 103.45200000000001
16.02554948280019 81.1601
16.048086125229432 69.556
16.070623392487107 65.0804
16.09314371869582 63.1127
16.11568223789321 61.161
16.13820381691126 59.6424
16.160743591742527 58.9679
16.183283996022084 58.0707
16.205807461423195 56.9373
16.228349126881973 56.5685
16.25087385432698 56.5653
16.27341678466365 55.9415
16.29594277784926 55.6765
16.31848697676433 55.3886
16.341031811604868 54.7942
16.36355971058487 54.8825
16.3861058195587 54.7366
16.40863499352978 54.2078
16.431182380342005 53.9216
16.453730407713202 53.744
16.476261501364792 53.38
16.498810812136167 53.151
16.52134319004079 53.2282
16.54389378792203 53.0165
16.566445031001553 52.9142
16.588979342490088 52.9612
16.61153187824822 52.8998
16.634067483263312 52.7608
16.656621315414416 52.5823
16.679175797408888 52.4579
16.701713349928728 52.3728
16.72426913389191 52.6297
16.74680798922351 52.6326
16.76936507887444 52.4386
16.791905240734874 52.5198
16.814463639794468 52.2504
16.837022695210294 52.3616
16.859564824093756 52.5583
16.882125194503903 52.8822
16.904668639217885 53.4624
16.927230328348003 53.7374
16.949792678493612 54.0634
16.972338104193863 53.9562
16.994901778652235 53.8645
17.017448529496576 53.4895
17.040013531998152 53.3383
17.06257920018044 53.6164
17.0851279459922 54.4941
17.107694947817667 55.5635
17.130245028099072 56.5802
17.15281336730298 58.0986
17.17536478578733 59.5955
17.19793446610687 61.6273
17.220504818648422 64.28399999999999
17.243058251703697 67.5915
17.265629950971032 71.9091
17.288184731571736 76.8529
17.310757781306908 81.2003
17.33333150794385 82.5915
17.355888317140174 82.4142
17.37846339986244 78.2584
17.401021565958885 71.7163
17.42359800851343 65.4339
17.44617513265564 61.1272
17.468735341390783 58.5916
17.491261035594565 57.2654
17.51396340099364 56.8344
17.536490463869136 56.9765
17.559018209820174 56.9488
17.58154663977963 56.8631
17.604251766089718 57.056999999999995
17.626781572227713 57.4694
17.64931206518155 57.474
17.671843245885103 57.6936
17.69455114821572 57.869
17.717083712612634 58.5801
17.739616967569667 59.0841
17.762150914021706 59.878
17.78486160749854 60.257
17.807396945166804 60.4283
17.829932977143503 60.9451
17.85246970436452 61.5985
17.875183204129467 63.1856
17.897721330097664 65.8974
17.920260154126645 68.9455
17.942799677153296 72.2697
17.9655159983646 75.9531
17.988056927677544 80.7502
18.010598558807683 87.4603
18.033140892692916 96.4083
18.05586005052525 108.07
18.07840379824407 120.139
18.10094825154059 131.998
18.12366954819864 141.745
18.146215420998306 143.993
18.16876200220057 137.52100000000002
18.191309292745153 123.682
18.214033452627167 108.835
18.236582170236648 95.7213
18.259131600016456 87.9518
18.281681742907335 85.3658
18.304408781233683 88.3775
18.32696035875955 93.3846
18.349512652227624 98.6794
18.372065662579683 104.44200000000001
18.394795594587553 106.743
18.41735004715306 104.288
18.43990521943684 97.78200000000001
18.46246111238171 89.0789
18.485193953325208 79.2204
18.507751296070428 71.1362
18.530309362314178 65.5346
18.552868153000343 62.6008
18.57560391815056 61.113
18.59816416623245 60.6009
18.620725141597372 59.831
18.643286845190268 59.1306
18.666025549835414 58.6256
18.688588718427933 57.9348
18.711152618092243 57.883
18.73389353884365 57.5505
18.75645890921984 57.1403
18.77902501351406 56.8809
18.801591852673102 56.9945
18.824335739722738 56.1495
18.846904057212626 56.2842
18.8694731124168 55.8552
18.89204290628315 55.9386
18.914789774966803 55.3916
18.937361054791623 55.2495
18.959933076131318 55.1115
18.982505839934877 55.184
19.00525570560582 55.088
19.027829963004184 54.7801
19.05040496572238 55.0294
19.072980714710468 54.8708
19.095733592739563 54.7519
19.11831084296757 54.8751
19.140888842324735 55.4927
19.16346759176222 55.9388
19.18622349753803 56.6589
19.208803755869358 57.5893
19.231384767143577 58.8519
19.253966532312948 59.9859
19.276725481241822 62.3101
19.29930876296784 65.1166
19.3218928014549 68.6159
19.34465404436217 71.7897
19.36723960516257 74.664
19.389825925592426 75.8943
19.412413006605938 75.2096
19.43517731967805 72.3027
19.457765930683355 67.8015
19.48035530514408 63.0662
19.50294544401556 59.2983
19.525712842708348 56.1731
19.54830451925909 54.0586
19.570896963095727 52.8405
19.593490175174704 52.2488
19.616260674962184 51.983000000000004
19.638855432416964 51.751999999999995
19.661450960992624 52.0211
19.68404726164677 51.8234
19.706820878021247 51.497
19.729418731756834 51.8505
19.752017360452857 51.4252
19.77461676506804 51.5268
19.797393513540218 51.5406
19.819994478951667 51.669
19.84259622316767 52.3142
19.8651987471481 52.8037
19.887978643247177 53.2772
19.91058273574792 53.7279
19.933187610901943 54.5458
19.955969879466828 55.662
19.97857632894404 57.0867
20.00118356396599 58.494
20.023791585494575 60.2707
20.046577028914875 63.4126
20.069186632506966 66.1852
20.091797025500632 68.7044
20.114408208858933 70.1135
20.137196842715273 70.3491
20.159809615886765 68.8398
20.18242318232135 66.2354
20.20503754298326 63.6597
20.227829382875154 62.0017
20.250445341109344 61.4258
20.27306209647285 61.9355
20.29567964993108 63.1866
20.31847471147704 64.1429
20.34109387027612 65.4331
20.363713830075454 65.2567
20.386334591841646 64.1734
20.409132890679302 61.2921
20.431755265564437 57.8927
20.454378445325528 55.0869
20.477002430930366 52.6094
20.499803982716553 50.9605
20.522429589228004 49.888000000000005
20.54505600449589 49.1424
20.567683229489194 48.8443
20.590488049900088 48.7058
20.61311690359731 48.55
20.63574656993626 48.5142
20.658553853717297 48.2459
20.681185154618298 48.113
20.703817271080066 48.031000000000006
20.72645020407368 47.728
20.749260783967177 47.817
20.771895359337133 47.943999999999996
20.794530754161617 47.9583
20.817166969412938 47.816
20.83998086114876 47.8599
20.86261872660049 47.4108
20.885257415405402 47.2471
20.90789692853701 47.104
20.930714147864748 47.0687
20.953355319030678 47.0648
20.97599731745334 47.1966
20.99864014410749 46.9142
21.021460706796564 47.1624
21.044105199328826 47.3618
21.06675052302631 47.3579
21.089396678865015 47.5766
21.112220600704806 47.8091
21.134868430275347 48.2614
21.15751709492456 48.5029
21.180166595629693 48.8566
21.202993892429635 49.3276
21.22564507473034 49.9046
21.24829709602816 50.3282
21.27112693608965 50.5597
21.293780644891275 50.577
21.316435195634053 49.8776
21.339090589297417 48.9609
21.361923832041875 48.4007
21.384580921090404 47.5834
21.407238856007325 47.1124
21.429897637773326 47.1614
21.45273429906592 47.0605
21.475394784108598 47.1081
21.498056118951983 47.0002
21.520718304578022 47.1668
21.543558400304388 47.4625
21.566222297108816 47.5338
21.58888704765135 47.381
21.61155265291521 47.6405
21.63439619898156 48.0914
21.657063523335786 48.5867
21.67973170537063 49.0976
21.7024007460706 49.8159
21.72524775840385 50.5797
21.747918526116475 51.4516
21.770590155457388 52.4055
21.79326264741238 53.7821
21.816113141960237 55.4189
21.838787368860547 57.5793
21.861462461341976 60.0353
21.884315579735777 62.4607
21.90699241312273 64.4724
21.92967011506078 65.1079
21.95234868653799 64.9306
21.9752053151131 63.8638
21.997885635446785 61.9644
22.020566828293532 59.696999999999996
22.04324889464272 57.7882
22.066109049404666 56.1556
22.088792872571794 55.7636
22.111477572219204 55.7535
22.1341631493376 55.9518
22.157026846313123 55.8487
22.179714188221507 55.3651
22.202402410582668 54.1328
22.22509151438863 52.5094
22.24795876962584 50.9601
22.270649646204486 49.7654
22.293341407213727 49.0718
22.316034053646906 48.482
22.338904883215342 47.7844
22.36159931041458 47.6248
22.38429462602756 47.5401
22.40699083104897 47.224
22.429865251039757 47.3192
22.452563244831367 47.4274
22.47526213102522 47.2564
22.49813925616515 47.1503
22.520839937143307 47.1619
22.543541513520587 47.2399
22.56624398629403 47.1217
22.589124730075895 47.1361
22.611829005656723 47.3677
22.63453418063466 47.3086
22.657240256008077 47.4043
22.680124634582935 47.5888
22.70283252079775 48.0939
22.725541310413075 48.4393
22.74825100442868 48.6957
22.771139033969575 49.2549
22.79385054687155 49.5082
22.81656296718292 50.0462
22.83927629590484 50.8659
22.862167992606945 51.7373
22.88488314827121 52.9449
22.907599215359284 54.1529
22.93031619487366 55.5452
22.953211574954405 56.6536
22.975930389478226 57.4967
22.998650119445763 57.9007
23.02137076586092 57.263000000000005
23.044269845560063 56.1287
23.06699233506288 54.4464
23.089715744034912 52.5821
23.112617610931565 50.9374
23.135342869061212 49.4887
23.158069049684816 48.3544
23.1807961538087 47.9208
23.20370174880544 47.6237
23.226430710184808 47.4447
23.249160598093425 47.5159
23.271891413539002 47.516999999999996
23.294800752937697 47.5385
23.31753343374794 48.0688
23.340267045128353 48.2741
23.36300158808808 48.8147
23.38591468821339 49.045
23.408651104658304 49.4399
23.431388455719986 50.0569
23.454126742409 50.9213
23.4770436196085 51.8047
23.499783787914662 53.0163
23.522524894889884 54.3153
23.54526694154616 55.5741
23.56818761219047 57.0502
23.59093154860734 57.787
23.613676427751283 58.4568
23.636422250635754 57.8007
23.659346731118656 56.3331
23.68209445191868 54.4241
23.704843119509587 51.9591
23.72759273490623 49.871
23.750521041644767 48.0685
23.77327256312355 46.6745
23.796025035462787 45.8667
23.818956224555475 45.2889
23.841710609113413 45.0608
23.86446594758979 44.7098
23.887222241002014 44.4757
23.910157285144578 44.1201
23.932915498962537 44.2015
23.955674670778713 44.0905
23.978434801611975 43.7346
24.001373717286125 43.6109
24.024135776723917 43.4936
24.046898798245582 43.3738
24.06966278287146 43.2905
24.092605586582614 42.983999999999995
24.115371508023642 42.8992
24.1381383956401 42.8233
24.16090625045381 42.7153
24.183852958731244 42.6245
24.206622758582608 42.5752
24.229393528706886 42.4037
24.252165270127392 42.4063
24.27511589952438 42.3872
24.297889594216997 42.2642
24.32066426328598 42.0458
24.34343990775613 42.0398
24.36639447485003 42.0126
24.38917208083877 42.0436
24.41195066531332 41.9306
24.43490819850244 41.9629
24.457688750692377 41.7704
24.48047028445616 41.7361
24.503252800821233 41.9298
24.526214300784112 42.0334
24.548998793132213 42.1537
24.57178427117417 41.9367
24.59457073593893 41.9822
24.617536219319863 42.0212
24.64032466834748 42.0072
24.663114107195035 41.887
24.685904536893013 41.6104
24.708874020360852 41.45399999999999
24.731666442613744 41.357
24.754459858818787 41.2552
24.777254270007962 41.1098
24.80022777025625 41.1316
24.82302418230472 41.058
24.845821592443674 41.0036
24.86862000170663 41.1014
24.891597535453727 41.0452
24.914397953892728 41.2274
24.93719937456671 41.0878
24.96000179851076 41.3512
24.98298338249997 41.471000000000004
25.00578782394922 41.6612
25.028593271784167 41.8084
25.05157790644186 42.1395
25.07438537804115 42.3699
25.097193859145293 42.7119
25.120003350792075 43.0531
25.142992065061257 43.3813
25.165803588823465 43.6555
25.18861612625217 43.9992
25.211429678386736 43.9745
25.234422489079968 44.0347
25.257238081693636 44.096000000000004
25.280054692141732 44.3616
25.3028723214652 44.2792
25.325869245420463 44.4167
25.348688923599397 44.4925
25.371509623787006 44.3727
25.394331347025812 44.1389
25.41733240110666 43.8212
25.440156181590016 43.2039
25.46298098826268 42.4923
25.48580682216873 41.89
25.50881202326435 41.2409
25.53163992281684 40.679
25.55446885274561 40.4785
25.577298814096377 39.9802
25.600308179121807 39.8703
25.623140214533745 39.8262
25.64597328451537 39.7566
25.66898578564376 39.5815
25.691820936010206 39.5357
25.714657124097695 39.4964
25.737494350954734 39.4336
25.760511045684957 39.4529
25.783350361364224 39.5219
25.806190718969255 39.5515
25.82903211955018 39.6972
25.852053024868923 39.7199
25.874896522722523 39.8079
25.897741066713106 39.6
25.920586657892454 39.838
25.943611790812668 39.9215
25.966459487728237 40.0578
25.989308234998564 40.1049
26.01215803367705 40.3799
26.03518741123814 40.6778
26.05803932412957 40.7663
26.080892291600094 40.8478
26.10374631470478 40.8551
26.12677995397268 41.2049
26.14963609978026 41.1821
26.172493304397875 40.8418
26.19535156888223 40.6989
26.218389486949604 40.2001
26.241249882640123 39.7576
26.26411134137826 39.5669
26.28715248187403 39.559
26.31001607820869 39.2265
26.3328807407756 39.0361
26.35574647063438 39.3077
26.37879191991473 39.2627
26.401659795896734 39.223
26.424528742360263 39.3669
26.447398760366614 39.5969
26.470448535598294 39.6439
26.49332070826805 39.8486
26.516193955675355 40.2783
26.53906827888316 40.4843
26.562122397260108 40.527
26.584998883685063 40.9919
26.607876449110325 41.3295
26.63075509460056 41.5992
26.65381357334404 41.7965
26.67669439061878 41.8841
26.699576291163382 41.8094
26.722459276044212 41.8235
26.745522132402975 41.2819
26.768407297649354 41.1458
26.791293550442003 40.5863
26.814180891848974 40.3682
26.837248143099337 39.9439
26.860137673466657 39.8606
26.88302829566349 39.6786
26.90592001075963 39.569
26.92899167420566 39.3349
26.951885586870763 38.8462
26.974780595655517 38.7702
26.99785558178161 38.5274
27.020752794605112 38.338
27.043651106772522 38.1347
27.06655051935668 38.0868
27.089629948036183 37.8144
27.112531573292053 37.7588
27.135434302194138 37.9431
27.158338135817015 37.806
27.181422024430987 37.8393
27.204328079372566 37.7492
27.22723524226965 37.7066
27.250143514198573 37.7888
27.273231880156334 37.6634
27.296142382065014 37.6852
27.319053996245536 37.5998
27.341966723775965 37.7296
27.365059584515222 37.7853
27.38797455070062 37.8062
27.410890633481237 37.659
27.433807833936918 37.625
27.456905206923906 37.6736
27.47982465472398 37.7089
27.502745223449743 37.8817
27.525666914182825 37.9996
27.548768816912457 37.9278
27.571692763693633 37.8896
27.59461783573812 37.8014
27.617723149491244 37.5184
27.640650484125285 37.3998
27.66357894728264 37.4577
27.686508540048052 37.4486
27.709618414237887 37.2586
27.732550278321757 37.1013
27.755483275279115 37.1168
27.778417406196485 37.0622
27.801531858397514 36.989000000000004
27.824468269376716 37.056
27.847405817586786 37.137
27.870344504116094 37.3332
27.893463551932008 37.3674
27.916404527281053 37.508
27.93934664422563 37.7795
27.962289903855886 37.9268
27.98541356491974 38.1119
28.00835912214229 38.2639
28.03130582533231 38.4886
28.054253675581805 38.7118
28.077381967556104 38.6822
28.100332124185126 38.7194
28.123283431160893 38.5426
28.146235889577238 38.52
28.169368830154156 38.3061
28.192323603752033 38.2018
28.215279532083304 37.8416
28.238415973016764 37.5866
28.261374223145094 37.4317
28.284333631303806 37.2621
28.307294198589954 37.0916
28.330435319167677 36.6781
28.353398217078915 36.3174
28.376362277420153 36.1168
28.39932750129032 35.9271
28.422473319286713 35.6684
28.44544088262495 35.7167
28.468409612800283 35.5564
28.491379510913497 35.3301
28.51453004413313 35.2579
28.53750229057244 35.1427
28.56047570826344 35.0842
28.583450298308804 35.1451
28.606605564586562 34.8843
28.629582511831156 34.9453
28.65256063474956 34.8194
28.675539934446338 34.8921
28.698699951647605 34.7869
28.72168161743193 34.6913
28.74466446331978 34.746
28.767648490417624 34.6664
28.790813276438353 34.602
28.813799678527303 34.5801
28.836787265157085 34.6359
28.859955641890075 34.6615
28.882945610203045 34.742
28.905936766392035 34.6424
28.928929111566863 34.6809
28.952102288520145 34.5705
28.975097024308607 34.3386
28.998092952423807 34.2809
29.021090073977508 34.2515
29.04426806913204 34.1285
29.067267590245258 34.0465
29.090268308143695 33.9464
29.11327022394099 33.7866
29.13645305530891 33.757
29.159457379627167 33.7555
29.18246290519685 33.6238
29.20546963313352 33.6084
29.22865731875826 33.6198
29.25166646419296 33.546
29.27467681535305 33.4973
29.29768837335608 33.4942
29.320880931312562 33.47
29.34389491580634 33.5221
29.366910110507334 33.5256
29.38992651653503 33.5888
29.41312396492981 33.5937
29.436142806456754 33.6245
29.45916286268059 33.4877
29.48236399319994 33.2754
29.50538649169417 33.1442
29.528410208259935 33.1545
29.55143514402014 32.8586
29.574641196749695 32.756
29.597668583816574 32.5865
29.6206971934585 32.385999999999996
29.64372702680042 32.4921
29.666938019934474 32.3714
29.689970313635285 32.1922
29.713003834422636 32.2875
29.73603858342347 32.31
29.759254535188578 32.1505
29.78229175361658 32.0432
29.80533020365064 32.0908
29.82836988641968 32.1738
29.85159081507472 32.0333
29.874632976355343 31.9274
29.89767637376955 32.0684
29.920721008448314 31.8945
29.9439469322847 31.8165
29.96699405457564 31.8982
29.9900424175358 31.8481
30.013092022298157 31.872
30.03632295963995 31.8095
30.059375061131373 31.7329
30.08242840783577 31.8458
30.105483000888153 31.8034
30.128718970092244 31.7068
30.151776069006917 31.7022
30.17483441768648 31.7916
30.198074175317235 31.7542
30.221135036724256 31.6724
30.24419715131772 31.6708
30.267260520236203 31.6488
30.290505341942243 31.6584
30.313571232750228 31.7293
30.336638381310948 31.6507
30.35970678876503 31.6226
30.38295669299435 31.5676
30.40602763151657 31.4954
30.429099832366074 31.4575
30.452173296685572 31.4068
30.47542830191959 31.4459
30.498504306502497 31.3265
30.521581577995562 31.4728
30.544660117543582 31.5389
30.56792024229725 31.56
30.59100133132069 31.4139
30.614083691845494 31.5541
30.637167325018545 31.6481
30.660432587840603 31.6634
30.683518779717886 31.6082
30.70660624769615 31.7364
30.729694992924372 31.7274
30.75296541239743 31.7076
30.77605672557558 31.6364
30.799149319462742 31.6008
30.8224236211637 31.5661
30.845518789950724 31.4081
30.868615242910597 31.3525
30.891712981195973 31.1982
30.91499247215866 31.0833
30.938092794619365 31.146
30.96119440587579 31.0148
30.984297307082752 30.746
31.00758200598383 30.708000000000002
31.030687500658694 30.6173
31.053794288760695 30.5494
31.076902371446767 30.4515
31.100192296997445 30.5236
31.12330298246119 30.5227
31.14641496599209 30.3359
31.169528248749216 30.3027
31.19282341969534 30.3499
31.215939314557186 30.3832
31.239056512134788 30.4115
31.262175013589378 30.3097
31.28547544871168 30.2456
31.30859657161541 30.245
31.331719001892175 30.2606
31.35484274070538 30.4465
31.378148458819545 30.3976
31.401274828443725 30.3133
31.424402510106933 30.3366
31.447712205419993 30.4432
31.470842524931633 30.2959
31.493974159989783 30.276999999999997
31.51710711176168 30.316999999999997
31.54042212308802 30.3184
31.563557722100917 30.326
31.586694641341655 30.0695
31.609832881979628 30.0282
31.63315322823208 29.9573
31.656294125521327 29.7643
31.679436347728515 29.8031
31.70257989602529 29.7387
31.725905596152327 29.666
31.74905181052835 29.6342
31.772199354521323 29.6109
31.79534822930507 29.7002
31.818679302290967 29.6158
31.84183085259981 29.5659
31.864983737233473 29.5801
31.88813795736804 29.5968
31.911474422233013 29.4866
31.934631327356435 29.4966
31.9577895715215 29.6212
31.980949155906522 29.5404
32.004291031706956 29.4467
32.027453310562606 29.3943
32.05061693318573 29.2813
32.07396288236386 29.2118
32.09712920658542 29.2462
32.12029687812702 29.131999999999998
32.14346589817093 29.01
32.166817291729984 28.9766
32.18998902288583 28.9895
32.21316210610336 28.7745
32.23633654256711 28.6973
32.259693399663725 28.6461
32.282870556771144 28.5973
32.30604907069099 28.686999999999998
32.329228942610065 28.5636
32.35259128243769 28.3951
32.375773884550505 28.4036
32.398957848235646 28.406999999999996
32.422143174682176 28.2075
32.445511016471215 28.2385
32.468699082679954 28.2068
32.49188851523011 28.1491
32.51507931531304 28.0982
32.538452678331 28.0924
32.56164622776311 28.0225
32.58484114831493 27.9478
32.60803744118015 27.9867
32.631416344731896 27.980999999999998
32.654615396551876 27.8055
32.67781582427913 27.8813
32.701198898634416 27.7645
32.72440209253756 27.7211
32.747606665947124 27.6834
32.77081262006088 27.5677
32.79420126883317 27.5567
32.81740999876112 27.6071
32.840620112999424 27.503
32.86383161274818 27.4639
32.88722585534586 27.5655
32.91044014056596 27.4661
32.933655814909734 27.4727
32.95687287957963 27.4846
32.98027273544904 27.3952
33.00349259526636 27.274
33.026713849030116 27.3586
33.04993649794511 27.2969
33.073341986570746 27.3426
33.09656744032826 27.3726
33.11979429286444 27.2247
33.14302254538647 27.3052
33.166433686291185 27.2629
33.18966475336992 27.1873
33.212897224069096 27.2417
33.23613109959831 27.1515
33.259547912343415 27.1049
33.2827846121627 27.0579
33.306022720453775 26.9658
33.32926223842861 26.9038
33.352684742614166 26.822
33.37592709463173 26.912
33.399170859982064 26.819000000000003
33.422597648419426 26.7006
33.44584425514446 26.6142
33.46909227885668 26.6565
33.4923417207723 26.5058
33.51577423505344 26.4995
33.539026528130385 26.4297
33.56228024307245 26.3594
33.585535381098246 26.1971
33.60897364093058 26.191999999999997
33.63223163992385 26.1959
33.6554910656699 26.0907
33.678751919389796 26.1341
33.702195944520106 26.013
33.72545966903325 26.1028
33.74872482519663 26.0119
33.771991414233746 26.0455
33.79544122444841 25.9508
33.81871069412428 25.8658
33.84198160035767 25.8438
33.86525394437455 25.8681
33.88870955949969 25.802
33.911984794020626 25.7485
33.93526147001624 25.7216
33.958539588715006 25.7545
33.98200102861669 25.6919
34.0052820477047 25.5223
34.02856451319451 25.5543
34.05203033759056 25.4019
34.07531571090147 25.4482
34.09860253431845 25.3842
34.121890809074316 25.4258
34.145362493118924 25.3696
34.16865368561615 25.3557
34.191946333164054 25.3152
34.21524043699793 25.2646
34.23871800066799 25.2399
34.26201503218366 25.2038
34.28531352370466 25.1468
34.30861347646881 25.0848
34.33209693978188 24.9633
34.3553998301885 24.9033
34.378704185565205 24.8975
34.402010007152356 24.879
34.42549939016683 24.8672
34.44880815937748 24.7557
34.472118398533134 24.7767
34.49543010887669 24.7151
34.51892543169198 24.6798
34.54224009966052 24.7081
34.56555624255917 24.653000000000002
34.58887386163339 24.513
34.61237514439016 24.4565
34.6356957311114 24.4495
34.65901779775809 24.3657
34.68252356662995 24.4014
34.705848608458616 24.3889
34.72917513396849 24.365
34.75250314440949 24.2894
34.77601490857862 24.105999999999998
34.799345904259795 24.14
34.82267838863559 24.238000000000003
34.846012362958525 24.1976
34.869530142679984 24.1661
34.89286711232212 24.0858
34.91620557568269 24.0966
34.93954553401677 24.1157
34.9630693495876 23.9985
34.986412313340814 24.0198
35.00975677584668 23.9727
35.033102738362956 23.8926
35.05663261012228 23.9204
35.0799815881786 23.8567
35.10333207003229 23.783
35.12668405694369 23.8107
35.150220005273056 23.791
35.17357501786656 23.7694
35.19693153931268 23.7663
35.220289570874385 23.7484
35.24383161619786 23.7344
35.267192683604904 23.7244
35.290555264930376 23.615
35.314101899412165 23.5976
35.33746752422433 23.6267
35.36083466676374 23.5739
35.38420332829803 23.6043
35.407756095629054 23.665
35.43112781085063 23.5131
35.45450104888391 23.4885
35.477875810999194 23.5773
35.50143473172161 23.4056
35.52481255774625 23.3887
35.54819191167777 23.4173
35.57157279478914 23.3861
35.595137889488406 23.3447
35.61852184675279 23.2836
35.641907337029984 23.1851
35.665294361595684 23.174
35.68886565090076 23.1417
35.7122557598848 23.1038
35.73564740699838 23.1091
35.759040593519934 22.9648
35.78261809810353 23.0672
35.80601437933051 22.9856
35.829412203814705 22.8907
35.85281157283719 22.8941
35.876395313415884 22.9236
35.8997977874528 22.7724
35.92320180988546 22.7313
35.946790244133936 22.6794
35.97019737933222 22.698
35.993606066789866 22.6921
36.01701630779276 22.645
36.04061101440684 22.587
36.06402437852291 22.5588
36.08743930005611 22.5605
36.1108557802951 22.5139
36.13445678011326 22.5062
36.15787639383515 22.3827
36.18129757014299 22.4559
36.20472031032821 22.3532
36.22832762423364 22.3555
36.25175350829375 22.3358
36.275180960119776 22.2097
36.298609981005924 22.2204
36.32222362992669 22.2261
36.34565580510207 22.1502
36.36908955323448 22.1348
36.39252487562093 22.0071
36.416144880530226 22.0019
36.43958336764275 22.0115
36.463023432914625 22.0609
36.486465077645676 21.9941
36.51009145956204 21.9685
36.53353627947859 21.9298
36.55698268276811 21.9508
36.58043067073321 21.8828
36.60406345072071 21.7328
36.62751462435344 21.8585
36.65096738658405 21.8701
36.67460498210655 21.7495
36.69806093788647 21.7076
36.72151848619297 21.579
36.744977628333636 21.6425
36.76862165890998 21.4991
36.79208400512205 21.5585
36.81554794910557 21.592
36.83901349217101 21.444000000000003
36.862663978991606 21.4336
36.88613273667352 21.3748
36.90960309738324 21.4012
36.933075062434064 21.2536
36.95673202673572 21.2777
36.98020721697122 21.2352
37.003684015502365 21.2049
37.027162423645365 21.1794
37.050825886711465 21.2541
37.07430753063053 21.1203
37.09779078812467 21.0283
37.121275660513014 21.0712
37.144945643673694 21.0335
37.16843376245278 21.0265
37.19192350009803 20.9721
37.215414857931435 20.9793
37.239091382563885 20.9585
37.262585997426164 20.9017
37.28608223645736 20.8049
37.309763684451696 20.7648
37.33326318851098 20.7613
37.356764320726555 20.7112
37.380267082425526 20.7195
37.40395510942588 20.7065
37.42746114683234 20.6767
37.45096881771841 20.6699
37.474478123414166 20.5323
37.49817275092816 20.4617
37.52168534303452 20.5149
37.54519957395567 20.4224
37.568715445024665 20.3735
37.592416694607714 20.3708
37.61593586281424 20.4039
37.63945667518264 20.3699
37.66297913304891 20.2751
37.68668702630454 20.3278
37.710212792059274 20.2253
37.733740207334854 20.2312
37.757269273470364 20.1816
37.780983832050374 20.1385
37.80451621684926 20.1288
37.82805025654007 20.088
37.851585952464795 19.9831
37.8753071980695 19.9597
37.89884622345676 19.9298
37.92238690911902 19.9125
37.94611318753442 19.894000000000002
37.969657210779765 19.8376
37.99320289834801 19.8486
38.016750251586465 19.7957
38.04048325513017 19.6584
38.06403395679343 19.7705
38.087586328183946 19.6839
38.11114037065203 19.6751
38.13488012115898 19.7829
38.1584375229181 19.6241
38.181996599821 19.6298
38.205557353221124 19.5392
38.229303872575656 19.5031
38.2528679961576 19.5643
38.27643380031219 19.5088
38.30000128639589 19.3947
38.32375459653193 19.4379
38.34732546371299 19.4211
38.37089801690786 19.3172
38.39447225747609 19.2597
38.418232380377425 19.2265
38.441810012983396 19.1724
38.46538933705673 19.2448
38.488970353960084 19.2111
38.51273731166058 19.1472
38.536321731567014 19.0903
38.55990784840681 19.0829
38.58367995004091 19.1019
38.60726947812959 19.0982
38.63086070726198 18.9609
38.654453638806274 19.0355
38.678232613930824 18.9178
38.70182896773327 18.8597
38.72542702806741 18.8667
38.7490267963045 18.8171
38.77281266709232 18.8834
38.79641586862214 18.7827
38.8200207821842 18.7996
38.843627409152944 18.807000000000002
38.86742019782782 18.7861
38.891030269149255 18.756
38.914642058016156 18.6584
38.938255565806124 18.6568
38.96205529464307 18.5732
38.98567225787121 18.5748
39.00929094417078 18.5421
39.03291135492255 18.6041
39.05671804624804 18.4933
39.080341923549106 18.4453
39.103967529460334 18.4135
39.127594865365744 18.3404
39.15140854155791 18.313
39.17503935514948 18.3013
39.19867190290282 18.2946
39.22249083587951 18.297
39.24612686969409 18.2815
39.269764641845306 18.1661
39.293404153722804 18.2287
39.317230110864074 18.1267
39.34087311998506 18.1306
39.36451787301696 18.1189
39.388164371352595 18.0332
39.41199737518003 17.9939
39.43564738196752 17.975
39.45929913825317 17.9986
39.48295264543308 17.9264
39.506792718520884 17.8942
39.530449745387216 17.8673
39.55410852735203 17.8004
39.57776906581474 17.8776
39.60161623079 17.811
39.625280300200025 17.7739
39.64894613032202 17.7079
39.67261372255866 17.7224
39.6964680021016 17.6874
39.72013913657293 17.705
39.74381203738292 17.6431
39.76748670593756 17.6844
39.79134812278169 17.6223
39.81502634488497 17.5542
39.83870633896685 17.6028
39.862388106436654 17.5439
39.88625668336918 17.4863
39.90994201572829 17.4908
39.933629125719285 17.4501
39.957503091207826 17.3592
39.9811937746168 17.4159
40.00488623990914 17.352999999999998
40.02858048850006 17.298
40.05246165409549 17.2755
40.076159487492085 17.2011
40.099859108448875 17.3088
40.123560518384345 17.2594
40.1474489070226 17.2107
40.171153913178564 17.118
40.194860712584955 17.1221
40.2185693066637 17.1386
40.242464941335314 17.0821
40.26617714307655 17.0808
40.289891143772046 17.0864
40.3136069448471 17.0776
40.33750984859743 17.0169
40.3612292688043 16.9238
40.3849504936829 16.8822
40.40867352466194 16.8901
40.43258372059144 16.907
40.45631038219906 16.9054
40.48003885420956 16.7717
40.503769138055105 16.8266
40.52768664931955 16.7867
40.55142057531802 16.6848
40.57515631746428 16.7017
40.599079334038514 16.6513
40.62281872700477 16.6519
40.64655994043941 16.6169
40.67030297578061 16.5566
40.69423334835778 16.5758
40.71798004609188 16.5015
40.74172857006355 16.4777
40.76547892171441 16.4816
40.7894166736039 16.469
40.813170699248566 16.4599
40.83692655691388 16.4419
40.86068424804498 16.3985
40.884629402612525 16.3211
40.908390779366385 16.3881
40.932153993938 16.3354
40.95591904777605 16.3156
40.979871628443995 16.3506
41.003640379561936 16.3172
41.02741097430883 16.2037
41.05118341413683 16.2121
41.075143444384416 16.1983
41.098919593177826 16.1547
41.1226975914255 16.1737
41.14647744058318 16.0939
41.170444943946755 16.051
41.19422851378379 16.0383
41.218013938914645 15.8916
41.24198706625173 15.9422
41.26577622087193 15.9088
41.289567235177785 15.8737
41.31336011063129 15.8731
41.337340752422875 15.8564
41.361137369129835 15.8251
41.38493585138705 15.8316
41.40873620066004 15.806
41.43272438060107 15.7749
41.45652848292052 15.7529
41.48033445666918 15.687000000000001
41.50414230331616 15.6574
41.528138045159764 15.6621
41.551949656675205 15.640999999999998
41.575763145513235 15.6206
41.59957851314666 15.5702
41.62358184070442 15.5187
41.64740098505737 15.4805
41.6712220126409 15.4548
41.69504492493139 15.4564
41.71905586207357 15.4048
41.74288256296395 15.3924
41.766711153007456 15.4422
41.79054163368412 15.3317
41.814560204340054 15.3536
41.838394485526365 15.3457
41.86223066180303 15.2873
41.88625497706819 15.2471
41.910094962812 15.247
41.93393684811168 15.2025
41.95778063445365 15.1055
41.981812625263366 15.155
42.00566023303407 15.1126
42.029509746323676 15.0669
42.05336116662236 15.0777
42.077400857069705 15.0679
42.10125611078846 15.0211
42.12511327600405 15.0293
42.14897235421036 15.0218
42.173019768448455 14.96
42.19688269209613 14.8759
42.22074753323349 14.9155
42.24461429335818 14.833
42.268669455600495 14.855
42.292540073217886 14.833
42.31641261433284 14.79
42.34028708044675 14.7417
42.36435001496739 14.7547
42.38822835065557 14.7636
42.41210861586426 14.7033
42.4359908120986 14.6943
42.46006154323262 14.6454
42.48394762115317 14.6353
42.507835634632315 14.6229
42.531912233047436 14.6163
42.55580413732265 14.587
42.579697981698 14.5166
42.60359376768525 14.4915
42.62767820545945 14.5179
42.65157789440821 14.4659
42.67547952952185 14.4304
42.699383112316 14.4206
42.72347541395347 14.3566
42.74738291190531 14.3609
42.771292362102166 14.3646
42.795203766063516 14.2878
42.819303956130405 14.2376
42.843219287476536 14.2404
42.86713657716324 14.2569
42.89105582671383 14.2277
42.91516392983864 14.2238
42.939087119032166 14.1986
42.963012272677304 14.1411
42.98693939230129 14.0823
43.01105543317513 14.0278
43.034986504731386 14.0729
43.05891954686589 14.0561
43.08285456110972 14.0393
43.10697856448665 13.9707
43.130917542983475 13.9531
43.15485849820081 13.9566
43.17880143167367 13.9404
43.20293342237094 13.9012
43.226880332449 13.8278
43.25082922540554 13.8597
43.27496722682525 13.8026
43.29892010567796 13.8151
43.32287497204102 13.8045
43.34683182745632 13.7258
43.370977859791836 13.6694
43.39493871351105 13.7275
43.41890156092628 13.6724
43.44286640358341 13.6894
43.46702049182749 13.6528
43.49098934522816 13.5586
43.51496019852649 13.5339
43.5389330532723 13.5621
43.56309522248204 13.5244
43.58707210044314 13.5204
43.61105098451946 13.4806
43.63503187626491 13.497
43.659202151562134 13.5053
43.68318707902681 13.4051
43.70717401884041 13.4082
43.731162972560874 13.3991
43.75534137913236 13.3575
43.779334381108384 13.3516
43.803329401683186 13.2769
43.82732644241872 13.3442
43.8515130055166 13.318
43.87551410707659 13.2482
43.89951723350145 13.19
43.923709934595614 13.1915
43.94771713129917 13.1623
43.97172635758096 13.1895
43.99573761501002 13.1568
44.0199385169922 13.1052
44.04395385732619 13.0535
44.067971233533086 13.1671
44.09199064718605 13.0878
44.11619977548961 12.9914
44.14022328470671 12.9859
44.16424883610785 12.9818
44.18827643127035 12.9867
44.21249381139513 12.9396
44.236525514814076 12.9196
44.26055926674478 12.9159
44.28459506876863 12.908
44.3088207262813 12.8634
44.33286064928722 12.7779
44.35690262714919 12.7618
44.38094666145278 12.7417
44.4051806219871 12.7963
44.42922879003185 12.7105
44.45327901929361 12.6951
44.477331311362136 12.6772
44.501573600619416 12.6496
44.525630039221795 12.592
44.54968854541895 12.6511
44.573937102200176 12.607000000000001
44.5979997645541 12.5672
44.622064499300315 12.5354
44.64613130803592 12.4732
44.67038823869318 12.5064
44.69445921643748 12.4553
44.718532272981385 12.3985
44.742607409926194 12.3971
44.76687274034801 12.412
44.79095205918753 12.3705
44.81503346325094 12.3876
44.839116954143876 12.3162
44.86339071028742 12.3184
44.88747839599524 12.3264
44.91156817336837 12.2662
44.93566004401666 12.2542
44.959942251908146 12.2619
44.984038330325966 12.2371
45.00813650686762 12.1553
45.03223678314731 12.206
45.05652746888232 12.1957
45.08063196592069 12.1144
45.104738567558705 12.0836
45.128847275414856 12.0801
45.15314646515866 11.995999999999999
45.17725940679741 12.0043
45.20137445952892 11.9738
45.22568004865265 11.9884
45.24979934496396 11.9545
45.27392075725247 11.9544
45.29804428714431 11.936
45.322358426247604 11.8871
45.346486212804315 11.9073
45.370616121861914 11.8895
45.39474815505086 11.8536
45.41907087049246 11.8198
45.4432071734666 11.7762
45.46734560548283 11.8227
45.49148616817604 11.8052
45.51581748638564 11.7605
45.5399623320197 11.7796
45.56410931325473 11.7124
45.58825843173002 11.6988
45.61259837920865 11.6699
45.636751793816 11.6157
45.66090735060093 11.5841
45.68506505120716 11.5466
45.7094136545275 11.5718
45.73357566449271 11.5597
45.75773982322992 11.5621
45.78190613238733 11.4997
45.806263418194064 11.4631
45.83043404997326 11.4725
45.85460683713677 11.4418
45.87897065658495 11.4443
45.90314777634752 11.4122
45.92732705646868 11.3844
45.9515084986045 11.3592
45.97588104735473 11.3523
46.00006683541565 11.3421
46.02425479047904 11.3071
46.04844491420549 11.2889
46.0728262191024 11.2848
46.09702070211635 11.2723
46.12121735879483 11.2455
46.14541619080294 11.2335
46.169806278764455 11.2121
46.194009483459034 11.1844
46.21821486849841 11.1526
46.24242243555223 11.1506
46.266821333570014 11.0881
46.29103328674601 11.1049
46.31524742696538 11.110999999999999
46.33946375590237 11.0302
46.36387149104216 11.0406
46.38809221957392 11.0268
46.41231514186606 11.0103
46.436540259597464 10.9838
46.460956858999374 10.9701
46.48518638983522 10.9119
46.509418121166966 10.8714
46.533652054678114 10.8971
46.55807754555709 10.8305
46.58231590571962 10.8393
46.60655647313217 10.8332
46.630988654873654 10.8074
46.655233659129024 10.8079
46.67948087571551 10.7742
46.70373030632484 10.7556
46.72817142736393 10.7435
46.752425308428684 10.7001
46.77668140861147 10.7096
46.80093972960865 10.6814
46.82538981736788 10.6582
46.849652602470904 10.6743
46.87391761349769 10.6396
46.8981848521493 10.6123
46.9226439341274 10.5968
46.946915650573224 10.5677
46.97118959976749 10.5387
46.99546578341598 10.499
47.019933887188216 10.4941
47.04421456235744 10.495999999999999
47.06849747711879 10.4724
47.09278263318286 10.4094
47.11725978640143 10.4194
47.14154944775105 10.385
47.165841355555656 10.3521
47.1901355115306 10.3402
47.214621741924994 10.36
47.23892041698887 10.3464
47.26322134538975 10.2863
47.28771440635075 10.2516
47.31201986422527 10.3041
47.33632758061436 10.2571
47.360637557241866 10.209
47.38513974410611 10.2219
47.40945426407847 10.1973
47.43377104948137 10.1821
47.45809010204344 10.1369
47.48260144275502 10.13
47.506925052572285 10.1047
47.53125093475548 10.0765
47.55557909103813 10.0796
47.58009961361992 10.0598
47.60443234110732 10.0538
47.62876734791564 10.0228
47.65310463578333 10.0154
47.6776343683373 10.0348
47.7019762413987 9.98741
47.72632040075572 9.92326
47.75066684815169 9.936580000000001
47.77520581885936 9.88767
47.799556865477655 9.8784
47.823910205386 9.92336
47.84826584033272 9.84966
47.87281407745551 9.80204
47.89717432569297 9.82703
47.92153687423484 9.809610000000001
47.94609208429692 9.83804
47.97045925671401 9.785210000000001
47.99482873471275 9.73494
48.01920052005013 9.73216
48.04376504619224 9.69847
48.068141469543484 9.72756
48.09252020552573 9.701030000000001
48.11690125590099 9.69852
48.1414751266064 9.65755
48.16586082917454 9.6435
48.19024885144316 9.62801
48.2146391951793 9.60205
48.239222439012764 9.59452
48.26361744916137 9.58036
48.28801478610016 9.53059
48.31241445160131 9.53095
48.337007097209366 9.557889999999999
48.36141144338331 9.49498
48.38581812345755 9.49525
48.41022713920929 9.481
48.434829215320704 9.44983
48.45924292604658 9.44475
48.48365897780325 9.43971
48.50807737237308 9.4064
48.532688907799276 9.41045
48.55711201168574 9.33682
48.581537463754074 9.356119999999999
48.60615611725119 9.33615
48.63058628942721 9.30445
48.65501881516546 9.274939999999999
48.6794536962573 9.25656
48.70408185970339 9.23057
48.72852147531801 9.21525
48.75296345168211 9.228660000000001
48.77740779059232 9.218689999999999
48.80204549302823 9.21021
48.82649458091802 9.17056
48.85094603676547 9.15896
48.87539986237231 9.137
48.90004713292306 9.11979
48.92450572200832 9.15392
48.94896668628025 9.095939999999999
48.97343002754588 9.06793
48.99808689542115 9.05353
49.02255501470614 9.03693
49.04702551642794 9.02346
49.0714984023988 8.97897
49.096164896893235 8.97338
49.120642575466796 8.96252
49.145122643748394 8.96156
49.16960510355558 8.939919999999999
49.19428125404938 8.92553
49.2187685210852 8.86537
49.243258185121555 8.885810000000001
49.26794160167084 8.82044
49.2924360839405 8.842939999999999
49.31693296869764 8.83137
49.34143225776915 8.7808
49.36612538195438 8.7906
49.39062950396021 8.78035
49.41513603578346 8.73386
49.4396449792564 8.728860000000001
49.46434784069503 8.73135
49.488861631846454 8.7101
49.513377840166804 8.696760000000001
49.537896467493745 8.672880000000001
49.56260909589029 8.64609
49.587132585683285 8.644860000000001
49.611658500018365 8.61908
49.636186840738596 8.605360000000001
49.66090926588511 8.6107
49.685442483902584 8.59417
49.70997813385706 8.527610000000001
49.734516217597076 8.51428
49.75924846937352 8.50188
49.7837914452858 8.54455
49.80833686055187 8.49511
49.83288471702571 8.49119
49.85762682540054 8.51636
49.882179588965734 8.480319999999999
49.9067347993235 8.44036
49.93129245833333 8.415560000000001
49.95604445336378 8.40046
49.98060703442832 8.382769999999999
50.005172069746266 8.383989999999999
50.02993150438364 8.33135
50.05450147301533 8.33758
50.07907390151433 8.29758
50.10364879174981 8.303519999999999
50.12841816587289 8.27977
50.1529980044635 8.291360000000001
50.17758031042124 8.22959
50.20216508562089 8.213330000000001
50.22694442953363 8.24944
50.25153416817468 8.20378
50.27612638170508 8.15852
50.300721072005196 8.142539999999999
50.325510416102105 8.15172
50.350110084975064 8.133939999999999
50.37471223628208 8.161010000000001
50.39931687190919 8.14407
50.424116246675766 8.11784
50.44872587605249 8.08314
50.47333799543065 8.03662
50.49795260670191 8.058019999999999
50.52276204271512 8.03829
50.54738166295838 8.02252
50.57200378079314 8.01212
50.596628398116835 7.986860000000001
50.62144792604559 7.968189999999999
50.646077567609396 7.95078
50.670709714377715 7.950260000000001
50.69553683636198 7.93611
50.72017401885922 7.92223
50.7448137122895 7.91867
50.76945591856022 7.8971800000000005
50.79429318636823 7.8799600000000005
50.818940443716784 7.865469999999999
50.84359021965163 7.83494
50.868242516085964 7.83799
50.893089960641895 7.81807
50.917747323549435 7.76423
50.94240721271973 7.765060000000001
50.96706963007175 7.758710000000001
50.99192728239342 7.7685699999999995
51.01659478166073 7.73809
51.04126481489051 7.7127
51.06593738400761 7.719689999999999
51.090805275207074 7.669739999999999
51.11548294172845 7.63351
51.14016314993547 7.6380300000000005
51.164845901758845 7.65181
51.18972406304274 7.616630000000001
51.21441192780656 7.60375
51.23910234200271 7.5894
51.2637953075678 7.56953
51.288683770237945 7.569939999999999
51.31338186432707 7.56007
51.33808251561888 7.48088
51.362978729967345 7.50356
51.387684521509755 7.499510000000001
51.41239287610203 7.496689999999999
51.437103795691165 7.447080000000001
51.46201036644977 7.44957
51.486726441956634 7.429410000000001
51.51144508832545 7.42789
51.536166307509156 7.44068
51.56108326624387 7.405060000000001
51.58580965706056 7.407189999999999
51.61053862657523 7.37523
51.635270176746864 7.320310000000001
51.66019755512065 7.30232
51.68493429268881 7.3271
51.70967361681515 7.31498
51.73441552946465 7.290089999999999
51.759353359237934 7.27318
51.7841004750961 7.279839999999999
51.80885018539685 7.266889999999999
51.833602492111254 7.2388699999999995
51.8585508051424 7.22435
51.883308330926425 7.19712
51.90806845906181 7.15603
51.932831191525715 7.1513100000000005
51.95779001977161 7.15995
51.98255798721516 7.12685
52.00732856494335 7.137460000000001
52.03229530577543 7.160019999999999
52.057071130455945 7.118639999999999
52.081849571391054 7.08927
52.106630630568695 7.0617
52.13160794279417 7.03503
52.15639426492067 7.056839999999999
52.18118321127822 7.03866
52.205974783860896 6.9870600000000005
52.23096269971011 6.97823
52.255759551287994 6.98365
52.280559035098186 6.95552
52.30536115314103 6.94318
52.33035970494467 6.9513300000000005
52.35516711807904 6.94446
52.37997717147198 6.9046199999999995
52.40478986713005 6.91604
52.42979908731974 6.87449
52.454617094216 6.835960000000001
52.47943774942214 6.828469999999999
52.50426105495102 6.8405
52.529280976059844 6.839169999999999
52.554109609024096 6.841069999999999
52.57894089837482 6.805389999999999
52.60377484613117 6.7740800000000005
52.62880550079408 6.7492399999999995
52.65364479223379 6.703810000000001
52.67848674816189 6.705760000000001
52.70352547971946 6.7066300000000005
52.72837279155837 6.70878
52.753222773982785 6.71318
52.778075429022984 6.708069999999999
52.80312495150885 6.669160000000001
52.827982978797436 6.633610000000001
52.85284368481815 6.63638
52.87770707160767 6.595439999999999
52.90276741793998 6.59797
52.92763619336701 6.59576
52.952507655698504 6.55246
52.977381806977576 6.56199
53.00245301017842 6.574739999999999
53.02733256653592 6.51952
53.052214817996074 6.52514
53.077099766608484 6.50715
53.102181859804446 6.4383099999999995
53.127072229988265 6.464840000000001
53.15196530349892 6.45667
53.17686108239249 6.4395
53.20195409881522 6.42255
53.22685531582556 6.43651
53.25175924441303 6.404
53.27666588664027 6.40077
53.30176985962693 6.39712
53.3266819565689 6.3952800000000005
53.35159677336455 6.3817900000000005
53.376514312083096 6.35002
53.40162927507703 6.32559
53.42655228516116 6.26969
53.45147802340193 6.28116
53.47660125628886 6.28488
53.50153247842639 6.29254
53.52646643496923 6.22579
53.55140312799818 6.2377
53.576537409691696 6.23888
53.60147960336152 6.234430000000001
53.626424539786164 6.25504
53.65137222105307 6.18835
53.67651758529126 6.21253
53.70147078399681 6.170669999999999
53.72642673383343 6.16212
53.75138543689533 6.1325400000000005
53.776541917524526 6.15526
53.801506154876755 6.1129999999999995
53.826473151763246 6.09788
53.851442910284916 6.07801
53.87661054126026 6.05178
53.9015858509782 6.047680000000001
53.92656392866066 6.0423800000000005
53.95154477641532 6.03688
53.976723591801296 6.04387
54.00171000771266 6.03719
54.02669920004598 6.04703
54.051691170915745 5.99148
54.076881204886796 5.9864
54.101878760928514 5.9843
54.12687910187696 5.9227300000000005
54.152077577768296 5.9088
54.1770835166946 5.8737699999999995
54.20209224691339 5.9040099999999995
54.22710377055121 5.8828
54.25231352511594 5.878480000000001
54.27733066384342 5.87491
54.30235060239643 5.85543
54.32737334290836 5.84144
54.35259441062629 5.814080000000001
54.377622783395324 5.80579
54.40265396455061 5.77661
54.42768795623251 5.79718
54.45292037169559 5.70029
54.477960012857906 5.73543
54.50300247099511 5.75063
54.52804774825457 5.6841
54.55329154616743 5.67876
54.57834249018678 5.6761
54.6033962597977 5.62094
54.6284528571545 5.62294
54.653708072335164 5.59504
54.67877035378786 5.56301
54.70383546947698 5.52928
54.72890342156389 5.52764
54.7541700889442 5.47147
54.77924374251975 5.5025900000000005
54.8043202390049 5.50471
54.82959552413022 5.45004
54.8546777351945 5.42574
54.87976279569621 5.39142
54.90485070780914 5.4208099999999995
54.930137506558005 5.387169999999999
54.95523115074295 5.3651800000000005
54.98032765308844 5.33913
55.005427015775496 5.36217
55.03072536339621 5.342890000000001
55.05583047570572 5.3129
55.080938454927676 5.27899
55.10604930325027 5.29076
55.131359235107396 5.26807
55.15647585066083 5.19951
55.181595341907496 5.23022
55.20671771104285 5.17174
55.232039262617704 5.11456
55.25716741665048 5.09969
55.28229845518636 5.099819999999999
55.30743238042802 5.04774
55.33276558731939 5.03734
55.357905315183636 5.02419
55.383047936390035 4.971030000000001
55.40819345314859 4.93244
55.433538351073295 4.97852
55.458689688238415 4.98198
55.483843927614096 4.93586
55.509197623043605 4.9367
55.53435769621134 4.935230000000001
55.55952067826466 4.81476
55.5846865714265 4.81637
55.61005202069737 4.78405
55.63522376553902 4.81114
55.66039842818645 4.79336
55.68557601087004 4.7941
55.7109532500271 4.70708
55.73613670233794 4.721769999999999
