TT I
1.2716486653135266 6.9759
1.2939594142134223 7.3387
1.3162702121660406 6.20035
1.3385810600174564 6.38742
1.3608919586137629 6.689139999999999
1.383202908801069 6.2236400000000005
1.405513911425503 6.10522
1.4278249673332093 6.33789
1.4501343378461518 5.75556
1.4724455028545926 6.03733
1.4947567236847858 5.8999
1.517068001182951 5.72331
1.5393793361953272 5.20982
1.5616907295681737 5.44232
1.5840021821477681 4.8419
1.60631369478041 4.78774
1.6286252683124185 5.4532
1.6509369035901333 4.578790000000001
1.6732468618895553 4.8093900000000005
1.695558623192809 4.53645
1.7178704487808514 4.8476099999999995
1.7401823395001077 4.59105
1.7625012545597203 4.9200099999999996
1.7848028405262486 5.23579
1.8071218901122095 4.83805
1.8294236121921872 4.58966
1.8517427996910911 4.854030000000001
1.8740620574440425 4.50041
1.8963639900671978 4.90561
1.9186833908139995 4.84812
1.9409854680117449 4.960719999999999
1.9633050151394713 4.97274
1.9856246367570705 4.8663300000000005
2.0079269371922672 4.65528
2.03024671027244 4.5088
2.0525491637446027 4.36596
2.074869091674931 4.04405
2.097171701569106 4.57174
2.1194917877373847 5.34558
2.141811954326636 5.45657
2.164114805233074 5.10736
2.186435135143035 6.34985
2.208738150935709 13.6949
2.231058647554722 28.448
2.2533792288321184 22.0876
2.275682498336085 10.6037
2.298003251406138 6.26837
2.3203066942619714 5.99075
2.3426276225136022 5.51713
2.3649486396617507 6.203880000000001
2.387252348930071 6.6549
2.4095735463442893 5.97861
2.4318774374315884 5.64588
2.4541988185014043 6.709510000000001
2.476502894794693 7.25484
2.498824462909887 7.55595
2.521146125856138 7.8369
2.5434504863470337 7.373589999999999
2.5657723414244717 7.6428
2.588076895590662 8.72429
2.610398946189713 8.16463
2.6327210958598384 8.33426
2.6550259469304716 7.938160000000001
2.6773482972090137 8.81423
2.6996533504259 9.37653
2.7219759047039602 8.63456
2.744298562293959 8.69172
2.7666039251246595 8.16962
2.7889267918020164 8.02192
2.8112323652516555 8.47432
2.833555444408179 9.06197
2.8558786311183852 8.60928
2.8781845268938557 8.74215
2.9005079311721484 9.20145
2.9228140460410397 8.93835
2.9451376712799635 9.54526
2.967444008632326 9.78166
2.9897678582247247 10.2107
3.0120918213106695 10.8219
3.0343984987899373 11.6567
3.0567226913198637 11.4445
3.079029599759726 11.8954
3.101354025127254 12.2544
3.123678568232338 14.3785
3.145985829517914 13.7685
3.16831061055229 13.8769
3.1906181112775593 14.6889
3.212943133635653 15.133
3.2352682779763207 15.135
3.2575761442691227 15.6693
3.2799015350264273 15.2009
3.302209649240067 15.8305
3.3245352898092655 16.6841
3.3468436553365257 17.2784
3.369169549113219 18.1437
3.3914955708171384 18.3729
3.413804319727358 19.1659
3.4361305997334863 19.0541
3.4584396084414553 19.4081
3.4807661501462652 20.3132
3.503092824025881 20.9671
3.5254022288463154 20.9093
3.5477291695206588 21.7822
3.5700388426251948 22.5801
3.5923660534916446 23.8402
3.6146934007816114 39.2622
3.637003482731501 88.8662
3.6593311053109985 99.1349
3.681641464033634 57.9275
3.7039693653009733 31.081
3.726297407241705 26.3009
3.7486081875460804 25.3603
3.7709365132734978 25.8516
3.793247578841633 26.3854
3.8155761917550093 26.7032
3.8378875459837216 27.3918
3.8602164494827234 27.6223
3.882545499606844 28.4068
3.9048572932539183 28.4296
3.9271866390645718 28.9642
3.9494987298666713 29.7672
3.971828374764527 30.13
3.9941581705403255 30.6371
4.016470713506008 30.8988
4.038800813471445 31.7319
4.061113662089144 32.0025
4.0834440696459176 32.9944
4.105774632334751 33.2252
4.128087945865126 34.5195
4.150418821249301 35.86
4.172732448931298 36.8951
4.195063640413578 38.4614
4.2173775856475215 42.7915
4.239709096631102 75.4
4.262040768704612 241.93400000000003
4.284355196706267 323.63599999999997
4.306687193387355 211.84
4.329001947444346 82.3296
4.35133427213731 47.8951
4.373666762177566 44.5477
4.395982011761091 43.9426
4.418314834921175 45.2957
4.44063041906622 53.4116
4.4629635787515625 64.3008
4.4852969080429785 64.2632
4.5076130004776225 53.6958
4.529946671403969 49.4417
4.552263106909177 49.2597
4.574597122877047 50.316
4.596931312711224 51.9446
4.619248269273446 52.6271
4.6415828092605835 53.5983
4.663900117405352 54.6225
4.686235010953232 55.5023
4.708552674085913 57.0112
4.730887924602802 58.7392
4.753223354952695 59.9359
4.775541557023902 61.1972
4.797877349456786 62.9512
4.820195915032126 64.44
4.842532072957498 66.273
4.864868414979744 67.862
4.88718753227192 69.7179
4.909524244902505 71.8321
4.931843734218147 73.5769
4.954180820867835 76.2369
4.976518095879839 78.9352
4.998838149695359 81.2815
5.021175803844231 84.2807
5.043496238205739 87.5579
5.065834274903528 91.6216
5.088172504230693 95.3324
5.1104935158799565 100.801
5.132832132875765 121.383
5.155153533596801 163.0
5.1774925416746225 189.924
5.199814334878411 277.313
5.2221537374521505 739.6289999999999
5.244493338631803 2371.29
5.266815727034316 7611.61
5.289155727832427 13479.3
5.311478517248165 9005.05
5.333818921080011 2808.82
5.356159527788849 517.23
5.3784829252032536 171.84900000000002
5.400823940070432 137.096
5.423147747031976 123.59299999999999
5.445489173474152 115.25
5.467830807066149 109.958
5.490155234831516 106.186
5.512497285125229 103.34700000000001
5.534822130975162 101.48200000000001
5.557164601388673 99.3177
5.579489868738879 96.9973
5.601832762690846 96.0772
5.6241758697774475 95.8526
5.646501775867269 94.7607
5.668845311622074 92.9806
5.691171647754637 91.9217
5.713515615597765 91.2791
5.735859800852677 89.7745
5.758186788542988 88.915
5.780531411018185 89.24799999999999
5.802858837297399 88.7143
5.825203900414495 88.5099
5.8475491852224 88.9494
5.869877275883075 89.3008
5.892223006467101 89.8176
5.914551544266608 90.8271
5.936897724049891 92.4605
5.959244129804903 96.3153
5.981573344815301 107.831
6.0039202049061 170.56
6.026249875609095 359.721
6.04859719346037 801.4789999999999
6.070927323278297 2115.77
6.093275102315365 4606.69
6.115623113320588 5374.0
6.137953938319995 3156.05
6.160302415650845 912.352
6.182633708324452 213.45
6.2049826554078376 107.05799999999999
6.227331838745022 89.1488
6.249663839443684 82.1882
6.27201349767565 80.7741
6.294345974611799 87.5345
6.316696111167083 99.0123
6.339046488263839 93.8595
6.361379686074702 78.5501
6.383730546639482 70.8749
6.406064229255215 68.1535
6.428415576718203 67.2512
6.450749747566656 66.0893
6.47310158535871 65.2854
6.495453669698332 64.5632
6.517788579421056 64.0494
6.540141159237969 62.9774
6.562476565766648 62.0713
6.5848296444934045 61.9772
6.607182974060425 61.6988
6.6295191323281015 61.9132
6.651872965955752 66.0168
6.6742096296068985 92.6602
6.6965639707294615 139.964
6.71891856698715 138.658
6.741255995248479 94.7838
6.763611104154477 67.60300000000001
6.785949046381137 59.5546
6.808304671371482 57.5017
6.8306605557940046 57.3369
6.852999275508618 56.4175
6.875355681171544 56.4755
6.897694923437771 56.2093
6.92005185377892 55.7752
6.9423916220322655 55.8356
6.964749080490181 54.7165
6.987106804399774 55.0355
7.009447368180821 55.1884
7.031805625367033 54.6093
7.054146723727803 54.5327
7.076505517631004 54.3114
7.098864581288365 54.3976
7.121206488070854 54.293
7.143566093607822 54.0097
7.165908543567245 54.6791
7.188268694426048 54.6996
7.2106291193438095 54.8844
7.232972390625943 56.6297
7.255333366030969 70.3691
7.277677189091925 126.34299999999999
7.300038718428332 173.49200000000002
7.322400526130865 145.743
7.344745183422596 89.1546
7.367107550224791 61.4892
7.389452767901992 55.9517
7.411815697249891 54.5277
7.434161478756298 53.5187
7.456524974096713 53.894
7.478888753837185 53.6556
7.501235387657368 54.2189
7.523599738562711 53.9968
7.545946944825532 54.4507
7.568311870344528 54.9026
7.5906770845765665 54.7347
7.613025156078678 56.5005
7.635390950099687 57.455
7.657739602662809 56.443000000000005
7.680105979923558 55.4567
7.702472650212829 55.2598
7.724822180948224 55.0937
7.747189439655568 55.2629
7.769539560075357 55.302
7.791907410653562 55.4571
7.81425812420825 55.7213
7.836626570110925 56.0932
7.858995315087906 56.7719
7.881346924933401 56.8355
7.903716270417482 57.6014
7.926068482028405 57.8128
7.948438431475253 58.638000000000005
7.9708086843180235 58.6156
7.993161805171116 59.4048
8.015532667162402 59.8787
8.037886398416653 60.7526
8.060257873014221 60.9125
8.082629655331942 61.8264
8.104984308787587 62.8544
8.127356708900503 66.0347
8.149711981398308 71.851
8.172085002766314 73.9461
8.194458336181368 71.0197
8.216814543847752 68.3324
8.23918850371002 68.1298
8.26154533906492 68.7725
8.283919928836452 70.529
8.306277395339652 71.105
8.328652618483376 72.4986
8.351028159736202 74.1324
8.373386579575245 76.3364
8.395762759396959 78.15100000000001
8.418121819038275 83.0908
8.440498640894003 96.1752
8.462875785192262 109.471
8.485235811156207 116.415
8.507613602688501 142.586
8.529974277114228 213.76
8.552352719347912 330.408
8.574731488360351 579.805
8.59709314210385 1138.12
8.619472567021075 1905.23
8.64183487789147 2279.29
8.664214962183097 1811.58
8.686577933647762 922.577
8.708958680784317 350.89
8.731339760774953 158.22299999999998
8.753703729764451 107.535
8.77608547780821 96.2458
8.798450116065078 93.0061
8.820832535634787 90.2827
8.843215292401656 89.0875
8.865580941199045 87.8658
8.887964374703538 87.1418
8.910330701447199 88.1307
8.932714815164482 90.3536
8.955099270424924 89.7866
8.977466620733543 86.54799999999999
8.999851761421976 83.5164
9.022219798361645 82.2437
9.04460562795561 82.012
9.066991803441677 81.7582
9.089360876979615 81.23100000000001
9.111747746589993 80.5241
9.13411751544971 80.3001
9.156505082664324 80.1226
9.178875550323522 80.2066
9.20126381862328 81.0201
9.223652438908596 81.1481
9.246023961427412 81.176
9.26841328802173 80.33800000000001
9.290785518039224 80.5792
9.313175554425882 81.0028
9.335565947154315 80.6769
9.357939245086508 81.2065
9.380330352834827 81.6182
9.40270436697103 81.4402
9.425096193225055 81.3137
9.447488380180165 82.3859
9.469863475295412 82.5323
9.492256385987508 82.9872
9.514632206018318 83.6196
9.537025843935714 83.9885
9.559402392368193 84.5318
9.581796761000229 85.4189
9.604191496441521 86.5001
9.626569144158516 90.2253
9.648964615551032 94.6608
9.671343000390081 96.1517
9.693739211225699 94.0932
9.716135793237463 91.2637
9.738515290448102 91.2541
9.760912617143402 91.8951
9.783292860202891 92.9564
9.805690935076182 94.4359
9.828089385495742 95.2552
9.850470754023561 97.7216
9.872869957865444 105.47200000000001
9.89525208097539 120.287
9.917652041736662 132.414
9.940052382417589 130.83
9.962435644102392 131.322
9.984836746950979 155.405
10.007220771957746 207.446
10.029622640473708 297.904
10.052007432299963 471.227
10.074410069984072 767.421
10.096813093716005 1266.32
10.119199042482517 1782.09
10.141602840636468 1987.21
10.163989564971628 1514.28
10.186394141051062 832.5239999999999
10.208799107559706 355.523
10.231187001965623 174.07
10.253592751657669 121.314
10.275981430388155 110.471
10.298387966769793 110.697
10.320794897965431 112.96799999999999
10.343184759907361 111.439
10.36559248305461 106.191
10.387983138083852 101.95200000000001
10.410391656691655 102.833
10.432800574501677 110.351
10.455192425893369 123.115
10.47760214443012 147.267
10.499994797678786 190.171
10.522405320453982 272.89599999999996
10.54479877906917 405.19
10.567210109595656 527.632
10.5896218454736 585.447
10.612016518879773 498.62800000000004
10.634429067781074 343.976
10.656824555333241 194.45
10.679237920773568 120.396
10.701651695961992 94.2466
10.724048411481384 87.4265
10.746463008485165 84.8519
10.768860546937125 82.9832
10.791275969274796 81.3644
10.81369180576079 80.6323
10.836090585366925 79.5181
10.858507252467449 78.5457
10.88090686379991 77.5791
10.903324365036394 77.0375
10.925724811614439 76.8683
10.948143150509463 78.0195
10.970561909719066 77.3849
10.992963615930844 75.4549
11.015383218085756 73.5726
11.037785768347074 72.0798
11.06020621697282 71.3754
11.082627090322113 70.9686
11.105030913430326 70.6925
11.12745263854165 71.1146
11.149857314510728 74.9188
11.172279894912576 80.4834
11.194702904450653 81.6282
11.217108866490921 76.9415
11.239532736615194 72.7904
11.26193956033512 70.4889
11.284364294577085 69.0168
11.306789462371718 66.9651
11.329197585398376 65.9452
11.351623622610898 65.6499
11.37403261614354 64.9425
11.396459526308487 64.8809
11.418869393879497 64.3149
11.441297180532617 64.094
11.463725406927658 63.6382
11.486136592353875 63.674
11.508565700543707 64.2783
11.530977768845315 66.1846
11.553407762368774 66.8444
11.575838200059769 66.34100000000001
11.598251599479612 64.3227
11.620682927815501 62.8935
11.64309721895548 62.478
11.665529441478206 62.07
11.687962112597958 61.6812
11.710377748130886 61.9609
11.732811318753434 61.6934
11.755227854859067 61.8115
11.777662328529495 61.6348
11.800079768750786 61.4834
11.822515149015453 61.4137
11.844950984084935 61.4146
11.867369787303163 61.2413
11.889806534289491 61.0114
11.912226250487029 61.0977
11.934663912939751 61.4941
11.9571020346363 61.6649
11.979523127133968 61.6369
12.001962169624331 62.3769
12.024384183972964 62.6252
12.046824150809913 65.1414
12.069264581333726 69.0814
12.091687985297767 75.1167
12.11412934550045 83.745
12.136553680195208 98.3765
12.158995973632788 122.818
12.181438735204349 153.588
12.20386447284199 186.99200000000002
12.226308172985636 205.389
12.24873485024193 197.976
12.271179492516982 161.24
12.293607112949127 123.275
12.316052700916226 95.5286
12.338498763250042 76.8524
12.360927805303868 68.9518
12.383374818673879 65.2883
12.405804812803074 63.2139
12.428252780773262 62.739
12.45070122756722 62.8895
12.473132656675375 63.0995
12.49558206341869 63.1622
12.518014453510101 63.022
12.540464823770117 63.3006
12.562915677315177 63.4837
12.58534951575545 64.2707
12.607801338171472 66.4753
12.630236146511358 71.7471
12.652688941369085 76.5237
12.675124723177234 76.5029
12.697578494048786 72.7568
12.720032754458185 68.4187
12.742470003354093 66.7053
12.764925245138771 66.7235
12.787363476431278 66.5146
12.809819703166806 66.9484
12.83227642391173 67.5152
12.854716135692716 68.1705
12.877173846755147 69.1638
12.899614549869717 69.459
12.9220732548287 70.2233
12.94453245827299 70.4983
12.966974655289818 71.8366
12.989434858002571 72.1544
13.011878055298721 73.0778
13.034339260862497 73.9826
13.056800969391883 74.9255
13.079245674017244 76.7571
13.101708390774869 78.2333
13.12415410463411 83.4441
13.146617833206086 93.4469
13.169064559883248 103.815
13.191529303857127 117.29799999999999
13.213994557076367 138.241
13.236442809902437 174.75099999999998
13.258909083908291 233.003
13.28135835851934 305.306
13.30382565690295 380.349
13.326293469022952 433.551
13.348744283242008 425.815
13.371213125129904 343.70300000000003
13.39366497011003 245.143
13.416134845360597 166.334
13.438605238843131 118.744
13.46105863690397 100.954
13.483530069144786 99.7258
13.505984506951902 103.666
13.528456981549432 112.23700000000001
13.550929978879088 126.569
13.573385983253365 149.376
13.595860028340867 189.52200000000002
13.618317081455832 247.292
13.64079217790333 311.056
13.663250283359057 359.541
13.685726434770173 373.805
13.708203115221277 327.08799999999997
13.730662806148091 249.185
13.75314054697177 175.46
13.775601299246777 123.18799999999999
13.798080104050406 94.4225
13.820559442405358 83.3312
13.843021793671388 79.8779
13.865502201420897 78.3147
13.887965623051947 77.8374
13.910447103807167 76.6068
13.932929122629764 75.568
13.955394156785959 75.2384
13.977877254034569 74.3009
14.000343367582113 73.4123
14.022827546871707 72.8923
14.045294743423524 72.2689
14.06778000837062 71.294
14.090265817715476 71.4231
14.112734645763819 71.1169
14.13522154619454 70.7149
14.157691466286913 70.6071
14.180179461423874 70.4126
14.202668005486178 69.8996
14.22513957064374 69.0991
14.247629214846473 68.7939
14.270101881097517 68.7991
14.29259262906496 69.0486
14.315083930490205 69.8997
14.337558255389705 70.0408
14.360050666019726 69.8205
14.382526101071944 68.7707
14.405019624534942 67.8692
14.427513705993134 67.3854
14.449990813291825 67.3493
14.47248601302899 67.1616
14.49496423954951 67.1408
14.517460561197822 67.5766
14.539939910570322 67.2934
14.562437357763558 67.4858
14.58493536931253 68.6792
14.607416409993311 69.848
14.62991555254159 70.3633
14.652397725157423 69.9666
14.674898002342799 69.2398
14.697398848433282 68.6602
14.719882725991326 69.1715
14.74238471217934 69.6971
14.764869730765593 72.2352
14.787372860692983 74.8922
14.809876564079925 78.9171
14.83236330125751 83.9693
14.854868153850365 91.9063
14.877356041159485 105.691
14.899862046604186 124.775
14.922351087688757 151.69899999999998
14.944858249632887 184.37599999999998
14.967365991421232 213.078
14.989856770231246 228.445
15.012365673994204 217.425
15.03485761569738 183.595
15.05736768508665 145.486
15.07987833888692 110.539
15.102372032001655 87.5964
15.124883856909658 75.1831
15.14737872204565 70.86
15.169891721717274 69.1782
15.192405310371893 68.8399
15.214901940621196 69.3343
15.237416709527137 69.3528
15.259914520936249 69.4245
15.282430473753607 68.7413
15.304947020131227 67.6526
15.327446610371178 66.566
15.349964346154254 65.7163
15.372465126703139 65.1616
15.394984055556009 65.1028
15.417486030076159 64.831
15.44000615566487 64.6955
15.462526881230803 64.5932
15.485030653812652 64.8273
15.507552581617434 64.9689
15.530057557334603 64.7339
15.55258069104857 64.6835
15.575104429329837 64.7975
15.597611216864632 64.3441
15.620136166564563 64.1134
15.6426441664095 64.7468
15.665170331202765 66.3251
15.687697105158826 68.9772
15.710206930593545 71.9216
15.732734925158933 75.646
15.755245972089478 81.4841
15.77777519094324 90.7103
15.800287463046663 103.723
15.822817909869592 124.344
15.84534897229804 148.769
15.867863089299354 174.916
15.890395385222186 192.15900000000002
15.912910736597423 197.299
15.935444269699861 180.84799999999998
15.957978423016485 149.911
15.980495633101265 118.965
16.003031029129367 93.6035
16.02554948280019 75.6575
16.048086125229432 66.8845
16.070623392487107 64.0812
16.09314371869582 63.198
16.11568223789321 62.3047
16.13820381691126 60.9181
16.160743591742527 60.2863
16.183283996022084 59.3475
16.205807461423195 58.3144
16.228349126881973 57.8529
16.25087385432698 57.8071
16.27341678466365 57.1341
16.29594277784926 57.2856
16.31848697676433 57.5316
16.341031811604868 57.687
16.36355971058487 58.0362
16.3861058195587 57.6781
16.40863499352978 56.6263
16.431182380342005 55.573
16.453730407713202 55.0708
16.476261501364792 54.5857
16.498810812136167 54.2469
16.52134319004079 54.6312
16.54389378792203 54.4572
16.566445031001553 54.1891
16.588979342490088 54.0797
16.61153187824822 53.728
16.634067483263312 53.6255
16.656621315414416 53.6075
16.679175797408888 53.4147
16.701713349928728 53.2902
16.72426913389191 53.6756
16.74680798922351 53.926
16.76936507887444 54.0424
16.791905240734874 53.8866
16.814463639794468 53.7126
16.837022695210294 53.5755
16.859564824093756 53.9762
16.882125194503903 54.652
16.904668639217885 55.453
16.927230328348003 55.5512
16.949792678493612 55.6605
16.972338104193863 54.9694
16.994901778652235 54.6518
17.017448529496576 54.5605
17.040013531998152 54.4125
17.06257920018044 54.8118
17.0851279459922 55.5047
17.107694947817667 56.1825
17.130245028099072 56.9135
17.15281336730298 58.3108
17.17536478578733 59.6996
17.19793446610687 61.8954
17.220504818648422 64.9733
17.243058251703697 68.7357
17.265629950971032 73.6396
17.288184731571736 78.5554
17.310757781306908 82.1291
17.33333150794385 82.5438
17.355888317140174 80.0568
17.37846339986244 74.8172
17.401021565958885 68.6697
17.42359800851343 63.9431
17.44617513265564 60.6681
17.468735341390783 58.7391
17.491261035594565 58.1223
17.51396340099364 57.6258
17.536490463869136 57.7904
17.559018209820174 57.908
17.58154663977963 57.9066
17.604251766089718 57.839
17.626781572227713 58.1788
17.64931206518155 58.4705
17.671843245885103 59.1307
17.69455114821572 59.2463
17.717083712612634 59.458999999999996
17.739616967569667 59.5839
17.762150914021706 59.7838
17.78486160749854 59.8647
17.807396945166804 60.2263
17.829932977143503 60.8813
17.85246970436452 62.1042
17.875183204129467 63.7413
17.897721330097664 65.6941
17.920260154126645 67.8254
17.942799677153296 70.5927
17.9655159983646 74.1775
17.988056927677544 79.5196
18.010598558807683 87.2646
18.033140892692916 98.2096
18.05586005052525 110.402
18.07840379824407 122.77799999999999
18.10094825154059 132.056
18.12366954819864 137.503
18.146215420998306 134.809
18.16876200220057 124.19200000000001
18.191309292745153 110.934
18.214033452627167 98.4175
18.236582170236648 87.8561
18.259131600016456 83.5138
18.281681742907335 84.2928
18.304408781233683 89.5284
18.32696035875955 95.3493
18.349512652227624 100.27
18.372065662579683 104.79899999999999
18.394795594587553 105.863
18.41735004715306 100.544
18.43990521943684 93.4676
18.46246111238171 84.2499
18.485193953325208 75.0058
18.507751296070428 68.2023
18.530309362314178 64.5121
18.552868153000343 62.3544
18.57560391815056 60.8663
18.59816416623245 60.456
18.620725141597372 59.9618
18.643286845190268 59.3263
18.666025549835414 59.1402
18.688588718427933 58.4271
18.711152618092243 58.4717
18.73389353884365 58.2514
18.75645890921984 57.6814
18.77902501351406 57.6291
18.801591852673102 57.4892
18.824335739722738 56.8746
18.846904057212626 56.8642
18.8694731124168 56.4741
18.89204290628315 56.5712
18.914789774966803 56.1703
18.937361054791623 56.007
18.959933076131318 55.8366
18.982505839934877 55.8306
19.00525570560582 55.8471
19.027829963004184 55.6362
19.05040496572238 55.6871
19.072980714710468 55.5624
19.095733592739563 55.5742
19.11831084296757 55.8833
19.140888842324735 56.4062
19.16346759176222 56.5178
19.18622349753803 57.0568
19.208803755869358 57.8958
19.231384767143577 58.9883
19.253966532312948 60.6971
19.276725481241822 62.8933
19.29930876296784 65.5005
19.3218928014549 69.0056
19.34465404436217 71.9279
19.36723960516257 74.7913
19.389825925592426 75.0827
19.412413006605938 73.632
19.43517731967805 69.7182
19.457765930683355 65.8193
19.48035530514408 61.1835
19.50294544401556 57.8182
19.525712842708348 55.3371
19.54830451925909 53.9782
19.570896963095727 53.0203
19.593490175174704 52.847
19.616260674962184 52.6847
19.638855432416964 52.4173
19.661450960992624 52.742
19.68404726164677 52.4666
19.706820878021247 52.2277
19.729418731756834 52.4533
19.752017360452857 52.0774
19.77461676506804 52.3285
19.797393513540218 52.3755
19.819994478951667 52.643
19.84259622316767 53.0684
19.8651987471481 53.6047
19.887978643247177 53.6976
19.91058273574792 54.1266
19.933187610901943 54.833999999999996
19.955969879466828 55.8482
19.97857632894404 57.4883
20.00118356396599 59.0945
20.023791585494575 61.3688
20.046577028914875 64.4139
20.069186632506966 66.788
20.091797025500632 68.4185
20.114408208858933 68.6698
20.137196842715273 67.7555
20.159809615886765 66.074
20.18242318232135 63.5793
20.20503754298326 61.9709
20.227829382875154 61.0313
20.250445341109344 61.0753
20.27306209647285 62.1403
20.29567964993108 63.2838
20.31847471147704 64.2814
20.34109387027612 65.0239
20.363713830075454 64.4346
20.386334591841646 62.3149
20.409132890679302 59.6473
20.431755265564437 56.8957
20.454378445325528 53.9886
20.477002430930366 52.3434
20.499803982716553 51.2606
20.522429589228004 50.4431
20.54505600449589 50.0387
20.567683229489194 49.9051
20.590488049900088 49.6677
20.61311690359731 49.3973
20.63574656993626 49.1301
20.658553853717297 48.5537
20.681185154618298 48.5808
20.703817271080066 48.5839
20.72645020407368 48.2536
20.749260783967177 48.1037
20.771895359337133 47.9915
20.794530754161617 47.9468
20.817166969412938 47.8597
20.83998086114876 47.861999999999995
20.86261872660049 47.5904
20.885257415405402 47.6517
20.90789692853701 47.5786
20.930714147864748 47.6382
20.953355319030678 47.7003
20.97599731745334 47.6532
20.99864014410749 47.3067
21.021460706796564 47.3902
21.044105199328826 47.6825
21.06675052302631 47.8773
21.089396678865015 48.042
21.112220600704806 48.4035
21.134868430275347 48.7055
21.15751709492456 49.1413
21.180166595629693 49.4192
21.202993892429635 50.0277
21.22564507473034 50.3535
21.24829709602816 50.6286
21.27112693608965 50.4283
21.293780644891275 50.0872
21.316435195634053 49.588
21.339090589297417 48.8765
21.361923832041875 48.3814
21.384580921090404 47.9475
21.407238856007325 47.4031
21.429897637773326 47.5001
21.45273429906592 47.4216
21.475394784108598 47.2704
21.498056118951983 47.2809
21.520718304578022 47.4066
21.543558400304388 47.4831
21.566222297108816 47.7227
21.58888704765135 47.7324
21.61155265291521 47.8568
21.63439619898156 48.4204
21.657063523335786 48.5173
21.67973170537063 49.012
21.7024007460706 49.3903
21.72524775840385 50.3312
21.747918526116475 51.318999999999996
21.770590155457388 52.4811
21.79326264741238 54.2406
21.816113141960237 56.1545
21.838787368860547 58.096000000000004
21.861462461341976 60.1157
21.884315579735777 62.0196
21.90699241312273 63.0978
21.92967011506078 63.3666
21.95234868653799 62.6578
21.9752053151131 61.5099
21.997885635446785 59.5234
22.020566828293532 57.9317
22.04324889464272 56.5778
22.066109049404666 55.4696
22.088792872571794 55.1924
22.111477572219204 54.9793
22.1341631493376 55.005
22.157026846313123 54.8171
22.179714188221507 53.8837
22.202402410582668 52.8934
22.22509151438863 51.4982
22.24795876962584 50.3265
22.270649646204486 49.3673
22.293341407213727 48.9454
22.316034053646906 48.3005
22.338904883215342 48.013000000000005
22.36159931041458 48.1199
22.38429462602756 47.9257
22.40699083104897 47.8252
22.429865251039757 47.88399999999999
22.452563244831367 47.9295
22.47526213102522 47.9076
22.49813925616515 47.8237
22.520839937143307 47.603
22.543541513520587 47.6704
22.56624398629403 47.5199
22.589124730075895 47.4374
22.611829005656723 47.6272
22.63453418063466 47.5286
22.657240256008077 47.6789
22.680124634582935 47.9344
22.70283252079775 48.0705
22.725541310413075 48.2016
22.74825100442868 48.3987
22.771139033969575 48.9717
22.79385054687155 49.2538
22.81656296718292 49.7382
22.83927629590484 50.7397
22.862167992606945 51.7317
22.88488314827121 53.1938
22.907599215359284 54.3436
22.93031619487366 55.4273
22.953211574954405 56.3875
22.975930389478226 57.016000000000005
22.998650119445763 57.0632
23.02137076586092 56.1038
23.044269845560063 54.6433
23.06699233506288 53.2773
23.089715744034912 51.3937
23.112617610931565 49.7785
23.135342869061212 48.7136
23.158069049684816 48.1653
23.1807961538087 47.8672
23.20370174880544 47.7117
23.226430710184808 47.6812
23.249160598093425 47.766000000000005
23.271891413539002 47.7225
23.294800752937697 47.7432
23.31753343374794 47.6683
23.340267045128353 47.7239
23.36300158808808 48.3203
23.38591468821339 48.4597
23.408651104658304 48.8381
23.431388455719986 49.5507
23.454126742409 50.4301
23.4770436196085 51.6242
23.499783787914662 52.9659
23.522524894889884 54.1249
23.54526694154616 55.2832
23.56818761219047 56.4386
23.59093154860734 56.7088
23.613676427751283 56.7913
23.636422250635754 55.908
23.659346731118656 54.1251
23.68209445191868 52.6043
23.704843119509587 50.373000000000005
23.72759273490623 48.6287
23.750521041644767 47.2621
23.77327256312355 46.5224
23.796025035462787 45.8295
23.818956224555475 45.2288
23.841710609113413 45.0679
23.86446594758979 44.824
23.887222241002014 44.6541
23.910157285144578 44.2832
23.932915498962537 44.2088
23.955674670778713 44.2026
23.978434801611975 43.9021
24.001373717286125 43.868
24.024135776723917 43.739
24.046898798245582 43.6706
24.06966278287146 43.5915
24.092605586582614 43.3221
24.115371508023642 43.1961
24.1381383956401 43.1483
24.16090625045381 43.2006
24.183852958731244 43.0971
24.206622758582608 43.0901
24.229393528706886 42.6987
24.252165270127392 42.7801
24.27511589952438 42.7548
24.297889594216997 42.628
24.32066426328598 42.4824
24.34343990775613 42.4355
24.36639447485003 42.2718
24.38917208083877 42.2926
24.41195066531332 42.1726
24.43490819850244 42.3733
24.457688750692377 42.0621
24.48047028445616 42.1235
24.503252800821233 42.1801
24.526214300784112 42.1894
24.548998793132213 42.2912
24.57178427117417 42.1972
24.59457073593893 42.0436
24.617536219319863 42.1107
24.64032466834748 42.0469
24.663114107195035 41.8766
24.685904536893013 41.6085
24.708874020360852 41.651
24.731666442613744 41.5322
24.754459858818787 41.5713
24.777254270007962 41.4984
24.80022777025625 41.3721
24.82302418230472 41.4519
24.845821592443674 41.2552
24.86862000170663 41.2049
24.891597535453727 41.0218
24.914397953892728 41.4392
24.93719937456671 41.3483
24.96000179851076 41.4862
24.98298338249997 41.5939
25.00578782394922 42.0146
25.028593271784167 41.9872
25.05157790644186 42.354
25.07438537804115 42.5126
25.097193859145293 42.6572
25.120003350792075 42.9304
25.142992065061257 43.2006
25.165803588823465 43.4946
25.18861612625217 43.6744
25.211429678386736 43.6758
25.234422489079968 43.8223
25.257238081693636 44.0214
25.280054692141732 44.1363
25.3028723214652 44.1891
25.325869245420463 44.1685
25.348688923599397 44.2524
25.371509623787006 44.0461
25.394331347025812 43.7287
25.41733240110666 43.1359
25.440156181590016 42.4546
25.46298098826268 42.07899999999999
25.48580682216873 41.4722
25.50881202326435 40.8863
25.53163992281684 40.6168
25.55446885274561 40.4406
25.577298814096377 40.1119
25.600308179121807 39.9731
25.623140214533745 40.0902
25.64597328451537 39.9629
25.66898578564376 39.7705
25.691820936010206 39.847
25.714657124097695 39.7924
25.737494350954734 39.6735
25.760511045684957 39.6087
25.783350361364224 39.8152
25.806190718969255 39.7552
25.82903211955018 39.795
25.852053024868923 39.8349
25.874896522722523 39.8188
25.897741066713106 39.841
25.920586657892454 39.7695
25.943611790812668 40.0167
25.966459487728237 40.1831
25.989308234998564 40.2008
26.01215803367705 40.5254
26.03518741123814 40.6971
26.05803932412957 40.9172
26.080892291600094 40.7492
26.10374631470478 40.775
26.12677995397268 40.9797
26.14963609978026 40.9506
26.172493304397875 40.4341
26.19535156888223 40.1974
26.218389486949604 39.9512
26.241249882640123 39.6741
26.26411134137826 39.347
26.28715248187403 39.5437
26.31001607820869 39.3229
26.3328807407756 39.0198
26.35574647063438 39.2722
26.37879191991473 39.3018
26.401659795896734 39.2589
26.424528742360263 39.3301
26.447398760366614 39.552
26.470448535598294 39.7316
26.49332070826805 39.9225
26.516193955675355 40.3304
26.53906827888316 40.4137
26.562122397260108 40.6435
26.584998883685063 40.9819
26.607876449110325 41.1184
26.63075509460056 41.4038
26.65381357334404 41.5244
26.67669439061878 41.3479
26.699576291163382 41.2019
26.722459276044212 41.2043
26.745522132402975 40.799
26.768407297649354 40.512
26.791293550442003 40.2069
26.814180891848974 40.0026
26.837248143099337 39.6975
26.860137673466657 39.6306
26.88302829566349 39.405
26.90592001075963 39.2036
26.92899167420566 39.1202
26.951885586870763 38.8153
26.974780595655517 38.516
26.99785558178161 38.3657
27.020752794605112 38.1913
27.043651106772522 38.1504
27.06655051935668 38.1443
27.089629948036183 37.9753
27.112531573292053 37.8811
27.135434302194138 37.8965
27.158338135817015 37.7694
27.181422024430987 37.8366
27.204328079372566 37.7016
27.22723524226965 37.6489
27.250143514198573 37.7693
27.273231880156334 37.7628
27.296142382065014 37.6198
27.319053996245536 37.5614
27.341966723775965 37.6969
27.365059584515222 37.7267
27.38797455070062 37.7876
27.410890633481237 37.5689
27.433807833936918 37.5901
27.456905206923906 37.7181
27.47982465472398 37.6862
27.502745223449743 37.7703
27.525666914182825 37.8412
27.548768816912457 37.8629
27.571692763693633 37.7146
27.59461783573812 37.6729
27.617723149491244 37.4112
27.640650484125285 37.3687
27.66357894728264 37.4437
27.686508540048052 37.266999999999996
27.709618414237887 37.1729
27.732550278321757 37.1012
27.755483275279115 37.0249
27.778417406196485 37.1338
27.801531858397514 37.1569
27.824468269376716 37.1485
27.847405817586786 36.9932
27.870344504116094 37.0493
27.893463551932008 37.3107
27.916404527281053 37.5777
27.93934664422563 37.6427
27.962289903855886 37.6664
27.98541356491974 37.7677
28.00835912214229 37.9689
28.03130582533231 38.3028
28.054253675581805 38.4241
28.077381967556104 38.2623
28.100332124185126 38.2841
28.123283431160893 38.2407
28.146235889577238 38.1149
28.169368830154156 37.8187
28.192323603752033 37.7493
28.215279532083304 37.4081
28.238415973016764 37.1332
28.261374223145094 37.0075
28.284333631303806 36.8895
28.307294198589954 36.7352
28.330435319167677 36.4089
28.353398217078915 36.1941
28.376362277420153 35.991
28.39932750129032 35.828
28.422473319286713 35.7445
28.44544088262495 35.6445
28.468409612800283 35.4406
28.491379510913497 35.2678
28.51453004413313 35.2238
28.53750229057244 35.2723
28.56047570826344 35.1819
28.583450298308804 35.1766
28.606605564586562 34.9845
28.629582511831156 35.0148
28.65256063474956 34.9673
28.675539934446338 35.1374
28.698699951647605 34.9578
28.72168161743193 34.6905
28.74466446331978 34.7984
28.767648490417624 34.684
28.790813276438353 34.8174
28.813799678527303 34.7205
28.836787265157085 34.7821
28.859955641890075 34.7837
28.882945610203045 34.7264
28.905936766392035 34.626999999999995
28.928929111566863 34.6796
28.952102288520145 34.657
28.975097024308607 34.4593
28.998092952423807 34.2624
29.021090073977508 34.2319
29.04426806913204 34.1751
29.067267590245258 33.941
29.090268308143695 33.9009
29.11327022394099 33.8618
29.13645305530891 33.8187
29.159457379627167 33.648
29.18246290519685 33.7024
29.20546963313352 33.693000000000005
29.22865731875826 33.7907
29.25166646419296 33.7399
29.27467681535305 33.5463
29.29768837335608 33.6453
29.320880931312562 33.4945
29.34389491580634 33.701
29.366910110507334 33.6336
29.38992651653503 33.6047
29.41312396492981 33.6639
29.436142806456754 33.5136
29.45916286268059 33.3726
29.48236399319994 33.2295
29.50538649169417 33.0718
29.528410208259935 33.0456
29.55143514402014 32.9261
29.574641196749695 32.7353
29.597668583816574 32.5471
29.6206971934585 32.6013
29.64372702680042 32.5505
29.666938019934474 32.4891
29.689970313635285 32.2909
29.713003834422636 32.3489
29.73603858342347 32.3661
29.759254535188578 32.3131
29.78229175361658 32.2793
29.80533020365064 32.2276
29.82836988641968 32.1443
29.85159081507472 32.1982
29.874632976355343 32.0594
29.89767637376955 32.1391
29.920721008448314 31.9064
29.9439469322847 31.9228
29.96699405457564 31.8885
29.9900424175358 31.9353
30.013092022298157 31.8161
30.03632295963995 31.7561
30.059375061131373 31.776
30.08242840783577 31.895
30.105483000888153 31.8808
30.128718970092244 31.733
30.151776069006917 31.8787
30.17483441768648 31.781
30.198074175317235 31.8437
30.221135036724256 31.8043
30.24419715131772 31.7152
30.267260520236203 31.6942
30.290505341942243 31.6978
30.313571232750228 31.6492
30.336638381310948 31.6049
30.35970678876503 31.595
30.38295669299435 31.4695
30.40602763151657 31.5381
30.429099832366074 31.4516
30.452173296685572 31.4365
30.47542830191959 31.4358
30.498504306502497 31.3946
30.521581577995562 31.4219
30.544660117543582 31.484
30.56792024229725 31.5581
30.59100133132069 31.5216
30.614083691845494 31.616999999999997
30.637167325018545 31.615
30.660432587840603 31.6051
30.683518779717886 31.5064
30.70660624769615 31.6683
30.729694992924372 31.570999999999998
30.75296541239743 31.6008
30.77605672557558 31.5765
30.799149319462742 31.4691
30.8224236211637 31.3434
30.845518789950724 31.281
30.868615242910597 31.253
30.891712981195973 31.0629
30.91499247215866 30.9579
30.938092794619365 30.9785
30.96119440587579 30.9535
30.984297307082752 30.7224
31.00758200598383 30.6256
31.030687500658694 30.643
31.053794288760695 30.5115
31.076902371446767 30.3829
31.100192296997445 30.4904
31.12330298246119 30.3904
31.14641496599209 30.4094
31.169528248749216 30.3748
31.19282341969534 30.2862
31.215939314557186 30.3769
31.239056512134788 30.3293
31.262175013589378 30.3076
31.28547544871168 30.2924
31.30859657161541 30.1776
31.331719001892175 30.2734
31.35484274070538 30.4066
31.378148458819545 30.4194
31.401274828443725 30.3484
31.424402510106933 30.2783
31.447712205419993 30.3166
31.470842524931633 30.2284
31.493974159989783 30.2249
31.51710711176168 30.180999999999997
31.54042212308802 30.2036
31.563557722100917 30.1648
31.586694641341655 29.9798
31.609832881979628 29.8849
31.63315322823208 29.9249
31.656294125521327 29.8194
31.679436347728515 29.7057
31.70257989602529 29.605
31.725905596152327 29.5398
31.74905181052835 29.5464
31.772199354521323 29.5776
31.79534822930507 29.6682
31.818679302290967 29.6229
31.84183085259981 29.6191
31.864983737233473 29.5359
31.88813795736804 29.5803
31.911474422233013 29.3822
31.934631327356435 29.5265
31.9577895715215 29.5202
31.980949155906522 29.5033
32.004291031706956 29.5183
32.027453310562606 29.3294
32.05061693318573 29.1916
32.07396288236386 29.1769
32.09712920658542 29.1661
32.12029687812702 28.9684
32.14346589817093 28.9107
32.166817291729984 28.9596
32.18998902288583 28.9193
32.21316210610336 28.81
32.23633654256711 28.6613
32.259693399663725 28.6809
32.282870556771144 28.6339
32.30604907069099 28.631999999999998
32.329228942610065 28.5909
32.35259128243769 28.3741
32.375773884550505 28.3215
32.398957848235646 28.2823
32.422143174682176 28.2479
32.445511016471215 28.2219
32.468699082679954 28.0857
32.49188851523011 28.0709
32.51507931531304 28.0394
32.538452678331 28.0499
32.56164622776311 28.0131
32.58484114831493 27.9548
32.60803744118015 27.9993
32.631416344731896 27.9534
32.654615396551876 27.9622
32.67781582427913 27.8681
32.701198898634416 27.8259
32.72440209253756 27.7131
32.747606665947124 27.6582
32.77081262006088 27.6369
32.79420126883317 27.5903
32.81740999876112 27.6187
32.840620112999424 27.4352
32.86383161274818 27.5134
32.88722585534586 27.5153
32.91044014056596 27.537
32.933655814909734 27.4881
32.95687287957963 27.5349
32.98027273544904 27.4213
33.00349259526636 27.3357
33.026713849030116 27.2682
33.04993649794511 27.3333
33.073341986570746 27.3569
33.09656744032826 27.2119
33.11979429286444 27.2857
33.14302254538647 27.2886
33.166433686291185 27.2833
33.18966475336992 27.0736
33.212897224069096 26.9809
33.23613109959831 27.0638
33.259547912343415 27.0526
33.2827846121627 27.0453
33.306022720453775 26.9405
33.32926223842861 26.8186
33.352684742614166 26.8625
33.37592709463173 26.8183
33.399170859982064 26.7808
33.422597648419426 26.7184
33.44584425514446 26.5866
33.46909227885668 26.61
33.4923417207723 26.5063
33.51577423505344 26.5556
33.539026528130385 26.4729
33.56228024307245 26.3965
33.585535381098246 26.2845
33.60897364093058 26.1813
33.63223163992385 26.2443
33.6554910656699 26.1859
33.678751919389796 26.2159
33.702195944520106 26.0459
33.72545966903325 26.0134
33.74872482519663 25.9068
33.771991414233746 26.0449
33.79544122444841 25.9751
33.81871069412428 25.9898
33.84198160035767 25.8907
33.86525394437455 25.8783
33.88870955949969 25.8013
33.911984794020626 25.7776
33.93526147001624 25.7832
33.958539588715006 25.6997
33.98200102861669 25.6439
34.0052820477047 25.5106
34.02856451319451 25.533
34.05203033759056 25.5041
34.07531571090147 25.5385
34.09860253431845 25.4148
34.121890809074316 25.3506
34.145362493118924 25.3786
34.16865368561615 25.3563
34.191946333164054 25.2345
34.21524043699793 25.2392
34.23871800066799 25.2716
34.26201503218366 25.2153
34.28531352370466 25.2067
34.30861347646881 25.1298
34.33209693978188 25.0495
34.3553998301885 25.0192
34.378704185565205 24.9055
34.402010007152356 24.8892
34.42549939016683 24.8762
34.44880815937748 24.8597
34.472118398533134 24.7279
34.49543010887669 24.7504
34.51892543169198 24.6228
34.54224009966052 24.6508
34.56555624255917 24.6513
34.58887386163339 24.5073
34.61237514439016 24.5461
34.6356957311114 24.5184
34.65901779775809 24.5659
34.68252356662995 24.4636
34.705848608458616 24.4711
34.72917513396849 24.3953
34.75250314440949 24.3591
34.77601490857862 24.3037
34.799345904259795 24.1968
34.82267838863559 24.2044
34.846012362958525 24.1696
34.869530142679984 24.1402
34.89286711232212 24.2266
34.91620557568269 24.0921
34.93954553401677 24.0767
34.9630693495876 24.0301
34.986412313340814 24.0374
35.00975677584668 23.9647
35.033102738362956 23.9654
35.05663261012228 23.8763
35.0799815881786 23.873
35.10333207003229 23.7554
35.12668405694369 23.9309
35.150220005273056 23.8902
35.17357501786656 23.7764
35.19693153931268 23.7747
35.220289570874385 23.6784
35.24383161619786 23.6997
35.267192683604904 23.5939
35.290555264930376 23.6649
35.314101899412165 23.5455
35.33746752422433 23.5284
35.36083466676374 23.5091
35.38420332829803 23.5107
35.407756095629054 23.5335
35.43112781085063 23.5167
35.45450104888391 23.4577
35.477875810999194 23.4861
35.50143473172161 23.3693
35.52481255774625 23.4236
35.54819191167777 23.3077
35.57157279478914 23.3687
35.595137889488406 23.2548
35.61852184675279 23.2755
35.641907337029984 23.2042
35.665294361595684 23.1422
35.68886565090076 23.1073
35.7122557598848 23.1128
35.73564740699838 23.0742
35.759040593519934 22.9908
35.78261809810353 23.0568
35.80601437933051 22.9457
35.829412203814705 22.8985
35.85281157283719 22.7839
35.876395313415884 22.7996
35.8997977874528 22.6927
35.92320180988546 22.705
35.946790244133936 22.6677
35.97019737933222 22.6709
35.993606066789866 22.7183
36.01701630779276 22.6254
36.04061101440684 22.605999999999998
36.06402437852291 22.6129
36.08743930005611 22.6014
36.1108557802951 22.4956
36.13445678011326 22.4234
36.15787639383515 22.3414
36.18129757014299 22.3503
36.20472031032821 22.405
36.22832762423364 22.320999999999998
36.25175350829375 22.2879
36.275180960119776 22.2268
36.298609981005924 22.2395
36.32222362992669 22.2344
36.34565580510207 22.2186
36.36908955323448 22.1417
36.39252487562093 22.0482
36.416144880530226 22.046
36.43958336764275 22.0935
36.463023432914625 22.0486
36.486465077645676 21.9303
36.51009145956204 22.014
36.53353627947859 21.9329
36.55698268276811 21.862
36.58043067073321 21.8559
36.60406345072071 21.7524
36.62751462435344 21.7983
36.65096738658405 21.7856
36.67460498210655 21.7328
36.69806093788647 21.7003
36.72151848619297 21.6183
36.744977628333636 21.6615
36.76862165890998 21.6152
36.79208400512205 21.625999999999998
36.81554794910557 21.5497
36.83901349217101 21.4558
36.862663978991606 21.4153
36.88613273667352 21.3546
36.90960309738324 21.4041
36.933075062434064 21.3349
36.95673202673572 21.2835
36.98020721697122 21.256999999999998
37.003684015502365 21.2118
37.027162423645365 21.2023
37.050825886711465 21.2191
37.07430753063053 21.0582
37.09779078812467 21.0627
37.121275660513014 21.0841
37.144945643673694 21.0325
37.16843376245278 20.9388
37.19192350009803 20.9822
37.215414857931435 20.9518
37.239091382563885 20.898000000000003
37.262585997426164 20.818
37.28608223645736 20.8334
37.309763684451696 20.8919
37.33326318851098 20.7552
37.356764320726555 20.8039
37.380267082425526 20.7551
37.40395510942588 20.7075
37.42746114683234 20.6147
37.45096881771841 20.6423
37.474478123414166 20.6746
37.49817275092816 20.6171
37.52168534303452 20.5369
37.54519957395567 20.4817
37.568715445024665 20.4899
37.592416694607714 20.3737
37.61593586281424 20.3726
37.63945667518264 20.4565
37.66297913304891 20.3508
37.68668702630454 20.320999999999998
37.710212792059274 20.2672
37.733740207334854 20.2272
37.757269273470364 20.1611
37.780983832050374 20.177
37.80451621684926 20.1818
37.82805025654007 20.1273
37.851585952464795 20.0629
37.8753071980695 20.0551
37.89884622345676 20.0
37.92238690911902 19.9433
37.94611318753442 19.849
37.969657210779765 19.8684
37.99320289834801 19.8848
38.016750251586465 19.8645
38.04048325513017 19.8049
38.06403395679343 19.727
38.087586328183946 19.7297
38.11114037065203 19.732
38.13488012115898 19.6585
38.1584375229181 19.5862
38.181996599821 19.5846
38.205557353221124 19.5828
38.229303872575656 19.5585
38.2528679961576 19.5254
38.27643380031219 19.4236
38.30000128639589 19.4642
38.32375459653193 19.483
38.34732546371299 19.456
38.37089801690786 19.3699
38.39447225747609 19.3575
38.418232380377425 19.3054
38.441810012983396 19.3434
38.46538933705673 19.2744
38.488970353960084 19.2593
38.51273731166058 19.1747
38.536321731567014 19.1219
38.55990784840681 19.1512
38.58367995004091 19.1454
38.60726947812959 18.9961
38.63086070726198 19.0303
38.654453638806274 19.0541
38.678232613930824 18.9493
38.70182896773327 18.9179
38.72542702806741 18.885
38.7490267963045 18.8851
38.77281266709232 18.8914
38.79641586862214 18.8334
38.8200207821842 18.7265
38.843627409152944 18.7726
38.86742019782782 18.7504
38.891030269149255 18.653
38.914642058016156 18.5878
38.938255565806124 18.6574
38.96205529464307 18.5795
38.98567225787121 18.5903
39.00929094417078 18.5425
39.03291135492255 18.5666
39.05671804624804 18.6201
39.080341923549106 18.4727
39.103967529460334 18.4443
39.127594865365744 18.3945
39.15140854155791 18.3283
39.17503935514948 18.3017
39.19867190290282 18.2891
39.22249083587951 18.3116
39.24612686969409 18.3056
39.269764641845306 18.2824
39.293404153722804 18.2224
39.317230110864074 18.1517
39.34087311998506 18.1895
39.36451787301696 18.1036
39.388164371352595 18.0725
39.41199737518003 18.0194
39.43564738196752 17.9874
39.45929913825317 17.9521
39.48295264543308 17.9571
39.506792718520884 17.9397
39.530449745387216 17.9158
39.55410852735203 17.8787
39.57776906581474 17.9454
39.60161623079 17.8568
39.625280300200025 17.7466
39.64894613032202 17.7284
39.67261372255866 17.6917
39.6964680021016 17.7315
39.72013913657293 17.72
39.74381203738292 17.6566
39.76748670593756 17.6561
39.79134812278169 17.6134
39.81502634488497 17.6515
39.83870633896685 17.5629
39.862388106436654 17.5223
39.88625668336918 17.5392
39.90994201572829 17.5154
39.933629125719285 17.4761
39.957503091207826 17.4382
39.9811937746168 17.4711
40.00488623990914 17.3903
40.02858048850006 17.3498
40.05246165409549 17.285999999999998
40.076159487492085 17.222
40.099859108448875 17.2894
40.123560518384345 17.2381
40.1474489070226 17.2448
40.171153913178564 17.1619
40.194860712584955 17.1222
40.2185693066637 17.122
40.242464941335314 17.0666
40.26617714307655 16.9894
40.289891143772046 17.0401
40.3136069448471 17.0226
40.33750984859743 17.0078
40.3612292688043 16.9579
40.3849504936829 16.8679
40.40867352466194 16.8863
40.43258372059144 16.8323
40.45631038219906 16.8617
40.48003885420956 16.7848
40.503769138055105 16.7506
40.52768664931955 16.7845
40.55142057531802 16.7816
40.57515631746428 16.7498
40.599079334038514 16.7162
40.62281872700477 16.625
40.64655994043941 16.5977
40.67030297578061 16.607
40.69423334835778 16.6002
40.71798004609188 16.5635
40.74172857006355 16.5641
40.76547892171441 16.5035
40.7894166736039 16.4484
40.813170699248566 16.4567
40.83692655691388 16.4218
40.86068424804498 16.4318
40.884629402612525 16.3761
40.908390779366385 16.3441
40.932153993938 16.3558
40.95591904777605 16.3121
40.979871628443995 16.2861
41.003640379561936 16.2669
41.02741097430883 16.2801
41.05118341413683 16.2022
41.075143444384416 16.2082
41.098919593177826 16.157
41.1226975914255 16.1137
41.14647744058318 16.0644
41.170444943946755 15.9903
41.19422851378379 16.0153
41.218013938914645 15.9936
41.24198706625173 15.8906
41.26577622087193 15.8676
41.289567235177785 15.8503
41.31336011063129 15.8728
41.337340752422875 15.8973
41.361137369129835 15.8511
41.38493585138705 15.794
41.40873620066004 15.7935
41.43272438060107 15.7276
41.45652848292052 15.7333
41.48033445666918 15.7159
41.50414230331616 15.7158
41.528138045159764 15.6459
41.551949656675205 15.6111
41.575763145513235 15.5759
41.59957851314666 15.5819
41.62358184070442 15.4986
41.64740098505737 15.4387
41.6712220126409 15.439
41.69504492493139 15.4822
41.71905586207357 15.4381
41.74288256296395 15.4048
41.766711153007456 15.3943
41.79054163368412 15.3657
41.814560204340054 15.357000000000001
41.838394485526365 15.3859
41.86223066180303 15.3144
41.88625497706819 15.2602
41.910094962812 15.3008
41.93393684811168 15.2024
41.95778063445365 15.1616
41.981812625263366 15.1811
42.00566023303407 15.167
42.029509746323676 15.0607
42.05336116662236 15.1188
42.077400857069705 15.088
42.10125611078846 15.1081
42.12511327600405 14.9843
42.14897235421036 14.9475
42.173019768448455 15.0412
42.19688269209613 15.0076
42.22074753323349 14.9034
42.24461429335818 14.8872
42.268669455600495 14.860999999999999
42.292540073217886 14.8744
42.31641261433284 14.8478
42.34028708044675 14.777999999999999
42.36435001496739 14.8311
42.38822835065557 14.7599
42.41210861586426 14.722999999999999
42.4359908120986 14.7392
42.46006154323262 14.6649
42.48394762115317 14.661
42.507835634632315 14.6562
42.531912233047436 14.59
42.55580413732265 14.5191
42.579697981698 14.5297
42.60359376768525 14.4866
42.62767820545945 14.53
42.65157789440821 14.5134
42.67547952952185 14.4715
42.699383112316 14.4522
42.72347541395347 14.3808
42.74738291190531 14.388
42.771292362102166 14.3692
42.795203766063516 14.2955
42.819303956130405 14.2734
42.843219287476536 14.198
42.86713657716324 14.208
42.89105582671383 14.1892
42.91516392983864 14.2528
42.939087119032166 14.2285
42.963012272677304 14.1704
42.98693939230129 14.1463
43.01105543317513 14.1032
43.034986504731386 14.0622
43.05891954686589 14.0464
43.08285456110972 14.0249
43.10697856448665 13.9862
43.130917542983475 13.9569
43.15485849820081 13.9747
43.17880143167367 13.9275
43.20293342237094 13.8898
43.226880332449 13.9049
43.25082922540554 13.8576
43.27496722682525 13.8176
43.29892010567796 13.8276
43.32287497204102 13.7948
43.34683182745632 13.8031
43.370977859791836 13.7817
43.39493871351105 13.7412
43.41890156092628 13.7198
43.44286640358341 13.7072
43.46702049182749 13.6734
43.49098934522816 13.594000000000001
43.51496019852649 13.6105
43.5389330532723 13.5877
43.56309522248204 13.5495
43.58707210044314 13.5816
43.61105098451946 13.4618
43.63503187626491 13.5215
43.659202151562134 13.5212
43.68318707902681 13.5107
43.70717401884041 13.4378
43.731162972560874 13.4108
43.75534137913236 13.3235
43.779334381108384 13.3095
43.803329401683186 13.3204
43.82732644241872 13.2875
43.8515130055166 13.2786
43.87551410707659 13.1971
43.89951723350145 13.2217
43.923709934595614 13.217
43.94771713129917 13.1744
43.97172635758096 13.1679
43.99573761501002 13.1482
44.0199385169922 13.1635
44.04395385732619 13.1041
44.067971233533086 13.0569
44.09199064718605 13.0566
44.11619977548961 12.97
44.14022328470671 12.9655
44.16424883610785 12.9708
44.18827643127035 12.968
44.21249381139513 12.9351
44.236525514814076 12.9319
44.26055926674478 12.9176
44.28459506876863 12.8798
44.3088207262813 12.84
44.33286064928722 12.8484
44.35690262714919 12.8328
44.38094666145278 12.8118
44.4051806219871 12.7818
44.42922879003185 12.7379
44.45327901929361 12.7008
44.477331311362136 12.7652
44.501573600619416 12.7019
44.525630039221795 12.6235
44.54968854541895 12.6639
44.573937102200176 12.5887
44.5979997645541 12.5836
44.622064499300315 12.6012
44.64613130803592 12.5405
44.67038823869318 12.5397
44.69445921643748 12.4997
44.718532272981385 12.4416
44.742607409926194 12.4233
44.76687274034801 12.4446
44.79095205918753 12.4222
44.81503346325094 12.3709
44.839116954143876 12.3505
44.86339071028742 12.3385
44.88747839599524 12.3828
44.91156817336837 12.3078
44.93566004401666 12.3314
44.959942251908146 12.2661
44.984038330325966 12.2019
45.00813650686762 12.2255
45.03223678314731 12.1802
45.05652746888232 12.2008
45.08063196592069 12.1643
45.104738567558705 12.1325
45.128847275414856 12.1055
45.15314646515866 12.0622
45.17725940679741 12.0389
45.20137445952892 11.9957
45.22568004865265 12.0008
45.24979934496396 11.998
45.27392075725247 11.9674
45.29804428714431 11.9911
45.322358426247604 11.9417
45.346486212804315 11.878
45.370616121861914 11.8755
45.39474815505086 11.8997
45.41907087049246 11.8728
45.4432071734666 11.8172
45.46734560548283 11.8048
45.49148616817604 11.7889
45.51581748638564 11.7797
45.5399623320197 11.7525
45.56410931325473 11.7168
45.58825843173002 11.6777
45.61259837920865 11.6796
45.636751793816 11.6629
45.66090735060093 11.6035
45.68506505120716 11.5934
45.7094136545275 11.5875
45.73357566449271 11.5584
45.75773982322992 11.5243
45.78190613238733 11.5015
45.806263418194064 11.4876
45.83043404997326 11.517000000000001
45.85460683713677 11.4811
45.87897065658495 11.4504
45.90314777634752 11.4434
45.92732705646868 11.4048
45.9515084986045 11.4092
45.97588104735473 11.3622
46.00006683541565 11.3058
46.02425479047904 11.3347
46.04844491420549 11.3574
46.0728262191024 11.3035
46.09702070211635 11.333
46.12121735879483 11.2536
46.14541619080294 11.2378
46.169806278764455 11.1852
46.194009483459034 11.1902
46.21821486849841 11.1428
46.24242243555223 11.1453
46.266821333570014 11.1152
46.29103328674601 11.1195
46.31524742696538 11.1321
46.33946375590237 11.0908
46.36387149104216 11.0592
46.38809221957392 11.027000000000001
46.41231514186606 11.0219
46.436540259597464 10.9885
46.460956858999374 11.0232
46.48518638983522 11.0
46.509418121166966 10.9483
46.533652054678114 10.9071
46.55807754555709 10.914000000000001
46.58231590571962 10.8624
46.60655647313217 10.8241
46.630988654873654 10.8102
46.655233659129024 10.7908
46.67948087571551 10.7946
46.70373030632484 10.7489
46.72817142736393 10.7595
46.752425308428684 10.7323
46.77668140861147 10.7142
46.80093972960865 10.6931
46.82538981736788 10.6864
46.849652602470904 10.6501
46.87391761349769 10.6327
46.8981848521493 10.617
46.9226439341274 10.5998
46.946915650573224 10.5827
46.97118959976749 10.5715
46.99546578341598 10.5254
47.019933887188216 10.4927
47.04421456235744 10.5133
47.06849747711879 10.4949
47.09278263318286 10.4609
47.11725978640143 10.4078
47.14154944775105 10.3742
47.165841355555656 10.4023
47.1901355115306 10.367
47.214621741924994 10.3644
47.23892041698887 10.367
47.26322134538975 10.3068
47.28771440635075 10.2847
47.31201986422527 10.2929
47.33632758061436 10.2749
47.360637557241866 10.2595
47.38513974410611 10.2223
47.40945426407847 10.21
47.43377104948137 10.1958
47.45809010204344 10.1564
47.48260144275502 10.1232
47.506925052572285 10.097999999999999
47.53125093475548 10.081
47.55557909103813 10.0721
47.58009961361992 10.045
47.60443234110732 10.0641
47.62876734791564 9.99351
47.65310463578333 10.0204
47.6776343683373 10.0064
47.7019762413987 9.94908
47.72632040075572 9.958210000000001
47.75066684815169 9.94317
47.77520581885936 9.93491
47.799556865477655 9.910810000000001
47.823910205386 9.921339999999999
47.84826584033272 9.898710000000001
47.87281407745551 9.85989
47.89717432569297 9.82958
47.92153687423484 9.835560000000001
47.94609208429692 9.78502
47.97045925671401 9.78697
47.99482873471275 9.74141
48.01920052005013 9.73307
48.04376504619224 9.73575
48.068141469543484 9.76411
48.09252020552573 9.7182
48.11690125590099 9.694980000000001
48.1414751266064 9.66929
48.16586082917454 9.638810000000001
48.19024885144316 9.626539999999999
48.2146391951793 9.62188
48.239222439012764 9.65344
48.26361744916137 9.55593
48.28801478610016 9.54635
48.31241445160131 9.515839999999999
48.337007097209366 9.528410000000001
48.36141144338331 9.52425
48.38581812345755 9.46317
48.41022713920929 9.47883
48.434829215320704 9.438039999999999
48.45924292604658 9.44245
48.48365897780325 9.43642
48.50807737237308 9.40868
48.532688907799276 9.402289999999999
48.55711201168574 9.3678
48.581537463754074 9.38623
48.60615611725119 9.373489999999999
48.63058628942721 9.32638
48.65501881516546 9.28732
48.6794536962573 9.304310000000001
48.70408185970339 9.29712
48.72852147531801 9.269810000000001
48.75296345168211 9.245610000000001
48.77740779059232 9.25056
48.80204549302823 9.22964
48.82649458091802 9.16737
48.85094603676547 9.14578
48.87539986237231 9.16344
48.90004713292306 9.1343
48.92450572200832 9.15013
48.94896668628025 9.0701
48.97343002754588 9.07995
48.99808689542115 9.04751
49.02255501470614 9.03657
49.04702551642794 9.02022
49.0714984023988 9.031089999999999
49.096164896893235 8.997119999999999
49.120642575466796 8.96033
49.145122643748394 8.93714
49.16960510355558 8.953
49.19428125404938 8.96013
49.2187685210852 8.932089999999999
49.243258185121555 8.85393
49.26794160167084 8.880510000000001
49.2924360839405 8.86515
49.31693296869764 8.841339999999999
49.34143225776915 8.82399
49.36612538195438 8.776530000000001
49.39062950396021 8.76672
49.41513603578346 8.77848
49.4396449792564 8.77699
49.46434784069503 8.74698
49.488861631846454 8.741480000000001
49.513377840166804 8.70844
49.537896467493745 8.70041
49.56260909589029 8.65858
49.587132585683285 8.65926
49.611658500018365 8.66778
49.636186840738596 8.60802
49.66090926588511 8.596860000000001
49.685442483902584 8.58575
49.70997813385706 8.55381
49.734516217597076 8.53919
49.75924846937352 8.4947
49.7837914452858 8.52773
49.80833686055187 8.49052
49.83288471702571 8.46757
49.85762682540054 8.50665
49.882179588965734 8.50194
49.9067347993235 8.45075
49.93129245833333 8.39178
49.95604445336378 8.42032
49.98060703442832 8.36994
50.005172069746266 8.37621
50.02993150438364 8.37515
50.05450147301533 8.34491
50.07907390151433 8.33537
50.10364879174981 8.32413
50.12841816587289 8.30433
50.1529980044635 8.27638
50.17758031042124 8.243780000000001
50.20216508562089 8.244589999999999
50.22694442953363 8.23479
50.25153416817468 8.202689999999999
50.27612638170508 8.17433
50.300721072005196 8.162230000000001
50.325510416102105 8.215810000000001
50.350110084975064 8.170760000000001
50.37471223628208 8.171489999999999
50.39931687190919 8.160960000000001
50.424116246675766 8.09685
50.44872587605249 8.089360000000001
50.47333799543065 8.08378
50.49795260670191 8.07525
50.52276204271512 8.03782
50.54738166295838 8.03534
50.57200378079314 8.02524
50.596628398116835 8.0238
50.62144792604559 8.01879
50.646077567609396 7.99528
50.670709714377715 7.969180000000001
50.69553683636198 7.951460000000001
50.72017401885922 7.93118
50.7448137122895 7.91642
50.76945591856022 7.93085
50.79429318636823 7.8475399999999995
50.818940443716784 7.8768
50.84359021965163 7.8314
50.868242516085964 7.831910000000001
50.893089960641895 7.808739999999999
50.917747323549435 7.7899
50.94240721271973 7.78925
50.96706963007175 7.75892
50.99192728239342 7.77188
51.01659478166073 7.7699300000000004
51.04126481489051 7.72865
51.06593738400761 7.72986
51.090805275207074 7.71893
51.11548294172845 7.69142
51.14016314993547 7.67753
51.164845901758845 7.64526
51.18972406304274 7.625839999999999
51.21441192780656 7.593789999999999
51.23910234200271 7.6227800000000006
51.2637953075678 7.6167300000000004
51.288683770237945 7.5773
51.31338186432707 7.5739399999999995
51.33808251561888 7.55697
51.362978729967345 7.55652
51.387684521509755 7.495089999999999
51.41239287610203 7.4876
51.437103795691165 7.463260000000001
51.46201036644977 7.452560000000001
51.486726441956634 7.432639999999999
51.51144508832545 7.418419999999999
51.536166307509156 7.426080000000001
51.56108326624387 7.39801
51.58580965706056 7.38599
51.61053862657523 7.37224
51.635270176746864 7.3243100000000005
51.66019755512065 7.348489999999999
51.68493429268881 7.31279
51.70967361681515 7.30233
51.73441552946465 7.29016
51.759353359237934 7.28282
51.7841004750961 7.283360000000001
51.80885018539685 7.259939999999999
51.833602492111254 7.22415
51.8585508051424 7.204339999999999
51.883308330926425 7.21397
51.90806845906181 7.1743
51.932831191525715 7.1601
51.95779001977161 7.145169999999999
51.98255798721516 7.12064
52.00732856494335 7.1425399999999994
52.03229530577543 7.14969
52.057071130455945 7.144189999999999
52.081849571391054 7.101319999999999
52.106630630568695 7.059810000000001
52.13160794279417 7.03012
52.15639426492067 7.06043
52.18118321127822 7.04513
52.205974783860896 7.02992
52.23096269971011 7.02645
52.255759551287994 7.019419999999999
52.280559035098186 6.9448300000000005
52.30536115314103 6.938389999999999
52.33035970494467 6.947830000000001
52.35516711807904 6.9525
52.37997717147198 6.91723
52.40478986713005 6.896389999999999
52.42979908731974 6.9136
52.454617094216 6.890110000000001
52.47943774942214 6.824789999999999
52.50426105495102 6.83293
52.529280976059844 6.7939300000000005
52.554109609024096 6.845910000000001
52.57894089837482 6.83405
52.60377484613117 6.7649
52.62880550079408 6.7678199999999995
52.65364479223379 6.729889999999999
52.67848674816189 6.74015
52.70352547971946 6.70575
52.72837279155837 6.73716
52.753222773982785 6.68854
52.778075429022984 6.67448
52.80312495150885 6.6791
52.827982978797436 6.658860000000001
52.85284368481815 6.64217
52.87770707160767 6.62109
52.90276741793998 6.60296
52.92763619336701 6.62286
52.952507655698504 6.605739999999999
52.977381806977576 6.6115
53.00245301017842 6.55737
53.02733256653592 6.57366
53.052214817996074 6.603039999999999
53.077099766608484 6.52836
53.102181859804446 6.5323199999999995
53.127072229988265 6.52681
53.15196530349892 6.495480000000001
53.17686108239249 6.46295
53.20195409881522 6.451890000000001
53.22685531582556 6.44835
53.25175924441303 6.43907
53.27666588664027 6.37055
53.30176985962693 6.38282
53.3266819565689 6.42966
53.35159677336455 6.40878
53.376514312083096 6.3733699999999995
53.40162927507703 6.33239
53.42655228516116 6.35113
53.45147802340193 6.29977
53.47660125628886 6.2881800000000005
53.50153247842639 6.27594
53.52646643496923 6.26811
53.55140312799818 6.3041
53.576537409691696 6.24744
53.60147960336152 6.23054
53.626424539786164 6.20355
53.65137222105307 6.17502
53.67651758529126 6.18344
53.70147078399681 6.1830300000000005
53.72642673383343 6.13316
53.75138543689533 6.1319300000000005
53.776541917524526 6.15572
53.801506154876755 6.14133
53.826473151763246 6.108169999999999
53.851442910284916 6.099080000000001
53.87661054126026 6.07932
53.9015858509782 6.06934
53.92656392866066 6.04708
53.95154477641532 6.0362
53.976723591801296 6.06621
54.00171000771266 6.02297
54.02669920004598 6.0149
54.051691170915745 5.97654
54.076881204886796 5.94825
54.101878760928514 5.9709900000000005
54.12687910187696 5.9727
54.152077577768296 5.9506
54.1770835166946 5.97119
54.20209224691339 5.94214
54.22710377055121 5.939019999999999
54.25231352511594 5.92959
54.27733066384342 5.845619999999999
54.30235060239643 5.842280000000001
54.32737334290836 5.83041
54.35259441062629 5.84835
54.377622783395324 5.80765
54.40265396455061 5.8276900000000005
54.42768795623251 5.806109999999999
54.45292037169559 5.76623
54.477960012857906 5.719469999999999
54.50300247099511 5.71014
54.52804774825457 5.69608
54.55329154616743 5.6550400000000005
54.57834249018678 5.6874400000000005
54.6033962597977 5.66477
54.6284528571545 5.63019
54.653708072335164 5.52931
54.67877035378786 5.5938300000000005
54.70383546947698 5.54138
54.72890342156389 5.53561
54.7541700889442 5.51195
54.77924374251975 5.52574
54.8043202390049 5.50699
54.82959552413022 5.44987
54.8546777351945 5.40413
54.87976279569621 5.41215
54.90485070780914 5.47933
54.930137506558005 5.37713
54.95523115074295 5.34074
54.98032765308844 5.33327
55.005427015775496 5.32991
55.03072536339621 5.341480000000001
55.05583047570572 5.26639
55.080938454927676 5.29979
55.10604930325027 5.29575
55.131359235107396 5.25197
55.15647585066083 5.19196
55.181595341907496 5.173109999999999
55.20671771104285 5.18952
55.232039262617704 5.173030000000001
55.25716741665048 5.13441
55.28229845518636 5.08916
55.30743238042802 5.02675
55.33276558731939 5.07533
55.357905315183636 5.0544400000000005
55.383047936390035 4.98113
55.40819345314859 4.9580400000000004
55.433538351073295 4.93684
55.458689688238415 5.01181
55.483843927614096 4.91836
55.509197623043605 4.866619999999999
55.53435769621134 4.87671
55.55952067826466 4.84013
55.5846865714265 4.83611
55.61005202069737 4.82027
55.63522376553902 4.847659999999999
55.66039842818645 4.76499
55.68557601087004 4.76834
55.7109532500271 4.66251
55.73613670233794 4.65683
