TT I
1.2716486653135266 7.12184
1.2939594142134223 6.937819999999999
1.3162702121660406 6.680960000000001
1.3385810600174564 6.228680000000001
1.3608919586137629 6.93682
1.383202908801069 6.73459
1.405513911425503 6.41025
1.4278249673332093 6.30138
1.4501343378461518 6.14853
1.4724455028545926 5.81324
1.4947567236847858 5.8688400000000005
1.517068001182951 5.63018
1.5393793361953272 5.54589
1.5616907295681737 6.45255
1.5840021821477681 5.59361
1.60631369478041 5.41224
1.6286252683124185 5.43941
1.6509369035901333 5.27856
1.6732468618895553 4.8047
1.695558623192809 4.73307
1.7178704487808514 5.048769999999999
1.7401823395001077 4.969040000000001
1.7625012545597203 5.067069999999999
1.7848028405262486 5.31386
1.8071218901122095 4.69105
1.8294236121921872 4.9413800000000005
1.8517427996910911 4.64556
1.8740620574440425 4.66139
1.8963639900671978 4.47425
1.9186833908139995 5.42026
1.9409854680117449 4.64204
1.9633050151394713 5.13214
1.9856246367570705 4.69056
2.0079269371922672 5.21298
2.03024671027244 4.98576
2.0525491637446027 4.81406
2.074869091674931 4.67387
2.097171701569106 4.12861
2.1194917877373847 4.7613199999999996
2.141811954326636 5.06257
2.164114805233074 4.94384
2.186435135143035 5.06915
2.208738150935709 8.086960000000001
2.231058647554722 13.6518
2.2533792288321184 10.7917
2.275682498336085 7.423660000000001
2.298003251406138 5.7427
2.3203066942619714 5.16474
2.3426276225136022 5.07765
2.3649486396617507 5.60289
2.387252348930071 6.29332
2.4095735463442893 5.95651
2.4318774374315884 5.86375
2.4541988185014043 6.08154
2.476502894794693 7.12398
2.498824462909887 6.622000000000001
2.521146125856138 7.436489999999999
2.5434504863470337 7.117439999999999
2.5657723414244717 7.02912
2.588076895590662 8.131910000000001
2.610398946189713 8.289819999999999
2.6327210958598384 8.19084
2.6550259469304716 8.29964
2.6773482972090137 7.90482
2.6996533504259 8.52334
2.7219759047039602 8.74821
2.744298562293959 8.5036
2.7666039251246595 7.64427
2.7889267918020164 8.17676
2.8112323652516555 8.67048
2.833555444408179 8.64517
2.8558786311183852 8.45702
2.8781845268938557 8.8291
2.9005079311721484 8.92797
2.9228140460410397 8.44121
2.9451376712799635 9.58255
2.967444008632326 9.7542
2.9897678582247247 9.94398
3.0120918213106695 10.4347
3.0343984987899373 10.7386
3.0567226913198637 11.0802
3.079029599759726 11.5206
3.101354025127254 12.3321
3.123678568232338 12.6039
3.145985829517914 13.323
3.16831061055229 13.6384
3.1906181112775593 14.3015
3.212943133635653 14.9908
3.2352682779763207 14.9102
3.2575761442691227 15.2129
3.2799015350264273 15.5599
3.302209649240067 15.9457
3.3245352898092655 16.4619
3.3468436553365257 17.016
3.369169549113219 17.1488
3.3914955708171384 17.9385
3.413804319727358 19.1393
3.4361305997334863 19.1111
3.4584396084414553 19.4131
3.4807661501462652 19.8571
3.503092824025881 20.4169
3.5254022288463154 20.5891
3.5477291695206588 21.3365
3.5700388426251948 22.1191
3.5923660534916446 23.2607
3.6146934007816114 29.0312
3.637003482731501 47.2127
3.6593311053109985 50.2251
3.681641464033634 35.5757
3.7039693653009733 26.5977
3.726297407241705 25.1098
3.7486081875460804 24.8373
3.7709365132734978 25.462
3.793247578841633 26.2171
3.8155761917550093 26.8859
3.8378875459837216 26.9059
3.8602164494827234 26.9266
3.882545499606844 28.01
3.9048572932539183 28.0583
3.9271866390645718 28.6037
3.9494987298666713 29.3036
3.971828374764527 30.0552
3.9941581705403255 30.5698
4.016470713506008 30.7806
4.038800813471445 31.8567
4.061113662089144 32.5876
4.0834440696459176 33.0099
4.105774632334751 33.2682
4.128087945865126 33.9072
4.150418821249301 34.7566
4.172732448931298 35.3326
4.195063640413578 36.6056
4.2173775856475215 38.9005
4.239709096631102 53.3476
4.262040768704612 114.351
4.284355196706267 142.91899999999998
4.306687193387355 101.194
4.329001947444346 56.007
4.35133427213731 43.9533
4.373666762177566 43.0163
4.395982011761091 43.0885
4.418314834921175 43.8763
4.44063041906622 47.8416
4.4629635787515625 52.2591
4.4852969080429785 52.7937
4.5076130004776225 52.3638
4.529946671403969 57.0983
4.552263106909177 60.9928
4.574597122877047 57.7258
4.596931312711224 54.2889
4.619248269273446 52.9949
4.6415828092605835 53.8949
4.663900117405352 55.1122
4.686235010953232 56.5458
4.708552674085913 58.1526
4.730887924602802 59.4837
4.753223354952695 61.2842
4.775541557023902 65.043
4.797877349456786 68.76100000000001
4.820195915032126 69.0085
4.842532072957498 68.5091
4.864868414979744 70.6509
4.88718753227192 75.3576
4.909524244902505 77.2562
4.931843734218147 76.6426
4.954180820867835 77.8869
4.976518095879839 80.6875
4.998838149695359 83.0231
5.021175803844231 86.5231
5.043496238205739 89.8483
5.065834274903528 94.1861
5.088172504230693 98.7344
5.1104935158799565 105.88
5.132832132875765 125.26100000000001
5.155153533596801 156.16899999999998
5.1774925416746225 196.695
5.199814334878411 400.98
5.2221537374521505 1021.72
5.244493338631803 2871.92
5.266815727034316 7969.94
5.289155727832427 12384.1
5.311478517248165 8151.75
5.333818921080011 2463.54
5.356159527788849 479.64599999999996
5.3784829252032536 192.43
5.400823940070432 152.46
5.423147747031976 129.708
5.445489173474152 119.21600000000001
5.467830807066149 120.015
5.490155234831516 119.905
5.512497285125229 112.661
5.534822130975162 105.508
5.557164601388673 101.586
5.579489868738879 98.2559
5.601832762690846 97.2563
5.6241758697774475 96.0961
5.646501775867269 95.9962
5.668845311622074 94.848
5.691171647754637 93.626
5.713515615597765 92.932
5.735859800852677 92.3351
5.758186788542988 94.3942
5.780531411018185 98.5715
5.802858837297399 98.6967
5.825203900414495 98.5044
5.8475491852224 101.835
5.869877275883075 101.21
5.892223006467101 97.0353
5.914551544266608 94.919
5.936897724049891 96.7745
5.959244129804903 104.01100000000001
5.981573344815301 131.907
6.0039202049061 240.59799999999998
6.026249875609095 473.656
6.04859719346037 964.485
6.070927323278297 2277.82
6.093275102315365 4578.61
6.115623113320588 5267.74
6.137953938319995 3025.69
6.160302415650845 868.959
6.182633708324452 206.752
6.2049826554078376 106.45200000000001
6.227331838745022 89.1442
6.249663839443684 82.5494
6.27201349767565 79.4616
6.294345974611799 80.3641
6.316696111167083 83.1326
6.339046488263839 80.4786
6.361379686074702 73.3998
6.383730546639482 69.8783
6.406064229255215 69.4908
6.428415576718203 70.7745
6.450749747566656 69.6494
6.47310158535871 66.3351
6.495453669698332 65.0073
6.517788579421056 64.1915
6.540141159237969 63.1708
6.562476565766648 62.0952
6.5848296444934045 62.0791
6.607182974060425 62.54
6.6295191323281015 62.4396
6.651872965955752 62.8924
6.6742096296068985 71.9421
6.6965639707294615 87.9346
6.71891856698715 86.7332
6.741255995248479 71.2058
6.763611104154477 61.2519
6.785949046381137 58.5358
6.808304671371482 59.2343
6.8306605557940046 60.4744
6.852999275508618 59.8484
6.875355681171544 57.965
6.897694923437771 56.4567
6.92005185377892 55.882
6.9423916220322655 55.4095
6.964749080490181 55.0228
6.987106804399774 55.3446
7.009447368180821 55.8627
7.031805625367033 55.1171
7.054146723727803 55.3387
7.076505517631004 54.3437
7.098864581288365 54.227
7.121206488070854 54.3175
7.143566093607822 54.7766
7.165908543567245 55.9173
7.188268694426048 56.0828
7.2106291193438095 55.2358
7.232972390625943 54.9765
7.255333366030969 59.5421
7.277677189091925 78.7364
7.300038718428332 95.2098
7.322400526130865 86.4468
7.344745183422596 66.2627
7.367107550224791 56.3595
7.389452767901992 54.2665
7.411815697249891 53.8573
7.434161478756298 53.2685
7.456524974096713 53.4831
7.478888753837185 53.1238
7.501235387657368 53.9829
7.523599738562711 53.8348
7.545946944825532 53.9991
7.568311870344528 54.1945
7.5906770845765665 54.4544
7.613025156078678 54.9534
7.635390950099687 55.7848
7.657739602662809 55.4803
7.680105979923558 55.4727
7.702472650212829 56.7212
7.724822180948224 56.6347
7.747189439655568 56.0739
7.769539560075357 55.6305
7.791907410653562 55.9227
7.81425812420825 55.9407
7.836626570110925 56.3936
7.858995315087906 57.0005
7.881346924933401 57.3252
7.903716270417482 57.7214
7.926068482028405 58.0601
7.948438431475253 58.4813
7.9708086843180235 59.3295
7.993161805171116 60.0615
8.015532667162402 60.45
8.037886398416653 61.4872
8.060257873014221 62.5707
8.082629655331942 63.4136
8.104984308787587 63.4745
8.127356708900503 66.2527
8.149711981398308 70.3454
8.172085002766314 72.5159
8.194458336181368 70.6572
8.216814543847752 68.6823
8.23918850371002 68.7882
8.26154533906492 69.7247
8.283919928836452 71.0989
8.306277395339652 72.1284
8.328652618483376 73.768
8.351028159736202 75.6581
8.373386579575245 77.8353
8.395762759396959 79.8168
8.418121819038275 83.0385
8.440498640894003 90.1924
8.462875785192262 101.531
8.485235811156207 126.366
8.507613602688501 177.481
8.529974277114228 258.553
8.552352719347912 382.601
8.574731488360351 659.945
8.59709314210385 1224.71
8.619472567021075 1950.93
8.64183487789147 2221.59
8.664214962183097 1735.59
8.686577933647762 837.415
8.708958680784317 312.824
8.731339760774953 147.092
8.753703729764451 106.242
8.77608547780821 96.5463
8.798450116065078 93.8931
8.820832535634787 91.8121
8.843215292401656 92.0641
8.865580941199045 92.4111
8.887964374703538 92.1789
8.910330701447199 91.6404
8.932714815164482 91.6399
8.955099270424924 88.7838
8.977466620733543 86.3877
8.999851761421976 84.4377
9.022219798361645 83.7844
9.04460562795561 83.8556
9.066991803441677 83.5055
9.089360876979615 83.7022
9.111747746589993 83.6857
9.13411751544971 82.4412
9.156505082664324 81.6506
9.178875550323522 81.6502
9.20126381862328 81.3587
9.223652438908596 81.3103
9.246023961427412 81.6092
9.26841328802173 81.3517
9.290785518039224 82.0696
9.313175554425882 84.4257
9.335565947154315 86.1479
9.357939245086508 86.1958
9.380330352834827 85.7857
9.40270436697103 85.5507
9.425096193225055 85.1429
9.447488380180165 85.0739
9.469863475295412 84.4232
9.492256385987508 84.42
9.514632206018318 84.6517
9.537025843935714 85.2331
9.559402392368193 86.8911
9.581796761000229 89.2023
9.604191496441521 91.5863
9.626569144158516 94.4457
9.648964615551032 95.7507
9.671343000390081 94.98100000000001
9.693739211225699 93.2817
9.716135793237463 92.1535
9.738515290448102 92.8883
9.760912617143402 94.8426
9.783292860202891 96.7585
9.805690935076182 99.1304
9.828089385495742 99.949
9.850470754023561 101.09899999999999
9.872869957865444 104.462
9.89525208097539 111.195
9.917652041736662 117.911
9.940052382417589 126.661
9.962435644102392 150.97799999999998
9.984836746950979 190.455
10.007220771957746 246.521
10.029622640473708 344.333
10.052007432299963 523.219
10.074410069984072 838.296
10.096813093716005 1319.3
10.119199042482517 1828.03
10.141602840636468 1974.82
10.163989564971628 1504.85
10.186394141051062 810.063
10.208799107559706 349.00199999999995
10.231187001965623 169.918
10.253592751657669 120.45100000000001
10.275981430388155 110.432
10.298387966769793 108.32
10.320794897965431 108.354
10.343184759907361 107.26100000000001
10.36559248305461 104.936
10.387983138083852 104.792
10.410391656691655 110.536
10.432800574501677 121.538
10.455192425893369 136.314
10.47760214443012 162.539
10.499994797678786 209.33700000000002
10.522405320453982 296.038
10.54479877906917 429.462
10.567210109595656 539.0319999999999
10.5896218454736 584.485
10.612016518879773 491.708
10.634429067781074 322.159
10.656824555333241 184.275
10.679237920773568 115.9
10.701651695961992 93.7813
10.724048411481384 88.039
10.746463008485165 85.4673
10.768860546937125 84.3662
10.791275969274796 82.3083
10.81369180576079 81.0843
10.836090585366925 80.3015
10.858507252467449 79.3445
10.88090686379991 78.3529
10.903324365036394 77.8722
10.925724811614439 77.3505
10.948143150509463 78.1487
10.970561909719066 77.447
10.992963615930844 76.2062
11.015383218085756 74.7943
11.037785768347074 73.0877
11.06020621697282 72.2325
11.082627090322113 71.6508
11.105030913430326 70.98100000000001
11.12745263854165 70.57
11.149857314510728 71.3245
11.172279894912576 73.3935
11.194702904450653 73.2613
11.217108866490921 71.6638
11.239532736615194 69.5484
11.26193956033512 68.441
11.284364294577085 67.7302
11.306789462371718 66.8424
11.329197585398376 66.4781
11.351623622610898 66.5632
11.37403261614354 65.2686
11.396459526308487 65.4741
11.418869393879497 64.9398
11.441297180532617 64.6015
11.463725406927658 64.2449
11.486136592353875 63.7334
11.508565700543707 63.9686
11.530977768845315 64.7764
11.553407762368774 64.6275
11.575838200059769 64.4938
11.598251599479612 63.6999
11.620682927815501 63.0078
11.64309721895548 62.711000000000006
11.665529441478206 62.3421
11.687962112597958 61.9884
11.710377748130886 62.345
11.732811318753434 62.2055
11.755227854859067 62.1304
11.777662328529495 62.0249
11.800079768750786 61.9324
11.822515149015453 62.1997
11.844950984084935 62.5863
11.867369787303163 61.8034
11.889806534289491 61.5297
11.912226250487029 62.3453
11.934663912939751 62.4527
11.9571020346363 62.4945
11.979523127133968 62.9454
12.001962169624331 63.8256
12.024384183972964 65.2981
12.046824150809913 68.1791
12.069264581333726 72.3583
12.091687985297767 78.0525
12.11412934550045 86.9798
12.136553680195208 103.538
12.158995973632788 129.251
12.181438735204349 160.81
12.20386447284199 194.983
12.226308172985636 216.162
12.24873485024193 202.74400000000003
12.271179492516982 163.037
12.293607112949127 117.473
12.316052700916226 86.6991
12.338498763250042 71.8039
12.360927805303868 65.8889
12.383374818673879 64.23100000000001
12.405804812803074 63.4129
12.428252780773262 63.5137
12.45070122756722 63.9131
12.473132656675375 63.7918
12.49558206341869 64.1363
12.518014453510101 64.1366
12.540464823770117 64.5673
12.562915677315177 64.6188
12.58534951575545 64.6607
12.607801338171472 64.9582
12.630236146511358 67.3031
12.652688941369085 69.264
12.675124723177234 69.6136
12.697578494048786 68.8793
12.720032754458185 67.17699999999999
12.742470003354093 66.8678
12.764925245138771 66.9897
12.787363476431278 67.3676
12.809819703166806 67.7704
12.83227642391173 68.6908
12.854716135692716 69.45100000000001
12.877173846755147 70.5547
12.899614549869717 70.8629
12.9220732548287 72.0689
12.94453245827299 72.648
12.966974655289818 73.3643
12.989434858002571 74.05
13.011878055298721 74.7163
13.034339260862497 75.4572
13.056800969391883 77.0096
13.079245674017244 80.0953
13.101708390774869 83.9165
13.12415410463411 92.0069
13.146617833206086 101.406
13.169064559883248 111.476
13.191529303857127 125.809
13.213994557076367 149.472
13.236442809902437 189.033
13.258909083908291 249.071
13.28135835851934 315.221
13.30382565690295 393.347
13.326293469022952 425.598
13.348744283242008 412.577
13.371213125129904 331.164
13.39366497011003 233.797
13.416134845360597 156.128
13.438605238843131 117.561
13.46105863690397 105.35799999999999
13.483530069144786 106.083
13.505984506951902 110.166
13.528456981549432 120.066
13.550929978879088 135.295
13.573385983253365 161.8
13.595860028340867 201.53799999999998
13.618317081455832 258.988
13.64079217790333 317.698
13.663250283359057 366.792
13.685726434770173 377.051
13.708203115221277 327.91
13.730662806148091 245.558
13.75314054697177 169.63400000000001
13.775601299246777 118.709
13.798080104050406 93.3029
13.820559442405358 83.9901
13.843021793671388 80.8356
13.865502201420897 79.3056
13.887965623051947 78.9716
13.910447103807167 77.7528
13.932929122629764 76.7148
13.955394156785959 76.093
13.977877254034569 75.2162
14.000343367582113 74.4069
14.022827546871707 73.5549
14.045294743423524 73.0425
14.06778000837062 72.2576
14.090265817715476 72.3355
14.112734645763819 71.9281
14.13522154619454 71.3926
14.157691466286913 71.3181
14.180179461423874 70.917
14.202668005486178 70.6856
14.22513957064374 70.1566
14.247629214846473 69.563
14.270101881097517 69.2999
14.29259262906496 69.0628
14.315083930490205 69.3177
14.337558255389705 69.5916
14.360050666019726 69.616
14.382526101071944 69.0182
14.405019624534942 68.7356
14.427513705993134 68.3656
14.449990813291825 68.2159
14.47248601302899 67.9817
14.49496423954951 68.4552
14.517460561197822 68.2211
14.539939910570322 67.8642
14.562437357763558 68.27199999999999
14.58493536931253 68.9541
14.607416409993311 69.0494
14.62991555254159 69.5101
14.652397725157423 69.6957
14.674898002342799 70.048
14.697398848433282 70.271
14.719882725991326 71.3704
14.74238471217934 73.4717
14.764869730765593 76.6322
14.787372860692983 79.2648
14.809876564079925 82.9329
14.83236330125751 88.6394
14.854868153850365 97.3334
14.877356041159485 111.866
14.899862046604186 132.472
14.922351087688757 160.217
14.944858249632887 190.31
14.967365991421232 218.61900000000003
14.989856770231246 229.048
15.012365673994204 219.65599999999998
15.03485761569738 187.37400000000002
15.05736768508665 140.142
15.07987833888692 107.40100000000001
15.102372032001655 85.5317
15.124883856909658 74.6805
15.14737872204565 71.3264
15.169891721717274 69.9296
15.192405310371893 69.5052
15.214901940621196 69.1995
15.237416709527137 68.9731
15.259914520936249 68.778
15.282430473753607 68.0016
15.304947020131227 67.3168
15.327446610371178 66.6611
15.349964346154254 66.345
15.372465126703139 66.2002
15.394984055556009 65.7179
15.417486030076159 65.6762
15.44000615566487 65.35600000000001
15.462526881230803 65.5271
15.485030653812652 65.4106
15.507552581617434 65.1213
15.530057557334603 65.3248
15.55258069104857 65.2477
15.575104429329837 65.49
15.597611216864632 65.4539
15.620136166564563 66.0288
15.6426441664095 67.7203
15.665170331202765 69.8427
15.687697105158826 72.3922
15.710206930593545 75.4159
15.732734925158933 79.7222
15.755245972089478 85.9039
15.77777519094324 95.5532
15.800287463046663 109.67399999999999
15.822817909869592 130.082
15.84534897229804 153.26
15.867863089299354 177.803
15.890395385222186 194.52700000000002
15.912910736597423 196.899
15.935444269699861 179.398
15.957978423016485 146.714
15.980495633101265 113.455
16.003031029129367 88.8243
16.02554948280019 72.5079
16.048086125229432 65.766
16.070623392487107 63.4428
16.09314371869582 62.2575
16.11568223789321 61.4696
16.13820381691126 60.6523
16.160743591742527 60.1028
16.183283996022084 59.7243
16.205807461423195 58.7983
16.228349126881973 58.3161
16.25087385432698 58.1408
16.27341678466365 57.4396
16.29594277784926 57.4764
16.31848697676433 57.3553
16.341031811604868 57.012
16.36355971058487 56.9633
16.3861058195587 56.9355
16.40863499352978 56.1002
16.431182380342005 55.6439
16.453730407713202 55.5102
16.476261501364792 55.1513
16.498810812136167 54.9729
16.52134319004079 55.1778
16.54389378792203 54.8273
16.566445031001553 54.7572
16.588979342490088 54.4453
16.61153187824822 54.3413
16.634067483263312 54.0735
16.656621315414416 54.0621
16.679175797408888 53.7
16.701713349928728 53.8743
16.72426913389191 54.2061
16.74680798922351 54.1534
16.76936507887444 54.1297
16.791905240734874 54.0541
16.814463639794468 54.0296
16.837022695210294 54.1453
16.859564824093756 54.2999
16.882125194503903 54.7302
16.904668639217885 54.9736
16.927230328348003 54.8499
16.949792678493612 55.123000000000005
16.972338104193863 54.9186
16.994901778652235 54.9044
17.017448529496576 54.922
17.040013531998152 55.5363
17.06257920018044 56.0749
17.0851279459922 56.6443
17.107694947817667 57.3343
17.130245028099072 58.1538
17.15281336730298 59.5651
17.17536478578733 61.3286
17.19793446610687 63.7326
17.220504818648422 66.9462
17.243058251703697 70.6565
17.265629950971032 75.26899999999999
17.288184731571736 80.5588
17.310757781306908 83.8297
17.33333150794385 83.6288
17.355888317140174 80.6207
17.37846339986244 74.9658
17.401021565958885 68.5887
17.42359800851343 63.4974
17.44617513265564 60.5361
17.468735341390783 59.2505
17.491261035594565 58.7121
17.51396340099364 58.5781
17.536490463869136 58.4773
17.559018209820174 58.6011
17.58154663977963 58.6892
17.604251766089718 58.8575
17.626781572227713 59.078
17.64931206518155 59.0332
17.671843245885103 59.5841
17.69455114821572 59.7392
17.717083712612634 59.9782
17.739616967569667 60.6201
17.762150914021706 60.8573
17.78486160749854 61.201
17.807396945166804 62.0239
17.829932977143503 63.3011
17.85246970436452 64.9275
17.875183204129467 66.347
17.897721330097664 67.7699
17.920260154126645 70.01100000000001
17.942799677153296 73.2112
17.9655159983646 77.1525
17.988056927677544 83.0298
18.010598558807683 91.4888
18.033140892692916 102.06299999999999
18.05586005052525 113.85799999999999
18.07840379824407 125.89399999999999
18.10094825154059 136.35
18.12366954819864 141.724
18.146215420998306 138.066
18.16876200220057 126.82
18.191309292745153 111.792
18.214033452627167 98.7409
18.236582170236648 88.7974
18.259131600016456 84.8801
18.281681742907335 85.9987
18.304408781233683 91.1572
18.32696035875955 96.9025
18.349512652227624 102.166
18.372065662579683 105.306
18.394795594587553 105.20100000000001
18.41735004715306 100.346
18.43990521943684 91.9268
18.46246111238171 82.5457
18.485193953325208 73.9574
18.507751296070428 67.6385
18.530309362314178 64.153
18.552868153000343 62.4806
18.57560391815056 61.3157
18.59816416623245 60.8081
18.620725141597372 60.4206
18.643286845190268 60.0839
18.666025549835414 59.6233
18.688588718427933 59.1029
18.711152618092243 58.9823
18.73389353884365 58.7453
18.75645890921984 58.3364
18.77902501351406 58.0055
18.801591852673102 57.8556
18.824335739722738 57.5661
18.846904057212626 57.5944
18.8694731124168 57.1841
18.89204290628315 56.9696
18.914789774966803 56.9559
18.937361054791623 56.5578
18.959933076131318 56.4011
18.982505839934877 56.3034
19.00525570560582 56.4947
19.027829963004184 56.1686
19.05040496572238 56.3876
19.072980714710468 56.3539
19.095733592739563 56.5065
19.11831084296757 56.6302
19.140888842324735 57.0541
19.16346759176222 57.0601
19.18622349753803 57.5474
19.208803755869358 58.7052
19.231384767143577 59.9107
19.253966532312948 61.8243
19.276725481241822 63.986999999999995
19.29930876296784 66.7927
19.3218928014549 69.5753
19.34465404436217 72.6168
19.36723960516257 75.3242
19.389825925592426 75.6257
19.412413006605938 74.2122
19.43517731967805 69.8308
19.457765930683355 65.3712
19.48035530514408 60.8616
19.50294544401556 57.6116
19.525712842708348 55.3792
19.54830451925909 54.3426
19.570896963095727 53.4395
19.593490175174704 53.3083
19.616260674962184 53.2371
19.638855432416964 52.8686
19.661450960992624 53.2774
19.68404726164677 53.063
19.706820878021247 52.8576
19.729418731756834 53.0185
19.752017360452857 52.8743
19.77461676506804 53.1973
19.797393513540218 53.2604
19.819994478951667 53.4024
19.84259622316767 53.6112
19.8651987471481 54.1959
19.887978643247177 54.3662
19.91058273574792 54.7696
19.933187610901943 55.7345
19.955969879466828 56.8346
19.97857632894404 58.6958
20.00118356396599 60.3108
20.023791585494575 62.7778
20.046577028914875 65.6274
20.069186632506966 67.928
20.091797025500632 69.638
20.114408208858933 69.7007
20.137196842715273 69.2341
20.159809615886765 67.0039
20.18242318232135 64.1065
20.20503754298326 62.2018
20.227829382875154 61.5305
20.250445341109344 61.8614
20.27306209647285 62.7535
20.29567964993108 63.9942
20.31847471147704 64.7147
20.34109387027612 65.4199
20.363713830075454 64.5134
20.386334591841646 62.5846
20.409132890679302 59.9764
20.431755265564437 56.8442
20.454378445325528 54.2408
20.477002430930366 52.4465
20.499803982716553 51.3449
20.522429589228004 50.5663
20.54505600449589 50.1601
20.567683229489194 50.1025
20.590488049900088 49.7641
20.61311690359731 49.7273
20.63574656993626 49.523999999999994
20.658553853717297 49.0732
20.681185154618298 49.1282
20.703817271080066 49.0156
20.72645020407368 48.6663
20.749260783967177 48.5564
20.771895359337133 48.4402
20.794530754161617 48.5064
20.817166969412938 48.3865
20.83998086114876 48.2483
20.86261872660049 48.3259
20.885257415405402 48.3181
20.90789692853701 48.1626
20.930714147864748 47.9895
20.953355319030678 47.9018
20.97599731745334 48.2965
20.99864014410749 48.0844
21.021460706796564 48.0309
21.044105199328826 48.236999999999995
21.06675052302631 48.501000000000005
21.089396678865015 48.7331
21.112220600704806 48.8972
21.134868430275347 49.3033
21.15751709492456 49.7592
21.180166595629693 49.9874
21.202993892429635 50.4644
21.22564507473034 50.9047
21.24829709602816 51.1625
21.27112693608965 50.9141
21.293780644891275 50.9057
21.316435195634053 50.0094
21.339090589297417 49.3931
21.361923832041875 48.876000000000005
21.384580921090404 48.2463
21.407238856007325 47.9253
21.429897637773326 47.9727
21.45273429906592 47.9492
21.475394784108598 47.7929
21.498056118951983 47.8194
21.520718304578022 47.9906
21.543558400304388 48.3102
21.566222297108816 48.5678
21.58888704765135 48.6852
21.61155265291521 48.9342
21.63439619898156 49.327
21.657063523335786 49.3948
21.67973170537063 50.0042
21.7024007460706 50.5615
21.72524775840385 51.2745
21.747918526116475 52.3702
21.770590155457388 53.7747
21.79326264741238 55.387
21.816113141960237 57.284
21.838787368860547 59.1243
21.861462461341976 61.1354
21.884315579735777 62.8981
21.90699241312273 63.8413
21.92967011506078 64.0733
21.95234868653799 63.3902
21.9752053151131 61.7468
21.997885635446785 59.81
22.020566828293532 57.9945
22.04324889464272 56.599
22.066109049404666 55.8629
22.088792872571794 55.598
22.111477572219204 55.7545
22.1341631493376 55.7326
22.157026846313123 55.1743
22.179714188221507 54.4485
22.202402410582668 53.1981
22.22509151438863 51.6498
22.24795876962584 50.5024
22.270649646204486 49.7355
22.293341407213727 49.0577
22.316034053646906 48.7378
22.338904883215342 48.4006
22.36159931041458 48.2857
22.38429462602756 48.2352
22.40699083104897 48.105
22.429865251039757 48.0423
22.452563244831367 48.2888
22.47526213102522 48.2211
22.49813925616515 48.0387
22.520839937143307 47.9454
22.543541513520587 48.1518
22.56624398629403 48.038999999999994
22.589124730075895 48.0761
22.611829005656723 48.3126
22.63453418063466 48.2756
22.657240256008077 48.4914
22.680124634582935 48.6737
22.70283252079775 48.7373
22.725541310413075 49.1044
22.74825100442868 49.2207
22.771139033969575 49.7582
22.79385054687155 50.0992
22.81656296718292 50.7528
22.83927629590484 51.8347
22.862167992606945 52.845
22.88488314827121 53.9029
22.907599215359284 55.1779
22.93031619487366 56.193999999999996
22.953211574954405 56.8918
22.975930389478226 57.402
22.998650119445763 57.4054
23.02137076586092 56.3744
23.044269845560063 54.8994
23.06699233506288 53.4218
23.089715744034912 51.5984
23.112617610931565 50.3363
23.135342869061212 49.196999999999996
23.158069049684816 48.6765
23.1807961538087 48.1795
23.20370174880544 48.2584
23.226430710184808 48.2918
23.249160598093425 48.3581
23.271891413539002 48.347
23.294800752937697 48.4229
23.31753343374794 48.5619
23.340267045128353 48.7666
23.36300158808808 48.9071
23.38591468821339 49.4244
23.408651104658304 49.865
23.431388455719986 50.5413
23.454126742409 51.5309
23.4770436196085 52.5534
23.499783787914662 53.8627
23.522524894889884 54.9226
23.54526694154616 56.0383
23.56818761219047 56.9627
23.59093154860734 57.4795
23.613676427751283 57.4617
23.636422250635754 56.3147
23.659346731118656 54.4659
23.68209445191868 52.4099
23.704843119509587 50.2911
23.72759273490623 48.519
23.750521041644767 47.2747
23.77327256312355 46.4445
23.796025035462787 45.9163
23.818956224555475 45.5546
23.841710609113413 45.5502
23.86446594758979 45.2363
23.887222241002014 45.0009
23.910157285144578 44.6586
23.932915498962537 44.728
23.955674670778713 44.5866
23.978434801611975 44.3433
24.001373717286125 44.1868
24.024135776723917 44.1692
24.046898798245582 43.8644
24.06966278287146 43.894
24.092605586582614 43.7234
24.115371508023642 43.4111
24.1381383956401 43.4201
24.16090625045381 43.3401
24.183852958731244 43.3945
24.206622758582608 43.1101
24.229393528706886 43.1498
24.252165270127392 43.2853
24.27511589952438 43.0623
24.297889594216997 43.0755
24.32066426328598 42.9061
24.34343990775613 42.7361
24.36639447485003 42.7638
24.38917208083877 42.6906
24.41195066531332 42.5444
24.43490819850244 42.7158
24.457688750692377 42.5021
24.48047028445616 42.5359
24.503252800821233 42.6899
24.526214300784112 42.8115
24.548998793132213 42.605
24.57178427117417 42.5943
24.59457073593893 42.5604
24.617536219319863 42.4089
24.64032466834748 42.5026
24.663114107195035 42.2557
24.685904536893013 41.9997
24.708874020360852 42.038999999999994
24.731666442613744 41.9937
24.754459858818787 42.0058
24.777254270007962 41.9164
24.80022777025625 41.7678
24.82302418230472 41.8367
24.845821592443674 41.7959
24.86862000170663 41.6922
24.891597535453727 41.4596
24.914397953892728 42.0641
24.93719937456671 41.8521
24.96000179851076 41.9661
24.98298338249997 42.0885
25.00578782394922 42.4662
25.028593271784167 42.4932
25.05157790644186 42.7909
25.07438537804115 42.8855
25.097193859145293 43.178000000000004
25.120003350792075 43.4037
25.142992065061257 43.8069
25.165803588823465 44.0826
25.18861612625217 44.1005
25.211429678386736 44.2643
25.234422489079968 44.3164
25.257238081693636 44.3137
25.280054692141732 44.503
25.3028723214652 44.4007
25.325869245420463 44.383
25.348688923599397 44.5172
25.371509623787006 44.3814
25.394331347025812 44.0821
25.41733240110666 43.3989
25.440156181590016 42.7971
25.46298098826268 42.2082
25.48580682216873 41.7405
25.50881202326435 41.2294
25.53163992281684 40.8556
25.55446885274561 40.6587
25.577298814096377 40.3882
25.600308179121807 40.4376
25.623140214533745 40.4202
25.64597328451537 40.3668
25.66898578564376 40.0386
25.691820936010206 40.2102
25.714657124097695 40.0829
25.737494350954734 40.0629
25.760511045684957 39.9561
25.783350361364224 40.0559
25.806190718969255 40.0927
25.82903211955018 40.1143
25.852053024868923 40.1065
25.874896522722523 40.2039
25.897741066713106 40.1548
25.920586657892454 40.3984
25.943611790812668 40.2909
25.966459487728237 40.4766
25.989308234998564 40.6045
26.01215803367705 41.0799
26.03518741123814 41.1136
26.05803932412957 41.1848
26.080892291600094 41.2202
26.10374631470478 41.2905
26.12677995397268 41.3648
26.14963609978026 41.232
26.172493304397875 40.8411
26.19535156888223 40.602
26.218389486949604 40.0846
26.241249882640123 39.8938
26.26411134137826 39.8055
26.28715248187403 39.8739
26.31001607820869 39.6089
26.3328807407756 39.4983
26.35574647063438 39.8502
26.37879191991473 39.7355
26.401659795896734 39.735
26.424528742360263 39.7025
26.447398760366614 40.0478
26.470448535598294 40.2032
26.49332070826805 40.407
26.516193955675355 40.8948
26.53906827888316 40.8836
26.562122397260108 41.0574
26.584998883685063 41.4724
26.607876449110325 41.6259
26.63075509460056 41.7907
26.65381357334404 41.9017
26.67669439061878 41.8944
26.699576291163382 41.6603
26.722459276044212 41.43600000000001
26.745522132402975 41.2178
26.768407297649354 40.8824
26.791293550442003 40.5393
26.814180891848974 40.4306
26.837248143099337 40.1167
26.860137673466657 39.9252
26.88302829566349 39.8251
26.90592001075963 39.6708
26.92899167420566 39.3694
26.951885586870763 39.0552
26.974780595655517 38.8243
26.99785558178161 38.7737
27.020752794605112 38.6147
27.043651106772522 38.4724
27.06655051935668 38.5173
27.089629948036183 38.3642
27.112531573292053 38.2879
27.135434302194138 38.2716
27.158338135817015 38.1354
27.181422024430987 38.2565
27.204328079372566 38.0514
27.22723524226965 38.2044
27.250143514198573 38.1969
27.273231880156334 38.1147
27.296142382065014 38.0458
27.319053996245536 37.9313
27.341966723775965 38.0662
27.365059584515222 38.0471
27.38797455070062 38.1492
27.410890633481237 38.039
27.433807833936918 38.1353
27.456905206923906 38.074
27.47982465472398 38.1646
27.502745223449743 38.1597
27.525666914182825 38.3122
27.548768816912457 38.2177
27.571692763693633 38.1244
27.59461783573812 37.9611
27.617723149491244 37.8015
27.640650484125285 37.8262
27.66357894728264 37.6489
27.686508540048052 37.5562
27.709618414237887 37.6292
27.732550278321757 37.4495
27.755483275279115 37.3462
27.778417406196485 37.5079
27.801531858397514 37.5096
27.824468269376716 37.3912
27.847405817586786 37.4274
27.870344504116094 37.4735
27.893463551932008 37.6082
27.916404527281053 37.8418
27.93934664422563 38.0252
27.962289903855886 38.1812
27.98541356491974 38.266999999999996
28.00835912214229 38.3238
28.03130582533231 38.734
28.054253675581805 38.8537
28.077381967556104 38.7544
28.100332124185126 38.8006
28.123283431160893 38.6045
28.146235889577238 38.3982
28.169368830154156 38.1767
28.192323603752033 37.9478
28.215279532083304 37.7475
28.238415973016764 37.4238
28.261374223145094 37.4545
28.284333631303806 37.2163
28.307294198589954 36.9944
28.330435319167677 36.6181
28.353398217078915 36.3706
28.376362277420153 36.2299
28.39932750129032 36.0521
28.422473319286713 35.9777
28.44544088262495 35.9521
28.468409612800283 35.7411
28.491379510913497 35.5253
28.51453004413313 35.5808
28.53750229057244 35.5031
28.56047570826344 35.5354
28.583450298308804 35.5297
28.606605564586562 35.3104
28.629582511831156 35.378
28.65256063474956 35.1974
28.675539934446338 35.2121
28.698699951647605 35.2524
28.72168161743193 35.1028
28.74466446331978 35.0972
28.767648490417624 35.1636
28.790813276438353 35.0232
28.813799678527303 35.0666
28.836787265157085 35.0808
28.859955641890075 35.0981
28.882945610203045 35.0819
28.905936766392035 34.87
28.928929111566863 34.8672
28.952102288520145 34.8859
28.975097024308607 34.8586
28.998092952423807 34.6655
29.021090073977508 34.578
29.04426806913204 34.4291
29.067267590245258 34.2214
29.090268308143695 34.1197
29.11327022394099 34.2141
29.13645305530891 34.0731
29.159457379627167 34.0597
29.18246290519685 34.0552
29.20546963313352 33.9549
29.22865731875826 34.0288
29.25166646419296 34.0314
29.27467681535305 33.9614
29.29768837335608 33.9693
29.320880931312562 33.9545
29.34389491580634 33.8787
29.366910110507334 33.8471
29.38992651653503 33.8964
29.41312396492981 33.8204
29.436142806456754 33.7522
29.45916286268059 33.6597
29.48236399319994 33.5958
29.50538649169417 33.4751
29.528410208259935 33.3605
29.55143514402014 33.1035
29.574641196749695 33.0217
29.597668583816574 32.8438
29.6206971934585 32.7673
29.64372702680042 32.8022
29.666938019934474 32.6886
29.689970313635285 32.6989
29.713003834422636 32.6079
29.73603858342347 32.6219
29.759254535188578 32.5235
29.78229175361658 32.4827
29.80533020365064 32.5341
29.82836988641968 32.5346
29.85159081507472 32.4533
29.874632976355343 32.341
29.89767637376955 32.379
29.920721008448314 32.1561
29.9439469322847 32.198
29.96699405457564 32.2237
29.9900424175358 32.1082
30.013092022298157 32.1309
30.03632295963995 32.266
30.059375061131373 32.1346
30.08242840783577 32.1304
30.105483000888153 32.0605
30.128718970092244 31.9808
30.151776069006917 32.0766
30.17483441768648 31.99
30.198074175317235 32.0978
30.221135036724256 32.1762
30.24419715131772 32.0135
30.267260520236203 31.9867
30.290505341942243 31.9736
30.313571232750228 32.0118
30.336638381310948 31.9861
30.35970678876503 31.8642
30.38295669299435 31.8241
30.40602763151657 31.84
30.429099832366074 31.7412
30.452173296685572 31.7194
30.47542830191959 31.7947
30.498504306502497 31.6775
30.521581577995562 31.717
30.544660117543582 31.7779
30.56792024229725 31.8616
30.59100133132069 31.8744
30.614083691845494 31.776999999999997
30.637167325018545 31.9493
30.660432587840603 32.0281
30.683518779717886 31.93
30.70660624769615 31.9471
30.729694992924372 31.9056
30.75296541239743 31.9175
30.77605672557558 31.8124
30.799149319462742 31.6796
30.8224236211637 31.6413
30.845518789950724 31.4145
30.868615242910597 31.487
30.891712981195973 31.2895
30.91499247215866 31.1762
30.938092794619365 31.1693
30.96119440587579 31.1173
30.984297307082752 31.0024
31.00758200598383 30.9712
31.030687500658694 30.9767
31.053794288760695 30.8582
31.076902371446767 30.8231
31.100192296997445 30.7897
31.12330298246119 30.7467
31.14641496599209 30.6348
31.169528248749216 30.6482
31.19282341969534 30.6681
31.215939314557186 30.6338
31.239056512134788 30.671
31.262175013589378 30.5422
31.28547544871168 30.4958
31.30859657161541 30.5754
31.331719001892175 30.4253
31.35484274070538 30.5154
31.378148458819545 30.4959
31.401274828443725 30.508000000000003
31.424402510106933 30.5645
31.447712205419993 30.6665
31.470842524931633 30.5275
31.493974159989783 30.5759
31.51710711176168 30.5237
31.54042212308802 30.4811
31.563557722100917 30.4291
31.586694641341655 30.2516
31.609832881979628 30.1599
31.63315322823208 30.045
31.656294125521327 29.980999999999998
31.679436347728515 29.8316
31.70257989602529 29.8811
31.725905596152327 29.8594
31.74905181052835 29.7885
31.772199354521323 29.9094
31.79534822930507 29.9053
31.818679302290967 29.8586
31.84183085259981 29.9156
31.864983737233473 29.9133
31.88813795736804 29.8649
31.911474422233013 29.7412
31.934631327356435 29.7965
31.9577895715215 29.7935
31.980949155906522 29.7803
32.004291031706956 29.8028
32.027453310562606 29.6234
32.05061693318573 29.5158
32.07396288236386 29.4325
32.09712920658542 29.3459
32.12029687812702 29.2818
32.14346589817093 29.2088
32.166817291729984 29.2452
32.18998902288583 29.0706
32.21316210610336 28.9973
32.23633654256711 28.9381
32.259693399663725 28.979
32.282870556771144 28.9103
32.30604907069099 28.8986
32.329228942610065 28.6413
32.35259128243769 28.6173
32.375773884550505 28.6323
32.398957848235646 28.6428
32.422143174682176 28.6053
32.445511016471215 28.4834
32.468699082679954 28.4068
32.49188851523011 28.4615
32.51507931531304 28.3747
32.538452678331 28.3242
32.56164622776311 28.2452
32.58484114831493 28.2732
32.60803744118015 28.2168
32.631416344731896 28.1663
32.654615396551876 28.1829
32.67781582427913 28.1534
32.701198898634416 28.058000000000003
32.72440209253756 28.0217
32.747606665947124 27.9798
32.77081262006088 27.8226
32.79420126883317 27.8276
32.81740999876112 27.8221
32.840620112999424 27.6962
32.86383161274818 27.8105
32.88722585534586 27.7438
32.91044014056596 27.8161
32.933655814909734 27.6506
32.95687287957963 27.7533
32.98027273544904 27.6545
33.00349259526636 27.5936
33.026713849030116 27.6323
33.04993649794511 27.5769
33.073341986570746 27.6265
33.09656744032826 27.5206
33.11979429286444 27.5663
33.14302254538647 27.6737
33.166433686291185 27.4095
33.18966475336992 27.3487
33.212897224069096 27.391
33.23613109959831 27.2915
33.259547912343415 27.2342
33.2827846121627 27.2396
33.306022720453775 27.2006
33.32926223842861 27.1152
33.352684742614166 27.1211
33.37592709463173 27.075
33.399170859982064 27.0239
33.422597648419426 26.9753
33.44584425514446 26.784000000000002
33.46909227885668 26.8425
33.4923417207723 26.7806
33.51577423505344 26.6842
33.539026528130385 26.5949
33.56228024307245 26.5813
33.585535381098246 26.4738
33.60897364093058 26.3897
33.63223163992385 26.4114
33.6554910656699 26.4274
33.678751919389796 26.5019
33.702195944520106 26.226999999999997
33.72545966903325 26.3084
33.74872482519663 26.2318
33.771991414233746 26.2842
33.79544122444841 26.156999999999996
33.81871069412428 26.0982
33.84198160035767 26.1125
33.86525394437455 26.1324
33.88870955949969 25.9894
33.911984794020626 25.9924
33.93526147001624 25.9722
33.958539588715006 25.9135
33.98200102861669 25.8496
34.0052820477047 25.709
34.02856451319451 25.7964
34.05203033759056 25.7861
34.07531571090147 25.6239
34.09860253431845 25.7219
34.121890809074316 25.6774
34.145362493118924 25.6052
34.16865368561615 25.5802
34.191946333164054 25.52
34.21524043699793 25.5385
34.23871800066799 25.5285
34.26201503218366 25.4241
34.28531352370466 25.374000000000002
34.30861347646881 25.2449
34.33209693978188 25.2345
34.3553998301885 25.3323
34.378704185565205 25.1847
34.402010007152356 25.0671
34.42549939016683 25.1447
34.44880815937748 25.0146
34.472118398533134 25.0203
34.49543010887669 24.9382
34.51892543169198 24.815
34.54224009966052 24.8563
34.56555624255917 24.8961
34.58887386163339 24.825
34.61237514439016 24.7453
34.6356957311114 24.7118
34.65901779775809 24.6273
34.68252356662995 24.6506
34.705848608458616 24.66
34.72917513396849 24.5925
34.75250314440949 24.5242
34.77601490857862 24.462
34.799345904259795 24.4567
34.82267838863559 24.4063
34.846012362958525 24.3654
34.869530142679984 24.4237
34.89286711232212 24.3674
34.91620557568269 24.2577
34.93954553401677 24.335
34.9630693495876 24.2688
34.986412313340814 24.2962
35.00975677584668 24.3025
35.033102738362956 24.1009
35.05663261012228 24.0523
35.0799815881786 24.0626
35.10333207003229 24.0304
35.12668405694369 24.0874
35.150220005273056 23.9996
35.17357501786656 23.9991
35.19693153931268 23.9685
35.220289570874385 23.9182
35.24383161619786 23.8877
35.267192683604904 23.8362
35.290555264930376 23.8256
35.314101899412165 23.8336
35.33746752422433 23.7531
35.36083466676374 23.7599
35.38420332829803 23.6858
35.407756095629054 23.8514
35.43112781085063 23.7311
35.45450104888391 23.7337
35.477875810999194 23.6855
35.50143473172161 23.621
35.52481255774625 23.5924
35.54819191167777 23.5242
35.57157279478914 23.5481
35.595137889488406 23.5293
35.61852184675279 23.4399
35.641907337029984 23.3571
35.665294361595684 23.3248
35.68886565090076 23.3574
35.7122557598848 23.2955
35.73564740699838 23.3583
35.759040593519934 23.3093
35.78261809810353 23.1998
35.80601437933051 23.0527
35.829412203814705 23.0008
35.85281157283719 22.9755
35.876395313415884 23.079
35.8997977874528 22.9746
35.92320180988546 22.9563
35.946790244133936 22.9117
35.97019737933222 22.8991
35.993606066789866 22.8479
36.01701630779276 22.8141
36.04061101440684 22.7855
36.06402437852291 22.778000000000002
36.08743930005611 22.7499
36.1108557802951 22.6422
36.13445678011326 22.6955
36.15787639383515 22.5987
36.18129757014299 22.558000000000003
36.20472031032821 22.5211
36.22832762423364 22.4726
36.25175350829375 22.4228
36.275180960119776 22.441999999999997
36.298609981005924 22.4212
36.32222362992669 22.3902
36.34565580510207 22.3588
36.36908955323448 22.2963
36.39252487562093 22.1844
36.416144880530226 22.2331
36.43958336764275 22.247
36.463023432914625 22.2335
36.486465077645676 22.0539
36.51009145956204 22.1593
36.53353627947859 22.2058
36.55698268276811 22.1127
36.58043067073321 22.0069
36.60406345072071 21.9565
36.62751462435344 22.0142
36.65096738658405 21.9158
36.67460498210655 21.9013
36.69806093788647 21.828000000000003
36.72151848619297 21.7652
36.744977628333636 21.7578
36.76862165890998 21.7605
36.79208400512205 21.7905
36.81554794910557 21.6687
36.83901349217101 21.6696
36.862663978991606 21.5116
36.88613273667352 21.609
36.90960309738324 21.5836
36.933075062434064 21.5289
36.95673202673572 21.4887
36.98020721697122 21.4357
37.003684015502365 21.4361
37.027162423645365 21.3888
37.050825886711465 21.3596
37.07430753063053 21.2663
37.09779078812467 21.2543
37.121275660513014 21.2159
37.144945643673694 21.2249
37.16843376245278 21.1986
37.19192350009803 21.1678
37.215414857931435 21.0848
37.239091382563885 21.0275
37.262585997426164 21.0621
37.28608223645736 20.9769
37.309763684451696 20.9442
37.33326318851098 20.921
37.356764320726555 20.8765
37.380267082425526 20.8538
37.40395510942588 20.9525
37.42746114683234 20.7681
37.45096881771841 20.764
37.474478123414166 20.7634
37.49817275092816 20.6529
37.52168534303452 20.6842
37.54519957395567 20.5667
37.568715445024665 20.6028
37.592416694607714 20.5561
37.61593586281424 20.5967
37.63945667518264 20.6227
37.66297913304891 20.5216
37.68668702630454 20.5504
37.710212792059274 20.4214
37.733740207334854 20.3895
37.757269273470364 20.2939
37.780983832050374 20.2926
37.80451621684926 20.3399
37.82805025654007 20.2649
37.851585952464795 20.208
37.8753071980695 20.1283
37.89884622345676 20.1265
37.92238690911902 20.1608
37.94611318753442 20.0733
37.969657210779765 20.0146
37.99320289834801 20.0252
38.016750251586465 19.9148
38.04048325513017 19.8841
38.06403395679343 19.9632
38.087586328183946 19.9181
38.11114037065203 19.8548
38.13488012115898 19.8525
38.1584375229181 19.7782
38.181996599821 19.7303
38.205557353221124 19.7713
38.229303872575656 19.6802
38.2528679961576 19.6521
38.27643380031219 19.6814
38.30000128639589 19.6463
38.32375459653193 19.6099
38.34732546371299 19.5887
38.37089801690786 19.5019
38.39447225747609 19.407
38.418232380377425 19.3531
38.441810012983396 19.4269
38.46538933705673 19.379
38.488970353960084 19.346
38.51273731166058 19.4066
38.536321731567014 19.3703
38.55990784840681 19.2667
38.58367995004091 19.165
38.60726947812959 19.1684
38.63086070726198 19.227
38.654453638806274 19.1787
38.678232613930824 19.0754
38.70182896773327 19.0962
38.72542702806741 19.0042
38.7490267963045 19.0567
38.77281266709232 18.9742
38.79641586862214 18.9429
38.8200207821842 18.8645
38.843627409152944 18.9373
38.86742019782782 18.9469
38.891030269149255 18.8664
38.914642058016156 18.8315
38.938255565806124 18.761
38.96205529464307 18.7583
38.98567225787121 18.8186
39.00929094417078 18.754
39.03291135492255 18.7272
39.05671804624804 18.6265
39.080341923549106 18.6148
39.103967529460334 18.5855
39.127594865365744 18.4593
39.15140854155791 18.4659
39.17503935514948 18.5165
39.19867190290282 18.4769
39.22249083587951 18.4529
39.24612686969409 18.3954
39.269764641845306 18.3607
39.293404153722804 18.3549
39.317230110864074 18.3451
39.34087311998506 18.2735
39.36451787301696 18.2759
39.388164371352595 18.2521
39.41199737518003 18.1599
39.43564738196752 18.131
39.45929913825317 18.143
39.48295264543308 18.1628
39.506792718520884 18.0619
39.530449745387216 18.0057
39.55410852735203 18.1133
39.57776906581474 18.0207
39.60161623079 17.9187
39.625280300200025 17.9541
39.64894613032202 17.8615
39.67261372255866 17.9036
39.6964680021016 17.849
39.72013913657293 17.8557
39.74381203738292 17.9215
39.76748670593756 17.8558
39.79134812278169 17.7819
39.81502634488497 17.726
39.83870633896685 17.6977
39.862388106436654 17.6276
39.88625668336918 17.6241
39.90994201572829 17.7024
39.933629125719285 17.5973
39.957503091207826 17.5733
39.9811937746168 17.6004
40.00488623990914 17.5763
40.02858048850006 17.5143
40.05246165409549 17.3874
40.076159487492085 17.3471
40.099859108448875 17.3962
40.123560518384345 17.3689
40.1474489070226 17.311
40.171153913178564 17.3103
40.194860712584955 17.3049
40.2185693066637 17.29
40.242464941335314 17.2019
40.26617714307655 17.1775
40.289891143772046 17.171
40.3136069448471 17.1529
40.33750984859743 17.1247
40.3612292688043 17.0866
40.3849504936829 17.019000000000002
40.40867352466194 17.0145
40.43258372059144 17.0136
40.45631038219906 16.9821
40.48003885420956 16.9387
40.503769138055105 16.9367
40.52768664931955 16.941
40.55142057531802 16.8816
40.57515631746428 16.8139
40.599079334038514 16.7223
40.62281872700477 16.6932
40.64655994043941 16.7487
40.67030297578061 16.776
40.69423334835778 16.7018
40.71798004609188 16.6842
40.74172857006355 16.6474
40.76547892171441 16.6183
40.7894166736039 16.5495
40.813170699248566 16.6083
40.83692655691388 16.5556
40.86068424804498 16.5293
40.884629402612525 16.468
40.908390779366385 16.4637
40.932153993938 16.3907
40.95591904777605 16.3729
40.979871628443995 16.4067
41.003640379561936 16.3569
41.02741097430883 16.3474
41.05118341413683 16.3614
41.075143444384416 16.3438
41.098919593177826 16.257
41.1226975914255 16.309
41.14647744058318 16.224
41.170444943946755 16.1613
41.19422851378379 16.1091
41.218013938914645 16.1348
41.24198706625173 16.0848
41.26577622087193 16.0505
41.289567235177785 16.0103
41.31336011063129 16.0082
41.337340752422875 15.968
41.361137369129835 15.9415
41.38493585138705 15.9171
41.40873620066004 15.8913
41.43272438060107 15.8846
41.45652848292052 15.8005
41.48033445666918 15.7637
41.50414230331616 15.7965
41.528138045159764 15.7491
41.551949656675205 15.7454
41.575763145513235 15.7591
41.59957851314666 15.6847
41.62358184070442 15.6292
41.64740098505737 15.6442
41.6712220126409 15.6229
41.69504492493139 15.6023
41.71905586207357 15.5239
41.74288256296395 15.5433
41.766711153007456 15.502
41.79054163368412 15.4933
41.814560204340054 15.4881
41.838394485526365 15.5397
41.86223066180303 15.4004
41.88625497706819 15.3603
41.910094962812 15.3662
41.93393684811168 15.3153
41.95778063445365 15.2354
41.981812625263366 15.2593
42.00566023303407 15.2989
42.029509746323676 15.2591
42.05336116662236 15.1619
42.077400857069705 15.1528
42.10125611078846 15.1838
42.12511327600405 15.0773
42.14897235421036 15.112
42.173019768448455 15.1023
42.19688269209613 15.0446
42.22074753323349 15.032
42.24461429335818 14.99
42.268669455600495 14.9668
42.292540073217886 14.970999999999998
42.31641261433284 14.9839
42.34028708044675 14.8595
42.36435001496739 14.8544
42.38822835065557 14.8406
42.41210861586426 14.8229
42.4359908120986 14.8369
42.46006154323262 14.7717
42.48394762115317 14.7428
42.507835634632315 14.7171
42.531912233047436 14.6767
42.55580413732265 14.6942
42.579697981698 14.6888
42.60359376768525 14.6463
42.62767820545945 14.6289
42.65157789440821 14.5798
42.67547952952185 14.5974
42.699383112316 14.4943
42.72347541395347 14.4028
42.74738291190531 14.4556
42.771292362102166 14.5055
42.795203766063516 14.4264
42.819303956130405 14.3915
42.843219287476536 14.3529
42.86713657716324 14.3752
42.89105582671383 14.329
42.91516392983864 14.3558
42.939087119032166 14.3165
42.963012272677304 14.2941
42.98693939230129 14.2645
43.01105543317513 14.1946
43.034986504731386 14.1592
43.05891954686589 14.1827
43.08285456110972 14.1783
43.10697856448665 14.1395
43.130917542983475 14.0731
43.15485849820081 14.0722
43.17880143167367 14.022
43.20293342237094 13.9992
43.226880332449 13.9613
43.25082922540554 13.9275
43.27496722682525 13.9552
43.29892010567796 13.9205
43.32287497204102 13.8951
43.34683182745632 13.8858
43.370977859791836 13.8322
43.39493871351105 13.8645
43.41890156092628 13.7896
43.44286640358341 13.7786
43.46702049182749 13.7558
43.49098934522816 13.7237
43.51496019852649 13.7441
43.5389330532723 13.6781
43.56309522248204 13.632
43.58707210044314 13.665999999999999
43.61105098451946 13.5867
43.63503187626491 13.5896
43.659202151562134 13.5948
43.68318707902681 13.558
43.70717401884041 13.5252
43.731162972560874 13.5026
43.75534137913236 13.4709
43.779334381108384 13.4628
43.803329401683186 13.409
43.82732644241872 13.3931
43.8515130055166 13.4035
43.87551410707659 13.2908
43.89951723350145 13.2955
43.923709934595614 13.3469
43.94771713129917 13.3502
43.97172635758096 13.3563
43.99573761501002 13.2617
44.0199385169922 13.1898
44.04395385732619 13.1648
44.067971233533086 13.206
44.09199064718605 13.1702
44.11619977548961 13.0988
44.14022328470671 13.0281
44.16424883610785 13.081
44.18827643127035 13.0418
44.21249381139513 13.0009
44.236525514814076 12.9734
44.26055926674478 12.9696
44.28459506876863 12.9491
44.3088207262813 12.9401
44.33286064928722 12.9572
44.35690262714919 12.9274
44.38094666145278 12.8778
44.4051806219871 12.8503
44.42922879003185 12.808
44.45327901929361 12.7935
44.477331311362136 12.7748
44.501573600619416 12.751
44.525630039221795 12.7576
44.54968854541895 12.6784
44.573937102200176 12.7062
44.5979997645541 12.7067
44.622064499300315 12.6563
44.64613130803592 12.6029
44.67038823869318 12.6125
44.69445921643748 12.6045
44.718532272981385 12.5745
44.742607409926194 12.5501
44.76687274034801 12.515999999999998
44.79095205918753 12.4723
44.81503346325094 12.4354
44.839116954143876 12.4695
44.86339071028742 12.4363
44.88747839599524 12.4045
44.91156817336837 12.3867
44.93566004401666 12.3774
44.959942251908146 12.337
44.984038330325966 12.3454
45.00813650686762 12.2746
45.03223678314731 12.2617
45.05652746888232 12.2298
45.08063196592069 12.2352
45.104738567558705 12.2261
45.128847275414856 12.2189
45.15314646515866 12.1632
45.17725940679741 12.1345
45.20137445952892 12.0819
45.22568004865265 12.0983
45.24979934496396 12.0378
45.27392075725247 12.040999999999999
45.29804428714431 12.0347
45.322358426247604 12.0444
45.346486212804315 12.0151
45.370616121861914 12.0115
45.39474815505086 11.9986
45.41907087049246 11.9596
45.4432071734666 11.898
45.46734560548283 11.9129
45.49148616817604 11.9002
45.51581748638564 11.8421
45.5399623320197 11.8497
45.56410931325473 11.7685
45.58825843173002 11.8083
45.61259837920865 11.7801
45.636751793816 11.7061
45.66090735060093 11.6989
45.68506505120716 11.6937
45.7094136545275 11.6508
45.73357566449271 11.6486
45.75773982322992 11.6213
45.78190613238733 11.6198
45.806263418194064 11.5643
45.83043404997326 11.5904
45.85460683713677 11.5875
45.87897065658495 11.5328
45.90314777634752 11.5345
45.92732705646868 11.498
45.9515084986045 11.5154
45.97588104735473 11.4703
46.00006683541565 11.4633
46.02425479047904 11.4243
46.04844491420549 11.3903
46.0728262191024 11.4017
46.09702070211635 11.3597
46.12121735879483 11.3977
46.14541619080294 11.3565
46.169806278764455 11.3053
46.194009483459034 11.3066
46.21821486849841 11.2926
46.24242243555223 11.2244
46.266821333570014 11.2355
46.29103328674601 11.200999999999999
46.31524742696538 11.2121
46.33946375590237 11.1392
46.36387149104216 11.1127
46.38809221957392 11.064
46.41231514186606 11.1106
46.436540259597464 11.0541
46.460956858999374 11.0562
46.48518638983522 11.0689
46.509418121166966 11.01
46.533652054678114 10.9758
46.55807754555709 10.9615
46.58231590571962 10.9101
46.60655647313217 10.9521
46.630988654873654 10.9306
46.655233659129024 10.8503
46.67948087571551 10.8813
46.70373030632484 10.8512
46.72817142736393 10.8755
46.752425308428684 10.8281
46.77668140861147 10.8086
46.80093972960865 10.7729
46.82538981736788 10.7434
46.849652602470904 10.7463
46.87391761349769 10.7542
46.8981848521493 10.6727
46.9226439341274 10.6667
46.946915650573224 10.6548
46.97118959976749 10.6269
46.99546578341598 10.6001
47.019933887188216 10.6335
47.04421456235744 10.5632
47.06849747711879 10.5609
47.09278263318286 10.5029
47.11725978640143 10.5262
47.14154944775105 10.4675
47.165841355555656 10.4924
47.1901355115306 10.493
47.214621741924994 10.4727
47.23892041698887 10.3879
47.26322134538975 10.3805
47.28771440635075 10.3945
47.31201986422527 10.3719
47.33632758061436 10.3914
47.360637557241866 10.3458
47.38513974410611 10.3144
47.40945426407847 10.2798
47.43377104948137 10.3002
47.45809010204344 10.2145
47.48260144275502 10.2141
47.506925052572285 10.2189
47.53125093475548 10.1382
47.55557909103813 10.137
47.58009961361992 10.1308
47.60443234110732 10.1307
47.62876734791564 10.088
47.65310463578333 10.0478
47.6776343683373 10.0711
47.7019762413987 10.0054
47.72632040075572 10.0195
47.75066684815169 10.0039
47.77520581885936 9.9959
47.799556865477655 9.970239999999999
47.823910205386 9.98522
47.84826584033272 9.9395
47.87281407745551 9.93545
47.89717432569297 9.962110000000001
47.92153687423484 9.907810000000001
47.94609208429692 9.86458
47.97045925671401 9.888589999999999
47.99482873471275 9.84099
48.01920052005013 9.83863
48.04376504619224 9.7991
48.068141469543484 9.821810000000001
48.09252020552573 9.75496
48.11690125590099 9.73766
48.1414751266064 9.73144
48.16586082917454 9.67569
48.19024885144316 9.6361
48.2146391951793 9.672839999999999
48.239222439012764 9.65649
48.26361744916137 9.65873
48.28801478610016 9.63965
48.31241445160131 9.613430000000001
48.337007097209366 9.62579
48.36141144338331 9.58745
48.38581812345755 9.53865
48.41022713920929 9.53415
48.434829215320704 9.52004
48.45924292604658 9.49063
48.48365897780325 9.47444
48.50807737237308 9.464039999999999
48.532688907799276 9.44181
48.55711201168574 9.44006
48.581537463754074 9.4321
48.60615611725119 9.43897
48.63058628942721 9.4047
48.65501881516546 9.394919999999999
48.6794536962573 9.34676
48.70408185970339 9.346589999999999
48.72852147531801 9.32545
48.75296345168211 9.31577
48.77740779059232 9.30537
48.80204549302823 9.2934
48.82649458091802 9.23555
48.85094603676547 9.239460000000001
48.87539986237231 9.24527
48.90004713292306 9.18828
48.92450572200832 9.16865
48.94896668628025 9.14308
48.97343002754588 9.1563
48.99808689542115 9.090810000000001
49.02255501470614 9.12541
49.04702551642794 9.10459
49.0714984023988 9.1022
49.096164896893235 9.04059
49.120642575466796 9.04785
49.145122643748394 9.01479
49.16960510355558 8.99974
49.19428125404938 8.97194
49.2187685210852 8.95937
49.243258185121555 8.98546
49.26794160167084 8.957410000000001
49.2924360839405 8.927660000000001
49.31693296869764 8.89958
49.34143225776915 8.91818
49.36612538195438 8.850539999999999
49.39062950396021 8.85688
49.41513603578346 8.844289999999999
49.4396449792564 8.81087
49.46434784069503 8.80291
49.488861631846454 8.78437
49.513377840166804 8.74672
49.537896467493745 8.70589
49.56260909589029 8.6901
49.587132585683285 8.72685
49.611658500018365 8.71379
49.636186840738596 8.649239999999999
49.66090926588511 8.66579
49.685442483902584 8.62065
49.70997813385706 8.58991
49.734516217597076 8.63007
49.75924846937352 8.64167
49.7837914452858 8.61093
49.80833686055187 8.536539999999999
49.83288471702571 8.53265
49.85762682540054 8.554160000000001
49.882179588965734 8.48807
49.9067347993235 8.51104
49.93129245833333 8.51393
49.95604445336378 8.47706
49.98060703442832 8.42747
50.005172069746266 8.44386
50.02993150438364 8.4212
50.05450147301533 8.43356
50.07907390151433 8.36613
50.10364879174981 8.36152
50.12841816587289 8.323319999999999
50.1529980044635 8.32198
50.17758031042124 8.3258
50.20216508562089 8.29757
50.22694442953363 8.296669999999999
50.25153416817468 8.31024
50.27612638170508 8.26004
50.300721072005196 8.237
50.325510416102105 8.23594
50.350110084975064 8.17095
50.37471223628208 8.182260000000001
50.39931687190919 8.17924
50.424116246675766 8.170630000000001
50.44872587605249 8.16734
50.47333799543065 8.157160000000001
50.49795260670191 8.10627
50.52276204271512 8.11797
50.54738166295838 8.13568
50.57200378079314 8.09497
50.596628398116835 8.020769999999999
50.62144792604559 8.0351
50.646077567609396 8.047080000000001
50.670709714377715 8.012780000000001
50.69553683636198 8.01116
50.72017401885922 7.9618
50.7448137122895 7.9749
50.76945591856022 7.94675
50.79429318636823 7.94377
50.818940443716784 7.93757
50.84359021965163 7.90936
50.868242516085964 7.88165
50.893089960641895 7.88392
50.917747323549435 7.849589999999999
50.94240721271973 7.85378
50.96706963007175 7.8314
50.99192728239342 7.81498
51.01659478166073 7.8312
51.04126481489051 7.75138
51.06593738400761 7.76703
51.090805275207074 7.74275
51.11548294172845 7.72507
51.14016314993547 7.69729
51.164845901758845 7.720680000000001
51.18972406304274 7.67962
51.21441192780656 7.68392
51.23910234200271 7.665019999999999
51.2637953075678 7.6207
51.288683770237945 7.58657
51.31338186432707 7.612660000000001
51.33808251561888 7.56883
51.362978729967345 7.55961
51.387684521509755 7.552160000000001
51.41239287610203 7.546289999999999
51.437103795691165 7.519819999999999
51.46201036644977 7.49414
51.486726441956634 7.49153
51.51144508832545 7.464510000000001
51.536166307509156 7.486089999999999
51.56108326624387 7.4515899999999995
51.58580965706056 7.443460000000001
51.61053862657523 7.435010000000001
51.635270176746864 7.39808
51.66019755512065 7.43929
51.68493429268881 7.3769800000000005
51.70967361681515 7.370710000000001
51.73441552946465 7.37419
51.759353359237934 7.35918
51.7841004750961 7.3484300000000005
51.80885018539685 7.349419999999999
51.833602492111254 7.307639999999999
51.8585508051424 7.25235
51.883308330926425 7.24708
51.90806845906181 7.236489999999999
51.932831191525715 7.213839999999999
51.95779001977161 7.21984
51.98255798721516 7.20115
52.00732856494335 7.171119999999999
52.03229530577543 7.163860000000001
52.057071130455945 7.141139999999999
52.081849571391054 7.10761
52.106630630568695 7.13024
52.13160794279417 7.121160000000001
52.15639426492067 7.1195699999999995
52.18118321127822 7.08754
52.205974783860896 7.06071
52.23096269971011 7.04277
52.255759551287994 7.00042
52.280559035098186 7.0067699999999995
52.30536115314103 7.02
52.33035970494467 6.9453
52.35516711807904 6.979760000000001
52.37997717147198 6.94585
52.40478986713005 6.9386
52.42979908731974 6.93595
52.454617094216 6.936210000000001
52.47943774942214 6.9114
52.50426105495102 6.85699
52.529280976059844 6.838080000000001
52.554109609024096 6.83587
52.57894089837482 6.856160000000001
52.60377484613117 6.832089999999999
52.62880550079408 6.84408
52.65364479223379 6.801239999999999
52.67848674816189 6.7530600000000005
52.70352547971946 6.7618
52.72837279155837 6.75489
52.753222773982785 6.7258
52.778075429022984 6.72248
52.80312495150885 6.74178
52.827982978797436 6.7324
52.85284368481815 6.70752
52.87770707160767 6.678660000000001
52.90276741793998 6.637689999999999
52.92763619336701 6.642939999999999
52.952507655698504 6.6541
52.977381806977576 6.6285
53.00245301017842 6.64195
53.02733256653592 6.59806
53.052214817996074 6.5759
53.077099766608484 6.5464
53.102181859804446 6.55541
53.127072229988265 6.558210000000001
53.15196530349892 6.557930000000001
53.17686108239249 6.51464
53.20195409881522 6.47104
53.22685531582556 6.47575
53.25175924441303 6.45706
53.27666588664027 6.46001
53.30176985962693 6.42896
53.3266819565689 6.4267199999999995
53.35159677336455 6.41424
53.376514312083096 6.4237
53.40162927507703 6.4102
53.42655228516116 6.34877
53.45147802340193 6.35099
53.47660125628886 6.33368
53.50153247842639 6.34141
53.52646643496923 6.29727
53.55140312799818 6.30247
53.576537409691696 6.3116699999999994
53.60147960336152 6.33228
53.626424539786164 6.3128400000000005
53.65137222105307 6.2531099999999995
53.67651758529126 6.26698
53.70147078399681 6.20081
53.72642673383343 6.24375
53.75138543689533 6.2358
53.776541917524526 6.20062
53.801506154876755 6.15493
53.826473151763246 6.160769999999999
53.851442910284916 6.13819
53.87661054126026 6.12018
53.9015858509782 6.09331
53.92656392866066 6.08594
53.95154477641532 6.096080000000001
53.976723591801296 6.0692
54.00171000771266 6.016859999999999
54.02669920004598 6.049869999999999
54.051691170915745 6.0061599999999995
54.076881204886796 6.02074
54.101878760928514 5.98479
54.12687910187696 6.00356
54.152077577768296 6.01535
54.1770835166946 5.95156
54.20209224691339 5.96751
54.22710377055121 5.93595
54.25231352511594 5.92321
54.27733066384342 5.88727
54.30235060239643 5.87906
54.32737334290836 5.862769999999999
54.35259441062629 5.82904
54.377622783395324 5.8432699999999995
54.40265396455061 5.84782
54.42768795623251 5.83856
54.45292037169559 5.77642
54.477960012857906 5.79286
54.50300247099511 5.73254
54.52804774825457 5.72355
54.55329154616743 5.716080000000001
54.57834249018678 5.70977
54.6033962597977 5.6588199999999995
54.6284528571545 5.65492
54.653708072335164 5.6224300000000005
54.67877035378786 5.62556
54.70383546947698 5.5740300000000005
54.72890342156389 5.57872
54.7541700889442 5.53257
54.77924374251975 5.56257
54.8043202390049 5.52811
54.82959552413022 5.47739
54.8546777351945 5.46249
54.87976279569621 5.4428
54.90485070780914 5.476430000000001
54.930137506558005 5.42393
54.95523115074295 5.41041
54.98032765308844 5.35105
55.005427015775496 5.37004
55.03072536339621 5.357480000000001
55.05583047570572 5.35124
55.080938454927676 5.32143
55.10604930325027 5.3374
55.131359235107396 5.24297
55.15647585066083 5.20222
55.181595341907496 5.2354400000000005
55.20671771104285 5.187
55.232039262617704 5.18206
55.25716741665048 5.14904
55.28229845518636 5.19917
55.30743238042802 5.13079
55.33276558731939 5.07647
55.357905315183636 5.07756
55.383047936390035 5.04695
55.40819345314859 5.00916
55.433538351073295 5.0213
55.458689688238415 5.0324
55.483843927614096 4.98664
55.509197623043605 4.9429099999999995
55.53435769621134 4.93158
55.55952067826466 4.84007
55.5846865714265 4.8288199999999994
55.61005202069737 4.87951
55.63522376553902 4.82455
55.66039842818645 4.80791
55.68557601087004 4.84601
55.7109532500271 4.78431
55.73613670233794 4.74906
