TT I
1.2716486653135266 7.354360000000001
1.2939594142134223 7.353510000000001
1.3162702121660406 6.15385
1.3385810600174564 6.51644
1.3608919586137629 6.407030000000001
1.383202908801069 6.04328
1.405513911425503 5.85307
1.4278249673332093 6.01058
1.4501343378461518 5.77871
1.4724455028545926 5.5727400000000005
1.4947567236847858 5.18874
1.517068001182951 6.12482
1.5393793361953272 5.69442
1.5616907295681737 6.36046
1.5840021821477681 5.29664
1.60631369478041 5.16785
1.6286252683124185 5.17994
1.6509369035901333 4.48283
1.6732468618895553 4.88861
1.695558623192809 4.83419
1.7178704487808514 4.853219999999999
1.7401823395001077 4.53677
1.7625012545597203 4.87524
1.7848028405262486 4.54249
1.8071218901122095 4.69311
1.8294236121921872 4.01931
1.8517427996910911 4.81674
1.8740620574440425 4.91566
1.8963639900671978 4.61674
1.9186833908139995 4.45101
1.9409854680117449 5.385269999999999
1.9633050151394713 5.3548
1.9856246367570705 4.68058
2.0079269371922672 4.764959999999999
2.03024671027244 4.5728599999999995
2.0525491637446027 4.46863
2.074869091674931 4.13131
2.097171701569106 4.8705099999999995
2.1194917877373847 4.57147
2.141811954326636 4.59853
2.164114805233074 4.5048699999999995
2.186435135143035 4.99861
2.208738150935709 5.6319
2.231058647554722 6.59168
2.2533792288321184 6.40781
2.275682498336085 5.78075
2.298003251406138 5.47122
2.3203066942619714 5.54172
2.3426276225136022 5.22471
2.3649486396617507 5.41775
2.387252348930071 6.02252
2.4095735463442893 6.03974
2.4318774374315884 6.5773
2.4541988185014043 6.41215
2.476502894794693 6.8292600000000006
2.498824462909887 7.09231
2.521146125856138 6.62419
2.5434504863470337 7.4149
2.5657723414244717 7.7017
2.588076895590662 8.24297
2.610398946189713 8.992
2.6327210958598384 8.44796
2.6550259469304716 8.1354
2.6773482972090137 8.5789
2.6996533504259 8.45631
2.7219759047039602 8.18775
2.744298562293959 8.20783
2.7666039251246595 7.98992
2.7889267918020164 7.420660000000001
2.8112323652516555 7.91305
2.833555444408179 9.03374
2.8558786311183852 8.37157
2.8781845268938557 8.56139
2.9005079311721484 9.567169999999999
2.9228140460410397 9.08532
2.9451376712799635 9.524610000000001
2.967444008632326 9.30141
2.9897678582247247 9.85535
3.0120918213106695 9.97705
3.0343984987899373 10.3832
3.0567226913198637 11.2791
3.079029599759726 11.394
3.101354025127254 11.8459
3.123678568232338 12.7602
3.145985829517914 13.2235
3.16831061055229 13.4892
3.1906181112775593 13.9328
3.212943133635653 14.6041
3.2352682779763207 14.4093
3.2575761442691227 15.1079
3.2799015350264273 14.9616
3.302209649240067 15.6272
3.3245352898092655 16.2573
3.3468436553365257 16.8225
3.369169549113219 17.2758
3.3914955708171384 18.6121
3.413804319727358 18.5136
3.4361305997334863 18.8752
3.4584396084414553 19.2264
3.4807661501462652 19.9921
3.503092824025881 20.1848
3.5254022288463154 19.9079
3.5477291695206588 20.7235
3.5700388426251948 21.3505
3.5923660534916446 22.1402
3.6146934007816114 23.2937
3.637003482731501 27.885
3.6593311053109985 29.7694
3.681641464033634 26.3626
3.7039693653009733 24.6875
3.726297407241705 24.7707
3.7486081875460804 24.5931
3.7709365132734978 25.1196
3.793247578841633 25.5604
3.8155761917550093 25.855999999999998
3.8378875459837216 26.3641
3.8602164494827234 26.9139
3.882545499606844 27.7227
3.9048572932539183 28.0723
3.9271866390645718 28.3339
3.9494987298666713 29.139
3.971828374764527 29.296
3.9941581705403255 29.8741
4.016470713506008 30.8199
4.038800813471445 31.5887
4.061113662089144 32.0267
4.0834440696459176 32.3935
4.105774632334751 33.4411
4.128087945865126 33.9546
4.150418821249301 33.9237
4.172732448931298 35.2077
4.195063640413578 36.2302
4.2173775856475215 36.6842
4.239709096631102 40.2177
4.262040768704612 55.2571
4.284355196706267 64.0753
4.306687193387355 55.2437
4.329001947444346 43.9123
4.35133427213731 41.8148
4.373666762177566 42.2605
4.395982011761091 42.7315
4.418314834921175 43.6622
4.44063041906622 45.5833
4.4629635787515625 47.2393
4.4852969080429785 48.0558
4.5076130004776225 49.7378
4.529946671403969 52.5696
4.552263106909177 55.9504
4.574597122877047 54.7509
4.596931312711224 53.1631
4.619248269273446 53.4286
4.6415828092605835 54.3848
4.663900117405352 55.2569
4.686235010953232 56.7686
4.708552674085913 57.9704
4.730887924602802 59.8536
4.753223354952695 61.4949
4.775541557023902 63.6049
4.797877349456786 66.655
4.820195915032126 67.8602
4.842532072957498 68.2081
4.864868414979744 70.7001
4.88718753227192 73.9976
4.909524244902505 75.4455
4.931843734218147 75.9165
4.954180820867835 78.4807
4.976518095879839 80.6597
4.998838149695359 83.3859
5.021175803844231 87.40700000000001
5.043496238205739 90.1807
5.065834274903528 94.4289
5.088172504230693 98.4228
5.1104935158799565 104.434
5.132832132875765 115.704
5.155153533596801 134.609
5.1774925416746225 171.726
5.199814334878411 372.916
5.2221537374521505 1044.77
5.244493338631803 2899.8
5.266815727034316 8240.97
5.289155727832427 14039.9
5.311478517248165 8582.99
5.333818921080011 2345.22
5.356159527788849 435.398
5.3784829252032536 178.62099999999998
5.400823940070432 144.47
5.423147747031976 125.928
5.445489173474152 117.355
5.467830807066149 115.795
5.490155234831516 114.772
5.512497285125229 109.634
5.534822130975162 104.74600000000001
5.557164601388673 101.62700000000001
5.579489868738879 98.865
5.601832762690846 97.3962
5.6241758697774475 96.1457
5.646501775867269 95.4822
5.668845311622074 94.9657
5.691171647754637 94.3671
5.713515615597765 93.1516
5.735859800852677 92.5651
5.758186788542988 93.53
5.780531411018185 96.0636
5.802858837297399 95.1724
5.825203900414495 95.1703
5.8475491852224 97.1873
5.869877275883075 96.1465
5.892223006467101 94.949
5.914551544266608 94.5278
5.936897724049891 97.3291
5.959244129804903 104.603
5.981573344815301 130.328
6.0039202049061 242.322
6.026249875609095 491.155
6.04859719346037 985.202
6.070927323278297 2277.34
6.093275102315365 4786.4
6.115623113320588 5521.83
6.137953938319995 2870.83
6.160302415650845 748.689
6.182633708324452 178.208
6.2049826554078376 101.678
6.227331838745022 87.0681
6.249663839443684 81.3473
6.27201349767565 77.8899
6.294345974611799 76.7636
6.316696111167083 75.8823
6.339046488263839 74.0479
6.361379686074702 70.8893
6.383730546639482 69.2502
6.406064229255215 68.4793
6.428415576718203 68.9047
6.450749747566656 67.9123
6.47310158535871 65.8268
6.495453669698332 64.587
6.517788579421056 63.9307
6.540141159237969 62.6006
6.562476565766648 62.1119
6.5848296444934045 61.7848
6.607182974060425 62.0555
6.6295191323281015 61.1068
6.651872965955752 60.247
6.6742096296068985 61.6785
6.6965639707294615 65.9594
6.71891856698715 65.5835
6.741255995248479 61.6578
6.763611104154477 58.7866
6.785949046381137 57.6111
6.808304671371482 57.5482
6.8306605557940046 58.5444
6.852999275508618 58.5284
6.875355681171544 56.8323
6.897694923437771 55.9971
6.92005185377892 56.018
6.9423916220322655 55.4643
6.964749080490181 54.5407
6.987106804399774 55.2232
7.009447368180821 54.8794
7.031805625367033 54.5627
7.054146723727803 54.6106
7.076505517631004 54.1817
7.098864581288365 54.2217
7.121206488070854 53.8444
7.143566093607822 54.3233
7.165908543567245 54.6261
7.188268694426048 54.6044
7.2106291193438095 54.0959
7.232972390625943 53.6673
7.255333366030969 54.0374
7.277677189091925 58.6668
7.300038718428332 64.1787
7.322400526130865 62.1759
7.344745183422596 56.6676
7.367107550224791 54.0586
7.389452767901992 53.6486
7.411815697249891 53.309
7.434161478756298 52.8443
7.456524974096713 52.9736
7.478888753837185 53.1943
7.501235387657368 53.8991
7.523599738562711 55.9998
7.545946944825532 57.992
7.568311870344528 59.3639
7.5906770845765665 57.3435
7.613025156078678 55.4981
7.635390950099687 55.1948
7.657739602662809 55.0513
7.680105979923558 55.1276
7.702472650212829 56.2836
7.724822180948224 55.9942
7.747189439655568 55.7747
7.769539560075357 55.5578
7.791907410653562 55.9729
7.81425812420825 55.7454
7.836626570110925 56.0501
7.858995315087906 57.0845
7.881346924933401 57.225
7.903716270417482 58.2316
7.926068482028405 58.2788
7.948438431475253 58.8909
7.9708086843180235 58.8832
7.993161805171116 59.6929
8.015532667162402 60.223
8.037886398416653 61.3027
8.060257873014221 61.9236
8.082629655331942 62.8764
8.104984308787587 63.3642
8.127356708900503 64.881
8.149711981398308 67.4307
8.172085002766314 68.6499
8.194458336181368 68.2453
8.216814543847752 67.8373
8.23918850371002 68.7391
8.26154533906492 69.6796
8.283919928836452 71.4384
8.306277395339652 72.6942
8.328652618483376 73.8054
8.351028159736202 76.1185
8.373386579575245 78.0355
8.395762759396959 79.6707
8.418121819038275 82.4254
8.440498640894003 87.11
8.462875785192262 96.0866
8.485235811156207 121.44200000000001
8.507613602688501 181.09799999999998
8.529974277114228 276.94599999999997
8.552352719347912 411.88699999999994
8.574731488360351 676.693
8.59709314210385 1268.38
8.619472567021075 2080.02
8.64183487789147 2390.68
8.664214962183097 1748.79
8.686577933647762 816.448
8.708958680784317 294.935
8.731339760774953 137.856
8.753703729764451 103.954
8.77608547780821 96.2131
8.798450116065078 93.596
8.820832535634787 91.2659
8.843215292401656 91.1952
8.865580941199045 90.626
8.887964374703538 90.3501
8.910330701447199 89.4233
8.932714815164482 89.1319
8.955099270424924 86.9615
8.977466620733543 85.2313
8.999851761421976 84.8237
9.022219798361645 83.7202
9.04460562795561 83.7146
9.066991803441677 83.2966
9.089360876979615 83.6022
9.111747746589993 83.758
9.13411751544971 82.6883
9.156505082664324 81.9715
9.178875550323522 82.2711
9.20126381862328 82.6083
9.223652438908596 85.8454
9.246023961427412 89.1537
9.26841328802173 89.6484
9.290785518039224 87.8359
9.313175554425882 85.7542
9.335565947154315 84.8985
9.357939245086508 85.7463
9.380330352834827 84.7328
9.40270436697103 85.0418
9.425096193225055 84.4667
9.447488380180165 84.7422
9.469863475295412 84.0988
9.492256385987508 84.3611
9.514632206018318 85.0917
9.537025843935714 85.7366
9.559402392368193 86.5493
9.581796761000229 88.5446
9.604191496441521 89.9097
9.626569144158516 91.54700000000001
9.648964615551032 91.9139
9.671343000390081 91.7681
9.693739211225699 91.6053
9.716135793237463 91.6278
9.738515290448102 92.7973
9.760912617143402 94.1364
9.783292860202891 96.4282
9.805690935076182 98.0068
9.828089385495742 98.5747
9.850470754023561 100.322
9.872869957865444 101.99
9.89525208097539 105.475
9.917652041736662 110.189
9.940052382417589 119.837
9.962435644102392 148.494
9.984836746950979 196.495
10.007220771957746 265.575
10.029622640473708 373.244
10.052007432299963 557.716
10.074410069984072 857.913
10.096813093716005 1354.73
10.119199042482517 1922.63
10.141602840636468 2025.82
10.163989564971628 1461.5
10.186394141051062 737.977
10.208799107559706 307.092
10.231187001965623 158.403
10.253592751657669 117.741
10.275981430388155 108.839
10.298387966769793 106.008
10.320794897965431 105.595
10.343184759907361 104.68
10.36559248305461 103.109
10.387983138083852 104.15899999999999
10.410391656691655 111.34100000000001
10.432800574501677 124.603
10.455192425893369 142.74200000000002
10.47760214443012 170.019
10.499994797678786 216.66299999999998
10.522405320453982 299.399
10.54479877906917 426.68199999999996
10.567210109595656 553.979
10.5896218454736 589.585
10.612016518879773 477.30400000000003
10.634429067781074 291.464
10.656824555333241 167.868
10.679237920773568 112.264
10.701651695961992 94.1283
10.724048411481384 89.2028
10.746463008485165 86.0495
10.768860546937125 84.0525
10.791275969274796 82.4493
10.81369180576079 81.4511
10.836090585366925 80.6171
10.858507252467449 79.3509
10.88090686379991 78.0955
10.903324365036394 77.8411
10.925724811614439 76.8694
10.948143150509463 77.0118
10.970561909719066 76.2557
10.992963615930844 75.2096
11.015383218085756 73.9117
11.037785768347074 72.5296
11.06020621697282 72.2922
11.082627090322113 71.7882
11.105030913430326 70.7779
11.12745263854165 70.3391
11.149857314510728 69.6852
11.172279894912576 70.6125
11.194702904450653 69.7648
11.217108866490921 68.4393
11.239532736615194 67.8286
11.26193956033512 67.4977
11.284364294577085 67.3839
11.306789462371718 66.4714
11.329197585398376 66.0394
11.351623622610898 66.3729
11.37403261614354 65.6162
11.396459526308487 65.4799
11.418869393879497 64.9533
11.441297180532617 64.6272
11.463725406927658 64.2179
11.486136592353875 64.0622
11.508565700543707 63.6354
11.530977768845315 63.7853
11.553407762368774 63.5752
11.575838200059769 63.5311
11.598251599479612 63.0065
11.620682927815501 62.9226
11.64309721895548 62.7563
11.665529441478206 62.3356
11.687962112597958 62.321999999999996
11.710377748130886 62.5303
11.732811318753434 62.5207
11.755227854859067 62.236000000000004
11.777662328529495 62.1579
11.800079768750786 62.1754
11.822515149015453 62.2001
11.844950984084935 62.3839
11.867369787303163 62.1777
11.889806534289491 61.8892
11.912226250487029 62.6715
11.934663912939751 63.7581
11.9571020346363 64.7212
11.979523127133968 64.4754
12.001962169624331 65.4393
12.024384183972964 66.168
12.046824150809913 69.4049
12.069264581333726 74.6539
12.091687985297767 80.9
12.11412934550045 90.3184
12.136553680195208 105.565
12.158995973632788 129.701
12.181438735204349 159.727
12.20386447284199 195.86900000000003
12.226308172985636 208.33599999999998
12.24873485024193 191.30200000000002
12.271179492516982 150.262
12.293607112949127 109.97200000000001
12.316052700916226 82.6154
12.338498763250042 69.1647
12.360927805303868 64.4615
12.383374818673879 63.6576
12.405804812803074 63.3805
12.428252780773262 63.5003
12.45070122756722 63.6928
12.473132656675375 63.7302
12.49558206341869 63.8765
12.518014453510101 64.0935
12.540464823770117 64.3138
12.562915677315177 64.1764
12.58534951575545 64.2604
12.607801338171472 64.2264
12.630236146511358 65.2824
12.652688941369085 66.2023
12.675124723177234 66.6536
12.697578494048786 66.8083
12.720032754458185 66.4518
12.742470003354093 66.6022
12.764925245138771 67.1479
12.787363476431278 67.6516
12.809819703166806 67.9743
12.83227642391173 68.5818
12.854716135692716 69.2669
12.877173846755147 70.5515
12.899614549869717 70.6922
12.9220732548287 71.6199
12.94453245827299 72.5031
12.966974655289818 73.8291
12.989434858002571 74.5215
13.011878055298721 74.8989
13.034339260862497 76.0046
13.056800969391883 77.26
13.079245674017244 80.3942
13.101708390774869 84.9003
13.12415410463411 93.4155
13.146617833206086 104.685
13.169064559883248 116.104
13.191529303857127 131.30100000000002
13.213994557076367 154.554
13.236442809902437 192.144
13.258909083908291 252.29
13.28135835851934 326.231
13.30382565690295 406.765
13.326293469022952 455.54400000000004
13.348744283242008 420.25199999999995
13.371213125129904 328.10400000000004
13.39366497011003 222.655
13.416134845360597 148.885
13.438605238843131 112.807
13.46105863690397 104.236
13.483530069144786 107.647
13.505984506951902 114.057
13.528456981549432 125.103
13.550929978879088 140.58100000000002
13.573385983253365 164.975
13.595860028340867 204.42700000000002
13.618317081455832 259.73900000000003
13.64079217790333 327.435
13.663250283359057 383.29
13.685726434770173 391.05800000000005
13.708203115221277 328.92
13.730662806148091 241.25
13.75314054697177 164.063
13.775601299246777 113.735
13.798080104050406 91.1016
13.820559442405358 83.2511
13.843021793671388 80.7866
13.865502201420897 79.3962
13.887965623051947 78.9118
13.910447103807167 78.0348
13.932929122629764 76.6514
13.955394156785959 76.4624
13.977877254034569 75.2947
14.000343367582113 74.5452
14.022827546871707 73.9326
14.045294743423524 73.1723
14.06778000837062 72.6061
14.090265817715476 72.5375
14.112734645763819 72.5638
14.13522154619454 72.3215
14.157691466286913 72.3985
14.180179461423874 72.5575
14.202668005486178 71.5786
14.22513957064374 70.691
14.247629214846473 70.0912
14.270101881097517 69.5132
14.29259262906496 69.2928
14.315083930490205 69.4562
14.337558255389705 69.383
14.360050666019726 69.3894
14.382526101071944 68.9453
14.405019624534942 68.7871
14.427513705993134 68.5315
14.449990813291825 68.5172
14.47248601302899 68.4333
14.49496423954951 68.312
14.517460561197822 68.4928
14.539939910570322 68.4297
14.562437357763558 68.5258
14.58493536931253 68.6749
14.607416409993311 68.9368
14.62991555254159 69.551
14.652397725157423 69.6619
14.674898002342799 69.8066
14.697398848433282 69.9139
14.719882725991326 71.6075
14.74238471217934 73.6333
14.764869730765593 77.2144
14.787372860692983 80.6497
14.809876564079925 85.9108
14.83236330125751 92.0757
14.854868153850365 100.831
14.877356041159485 114.964
14.899862046604186 133.495
14.922351087688757 161.161
14.944858249632887 195.793
14.967365991421232 222.71
14.989856770231246 231.90200000000002
15.012365673994204 214.928
15.03485761569738 177.19099999999997
15.05736768508665 132.434
15.07987833888692 102.979
15.102372032001655 84.7599
15.124883856909658 74.5123
15.14737872204565 71.0141
15.169891721717274 70.0051
15.192405310371893 69.4687
15.214901940621196 68.7803
15.237416709527137 68.3695
15.259914520936249 68.27199999999999
15.282430473753607 67.4539
15.304947020131227 66.8141
15.327446610371178 66.5717
15.349964346154254 66.4883
15.372465126703139 66.303
15.394984055556009 66.2305
15.417486030076159 65.9682
15.44000615566487 65.589
15.462526881230803 65.638
15.485030653812652 65.48899999999999
15.507552581617434 65.3796
15.530057557334603 65.1287
15.55258069104857 65.4758
15.575104429329837 65.6399
15.597611216864632 65.818
15.620136166564563 66.3467
15.6426441664095 68.0877
15.665170331202765 70.7194
15.687697105158826 73.9125
15.710206930593545 77.2951
15.732734925158933 82.2124
15.755245972089478 88.8409
15.77777519094324 98.09200000000001
15.800287463046663 111.34899999999999
15.822817909869592 130.918
15.84534897229804 154.33700000000002
15.867863089299354 181.71
15.890395385222186 198.033
15.912910736597423 196.358
15.935444269699861 175.28900000000002
15.957978423016485 140.516
15.980495633101265 108.302
16.003031029129367 85.2222
16.02554948280019 71.05199999999999
16.048086125229432 65.1813
16.070623392487107 63.1691
16.09314371869582 62.2979
16.11568223789321 61.3114
16.13820381691126 60.5022
16.160743591742527 60.0976
16.183283996022084 59.4253
16.205807461423195 58.7397
16.228349126881973 58.4307
16.25087385432698 58.1387
16.27341678466365 57.4193
16.29594277784926 57.3188
16.31848697676433 56.9346
16.341031811604868 56.5435
16.36355971058487 56.5782
16.3861058195587 56.2495
16.40863499352978 55.832
16.431182380342005 55.663999999999994
16.453730407713202 55.2595
16.476261501364792 55.0475
16.498810812136167 54.8856
16.52134319004079 54.9393
16.54389378792203 54.8321
16.566445031001553 54.9251
16.588979342490088 54.6394
16.61153187824822 54.537
16.634067483263312 54.3266
16.656621315414416 54.412
16.679175797408888 53.9586
16.701713349928728 53.9988
16.72426913389191 54.2681
16.74680798922351 54.3105
16.76936507887444 54.1544
16.791905240734874 54.1758
16.814463639794468 53.9838
16.837022695210294 54.0766
16.859564824093756 54.262
16.882125194503903 54.4164
16.904668639217885 54.7004
16.927230328348003 54.7452
16.949792678493612 55.0139
16.972338104193863 54.8902
16.994901778652235 54.8324
17.017448529496576 55.0486
17.040013531998152 55.5886
17.06257920018044 56.2082
17.0851279459922 57.0759
17.107694947817667 58.0686
17.130245028099072 58.7089
17.15281336730298 59.9476
17.17536478578733 61.7983
17.19793446610687 64.1526
17.220504818648422 66.9834
17.243058251703697 70.5236
17.265629950971032 75.5035
17.288184731571736 80.3142
17.310757781306908 83.9362
17.33333150794385 82.824
17.355888317140174 79.8407
17.37846339986244 73.7585
17.401021565958885 67.6243
17.42359800851343 63.0452
17.44617513265564 60.441
17.468735341390783 59.2963
17.491261035594565 58.7196
17.51396340099364 58.4446
17.536490463869136 58.6002
17.559018209820174 58.7436
17.58154663977963 58.82899999999999
17.604251766089718 59.1787
17.626781572227713 59.4034
17.64931206518155 59.4724
17.671843245885103 59.7341
17.69455114821572 59.9282
17.717083712612634 60.097
17.739616967569667 60.5381
17.762150914021706 61.1627
17.78486160749854 61.5337
17.807396945166804 62.4845
17.829932977143503 63.6958
17.85246970436452 65.3465
17.875183204129467 67.3128
17.897721330097664 69.0785
17.920260154126645 71.4255
17.942799677153296 74.7627
17.9655159983646 78.6712
17.988056927677544 84.1563
18.010598558807683 92.15100000000001
18.033140892692916 102.449
18.05586005052525 114.789
18.07840379824407 128.009
18.10094825154059 138.36
18.12366954819864 142.501
18.146215420998306 137.651
18.16876200220057 125.321
18.191309292745153 109.295
18.214033452627167 96.1988
18.236582170236648 87.477
18.259131600016456 84.4828
18.281681742907335 85.9533
18.304408781233683 91.3963
18.32696035875955 97.4613
18.349512652227624 102.82799999999999
18.372065662579683 106.33200000000001
18.394795594587553 105.008
18.41735004715306 98.4812
18.43990521943684 90.2699
18.46246111238171 81.1161
18.485193953325208 72.3425
18.507751296070428 67.0551
18.530309362314178 64.1739
18.552868153000343 62.5983
18.57560391815056 61.8178
18.59816416623245 61.3934
18.620725141597372 60.8029
18.643286845190268 60.0897
18.666025549835414 59.7953
18.688588718427933 58.9718
18.711152618092243 59.0315
18.73389353884365 58.9023
18.75645890921984 58.4866
18.77902501351406 58.3029
18.801591852673102 58.2401
18.824335739722738 57.6676
18.846904057212626 57.5537
18.8694731124168 57.4399
18.89204290628315 57.3392
18.914789774966803 57.07899999999999
18.937361054791623 56.8366
18.959933076131318 56.468
18.982505839934877 56.5597
19.00525570560582 56.6086
19.027829963004184 56.244
19.05040496572238 56.5262
19.072980714710468 56.655
19.095733592739563 56.6736
19.11831084296757 56.7928
19.140888842324735 57.2473
19.16346759176222 57.4612
19.18622349753803 58.0562
19.208803755869358 58.9682
19.231384767143577 60.5862
19.253966532312948 62.0647
19.276725481241822 64.3308
19.29930876296784 66.8544
19.3218928014549 70.0594
19.34465404436217 72.6987
19.36723960516257 75.0658
19.389825925592426 75.5744
19.412413006605938 73.2949
19.43517731967805 69.0221
19.457765930683355 64.6926
19.48035530514408 60.2233
19.50294544401556 57.2137
19.525712842708348 55.3323
19.54830451925909 54.3778
19.570896963095727 53.483000000000004
19.593490175174704 53.3131
19.616260674962184 53.3634
19.638855432416964 52.8944
19.661450960992624 53.3411
19.68404726164677 53.0618
19.706820878021247 52.8186
19.729418731756834 53.08
19.752017360452857 52.9569
19.77461676506804 53.3649
19.797393513540218 53.4298
19.819994478951667 53.711999999999996
19.84259622316767 54.1417
19.8651987471481 54.4658
19.887978643247177 54.7541
19.91058273574792 55.2746
19.933187610901943 56.0955
19.955969879466828 57.342
19.97857632894404 58.9569
20.00118356396599 60.6284
20.023791585494575 63.1758
20.046577028914875 66.2217
20.069186632506966 68.467
20.091797025500632 70.3498
20.114408208858933 70.3818
20.137196842715273 69.2295
20.159809615886765 67.0472
20.18242318232135 63.9962
20.20503754298326 61.8283
20.227829382875154 61.1582
20.250445341109344 61.6949
20.27306209647285 62.82899999999999
20.29567964993108 64.4673
20.31847471147704 65.5482
20.34109387027612 65.9497
20.363713830075454 64.8556
20.386334591841646 62.5156
20.409132890679302 59.2767
20.431755265564437 55.9948
20.454378445325528 53.5045
20.477002430930366 51.9521
20.499803982716553 50.9198
20.522429589228004 50.4788
20.54505600449589 50.1328
20.567683229489194 49.9378
20.590488049900088 49.8192
20.61311690359731 49.7261
20.63574656993626 49.6495
20.658553853717297 49.1241
20.681185154618298 49.231
20.703817271080066 49.0499
20.72645020407368 48.6332
20.749260783967177 48.48
20.771895359337133 48.6706
20.794530754161617 48.4142
20.817166969412938 48.5242
20.83998086114876 48.6089
20.86261872660049 48.3416
20.885257415405402 48.3105
20.90789692853701 48.3358
20.930714147864748 48.2575
20.953355319030678 48.3513
20.97599731745334 48.5154
20.99864014410749 48.2213
21.021460706796564 48.1555
21.044105199328826 48.278999999999996
21.06675052302631 48.602
21.089396678865015 48.7291
21.112220600704806 49.1418
21.134868430275347 49.4832
21.15751709492456 49.7782
21.180166595629693 50.2663
21.202993892429635 50.7721
21.22564507473034 51.1788
21.24829709602816 51.4102
21.27112693608965 51.2331
21.293780644891275 50.7109
21.316435195634053 49.8622
21.339090589297417 49.4145
21.361923832041875 48.8946
21.384580921090404 48.3066
21.407238856007325 48.0083
21.429897637773326 48.0102
21.45273429906592 48.0606
21.475394784108598 48.075
21.498056118951983 47.9937
21.520718304578022 48.4639
21.543558400304388 48.3304
21.566222297108816 48.7672
21.58888704765135 48.8665
21.61155265291521 49.2021
21.63439619898156 49.5609
21.657063523335786 49.5633
21.67973170537063 50.3375
21.7024007460706 50.9465
21.72524775840385 51.5801
21.747918526116475 52.6996
21.770590155457388 53.8726
21.79326264741238 55.4656
21.816113141960237 57.4257
21.838787368860547 59.5578
21.861462461341976 61.5632
21.884315579735777 63.8842
21.90699241312273 64.7712
21.92967011506078 64.5945
21.95234868653799 63.3585
21.9752053151131 61.3541
21.997885635446785 59.1827
22.020566828293532 57.571000000000005
22.04324889464272 56.2892
22.066109049404666 55.6577
22.088792872571794 55.6462
22.111477572219204 55.8401
22.1341631493376 55.9992
22.157026846313123 55.3589
22.179714188221507 54.1622
22.202402410582668 53.1361
22.22509151438863 51.5999
22.24795876962584 50.4707
22.270649646204486 49.4351
22.293341407213727 49.1408
22.316034053646906 48.7012
22.338904883215342 48.4533
22.36159931041458 48.4233
22.38429462602756 48.2628
22.40699083104897 48.0349
22.429865251039757 48.0626
22.452563244831367 48.091
22.47526213102522 48.1794
22.49813925616515 48.1828
22.520839937143307 48.108000000000004
22.543541513520587 48.1822
22.56624398629403 48.1128
22.589124730075895 48.1344
22.611829005656723 48.3418
22.63453418063466 48.3021
22.657240256008077 48.6263
22.680124634582935 48.7434
22.70283252079775 48.9862
22.725541310413075 49.3759
22.74825100442868 49.5946
22.771139033969575 50.1356
22.79385054687155 50.2627
22.81656296718292 50.8152
22.83927629590484 51.7652
22.862167992606945 52.863
22.88488314827121 54.0612
22.907599215359284 55.3607
22.93031619487366 56.4784
22.953211574954405 57.2272
22.975930389478226 57.6017
22.998650119445763 57.2195
23.02137076586092 56.0719
23.044269845560063 54.5104
23.06699233506288 52.7543
23.089715744034912 51.2065
23.112617610931565 49.8938
23.135342869061212 49.2095
23.158069049684816 48.7199
23.1807961538087 48.2704
23.20370174880544 48.2852
23.226430710184808 48.4767
23.249160598093425 48.538999999999994
23.271891413539002 48.5092
23.294800752937697 48.338
23.31753343374794 48.8357
23.340267045128353 48.9711
23.36300158808808 49.2725
23.38591468821339 49.7021
23.408651104658304 50.1196
23.431388455719986 50.6644
23.454126742409 51.5378
23.4770436196085 52.4418
23.499783787914662 54.1437
23.522524894889884 55.3801
23.54526694154616 56.5459
23.56818761219047 57.5065
23.59093154860734 57.8263
23.613676427751283 57.5117
23.636422250635754 56.1177
23.659346731118656 54.2251
23.68209445191868 52.1201
23.704843119509587 50.0479
23.72759273490623 48.3306
23.750521041644767 47.2532
23.77327256312355 46.556999999999995
23.796025035462787 46.0757
23.818956224555475 45.7498
23.841710609113413 45.6012
23.86446594758979 45.3034
23.887222241002014 45.0558
23.910157285144578 44.7743
23.932915498962537 44.7772
23.955674670778713 44.5951
23.978434801611975 44.3983
24.001373717286125 44.168
24.024135776723917 44.283
24.046898798245582 44.108000000000004
24.06966278287146 43.8892
24.092605586582614 43.7632
24.115371508023642 43.7008
24.1381383956401 43.6564
24.16090625045381 43.6054
24.183852958731244 43.3803
24.206622758582608 43.3662
24.229393528706886 43.1205
24.252165270127392 43.2472
24.27511589952438 43.3456
24.297889594216997 42.9504
24.32066426328598 42.8879
24.34343990775613 42.8964
24.36639447485003 42.7775
24.38917208083877 42.6915
24.41195066531332 42.6185
24.43490819850244 42.7589
24.457688750692377 42.5764
24.48047028445616 42.5301
24.503252800821233 42.7487
24.526214300784112 42.908
24.548998793132213 42.8079
24.57178427117417 42.5209
24.59457073593893 42.7173
24.617536219319863 42.6075
24.64032466834748 42.4567
24.663114107195035 42.4693
24.685904536893013 42.1764
24.708874020360852 42.037
24.731666442613744 42.1324
24.754459858818787 41.8262
24.777254270007962 41.8841
24.80022777025625 41.772
24.82302418230472 41.7719
24.845821592443674 41.8041
24.86862000170663 41.9443
24.891597535453727 41.6232
24.914397953892728 42.1077
24.93719937456671 41.8797
24.96000179851076 42.1669
24.98298338249997 42.2225
25.00578782394922 42.4328
25.028593271784167 42.5162
25.05157790644186 42.8674
25.07438537804115 43.1411
25.097193859145293 43.4794
25.120003350792075 43.5702
25.142992065061257 43.8798
25.165803588823465 44.1724
25.18861612625217 44.3819
25.211429678386736 44.2947
25.234422489079968 44.4176
25.257238081693636 44.3625
25.280054692141732 44.5529
25.3028723214652 44.6548
25.325869245420463 44.6729
25.348688923599397 44.5698
25.371509623787006 44.5944
25.394331347025812 44.1255
25.41733240110666 43.4961
25.440156181590016 42.7472
25.46298098826268 42.1562
25.48580682216873 41.7372
25.50881202326435 41.2064
25.53163992281684 41.0079
25.55446885274561 40.7841
25.577298814096377 40.5465
25.600308179121807 40.4122
25.623140214533745 40.5373
25.64597328451537 40.2656
25.66898578564376 40.2129
25.691820936010206 40.2235
25.714657124097695 40.0533
25.737494350954734 40.126999999999995
25.760511045684957 40.0309
25.783350361364224 40.2089
25.806190718969255 40.0693
25.82903211955018 40.2475
25.852053024868923 40.3013
25.874896522722523 40.3541
25.897741066713106 40.2086
25.920586657892454 40.3219
25.943611790812668 40.527
25.966459487728237 40.6577
25.989308234998564 40.6577
26.01215803367705 41.115
26.03518741123814 41.3227
26.05803932412957 41.4599
26.080892291600094 41.3314
26.10374631470478 41.3563
26.12677995397268 41.4447
26.14963609978026 41.3485
26.172493304397875 40.8739
26.19535156888223 40.6134
26.218389486949604 40.1743
26.241249882640123 39.9477
26.26411134137826 39.7803
26.28715248187403 39.9686
26.31001607820869 39.7736
26.3328807407756 39.5668
26.35574647063438 39.7471
26.37879191991473 39.7783
26.401659795896734 39.759
26.424528742360263 39.9949
26.447398760366614 40.111999999999995
26.470448535598294 40.2534
26.49332070826805 40.3798
26.516193955675355 40.8628
26.53906827888316 40.9884
26.562122397260108 41.1466
26.584998883685063 41.6062
26.607876449110325 41.8938
26.63075509460056 41.9096
26.65381357334404 42.0938
26.67669439061878 41.8231
26.699576291163382 41.6361
26.722459276044212 41.5219
26.745522132402975 41.1641
26.768407297649354 40.8335
26.791293550442003 40.5603
26.814180891848974 40.4627
26.837248143099337 40.2134
26.860137673466657 39.963
26.88302829566349 39.7862
26.90592001075963 39.5849
26.92899167420566 39.3929
26.951885586870763 39.0412
26.974780595655517 39.0064
26.99785558178161 38.9215
27.020752794605112 38.6894
27.043651106772522 38.524
27.06655051935668 38.4796
27.089629948036183 38.3322
27.112531573292053 38.3333
27.135434302194138 38.4551
27.158338135817015 38.3881
27.181422024430987 38.2668
27.204328079372566 38.1639
27.22723524226965 38.2776
27.250143514198573 38.2681
27.273231880156334 38.2699
27.296142382065014 38.0707
27.319053996245536 37.9599
27.341966723775965 38.0641
27.365059584515222 38.0736
27.38797455070062 38.2434
27.410890633481237 38.1209
27.433807833936918 38.1072
27.456905206923906 38.1907
27.47982465472398 38.3245
27.502745223449743 38.2762
27.525666914182825 38.3838
27.548768816912457 38.3452
27.571692763693633 38.1736
27.59461783573812 37.951
27.617723149491244 37.8805
27.640650484125285 37.7831
27.66357894728264 37.7452
27.686508540048052 37.7264
27.709618414237887 37.6947
27.732550278321757 37.5108
27.755483275279115 37.4903
27.778417406196485 37.6141
27.801531858397514 37.5379
27.824468269376716 37.5703
27.847405817586786 37.5214
27.870344504116094 37.7642
27.893463551932008 37.8534
27.916404527281053 37.8903
27.93934664422563 38.028
27.962289903855886 38.1449
27.98541356491974 38.4893
28.00835912214229 38.5138
28.03130582533231 38.8349
28.054253675581805 38.9112
28.077381967556104 38.7413
28.100332124185126 38.6455
28.123283431160893 38.5637
28.146235889577238 38.4212
28.169368830154156 38.2379
28.192323603752033 38.0445
28.215279532083304 37.8302
28.238415973016764 37.6624
28.261374223145094 37.5062
28.284333631303806 37.154
28.307294198589954 37.0868
28.330435319167677 36.8119
28.353398217078915 36.5027
28.376362277420153 36.2813
28.39932750129032 36.1671
28.422473319286713 36.161
28.44544088262495 36.0211
28.468409612800283 35.7123
28.491379510913497 35.6713
28.51453004413313 35.6391
28.53750229057244 35.5429
28.56047570826344 35.5064
28.583450298308804 35.6392
28.606605564586562 35.4336
28.629582511831156 35.4371
28.65256063474956 35.1729
28.675539934446338 35.1736
28.698699951647605 35.3462
28.72168161743193 35.2184
28.74466446331978 35.1987
28.767648490417624 35.1651
28.790813276438353 35.086
28.813799678527303 35.1642
28.836787265157085 35.104
28.859955641890075 35.121
28.882945610203045 35.0967
28.905936766392035 34.9941
28.928929111566863 34.9945
28.952102288520145 34.9061
28.975097024308607 34.7872
28.998092952423807 34.6701
29.021090073977508 34.6019
29.04426806913204 34.4913
29.067267590245258 34.383
29.090268308143695 34.2459
29.11327022394099 34.1127
29.13645305530891 34.069
29.159457379627167 34.0101
29.18246290519685 33.9774
29.20546963313352 34.0838
29.22865731875826 34.1001
29.25166646419296 34.0642
29.27467681535305 33.8814
29.29768837335608 33.9332
29.320880931312562 33.8858
29.34389491580634 33.948
29.366910110507334 33.8096
29.38992651653503 33.8754
29.41312396492981 33.9393
29.436142806456754 33.8454
29.45916286268059 33.6715
29.48236399319994 33.4955
29.50538649169417 33.3959
29.528410208259935 33.4003
29.55143514402014 33.1889
29.574641196749695 33.1198
29.597668583816574 32.9172
29.6206971934585 32.8088
29.64372702680042 32.782
29.666938019934474 32.7454
29.689970313635285 32.701
29.713003834422636 32.7242
29.73603858342347 32.6698
29.759254535188578 32.5322
29.78229175361658 32.5004
29.80533020365064 32.6311
29.82836988641968 32.79
29.85159081507472 32.6145
29.874632976355343 32.4805
29.89767637376955 32.3974
29.920721008448314 32.2467
29.9439469322847 32.2922
29.96699405457564 32.3411
29.9900424175358 32.315
30.013092022298157 32.2208
30.03632295963995 32.1288
30.059375061131373 32.1684
30.08242840783577 32.202
30.105483000888153 32.1499
30.128718970092244 32.1926
30.151776069006917 32.1031
30.17483441768648 32.2175
30.198074175317235 32.1864
30.221135036724256 32.1686
30.24419715131772 32.0001
30.267260520236203 31.9605
30.290505341942243 32.0657
30.313571232750228 32.0884
30.336638381310948 32.0457
30.35970678876503 31.936999999999998
30.38295669299435 31.8312
30.40602763151657 31.93
30.429099832366074 31.9039
30.452173296685572 31.7756
30.47542830191959 31.7812
30.498504306502497 31.7447
30.521581577995562 31.8216
30.544660117543582 31.910999999999998
30.56792024229725 31.9717
30.59100133132069 31.8892
30.614083691845494 31.8907
30.637167325018545 32.0242
30.660432587840603 32.0133
30.683518779717886 31.9491
30.70660624769615 32.0353
30.729694992924372 31.9476
30.75296541239743 31.9343
30.77605672557558 31.8111
30.799149319462742 31.8698
30.8224236211637 31.7716
30.845518789950724 31.6286
30.868615242910597 31.5051
30.891712981195973 31.3506
30.91499247215866 31.2695
30.938092794619365 31.2063
30.96119440587579 31.1733
30.984297307082752 31.1025
31.00758200598383 30.9757
31.030687500658694 30.9867
31.053794288760695 30.8743
31.076902371446767 30.7871
31.100192296997445 30.8283
31.12330298246119 30.7439
31.14641496599209 30.7007
31.169528248749216 30.7226
31.19282341969534 30.6214
31.215939314557186 30.6546
31.239056512134788 30.7071
31.262175013589378 30.6574
31.28547544871168 30.6053
31.30859657161541 30.5657
31.331719001892175 30.5069
31.35484274070538 30.5814
31.378148458819545 30.6622
31.401274828443725 30.5927
31.424402510106933 30.5591
31.447712205419993 30.7261
31.470842524931633 30.4755
31.493974159989783 30.5724
31.51710711176168 30.5266
31.54042212308802 30.5102
31.563557722100917 30.5581
31.586694641341655 30.3036
31.609832881979628 30.1994
31.63315322823208 30.1289
31.656294125521327 30.0897
31.679436347728515 30.0168
31.70257989602529 30.0545
31.725905596152327 29.9629
31.74905181052835 29.9084
31.772199354521323 29.9919
31.79534822930507 29.9056
31.818679302290967 29.9715
31.84183085259981 29.8679
31.864983737233473 29.8646
31.88813795736804 29.9343
31.911474422233013 29.8448
31.934631327356435 29.8667
31.9577895715215 29.8433
31.980949155906522 29.7393
32.004291031706956 29.7365
32.027453310562606 29.6752
32.05061693318573 29.5028
32.07396288236386 29.5004
32.09712920658542 29.5027
32.12029687812702 29.3097
32.14346589817093 29.3349
32.166817291729984 29.1875
32.18998902288583 29.1842
32.21316210610336 29.1359
32.23633654256711 28.9775
32.259693399663725 28.9313
32.282870556771144 28.8478
32.30604907069099 28.8966
32.329228942610065 28.8429
32.35259128243769 28.7938
32.375773884550505 28.6372
32.398957848235646 28.609
32.422143174682176 28.6509
32.445511016471215 28.4522
32.468699082679954 28.4971
32.49188851523011 28.4748
32.51507931531304 28.3884
32.538452678331 28.4681
32.56164622776311 28.3084
32.58484114831493 28.2545
32.60803744118015 28.2922
32.631416344731896 28.1879
32.654615396551876 28.1348
32.67781582427913 28.1802
32.701198898634416 28.1379
32.72440209253756 28.0449
32.747606665947124 28.0753
32.77081262006088 27.8332
32.79420126883317 27.875
32.81740999876112 27.9108
32.840620112999424 27.8422
32.86383161274818 27.7799
32.88722585534586 27.7003
32.91044014056596 27.8618
32.933655814909734 27.7416
32.95687287957963 27.6972
32.98027273544904 27.6865
33.00349259526636 27.6294
33.026713849030116 27.6149
33.04993649794511 27.5875
33.073341986570746 27.5918
33.09656744032826 27.537
33.11979429286444 27.5271
33.14302254538647 27.6239
33.166433686291185 27.6019
33.18966475336992 27.5204
33.212897224069096 27.3785
33.23613109959831 27.373
33.259547912343415 27.4051
33.2827846121627 27.3545
33.306022720453775 27.2409
33.32926223842861 27.1442
33.352684742614166 27.1397
33.37592709463173 27.1474
33.399170859982064 27.0474
33.422597648419426 27.0442
33.44584425514446 26.807
33.46909227885668 26.7751
33.4923417207723 26.683000000000003
33.51577423505344 26.7457
33.539026528130385 26.6776
33.56228024307245 26.6129
33.585535381098246 26.4867
33.60897364093058 26.5014
33.63223163992385 26.4881
33.6554910656699 26.4227
33.678751919389796 26.5368
33.702195944520106 26.3082
33.72545966903325 26.4377
33.74872482519663 26.3195
33.771991414233746 26.3115
33.79544122444841 26.2355
33.81871069412428 26.2158
33.84198160035767 26.1867
33.86525394437455 26.1492
33.88870955949969 25.9964
33.911984794020626 26.0594
33.93526147001624 26.0343
33.958539588715006 26.0002
33.98200102861669 25.8652
34.0052820477047 25.8828
34.02856451319451 25.8006
34.05203033759056 25.7675
34.07531571090147 25.7736
34.09860253431845 25.8038
34.121890809074316 25.7012
34.145362493118924 25.6038
34.16865368561615 25.5618
34.191946333164054 25.6532
34.21524043699793 25.5532
34.23871800066799 25.5495
34.26201503218366 25.4429
34.28531352370466 25.3656
34.30861347646881 25.2936
34.33209693978188 25.2375
34.3553998301885 25.2529
34.378704185565205 25.1852
34.402010007152356 25.1506
34.42549939016683 25.1437
34.44880815937748 25.1037
34.472118398533134 25.1227
34.49543010887669 25.0829
34.51892543169198 24.9169
34.54224009966052 24.9518
34.56555624255917 24.9435
34.58887386163339 24.8473
34.61237514439016 24.7851
34.6356957311114 24.6917
34.65901779775809 24.7365
34.68252356662995 24.689
34.705848608458616 24.680999999999997
34.72917513396849 24.6492
34.75250314440949 24.5486
34.77601490857862 24.4756
34.799345904259795 24.4299
34.82267838863559 24.5344
34.846012362958525 24.4341
34.869530142679984 24.4074
34.89286711232212 24.4062
34.91620557568269 24.2987
34.93954553401677 24.3147
34.9630693495876 24.1805
34.986412313340814 24.328000000000003
35.00975677584668 24.3622
35.033102738362956 24.3115
35.05663261012228 24.2173
35.0799815881786 24.1513
35.10333207003229 24.1169
35.12668405694369 24.0546
35.150220005273056 24.0088
35.17357501786656 24.0675
35.19693153931268 23.8931
35.220289570874385 23.9583
35.24383161619786 23.948
35.267192683604904 23.899
35.290555264930376 23.8346
35.314101899412165 23.8828
35.33746752422433 23.8432
35.36083466676374 23.8725
35.38420332829803 23.7845
35.407756095629054 23.7607
35.43112781085063 23.7864
35.45450104888391 23.7553
35.477875810999194 23.7578
35.50143473172161 23.5665
35.52481255774625 23.6909
35.54819191167777 23.5704
35.57157279478914 23.601999999999997
35.595137889488406 23.519000000000002
35.61852184675279 23.4026
35.641907337029984 23.4941
35.665294361595684 23.4362
35.68886565090076 23.385
35.7122557598848 23.2834
35.73564740699838 23.2885
35.759040593519934 23.2758
35.78261809810353 23.2064
35.80601437933051 23.1355
35.829412203814705 23.0746
35.85281157283719 23.0725
35.876395313415884 23.0716
35.8997977874528 23.0296
35.92320180988546 22.9766
35.946790244133936 22.9352
35.97019737933222 22.9288
35.993606066789866 22.8316
36.01701630779276 22.8296
36.04061101440684 22.7813
36.06402437852291 22.8145
36.08743930005611 22.7551
36.1108557802951 22.7326
36.13445678011326 22.7107
36.15787639383515 22.6526
36.18129757014299 22.5479
36.20472031032821 22.618000000000002
36.22832762423364 22.4885
36.25175350829375 22.5584
36.275180960119776 22.4195
36.298609981005924 22.4789
36.32222362992669 22.4206
36.34565580510207 22.3411
36.36908955323448 22.3409
36.39252487562093 22.2496
36.416144880530226 22.2433
36.43958336764275 22.2404
36.463023432914625 22.2256
36.486465077645676 22.093000000000004
36.51009145956204 22.1899
36.53353627947859 22.141
36.55698268276811 22.138
36.58043067073321 22.0568
36.60406345072071 21.9673
36.62751462435344 21.9645
36.65096738658405 22.0032
36.67460498210655 21.9302
36.69806093788647 21.9585
36.72151848619297 21.8296
36.744977628333636 21.8718
36.76862165890998 21.7651
36.79208400512205 21.7721
36.81554794910557 21.803
36.83901349217101 21.6986
36.862663978991606 21.7057
36.88613273667352 21.6107
36.90960309738324 21.5386
36.933075062434064 21.474
36.95673202673572 21.5909
36.98020721697122 21.4421
37.003684015502365 21.3468
37.027162423645365 21.4288
37.050825886711465 21.3871
37.07430753063053 21.2968
37.09779078812467 21.3327
37.121275660513014 21.3016
37.144945643673694 21.2227
37.16843376245278 21.1997
37.19192350009803 21.1687
37.215414857931435 21.128
37.239091382563885 21.0697
37.262585997426164 21.0921
37.28608223645736 21.1162
37.309763684451696 21.0534
37.33326318851098 20.9877
37.356764320726555 20.9717
37.380267082425526 20.9769
37.40395510942588 20.9637
37.42746114683234 20.9041
37.45096881771841 20.769000000000002
37.474478123414166 20.7743
37.49817275092816 20.756
37.52168534303452 20.6575
37.54519957395567 20.6091
37.568715445024665 20.6398
37.592416694607714 20.621
37.61593586281424 20.6329
37.63945667518264 20.6421
37.66297913304891 20.5265
37.68668702630454 20.5469
37.710212792059274 20.4155
37.733740207334854 20.3628
37.757269273470364 20.4497
37.780983832050374 20.3145
37.80451621684926 20.3248
37.82805025654007 20.2961
37.851585952464795 20.2566
37.8753071980695 20.1874
37.89884622345676 20.1748
37.92238690911902 20.1428
37.94611318753442 20.0994
37.969657210779765 20.0743
37.99320289834801 20.0577
38.016750251586465 20.0084
38.04048325513017 19.9919
38.06403395679343 19.9121
38.087586328183946 19.8948
38.11114037065203 19.9407
38.13488012115898 19.9815
38.1584375229181 19.8438
38.181996599821 19.743
38.205557353221124 19.736
38.229303872575656 19.742
38.2528679961576 19.7317
38.27643380031219 19.7104
38.30000128639589 19.6118
38.32375459653193 19.6437
38.34732546371299 19.6274
38.37089801690786 19.5556
38.39447225747609 19.4691
38.418232380377425 19.4176
38.441810012983396 19.4291
38.46538933705673 19.4294
38.488970353960084 19.4643
38.51273731166058 19.3669
38.536321731567014 19.2694
38.55990784840681 19.2761
38.58367995004091 19.2724
38.60726947812959 19.2511
38.63086070726198 19.2942
38.654453638806274 19.2361
38.678232613930824 19.176
38.70182896773327 19.0932
38.72542702806741 19.1128
38.7490267963045 19.0788
38.77281266709232 18.9887
38.79641586862214 18.9767
38.8200207821842 18.932000000000002
38.843627409152944 18.9519
38.86742019782782 18.8826
38.891030269149255 18.8643
38.914642058016156 18.8
38.938255565806124 18.8239
38.96205529464307 18.7486
38.98567225787121 18.7812
39.00929094417078 18.7604
39.03291135492255 18.6934
39.05671804624804 18.6589
39.080341923549106 18.6426
39.103967529460334 18.5214
39.127594865365744 18.5238
39.15140854155791 18.4957
39.17503935514948 18.4458
39.19867190290282 18.5085
39.22249083587951 18.4944
39.24612686969409 18.5027
39.269764641845306 18.471
39.293404153722804 18.4451
39.317230110864074 18.3688
39.34087311998506 18.2956
39.36451787301696 18.2978
39.388164371352595 18.2592
39.41199737518003 18.2152
39.43564738196752 18.2413
39.45929913825317 18.1212
39.48295264543308 18.1197
39.506792718520884 18.1133
39.530449745387216 18.1042
39.55410852735203 18.0472
39.57776906581474 18.0044
39.60161623079 17.965999999999998
39.625280300200025 17.9843
39.64894613032202 17.9065
39.67261372255866 17.9211
39.6964680021016 17.8707
39.72013913657293 17.8755
39.74381203738292 17.8739
39.76748670593756 17.8599
39.79134812278169 17.8179
39.81502634488497 17.7513
39.83870633896685 17.7104
39.862388106436654 17.664
39.88625668336918 17.6307
39.90994201572829 17.7243
39.933629125719285 17.6151
39.957503091207826 17.5977
39.9811937746168 17.5477
40.00488623990914 17.511
40.02858048850006 17.563
40.05246165409549 17.4817
40.076159487492085 17.4107
40.099859108448875 17.3974
40.123560518384345 17.3947
40.1474489070226 17.3676
40.171153913178564 17.3033
40.194860712584955 17.2991
40.2185693066637 17.2603
40.242464941335314 17.2531
40.26617714307655 17.2281
40.289891143772046 17.233
40.3136069448471 17.19
40.33750984859743 17.1745
40.3612292688043 17.0705
40.3849504936829 17.0341
40.40867352466194 17.1027
40.43258372059144 17.0358
40.45631038219906 17.0237
40.48003885420956 16.9783
40.503769138055105 16.9589
40.52768664931955 17.0093
40.55142057531802 16.9124
40.57515631746428 16.8719
40.599079334038514 16.8476
40.62281872700477 16.8089
40.64655994043941 16.8428
40.67030297578061 16.7793
40.69423334835778 16.7741
40.71798004609188 16.7064
40.74172857006355 16.6765
40.76547892171441 16.7326
40.7894166736039 16.6309
40.813170699248566 16.5641
40.83692655691388 16.6001
40.86068424804498 16.5277
40.884629402612525 16.5139
40.908390779366385 16.5125
40.932153993938 16.4853
40.95591904777605 16.4784
40.979871628443995 16.4836
41.003640379561936 16.3756
41.02741097430883 16.4101
41.05118341413683 16.3661
41.075143444384416 16.3318
41.098919593177826 16.3478
41.1226975914255 16.2442
41.14647744058318 16.2345
41.170444943946755 16.1996
41.19422851378379 16.2109
41.218013938914645 16.1536
41.24198706625173 16.1357
41.26577622087193 16.105
41.289567235177785 16.0596
41.31336011063129 16.0362
41.337340752422875 16.0166
41.361137369129835 16.0044
41.38493585138705 15.9541
41.40873620066004 15.9161
41.43272438060107 15.8886
41.45652848292052 15.7845
41.48033445666918 15.8183
41.50414230331616 15.8529
41.528138045159764 15.7926
41.551949656675205 15.7583
41.575763145513235 15.790999999999999
41.59957851314666 15.7685
41.62358184070442 15.6267
41.64740098505737 15.6204
41.6712220126409 15.6399
41.69504492493139 15.6382
41.71905586207357 15.5657
41.74288256296395 15.5393
41.766711153007456 15.5363
41.79054163368412 15.5369
41.814560204340054 15.5133
41.838394485526365 15.4582
41.86223066180303 15.4061
41.88625497706819 15.4209
41.910094962812 15.4149
41.93393684811168 15.3842
41.95778063445365 15.3119
41.981812625263366 15.2906
42.00566023303407 15.3039
42.029509746323676 15.2664
42.05336116662236 15.205
42.077400857069705 15.1715
42.10125611078846 15.2493
42.12511327600405 15.1547
42.14897235421036 15.1519
42.173019768448455 15.1687
42.19688269209613 15.075
42.22074753323349 15.0403
42.24461429335818 15.0295
42.268669455600495 14.989
42.292540073217886 14.985999999999999
42.31641261433284 14.9476
42.34028708044675 14.9233
42.36435001496739 14.8892
42.38822835065557 14.8872
42.41210861586426 14.8877
42.4359908120986 14.8407
42.46006154323262 14.7691
42.48394762115317 14.7767
42.507835634632315 14.7838
42.531912233047436 14.7815
42.55580413732265 14.7793
42.579697981698 14.7522
42.60359376768525 14.6151
42.62767820545945 14.5944
42.65157789440821 14.5886
42.67547952952185 14.5852
42.699383112316 14.6142
42.72347541395347 14.5284
42.74738291190531 14.4938
42.771292362102166 14.4907
42.795203766063516 14.4953
42.819303956130405 14.4738
42.843219287476536 14.412
42.86713657716324 14.3775
42.89105582671383 14.3299
42.91516392983864 14.3439
42.939087119032166 14.3224
42.963012272677304 14.2579
42.98693939230129 14.251
43.01105543317513 14.1968
43.034986504731386 14.2182
43.05891954686589 14.1805
43.08285456110972 14.1678
43.10697856448665 14.1393
43.130917542983475 14.0919
43.15485849820081 14.0694
43.17880143167367 14.0606
43.20293342237094 14.0448
43.226880332449 14.0134
43.25082922540554 13.9967
43.27496722682525 13.9835
43.29892010567796 13.9371
43.32287497204102 13.9091
43.34683182745632 13.8413
43.370977859791836 13.8516
43.39493871351105 13.8795
43.41890156092628 13.8491
43.44286640358341 13.8146
43.46702049182749 13.8617
43.49098934522816 13.7877
43.51496019852649 13.7364
43.5389330532723 13.7074
43.56309522248204 13.6936
43.58707210044314 13.7028
43.61105098451946 13.6116
43.63503187626491 13.600999999999999
43.659202151562134 13.620999999999999
43.68318707902681 13.5458
43.70717401884041 13.5163
43.731162972560874 13.4886
43.75534137913236 13.4914
43.779334381108384 13.4359
43.803329401683186 13.4531
43.82732644241872 13.4291
43.8515130055166 13.3861
43.87551410707659 13.3569
43.89951723350145 13.3477
43.923709934595614 13.3328
43.94771713129917 13.3003
43.97172635758096 13.3031
43.99573761501002 13.2701
44.0199385169922 13.1954
44.04395385732619 13.2038
44.067971233533086 13.2363
44.09199064718605 13.1689
44.11619977548961 13.1351
44.14022328470671 13.1333
44.16424883610785 13.0945
44.18827643127035 13.092
44.21249381139513 13.0903
44.236525514814076 13.0509
44.26055926674478 13.052
44.28459506876863 13.0103
44.3088207262813 12.9291
44.33286064928722 12.9174
44.35690262714919 12.923
44.38094666145278 12.9166
44.4051806219871 12.9309
44.42922879003185 12.8162
44.45327901929361 12.8222
44.477331311362136 12.8255
44.501573600619416 12.7476
44.525630039221795 12.7861
44.54968854541895 12.7591
44.573937102200176 12.7275
44.5979997645541 12.6826
44.622064499300315 12.6899
44.64613130803592 12.6249
44.67038823869318 12.6198
44.69445921643748 12.6088
44.718532272981385 12.5834
44.742607409926194 12.5737
44.76687274034801 12.55
44.79095205918753 12.4981
44.81503346325094 12.4799
44.839116954143876 12.4737
44.86339071028742 12.4564
44.88747839599524 12.4248
44.91156817336837 12.383
44.93566004401666 12.3723
44.959942251908146 12.3779
44.984038330325966 12.332
45.00813650686762 12.2735
45.03223678314731 12.2899
45.05652746888232 12.2856
45.08063196592069 12.269
45.104738567558705 12.2212
45.128847275414856 12.1978
45.15314646515866 12.1758
45.17725940679741 12.1876
45.20137445952892 12.1387
45.22568004865265 12.11
45.24979934496396 12.0929
45.27392075725247 12.0915
45.29804428714431 12.0616
45.322358426247604 12.0953
45.346486212804315 12.0372
45.370616121861914 12.0081
45.39474815505086 11.9894
45.41907087049246 11.9671
45.4432071734666 11.9177
45.46734560548283 11.9304
45.49148616817604 11.8694
45.51581748638564 11.8731
45.5399623320197 11.8709
45.56410931325473 11.8119
45.58825843173002 11.8247
45.61259837920865 11.8093
45.636751793816 11.7825
45.66090735060093 11.7302
45.68506505120716 11.687000000000001
45.7094136545275 11.6871
45.73357566449271 11.6571
45.75773982322992 11.6474
45.78190613238733 11.6402
45.806263418194064 11.5944
45.83043404997326 11.6067
45.85460683713677 11.5762
45.87897065658495 11.5825
45.90314777634752 11.5311
45.92732705646868 11.530999999999999
45.9515084986045 11.5083
45.97588104735473 11.4721
46.00006683541565 11.4293
46.02425479047904 11.4628
46.04844491420549 11.4217
46.0728262191024 11.3876
46.09702070211635 11.357999999999999
46.12121735879483 11.3502
46.14541619080294 11.3234
46.169806278764455 11.3172
46.194009483459034 11.2773
46.21821486849841 11.29
46.24242243555223 11.2649
46.266821333570014 11.2416
46.29103328674601 11.2347
46.31524742696538 11.1999
46.33946375590237 11.1892
46.36387149104216 11.1696
46.38809221957392 11.0895
46.41231514186606 11.1329
46.436540259597464 11.1248
46.460956858999374 11.0663
46.48518638983522 11.0368
46.509418121166966 11.0342
46.533652054678114 11.0121
46.55807754555709 10.9739
46.58231590571962 10.978
46.60655647313217 10.9286
46.630988654873654 10.9044
46.655233659129024 10.8856
46.67948087571551 10.8866
46.70373030632484 10.8266
46.72817142736393 10.8454
46.752425308428684 10.8377
46.77668140861147 10.8474
46.80093972960865 10.7936
46.82538981736788 10.7394
46.849652602470904 10.6958
46.87391761349769 10.7143
46.8981848521493 10.713
46.9226439341274 10.7106
46.946915650573224 10.6489
46.97118959976749 10.6068
46.99546578341598 10.6051
47.019933887188216 10.6275
47.04421456235744 10.6085
47.06849747711879 10.5993
47.09278263318286 10.5432
47.11725978640143 10.491
47.14154944775105 10.5144
47.165841355555656 10.5242
47.1901355115306 10.4573
47.214621741924994 10.4941
47.23892041698887 10.4179
47.26322134538975 10.3775
47.28771440635075 10.3985
47.31201986422527 10.3875
47.33632758061436 10.3695
47.360637557241866 10.3433
47.38513974410611 10.3298
47.40945426407847 10.3252
47.43377104948137 10.3063
47.45809010204344 10.2985
47.48260144275502 10.2079
47.506925052572285 10.187000000000001
47.53125093475548 10.1711
47.55557909103813 10.1888
47.58009961361992 10.1667
47.60443234110732 10.1238
47.62876734791564 10.1016
47.65310463578333 10.0848
47.6776343683373 10.0788
47.7019762413987 10.0797
47.72632040075572 10.0506
47.75066684815169 10.023
47.77520581885936 10.0046
47.799556865477655 9.96747
47.823910205386 9.96562
47.84826584033272 9.974160000000001
47.87281407745551 9.91287
47.89717432569297 9.93501
47.92153687423484 9.90836
47.94609208429692 9.874410000000001
47.97045925671401 9.86667
47.99482873471275 9.80707
48.01920052005013 9.83226
48.04376504619224 9.84687
48.068141469543484 9.8337
48.09252020552573 9.78702
48.11690125590099 9.73709
48.1414751266064 9.74783
48.16586082917454 9.752
48.19024885144316 9.70091
48.2146391951793 9.6795
48.239222439012764 9.720369999999999
48.26361744916137 9.651010000000001
48.28801478610016 9.64979
48.31241445160131 9.64054
48.337007097209366 9.63545
48.36141144338331 9.575280000000001
48.38581812345755 9.59817
48.41022713920929 9.56506
48.434829215320704 9.53652
48.45924292604658 9.53068
48.48365897780325 9.54392
48.50807737237308 9.48959
48.532688907799276 9.46543
48.55711201168574 9.413160000000001
48.581537463754074 9.4466
48.60615611725119 9.452060000000001
48.63058628942721 9.41312
48.65501881516546 9.416089999999999
48.6794536962573 9.36139
48.70408185970339 9.37532
48.72852147531801 9.32965
48.75296345168211 9.29826
48.77740779059232 9.313930000000001
48.80204549302823 9.32015
48.82649458091802 9.32047
48.85094603676547 9.27011
48.87539986237231 9.23599
48.90004713292306 9.21796
48.92450572200832 9.1957
48.94896668628025 9.1718
48.97343002754588 9.14655
48.99808689542115 9.132060000000001
49.02255501470614 9.12447
49.04702551642794 9.137139999999999
49.0714984023988 9.134139999999999
49.096164896893235 9.07634
49.120642575466796 9.05561
49.145122643748394 9.0566
49.16960510355558 9.02362
49.19428125404938 8.989930000000001
49.2187685210852 8.98253
49.243258185121555 8.9751
49.26794160167084 8.962589999999999
49.2924360839405 8.94082
49.31693296869764 8.8693
49.34143225776915 8.86272
49.36612538195438 8.86311
49.39062950396021 8.85167
49.41513603578346 8.80525
49.4396449792564 8.832310000000001
49.46434784069503 8.85817
49.488861631846454 8.79958
49.513377840166804 8.78624
49.537896467493745 8.72606
49.56260909589029 8.6908
49.587132585683285 8.70785
49.611658500018365 8.68396
49.636186840738596 8.67883
49.66090926588511 8.69055
49.685442483902584 8.66911
49.70997813385706 8.62129
49.734516217597076 8.61727
49.75924846937352 8.63515
49.7837914452858 8.62007
49.80833686055187 8.59205
49.83288471702571 8.55443
49.85762682540054 8.51191
49.882179588965734 8.52758
49.9067347993235 8.519210000000001
49.93129245833333 8.5188
49.95604445336378 8.488669999999999
49.98060703442832 8.46353
50.005172069746266 8.44321
50.02993150438364 8.42436
50.05450147301533 8.41837
50.07907390151433 8.37292
50.10364879174981 8.367239999999999
50.12841816587289 8.364360000000001
50.1529980044635 8.357569999999999
50.17758031042124 8.343919999999999
50.20216508562089 8.31361
50.22694442953363 8.31425
50.25153416817468 8.2959
50.27612638170508 8.272739999999999
50.300721072005196 8.20548
50.325510416102105 8.23986
50.350110084975064 8.22167
50.37471223628208 8.24203
50.39931687190919 8.16265
50.424116246675766 8.17487
50.44872587605249 8.17455
50.47333799543065 8.16975
50.49795260670191 8.168280000000001
50.52276204271512 8.125760000000001
50.54738166295838 8.08433
50.57200378079314 8.059569999999999
50.596628398116835 8.068489999999999
50.62144792604559 8.02599
50.646077567609396 7.994280000000001
50.670709714377715 8.01096
50.69553683636198 7.99648
50.72017401885922 7.99936
50.7448137122895 7.97065
50.76945591856022 7.965139999999999
50.79429318636823 7.93685
50.818940443716784 7.94154
50.84359021965163 7.915189999999999
50.868242516085964 7.89646
50.893089960641895 7.87898
50.917747323549435 7.88485
50.94240721271973 7.8513399999999995
50.96706963007175 7.83752
50.99192728239342 7.81948
51.01659478166073 7.82282
51.04126481489051 7.78458
51.06593738400761 7.764469999999999
51.090805275207074 7.750089999999999
51.11548294172845 7.75373
51.14016314993547 7.742560000000001
51.164845901758845 7.71738
51.18972406304274 7.68015
51.21441192780656 7.6835
51.23910234200271 7.676080000000001
51.2637953075678 7.674689999999999
51.288683770237945 7.61988
51.31338186432707 7.6055600000000005
51.33808251561888 7.60001
51.362978729967345 7.5769
51.387684521509755 7.55179
51.41239287610203 7.544239999999999
51.437103795691165 7.576110000000001
51.46201036644977 7.5338899999999995
51.486726441956634 7.5083
51.51144508832545 7.491110000000001
51.536166307509156 7.5152600000000005
51.56108326624387 7.460210000000001
51.58580965706056 7.45442
51.61053862657523 7.44545
51.635270176746864 7.42877
51.66019755512065 7.38275
51.68493429268881 7.37982
51.70967361681515 7.393389999999999
51.73441552946465 7.33275
51.759353359237934 7.32895
51.7841004750961 7.33931
51.80885018539685 7.31031
51.833602492111254 7.2960199999999995
51.8585508051424 7.26318
51.883308330926425 7.27412
51.90806845906181 7.26492
51.932831191525715 7.23504
51.95779001977161 7.18317
51.98255798721516 7.1778699999999995
52.00732856494335 7.18963
52.03229530577543 7.13179
52.057071130455945 7.1702699999999995
52.081849571391054 7.1208800000000005
52.106630630568695 7.13076
52.13160794279417 7.097110000000001
52.15639426492067 7.094469999999999
52.18118321127822 7.1214699999999995
52.205974783860896 7.064589999999999
52.23096269971011 7.081589999999999
52.255759551287994 7.02504
52.280559035098186 7.0026399999999995
52.30536115314103 6.99804
52.33035970494467 7.025639999999999
52.35516711807904 6.99021
52.37997717147198 6.9564699999999995
52.40478986713005 7.00407
52.42979908731974 6.93558
52.454617094216 6.90649
52.47943774942214 6.890339999999999
52.50426105495102 6.89767
52.529280976059844 6.885
52.554109609024096 6.89038
52.57894089837482 6.839930000000001
52.60377484613117 6.82163
52.62880550079408 6.83794
52.65364479223379 6.8036
52.67848674816189 6.787160000000001
52.70352547971946 6.7569300000000005
52.72837279155837 6.72507
52.753222773982785 6.75473
52.778075429022984 6.74308
52.80312495150885 6.742210000000001
52.827982978797436 6.73906
52.85284368481815 6.668710000000001
52.87770707160767 6.71473
52.90276741793998 6.68578
52.92763619336701 6.650180000000001
52.952507655698504 6.6341
52.977381806977576 6.668539999999999
53.00245301017842 6.613180000000001
53.02733256653592 6.59063
53.052214817996074 6.59377
53.077099766608484 6.5947
53.102181859804446 6.5484800000000005
53.127072229988265 6.558789999999999
53.15196530349892 6.55178
53.17686108239249 6.50256
53.20195409881522 6.47529
53.22685531582556 6.5149
53.25175924441303 6.47389
53.27666588664027 6.4634599999999995
53.30176985962693 6.42375
53.3266819565689 6.441669999999999
53.35159677336455 6.4515400000000005
53.376514312083096 6.41865
53.40162927507703 6.42028
53.42655228516116 6.376180000000001
53.45147802340193 6.38974
53.47660125628886 6.343369999999999
53.50153247842639 6.35428
53.52646643496923 6.35619
53.55140312799818 6.30425
53.576537409691696 6.314780000000001
53.60147960336152 6.29059
53.626424539786164 6.25788
53.65137222105307 6.2887900000000005
53.67651758529126 6.23075
53.70147078399681 6.17213
53.72642673383343 6.21358
53.75138543689533 6.19423
53.776541917524526 6.1915
53.801506154876755 6.18182
53.826473151763246 6.17031
53.851442910284916 6.1567300000000005
53.87661054126026 6.1468300000000005
53.9015858509782 6.11519
53.92656392866066 6.08218
53.95154477641532 6.12836
53.976723591801296 6.11161
54.00171000771266 6.09661
54.02669920004598 6.03251
54.051691170915745 6.0247
54.076881204886796 6.01649
54.101878760928514 6.02264
54.12687910187696 5.97634
54.152077577768296 5.96389
54.1770835166946 5.95926
54.20209224691339 5.94174
54.22710377055121 5.93574
54.25231352511594 5.92354
54.27733066384342 5.87303
54.30235060239643 5.916930000000001
54.32737334290836 5.87255
54.35259441062629 5.86331
54.377622783395324 5.83668
54.40265396455061 5.8458
54.42768795623251 5.80225
54.45292037169559 5.76347
54.477960012857906 5.77091
54.50300247099511 5.7620000000000005
54.52804774825457 5.72264
54.55329154616743 5.6881900000000005
54.57834249018678 5.704940000000001
54.6033962597977 5.69592
54.6284528571545 5.6862
54.653708072335164 5.64281
54.67877035378786 5.64176
54.70383546947698 5.60574
54.72890342156389 5.60872
54.7541700889442 5.59244
54.77924374251975 5.5534300000000005
54.8043202390049 5.5662
54.82959552413022 5.514130000000001
54.8546777351945 5.4961199999999995
54.87976279569621 5.47003
54.90485070780914 5.4993
54.930137506558005 5.475219999999999
54.95523115074295 5.44303
54.98032765308844 5.40624
55.005427015775496 5.4241
55.03072536339621 5.36602
55.05583047570572 5.340990000000001
55.080938454927676 5.29117
55.10604930325027 5.29946
55.131359235107396 5.321269999999999
55.15647585066083 5.24481
55.181595341907496 5.21368
55.20671771104285 5.21836
55.232039262617704 5.22505
55.25716741665048 5.17732
55.28229845518636 5.134119999999999
55.30743238042802 5.11273
55.33276558731939 5.10525
55.357905315183636 5.06062
55.383047936390035 5.0251
55.40819345314859 5.0576099999999995
55.433538351073295 5.02077
55.458689688238415 4.95489
55.483843927614096 4.97049
55.509197623043605 4.97346
55.53435769621134 4.94449
55.55952067826466 4.90718
55.5846865714265 4.88785
55.61005202069737 4.893330000000001
55.63522376553902 4.86192
55.66039842818645 4.86442
55.68557601087004 4.83204
55.7109532500271 4.73815
55.73613670233794 4.73666
