TT I
1.2716486653135266 7.12498
1.2939594142134223 7.078180000000001
1.3162702121660406 6.632810000000001
1.3385810600174564 6.8535
1.3608919586137629 6.50511
1.383202908801069 6.20225
1.405513911425503 5.53532
1.4278249673332093 6.412319999999999
1.4501343378461518 6.560860000000001
1.4724455028545926 6.057980000000001
1.4947567236847858 5.58285
1.517068001182951 6.43734
1.5393793361953272 5.9975
1.5616907295681737 5.36929
1.5840021821477681 5.19693
1.60631369478041 4.9804
1.6286252683124185 5.04778
1.6509369035901333 5.173690000000001
1.6732468618895553 4.8711400000000005
1.695558623192809 4.64926
1.7178704487808514 5.43963
1.7401823395001077 5.15479
1.7625012545597203 4.83806
1.7848028405262486 3.98947
1.8071218901122095 4.31377
1.8294236121921872 3.88606
1.8517427996910911 4.7008
1.8740620574440425 4.36008
1.8963639900671978 4.44792
1.9186833908139995 4.17593
1.9409854680117449 4.9055800000000005
1.9633050151394713 4.98423
1.9856246367570705 4.6525099999999995
2.0079269371922672 4.21486
2.03024671027244 4.64144
2.0525491637446027 4.59775
2.074869091674931 4.55472
2.097171701569106 4.92917
2.1194917877373847 5.21026
2.141811954326636 5.71164
2.164114805233074 5.33619
2.186435135143035 6.46065
2.208738150935709 15.4092
2.231058647554722 33.8965
2.2533792288321184 26.245
2.275682498336085 11.9148
2.298003251406138 6.2478
2.3203066942619714 5.722519999999999
2.3426276225136022 5.72599
2.3649486396617507 5.7835
2.387252348930071 6.27243
2.4095735463442893 6.08122
2.4318774374315884 6.636539999999999
2.4541988185014043 7.216130000000001
2.476502894794693 7.171939999999999
2.498824462909887 7.2384
2.521146125856138 7.70425
2.5434504863470337 7.2681
2.5657723414244717 8.34741
2.588076895590662 9.29802
2.610398946189713 9.299
2.6327210958598384 9.08816
2.6550259469304716 8.437619999999999
2.6773482972090137 8.4506
2.6996533504259 8.9697
2.7219759047039602 8.65953
2.744298562293959 8.75508
2.7666039251246595 8.11162
2.7889267918020164 8.08942
2.8112323652516555 8.837760000000001
2.833555444408179 8.82116
2.8558786311183852 9.50718
2.8781845268938557 8.78437
2.9005079311721484 9.057210000000001
2.9228140460410397 9.64308
2.9451376712799635 9.681230000000001
2.967444008632326 9.48863
2.9897678582247247 10.0471
3.0120918213106695 10.2751
3.0343984987899373 10.6041
3.0567226913198637 11.4202
3.079029599759726 12.1286
3.101354025127254 12.4376
3.123678568232338 13.2299
3.145985829517914 12.7538
3.16831061055229 13.6723
3.1906181112775593 14.7269
3.212943133635653 15.231
3.2352682779763207 15.4256
3.2575761442691227 15.6148
3.2799015350264273 16.0436
3.302209649240067 16.642
3.3245352898092655 17.1165
3.3468436553365257 17.6246
3.369169549113219 18.3695
3.3914955708171384 18.9915
3.413804319727358 19.1603
3.4361305997334863 19.2974
3.4584396084414553 19.9296
3.4807661501462652 20.2111
3.503092824025881 20.4976
3.5254022288463154 21.0021
3.5477291695206588 21.962
3.5700388426251948 22.3632
3.5923660534916446 24.0872
3.6146934007816114 40.7762
3.637003482731501 102.059
3.6593311053109985 116.273
3.681641464033634 65.1429
3.7039693653009733 31.9786
3.726297407241705 26.4907
3.7486081875460804 26.1576
3.7709365132734978 26.0299
3.793247578841633 26.5491
3.8155761917550093 26.5111
3.8378875459837216 26.7065
3.8602164494827234 27.1537
3.882545499606844 28.1741
3.9048572932539183 29.0848
3.9271866390645718 29.1664
3.9494987298666713 29.5525
3.971828374764527 30.1358
3.9941581705403255 30.7334
4.016470713506008 31.125
4.038800813471445 31.5767
4.061113662089144 32.4646
4.0834440696459176 33.4227
4.105774632334751 33.6656
4.128087945865126 34.4675
4.150418821249301 35.3555
4.172732448931298 37.1203
4.195063640413578 38.7534
4.2173775856475215 42.8377
4.239709096631102 79.3819
4.262040768704612 278.198
4.284355196706267 387.398
4.306687193387355 249.11900000000003
4.329001947444346 91.0724
4.35133427213731 48.964
4.373666762177566 44.7282
4.395982011761091 44.3285
4.418314834921175 45.637
4.44063041906622 54.4031
4.4629635787515625 68.3133
4.4852969080429785 68.3571
4.5076130004776225 55.0378
4.529946671403969 49.854
4.552263106909177 49.235
4.574597122877047 49.9888
4.596931312711224 51.9708
4.619248269273446 52.5244
4.6415828092605835 53.5941
4.663900117405352 54.6283
4.686235010953232 55.7506
4.708552674085913 56.7667
4.730887924602802 58.6764
4.753223354952695 59.9191
4.775541557023902 60.8715
4.797877349456786 62.1815
4.820195915032126 64.8035
4.842532072957498 65.9516
4.864868414979744 67.7461
4.88718753227192 69.4789
4.909524244902505 71.3372
4.931843734218147 72.6826
4.954180820867835 75.2466
4.976518095879839 78.1527
4.998838149695359 80.4365
5.021175803844231 83.8963
5.043496238205739 86.5298
5.065834274903528 90.311
5.088172504230693 94.8037
5.1104935158799565 100.10799999999999
5.132832132875765 122.008
5.155153533596801 168.081
5.1774925416746225 198.502
5.199814334878411 267.976
5.2221537374521505 701.655
5.244493338631803 2193.63
5.266815727034316 7105.33
5.289155727832427 13370.0
5.311478517248165 9038.78
5.333818921080011 2753.62
5.356159527788849 509.86699999999996
5.3784829252032536 173.092
5.400823940070432 137.83
5.423147747031976 123.695
5.445489173474152 115.104
5.467830807066149 109.59100000000001
5.490155234831516 106.01299999999999
5.512497285125229 103.057
5.534822130975162 101.605
5.557164601388673 99.4689
5.579489868738879 96.5656
5.601832762690846 95.8561
5.6241758697774475 95.3535
5.646501775867269 94.2261
5.668845311622074 92.8288
5.691171647754637 91.8823
5.713515615597765 90.6698
5.735859800852677 89.6424
5.758186788542988 88.6389
5.780531411018185 88.6053
5.802858837297399 88.13
5.825203900414495 88.1001
5.8475491852224 87.8068
5.869877275883075 88.5069
5.892223006467101 89.3973
5.914551544266608 89.7258
5.936897724049891 91.3535
5.959244129804903 94.9406
5.981573344815301 105.295
6.0039202049061 161.756
6.026249875609095 336.213
6.04859719346037 751.3689999999999
6.070927323278297 1961.23
6.093275102315365 4558.54
6.115623113320588 5456.2
6.137953938319995 3249.7
6.160302415650845 916.318
6.182633708324452 214.101
6.2049826554078376 108.271
6.227331838745022 89.0551
6.249663839443684 82.7717
6.27201349767565 81.3684
6.294345974611799 89.2183
6.316696111167083 104.801
6.339046488263839 98.9911
6.361379686074702 80.7385
6.383730546639482 71.1265
6.406064229255215 67.6584
6.428415576718203 66.9976
6.450749747566656 66.1784
6.47310158535871 65.3951
6.495453669698332 64.4477
6.517788579421056 63.6267
6.540141159237969 62.9588
6.562476565766648 62.527
6.5848296444934045 62.0929
6.607182974060425 61.5928
6.6295191323281015 62.1169
6.651872965955752 66.0812
6.6742096296068985 97.1109
6.6965639707294615 154.68
6.71891856698715 156.35
6.741255995248479 102.93299999999999
6.763611104154477 70.2021
6.785949046381137 60.2293
6.808304671371482 57.742
6.8306605557940046 57.1331
6.852999275508618 56.8006
6.875355681171544 56.6447
6.897694923437771 56.1667
6.92005185377892 56.099
6.9423916220322655 56.0795
6.964749080490181 55.1819
6.987106804399774 55.0167
7.009447368180821 55.0067
7.031805625367033 55.0344
7.054146723727803 55.1555
7.076505517631004 54.5457
7.098864581288365 54.5967
7.121206488070854 54.2738
7.143566093607822 54.4391
7.165908543567245 54.6307
7.188268694426048 54.723
7.2106291193438095 54.5815
7.232972390625943 56.9386
7.255333366030969 71.9135
7.277677189091925 138.262
7.300038718428332 196.139
7.322400526130865 166.67
7.344745183422596 98.0779
7.367107550224791 63.147
7.389452767901992 55.9612
7.411815697249891 55.0402
7.434161478756298 54.118
7.456524974096713 53.8704
7.478888753837185 54.1241
7.501235387657368 54.5611
7.523599738562711 54.3118
7.545946944825532 54.8196
7.568311870344528 54.8812
7.5906770845765665 54.9398
7.613025156078678 56.7348
7.635390950099687 58.3064
7.657739602662809 56.8023
7.680105979923558 55.5457
7.702472650212829 55.3444
7.724822180948224 55.2233
7.747189439655568 55.5273
7.769539560075357 55.2163
7.791907410653562 55.7538
7.81425812420825 55.6513
7.836626570110925 56.1425
7.858995315087906 57.1643
7.881346924933401 56.883
7.903716270417482 57.4593
7.926068482028405 57.7312
7.948438431475253 58.1705
7.9708086843180235 58.7613
7.993161805171116 59.4394
8.015532667162402 59.815
8.037886398416653 60.8776
8.060257873014221 61.1011
8.082629655331942 61.7945
8.104984308787587 62.5089
8.127356708900503 66.4671
8.149711981398308 72.9315
8.172085002766314 75.6807
8.194458336181368 72.2034
8.216814543847752 68.3799
8.23918850371002 68.1628
8.26154533906492 68.6589
8.283919928836452 70.2439
8.306277395339652 70.8597
8.328652618483376 72.2716
8.351028159736202 73.9819
8.373386579575245 75.9738
8.395762759396959 77.8757
8.418121819038275 83.1421
8.440498640894003 97.8061
8.462875785192262 113.352
8.485235811156207 118.881
8.507613602688501 138.746
8.529974277114228 201.766
8.552352719347912 312.938
8.574731488360351 551.559
8.59709314210385 1109.7
8.619472567021075 1887.48
8.64183487789147 2339.16
8.664214962183097 1911.47
8.686577933647762 953.9789999999999
8.708958680784317 356.844
8.731339760774953 163.203
8.753703729764451 108.759
8.77608547780821 96.6531
8.798450116065078 93.0666
8.820832535634787 90.3895
8.843215292401656 89.2105
8.865580941199045 87.5978
8.887964374703538 86.8201
8.910330701447199 88.2307
8.932714815164482 91.2327
8.955099270424924 91.0858
8.977466620733543 87.3123
8.999851761421976 83.8542
9.022219798361645 81.8417
9.04460562795561 81.693
9.066991803441677 81.2381
9.089360876979615 80.8681
9.111747746589993 80.9797
9.13411751544971 80.3948
9.156505082664324 79.9436
9.178875550323522 80.2547
9.20126381862328 80.8199
9.223652438908596 81.3576
9.246023961427412 80.8062
9.26841328802173 80.5521
9.290785518039224 80.0034
9.313175554425882 80.7814
9.335565947154315 80.6659
9.357939245086508 80.8094
9.380330352834827 80.8759
9.40270436697103 81.6354
9.425096193225055 81.4002
9.447488380180165 82.0404
9.469863475295412 82.0544
9.492256385987508 82.5577
9.514632206018318 82.9981
9.537025843935714 83.6616
9.559402392368193 84.4668
9.581796761000229 85.4361
9.604191496441521 86.369
9.626569144158516 90.1474
9.648964615551032 96.1109
9.671343000390081 97.6448
9.693739211225699 95.3568
9.716135793237463 92.2873
9.738515290448102 91.2115
9.760912617143402 91.3025
9.783292860202891 92.5734
9.805690935076182 93.5505
9.828089385495742 94.7414
9.850470754023561 97.3063
9.872869957865444 105.944
9.89525208097539 123.55
9.917652041736662 138.032
9.940052382417589 135.898
9.962435644102392 131.947
9.984836746950979 150.86
10.007220771957746 198.083
10.029622640473708 283.788
10.052007432299963 448.711
10.074410069984072 731.6189999999999
10.096813093716005 1236.37
10.119199042482517 1760.64
10.141602840636468 2030.13
10.163989564971628 1582.56
10.186394141051062 886.4069999999999
10.208799107559706 373.44
10.231187001965623 179.62599999999998
10.253592751657669 122.999
10.275981430388155 110.666
10.298387966769793 110.834
10.320794897965431 114.64
10.343184759907361 113.676
10.36559248305461 107.637
10.387983138083852 102.249
10.410391656691655 101.84700000000001
10.432800574501677 108.93
10.455192425893369 121.39
10.47760214443012 143.215
10.499994797678786 183.926
10.522405320453982 262.36400000000003
10.54479877906917 397.624
10.567210109595656 530.04
10.5896218454736 608.9730000000001
10.612016518879773 517.94
10.634429067781074 349.18300000000005
10.656824555333241 197.493
10.679237920773568 123.25
10.701651695961992 94.7238
10.724048411481384 87.3382
10.746463008485165 84.9036
10.768860546937125 83.2047
10.791275969274796 81.4715
10.81369180576079 80.4952
10.836090585366925 79.3643
10.858507252467449 78.7038
10.88090686379991 77.4804
10.903324365036394 77.205
10.925724811614439 77.212
10.948143150509463 78.389
10.970561909719066 77.9956
10.992963615930844 75.9491
11.015383218085756 73.6655
11.037785768347074 71.9513
11.06020621697282 71.436
11.082627090322113 70.9843
11.105030913430326 70.5317
11.12745263854165 71.4282
11.149857314510728 76.0202
11.172279894912576 83.0248
11.194702904450653 84.4907
11.217108866490921 79.5697
11.239532736615194 74.2685
11.26193956033512 71.528
11.284364294577085 69.5494
11.306789462371718 67.3714
11.329197585398376 66.0746
11.351623622610898 65.8028
11.37403261614354 64.8751
11.396459526308487 65.008
11.418869393879497 64.2085
11.441297180532617 63.9077
11.463725406927658 63.7761
11.486136592353875 63.5644
11.508565700543707 64.4626
11.530977768845315 66.7568
11.553407762368774 67.8311
11.575838200059769 67.247
11.598251599479612 64.7626
11.620682927815501 62.8031
11.64309721895548 62.5044
11.665529441478206 61.8924
11.687962112597958 61.3547
11.710377748130886 61.9493
11.732811318753434 61.7378
11.755227854859067 61.5654
11.777662328529495 61.8326
11.800079768750786 61.3133
11.822515149015453 61.2503
11.844950984084935 61.5869
11.867369787303163 61.0835
11.889806534289491 61.0506
11.912226250487029 61.3872
11.934663912939751 61.3775
11.9571020346363 61.4667
11.979523127133968 61.4545
12.001962169624331 62.0868
12.024384183972964 62.7502
12.046824150809913 64.54899999999999
12.069264581333726 68.5613
12.091687985297767 74.1361
12.11412934550045 82.5345
12.136553680195208 97.1949
12.158995973632788 118.07
12.181438735204349 149.523
12.20386447284199 184.05200000000002
12.226308172985636 205.391
12.24873485024193 199.44799999999998
12.271179492516982 162.969
12.293607112949127 122.899
12.316052700916226 94.7948
12.338498763250042 78.3725
12.360927805303868 69.8841
12.383374818673879 65.798
12.405804812803074 63.4562
12.428252780773262 63.0517
12.45070122756722 62.9757
12.473132656675375 62.795
12.49558206341869 63.1146
12.518014453510101 62.9184
12.540464823770117 63.2832
12.562915677315177 63.4371
12.58534951575545 64.2619
12.607801338171472 66.675
12.630236146511358 73.2759
12.652688941369085 79.1116
12.675124723177234 79.5923
12.697578494048786 74.9555
12.720032754458185 69.5258
12.742470003354093 66.9782
12.764925245138771 66.4322
12.787363476431278 66.6245
12.809819703166806 66.7799
12.83227642391173 67.5428
12.854716135692716 68.0436
12.877173846755147 69.17
12.899614549869717 69.4171
12.9220732548287 70.2212
12.94453245827299 70.4399
12.966974655289818 71.5413
12.989434858002571 72.0247
13.011878055298721 72.7729
13.034339260862497 73.8473
13.056800969391883 74.8894
13.079245674017244 76.7171
13.101708390774869 78.361
13.12415410463411 83.2162
13.146617833206086 92.3446
13.169064559883248 101.81700000000001
13.191529303857127 114.589
13.213994557076367 134.486
13.236442809902437 168.359
13.258909083908291 223.68400000000003
13.28135835851934 294.64
13.30382565690295 375.18300000000005
13.326293469022952 435.79900000000004
13.348744283242008 435.19599999999997
13.371213125129904 356.63599999999997
13.39366497011003 255.062
13.416134845360597 170.635
13.438605238843131 121.171
13.46105863690397 101.04299999999999
13.483530069144786 98.8993
13.505984506951902 102.531
13.528456981549432 111.05799999999999
13.550929978879088 124.167
13.573385983253365 145.578
13.595860028340867 184.075
13.618317081455832 238.481
13.64079217790333 302.882
13.663250283359057 358.05400000000003
13.685726434770173 381.025
13.708203115221277 338.16900000000004
13.730662806148091 255.59900000000002
13.75314054697177 179.405
13.775601299246777 123.51799999999999
13.798080104050406 94.4727
13.820559442405358 83.4991
13.843021793671388 80.0262
13.865502201420897 78.437
13.887965623051947 77.8538
13.910447103807167 76.5187
13.932929122629764 75.3394
13.955394156785959 74.995
13.977877254034569 74.2988
14.000343367582113 73.3302
14.022827546871707 72.7365
14.045294743423524 72.0627
14.06778000837062 71.5057
14.090265817715476 71.3166
14.112734645763819 71.1538
14.13522154619454 70.9997
14.157691466286913 71.028
14.180179461423874 70.8018
14.202668005486178 69.9142
14.22513957064374 69.3227
14.247629214846473 68.5932
14.270101881097517 68.645
14.29259262906496 69.1729
14.315083930490205 69.9268
14.337558255389705 70.6201
14.360050666019726 70.354
14.382526101071944 69.1169
14.405019624534942 68.1531
14.427513705993134 67.441
14.449990813291825 67.1904
14.47248601302899 67.1857
14.49496423954951 67.2737
14.517460561197822 67.0734
14.539939910570322 67.2374
14.562437357763558 67.434
14.58493536931253 68.7341
14.607416409993311 69.8361
14.62991555254159 70.7751
14.652397725157423 70.439
14.674898002342799 69.6734
14.697398848433282 68.705
14.719882725991326 69.1272
14.74238471217934 69.4546
14.764869730765593 71.6365
14.787372860692983 74.2822
14.809876564079925 78.0977
14.83236330125751 82.9788
14.854868153850365 90.2922
14.877356041159485 102.681
14.899862046604186 120.74600000000001
14.922351087688757 146.76
14.944858249632887 179.52900000000002
14.967365991421232 210.78599999999997
14.989856770231246 229.84799999999998
15.012365673994204 219.83599999999998
15.03485761569738 189.93400000000003
15.05736768508665 150.082
15.07987833888692 113.81299999999999
15.102372032001655 88.75399999999999
15.124883856909658 75.4045
15.14737872204565 70.6662
15.169891721717274 69.1311
15.192405310371893 68.9758
15.214901940621196 69.584
15.237416709527137 69.9467
15.259914520936249 70.1756
15.282430473753607 69.2018
15.304947020131227 67.7985
15.327446610371178 66.9382
15.349964346154254 65.8201
15.372465126703139 65.4927
15.394984055556009 65.1373
15.417486030076159 64.8677
15.44000615566487 64.5641
15.462526881230803 64.6623
15.485030653812652 64.8626
15.507552581617434 64.8244
15.530057557334603 64.9927
15.55258069104857 64.6733
15.575104429329837 64.8948
15.597611216864632 64.1606
15.620136166564563 64.3594
15.6426441664095 64.5297
15.665170331202765 65.9684
15.687697105158826 68.5372
15.710206930593545 71.2533
15.732734925158933 74.7913
15.755245972089478 79.9953
15.77777519094324 88.6351
15.800287463046663 100.865
15.822817909869592 119.32700000000001
15.84534897229804 143.233
15.867863089299354 170.22299999999998
15.890395385222186 189.898
15.912910736597423 196.77
15.935444269699861 182.722
15.957978423016485 153.793
15.980495633101265 120.866
16.003031029129367 94.4851
16.02554948280019 76.1158
16.048086125229432 67.1687
16.070623392487107 64.4517
16.09314371869582 63.7155
16.11568223789321 62.7937
16.13820381691126 61.773999999999994
16.160743591742527 60.6875
16.183283996022084 59.4592
16.205807461423195 58.2964
16.228349126881973 57.9005
16.25087385432698 57.8489
16.27341678466365 57.1928
16.29594277784926 57.3591
16.31848697676433 57.7415
16.341031811604868 58.2665
16.36355971058487 58.7143
16.3861058195587 58.2539
16.40863499352978 56.7629
16.431182380342005 55.8023
16.453730407713202 55.0427
16.476261501364792 54.7
16.498810812136167 54.395
16.52134319004079 54.5932
16.54389378792203 54.3758
16.566445031001553 54.056999999999995
16.588979342490088 53.93899999999999
16.61153187824822 53.7936
16.634067483263312 53.5665
16.656621315414416 53.5399
16.679175797408888 53.504
16.701713349928728 53.4748
16.72426913389191 53.8299
16.74680798922351 53.6771
16.76936507887444 53.903
16.791905240734874 53.9112
16.814463639794468 53.562
16.837022695210294 53.714
16.859564824093756 54.2111
16.882125194503903 54.8974
16.904668639217885 55.736000000000004
16.927230328348003 56.1002
16.949792678493612 55.8266
16.972338104193863 55.2296
16.994901778652235 54.6634
17.017448529496576 54.5167
17.040013531998152 54.5265
17.06257920018044 54.6557
17.0851279459922 55.2537
17.107694947817667 56.0537
17.130245028099072 56.6638
17.15281336730298 57.946000000000005
17.17536478578733 59.4515
17.19793446610687 61.6727
17.220504818648422 64.5215
17.243058251703697 67.8032
17.265629950971032 72.6945
17.288184731571736 77.7854
17.310757781306908 81.6198
17.33333150794385 82.5606
17.355888317140174 80.3124
17.37846339986244 74.9755
17.401021565958885 68.9877
17.42359800851343 63.7894
17.44617513265564 60.2769
17.468735341390783 58.5007
17.491261035594565 57.7315
17.51396340099364 57.618
17.536490463869136 57.7256
17.559018209820174 57.7623
17.58154663977963 58.1018
17.604251766089718 58.0788
17.626781572227713 58.3395
17.64931206518155 58.4302
17.671843245885103 59.0705
17.69455114821572 59.3867
17.717083712612634 59.5282
17.739616967569667 59.6752
17.762150914021706 59.8515
17.78486160749854 59.7435
17.807396945166804 60.1089
17.829932977143503 60.8245
17.85246970436452 61.8877
17.875183204129467 63.2369
17.897721330097664 65.0688
17.920260154126645 67.2248
17.942799677153296 69.9043
17.9655159983646 73.1851
17.988056927677544 78.3043
18.010598558807683 85.8843
18.033140892692916 95.7788
18.05586005052525 107.85700000000001
18.07840379824407 120.07700000000001
18.10094825154059 130.724
18.12366954819864 137.968
18.146215420998306 136.684
18.16876200220057 127.387
18.191309292745153 113.088
18.214033452627167 99.684
18.236582170236648 88.235
18.259131600016456 83.0933
18.281681742907335 83.6644
18.304408781233683 87.9133
18.32696035875955 94.0007
18.349512652227624 99.6416
18.372065662579683 104.81
18.394795594587553 106.245
18.41735004715306 102.15700000000001
18.43990521943684 94.6239
18.46246111238171 85.2446
18.485193953325208 75.8148
18.507751296070428 68.6969
18.530309362314178 64.6255
18.552868153000343 62.3576
18.57560391815056 60.8607
18.59816416623245 60.3327
18.620725141597372 60.0212
18.643286845190268 59.5877
18.666025549835414 59.1592
18.688588718427933 58.6041
18.711152618092243 58.4623
18.73389353884365 58.1807
18.75645890921984 57.5836
18.77902501351406 57.3745
18.801591852673102 57.3334
18.824335739722738 56.766999999999996
18.846904057212626 56.7515
18.8694731124168 56.2981
18.89204290628315 56.5738
18.914789774966803 56.3316
18.937361054791623 55.9701
18.959933076131318 55.8088
18.982505839934877 55.9074
19.00525570560582 55.8177
19.027829963004184 55.6875
19.05040496572238 55.9304
19.072980714710468 55.6778
19.095733592739563 55.5628
19.11831084296757 56.0138
19.140888842324735 56.4336
19.16346759176222 56.5717
19.18622349753803 57.1903
19.208803755869358 57.8385
19.231384767143577 58.9104
19.253966532312948 60.1395
19.276725481241822 62.3029
19.29930876296784 64.9206
19.3218928014549 68.2576
19.34465404436217 71.7332
19.36723960516257 74.9328
19.389825925592426 75.3194
19.412413006605938 74.6867
19.43517731967805 70.6898
19.457765930683355 66.1816
19.48035530514408 61.6553
19.50294544401556 58.0216
19.525712842708348 55.3383
19.54830451925909 54.1518
19.570896963095727 53.0451
19.593490175174704 52.6665
19.616260674962184 52.7629
19.638855432416964 52.4535
19.661450960992624 52.7253
19.68404726164677 52.3593
19.706820878021247 52.1608
19.729418731756834 52.3272
19.752017360452857 52.1767
19.77461676506804 52.3845
19.797393513540218 52.3068
19.819994478951667 52.3544
19.84259622316767 53.0438
19.8651987471481 53.4051
19.887978643247177 53.5512
19.91058273574792 53.9227
19.933187610901943 54.648
19.955969879466828 55.7109
19.97857632894404 56.926
20.00118356396599 58.6482
20.023791585494575 60.7175
20.046577028914875 63.6957
20.069186632506966 66.2175
20.091797025500632 68.39399999999999
20.114408208858933 69.0172
20.137196842715273 68.3738
20.159809615886765 66.4307
20.18242318232135 63.856
20.20503754298326 61.7409
20.227829382875154 60.648999999999994
20.250445341109344 60.6682
20.27306209647285 61.5198
20.29567964993108 62.8538
20.31847471147704 63.9157
20.34109387027612 65.0583
20.363713830075454 64.4426
20.386334591841646 62.963
20.409132890679302 59.9754
20.431755265564437 57.1227
20.454378445325528 54.461000000000006
20.477002430930366 52.7037
20.499803982716553 51.5864
20.522429589228004 50.6756
20.54505600449589 50.2313
20.567683229489194 49.9338
20.590488049900088 49.5488
20.61311690359731 49.3164
20.63574656993626 49.0366
20.658553853717297 48.6132
20.681185154618298 48.6731
20.703817271080066 48.4824
20.72645020407368 48.3108
20.749260783967177 48.0877
20.771895359337133 48.0391
20.794530754161617 47.9924
20.817166969412938 47.8769
20.83998086114876 47.8833
20.86261872660049 47.7601
20.885257415405402 47.5601
20.90789692853701 47.4496
20.930714147864748 47.4734
20.953355319030678 47.553999999999995
20.97599731745334 47.7114
20.99864014410749 47.4711
21.021460706796564 47.4647
21.044105199328826 47.7965
21.06675052302631 47.9299
21.089396678865015 48.0467
21.112220600704806 48.2389
21.134868430275347 48.7006
21.15751709492456 48.8632
21.180166595629693 49.3114
21.202993892429635 50.0215
21.22564507473034 50.2727
21.24829709602816 50.4656
21.27112693608965 50.5235
21.293780644891275 50.336000000000006
21.316435195634053 49.5902
21.339090589297417 48.8531
21.361923832041875 48.416000000000004
21.384580921090404 47.8103
21.407238856007325 47.4912
21.429897637773326 47.2878
21.45273429906592 47.4415
21.475394784108598 47.4456
21.498056118951983 47.2926
21.520718304578022 47.3783
21.543558400304388 47.5177
21.566222297108816 47.6922
21.58888704765135 47.6026
21.61155265291521 47.8554
21.63439619898156 48.2502
21.657063523335786 48.3942
21.67973170537063 48.8613
21.7024007460706 49.3108
21.72524775840385 50.1962
21.747918526116475 50.9269
21.770590155457388 52.0129
21.79326264741238 53.5212
21.816113141960237 55.5968
21.838787368860547 57.8544
21.861462461341976 59.7892
21.884315579735777 61.7792
21.90699241312273 63.0633
21.92967011506078 63.5607
21.95234868653799 63.0531
21.9752053151131 61.8595
21.997885635446785 59.8526
22.020566828293532 58.1534
22.04324889464272 56.5467
22.066109049404666 55.5576
22.088792872571794 55.1923
22.111477572219204 55.2876
22.1341631493376 55.224
22.157026846313123 55.1683
22.179714188221507 54.2196
22.202402410582668 53.143
22.22509151438863 51.5686
22.24795876962584 50.2804
22.270649646204486 49.4724
22.293341407213727 48.8786
22.316034053646906 48.2822
22.338904883215342 48.0564
22.36159931041458 48.1205
22.38429462602756 47.9591
22.40699083104897 47.9529
22.429865251039757 48.0251
22.452563244831367 47.925
22.47526213102522 47.7884
22.49813925616515 47.7871
22.520839937143307 47.6552
22.543541513520587 47.623999999999995
22.56624398629403 47.3111
22.589124730075895 47.4338
22.611829005656723 47.6683
22.63453418063466 47.4788
22.657240256008077 47.6108
22.680124634582935 47.6045
22.70283252079775 47.8904
22.725541310413075 48.2155
22.74825100442868 48.4105
22.771139033969575 48.8396
22.79385054687155 49.118
22.81656296718292 49.6047
22.83927629590484 50.5861
22.862167992606945 51.4953
22.88488314827121 52.7461
22.907599215359284 53.9116
22.93031619487366 55.2366
22.953211574954405 56.3045
22.975930389478226 57.3057
22.998650119445763 57.2599
23.02137076586092 56.5745
23.044269845560063 55.2214
23.06699233506288 53.457
23.089715744034912 51.5437
23.112617610931565 49.9619
23.135342869061212 48.8259
23.158069049684816 48.0251
23.1807961538087 47.7999
23.20370174880544 47.7609
23.226430710184808 47.7981
23.249160598093425 47.7549
23.271891413539002 47.7347
23.294800752937697 47.5168
23.31753343374794 47.7806
23.340267045128353 47.7903
23.36300158808808 48.07
23.38591468821339 48.4632
23.408651104658304 48.7839
23.431388455719986 49.4416
23.454126742409 50.1742
23.4770436196085 51.1251
23.499783787914662 52.8413
23.522524894889884 54.005
23.54526694154616 55.1088
23.56818761219047 56.1631
23.59093154860734 56.9499
23.613676427751283 57.1055
23.636422250635754 56.1735
23.659346731118656 54.621
23.68209445191868 52.6974
23.704843119509587 50.4389
23.72759273490623 48.7566
23.750521041644767 47.3522
23.77327256312355 46.2281
23.796025035462787 45.7886
23.818956224555475 45.3169
23.841710609113413 45.0478
23.86446594758979 44.803000000000004
23.887222241002014 44.571999999999996
23.910157285144578 44.2236
23.932915498962537 44.1561
23.955674670778713 44.016000000000005
23.978434801611975 43.7686
24.001373717286125 43.7302
24.024135776723917 43.6363
24.046898798245582 43.6076
24.06966278287146 43.5618
24.092605586582614 43.4105
24.115371508023642 43.3977
24.1381383956401 43.1995
24.16090625045381 43.2018
24.183852958731244 43.0344
24.206622758582608 42.9294
24.229393528706886 42.7342
24.252165270127392 42.6964
24.27511589952438 42.8289
24.297889594216997 42.5886
24.32066426328598 42.4931
24.34343990775613 42.46
24.36639447485003 42.4138
24.38917208083877 42.1557
24.41195066531332 42.1877
24.43490819850244 42.2387
24.457688750692377 42.2052
24.48047028445616 42.0425
24.503252800821233 42.2519
24.526214300784112 42.3321
24.548998793132213 42.3552
24.57178427117417 42.0718
24.59457073593893 42.3119
24.617536219319863 42.13399999999999
24.64032466834748 41.9975
24.663114107195035 41.8856
24.685904536893013 41.7102
24.708874020360852 41.6751
24.731666442613744 41.6087
24.754459858818787 41.4963
24.777254270007962 41.4074
24.80022777025625 41.3977
24.82302418230472 41.406000000000006
24.845821592443674 41.2247
24.86862000170663 41.3452
24.891597535453727 41.2206
24.914397953892728 41.348
24.93719937456671 41.2515
24.96000179851076 41.4832
24.98298338249997 41.5265
25.00578782394922 41.7295
25.028593271784167 41.881
25.05157790644186 42.2091
25.07438537804115 42.3344
25.097193859145293 42.6847
25.120003350792075 42.8116
25.142992065061257 43.1492
25.165803588823465 43.4039
25.18861612625217 43.593999999999994
25.211429678386736 43.7174
25.234422489079968 43.5754
25.257238081693636 43.7619
25.280054692141732 44.14
25.3028723214652 44.1395
25.325869245420463 44.1717
25.348688923599397 44.1388
25.371509623787006 44.0242
25.394331347025812 43.8464
25.41733240110666 43.4189
25.440156181590016 42.6364
25.46298098826268 42.1772
25.48580682216873 41.5288
25.50881202326435 41.0915
25.53163992281684 40.5781
25.55446885274561 40.3641
25.577298814096377 40.04
25.600308179121807 39.9856
25.623140214533745 40.0087
25.64597328451537 39.8267
25.66898578564376 39.7706
25.691820936010206 39.6896
25.714657124097695 39.6454
25.737494350954734 39.7105
25.760511045684957 39.5407
25.783350361364224 39.5867
25.806190718969255 39.6088
25.82903211955018 39.6912
25.852053024868923 39.729
25.874896522722523 39.9654
25.897741066713106 39.7162
25.920586657892454 39.7046
25.943611790812668 39.9345
25.966459487728237 40.1717
25.989308234998564 40.2217
26.01215803367705 40.4525
26.03518741123814 40.6518
26.05803932412957 40.7533
26.080892291600094 40.669000000000004
26.10374631470478 40.6965
26.12677995397268 40.9709
26.14963609978026 40.945
26.172493304397875 40.5378
26.19535156888223 40.4115
26.218389486949604 39.9462
26.241249882640123 39.6375
26.26411134137826 39.4781
26.28715248187403 39.4324
26.31001607820869 39.2105
26.3328807407756 39.0989
26.35574647063438 39.1535
26.37879191991473 39.0754
26.401659795896734 39.2357
26.424528742360263 39.2852
26.447398760366614 39.5584
26.470448535598294 39.5348
26.49332070826805 39.9125
26.516193955675355 40.2315
26.53906827888316 40.3061
26.562122397260108 40.5101
26.584998883685063 40.876999999999995
26.607876449110325 41.2206
26.63075509460056 41.4103
26.65381357334404 41.403999999999996
26.67669439061878 41.2697
26.699576291163382 41.1846
26.722459276044212 41.0424
26.745522132402975 40.7767
26.768407297649354 40.5922
26.791293550442003 40.2664
26.814180891848974 39.9233
26.837248143099337 39.6809
26.860137673466657 39.6766
26.88302829566349 39.2251
26.90592001075963 39.0584
26.92899167420566 38.9883
26.951885586870763 38.634
26.974780595655517 38.4477
26.99785558178161 38.3206
27.020752794605112 38.2913
27.043651106772522 38.0303
27.06655051935668 37.9731
27.089629948036183 37.9082
27.112531573292053 37.9417
27.135434302194138 37.8888
27.158338135817015 37.7433
27.181422024430987 37.7996
27.204328079372566 37.7111
27.22723524226965 37.7605
27.250143514198573 37.7053
27.273231880156334 37.695
27.296142382065014 37.594
27.319053996245536 37.5514
27.341966723775965 37.5301
27.365059584515222 37.5984
27.38797455070062 37.7158
27.410890633481237 37.5792
27.433807833936918 37.6499
27.456905206923906 37.7065
27.47982465472398 37.669000000000004
27.502745223449743 37.7702
27.525666914182825 37.879
27.548768816912457 37.736999999999995
27.571692763693633 37.6815
27.59461783573812 37.6243
27.617723149491244 37.5147
27.640650484125285 37.319
27.66357894728264 37.3673
27.686508540048052 37.2625
27.709618414237887 37.1671
27.732550278321757 36.9456
27.755483275279115 37.0368
27.778417406196485 37.0539
27.801531858397514 37.0714
27.824468269376716 36.9282
27.847405817586786 36.8999
27.870344504116094 37.0886
27.893463551932008 37.1576
27.916404527281053 37.391999999999996
27.93934664422563 37.584
27.962289903855886 37.7165
27.98541356491974 37.8682
28.00835912214229 37.972
28.03130582533231 38.2049
28.054253675581805 38.371
28.077381967556104 38.2978
28.100332124185126 38.2735
28.123283431160893 38.1948
28.146235889577238 38.0823
28.169368830154156 37.8872
28.192323603752033 37.6896
28.215279532083304 37.4175
28.238415973016764 37.1918
28.261374223145094 37.2242
28.284333631303806 36.8258
28.307294198589954 36.711999999999996
28.330435319167677 36.3359
28.353398217078915 36.1972
28.376362277420153 36.0048
28.39932750129032 35.9525
28.422473319286713 35.7437
28.44544088262495 35.6516
28.468409612800283 35.5978
28.491379510913497 35.3719
28.51453004413313 35.2522
28.53750229057244 35.3093
28.56047570826344 35.1733
28.583450298308804 35.2201
28.606605564586562 34.9993
28.629582511831156 35.0326
28.65256063474956 34.9755
28.675539934446338 34.9291
28.698699951647605 34.9046
28.72168161743193 34.8677
28.74466446331978 34.7925
28.767648490417624 34.7652
28.790813276438353 34.7374
28.813799678527303 34.7
28.836787265157085 34.7785
28.859955641890075 34.7884
28.882945610203045 34.7499
28.905936766392035 34.6247
28.928929111566863 34.6069
28.952102288520145 34.5331
28.975097024308607 34.4809
28.998092952423807 34.3745
29.021090073977508 34.1878
29.04426806913204 34.1144
29.067267590245258 33.8191
29.090268308143695 33.8682
29.11327022394099 33.9417
29.13645305530891 33.7252
29.159457379627167 33.766999999999996
29.18246290519685 33.5819
29.20546963313352 33.584
29.22865731875826 33.7459
29.25166646419296 33.6652
29.27467681535305 33.5645
29.29768837335608 33.5872
29.320880931312562 33.567
29.34389491580634 33.5746
29.366910110507334 33.5166
29.38992651653503 33.5639
29.41312396492981 33.5513
29.436142806456754 33.5658
29.45916286268059 33.4604
29.48236399319994 33.3334
29.50538649169417 33.1849
29.528410208259935 33.0294
29.55143514402014 32.8565
29.574641196749695 32.6807
29.597668583816574 32.6728
29.6206971934585 32.4774
29.64372702680042 32.64
29.666938019934474 32.5265
29.689970313635285 32.4318
29.713003834422636 32.3054
29.73603858342347 32.2317
29.759254535188578 32.332
29.78229175361658 32.1781
29.80533020365064 32.0934
29.82836988641968 32.2003
29.85159081507472 32.1215
29.874632976355343 31.9883
29.89767637376955 32.0804
29.920721008448314 31.8924
29.9439469322847 31.9979
29.96699405457564 31.896
29.9900424175358 32.0006
30.013092022298157 31.901
30.03632295963995 31.7228
30.059375061131373 31.7069
30.08242840783577 31.8154
30.105483000888153 31.9225
30.128718970092244 31.8153
30.151776069006917 31.8211
30.17483441768648 31.8578
30.198074175317235 31.8333
30.221135036724256 31.8024
30.24419715131772 31.7566
30.267260520236203 31.6478
30.290505341942243 31.7111
30.313571232750228 31.7103
30.336638381310948 31.7082
30.35970678876503 31.6091
30.38295669299435 31.6119
30.40602763151657 31.4981
30.429099832366074 31.5319
30.452173296685572 31.4387
30.47542830191959 31.3747
30.498504306502497 31.3665
30.521581577995562 31.4792
30.544660117543582 31.5049
30.56792024229725 31.5709
30.59100133132069 31.429000000000002
30.614083691845494 31.4588
30.637167325018545 31.6251
30.660432587840603 31.6993
30.683518779717886 31.5105
30.70660624769615 31.5771
30.729694992924372 31.5625
30.75296541239743 31.5991
30.77605672557558 31.439
30.799149319462742 31.4436
30.8224236211637 31.4182
30.845518789950724 31.1999
30.868615242910597 31.1205
30.891712981195973 30.9798
30.91499247215866 30.9821
30.938092794619365 30.9836
30.96119440587579 30.8512
30.984297307082752 30.7798
31.00758200598383 30.7248
31.030687500658694 30.6736
31.053794288760695 30.5401
31.076902371446767 30.3847
31.100192296997445 30.4426
31.12330298246119 30.3734
31.14641496599209 30.2891
31.169528248749216 30.2672
31.19282341969534 30.2981
31.215939314557186 30.2834
31.239056512134788 30.3485
31.262175013589378 30.3009
31.28547544871168 30.2388
31.30859657161541 30.2074
31.331719001892175 30.213
31.35484274070538 30.2895
31.378148458819545 30.3185
31.401274828443725 30.249000000000002
31.424402510106933 30.1795
31.447712205419993 30.3577
31.470842524931633 30.291
31.493974159989783 30.199
31.51710711176168 30.2535
31.54042212308802 30.2668
31.563557722100917 30.1209
31.586694641341655 29.9171
31.609832881979628 29.9292
31.63315322823208 29.8911
31.656294125521327 29.6976
31.679436347728515 29.6956
31.70257989602529 29.5593
31.725905596152327 29.500999999999998
31.74905181052835 29.4664
31.772199354521323 29.5045
31.79534822930507 29.5526
31.818679302290967 29.5794
31.84183085259981 29.6001
31.864983737233473 29.4769
31.88813795736804 29.5642
31.911474422233013 29.4864
31.934631327356435 29.568
31.9577895715215 29.4984
31.980949155906522 29.4647
32.004291031706956 29.3722
32.027453310562606 29.354
32.05061693318573 29.2439
32.07396288236386 29.2707
32.09712920658542 29.1673
32.12029687812702 29.0349
32.14346589817093 28.9563
32.166817291729984 29.0166
32.18998902288583 28.9655
32.21316210610336 28.8004
32.23633654256711 28.7195
32.259693399663725 28.7582
32.282870556771144 28.599
32.30604907069099 28.6418
32.329228942610065 28.5885
32.35259128243769 28.3666
32.375773884550505 28.3088
32.398957848235646 28.4002
32.422143174682176 28.3229
32.445511016471215 28.3049
32.468699082679954 28.1812
32.49188851523011 28.0785
32.51507931531304 28.049
32.538452678331 28.1501
32.56164622776311 27.9897
32.58484114831493 27.8535
32.60803744118015 28.0109
32.631416344731896 27.9731
32.654615396551876 27.9558
32.67781582427913 27.8336
32.701198898634416 27.7574
32.72440209253756 27.7414
32.747606665947124 27.7969
32.77081262006088 27.5589
32.79420126883317 27.5948
32.81740999876112 27.6105
32.840620112999424 27.5546
32.86383161274818 27.5254
32.88722585534586 27.4602
32.91044014056596 27.6176
32.933655814909734 27.5145
32.95687287957963 27.5063
32.98027273544904 27.3469
33.00349259526636 27.3672
33.026713849030116 27.3825
33.04993649794511 27.3355
33.073341986570746 27.2973
33.09656744032826 27.2676
33.11979429286444 27.2515
33.14302254538647 27.1725
33.166433686291185 27.1437
33.18966475336992 27.1181
33.212897224069096 27.0399
33.23613109959831 27.0497
33.259547912343415 27.0112
33.2827846121627 27.0387
33.306022720453775 26.9867
33.32926223842861 26.8499
33.352684742614166 26.8973
33.37592709463173 26.8239
33.399170859982064 26.8217
33.422597648419426 26.7493
33.44584425514446 26.6395
33.46909227885668 26.6001
33.4923417207723 26.4225
33.51577423505344 26.463
33.539026528130385 26.3303
33.56228024307245 26.2943
33.585535381098246 26.329
33.60897364093058 26.3137
33.63223163992385 26.2874
33.6554910656699 26.3086
33.678751919389796 26.2055
33.702195944520106 26.1159
33.72545966903325 26.1058
33.74872482519663 25.945
33.771991414233746 26.0402
33.79544122444841 25.9537
33.81871069412428 25.7805
33.84198160035767 25.9136
33.86525394437455 25.9329
33.88870955949969 25.8422
33.911984794020626 25.8201
33.93526147001624 25.7569
33.958539588715006 25.6518
33.98200102861669 25.5667
34.0052820477047 25.5473
34.02856451319451 25.5155
34.05203033759056 25.4619
34.07531571090147 25.506999999999998
34.09860253431845 25.4879
34.121890809074316 25.3772
34.145362493118924 25.4107
34.16865368561615 25.3299
34.191946333164054 25.3584
34.21524043699793 25.3067
34.23871800066799 25.2584
34.26201503218366 25.151999999999997
34.28531352370466 25.1962
34.30861347646881 25.0954
34.33209693978188 25.0246
34.3553998301885 25.019000000000002
34.378704185565205 24.9225
34.402010007152356 24.9003
34.42549939016683 24.909000000000002
34.44880815937748 24.7746
34.472118398533134 24.7369
34.49543010887669 24.736
34.51892543169198 24.635
34.54224009966052 24.6095
34.56555624255917 24.7052
34.58887386163339 24.5974
34.61237514439016 24.4453
34.6356957311114 24.5437
34.65901779775809 24.4877
34.68252356662995 24.3584
34.705848608458616 24.4733
34.72917513396849 24.3848
34.75250314440949 24.3079
34.77601490857862 24.234
34.799345904259795 24.1541
34.82267838863559 24.2301
34.846012362958525 24.1666
34.869530142679984 24.1276
34.89286711232212 24.1055
34.91620557568269 24.0976
34.93954553401677 24.0636
34.9630693495876 24.0182
34.986412313340814 24.006
35.00975677584668 23.958000000000002
35.033102738362956 23.9707
35.05663261012228 23.933000000000003
35.0799815881786 23.9505
35.10333207003229 23.8455
35.12668405694369 23.8305
35.150220005273056 23.785
35.17357501786656 23.7203
35.19693153931268 23.7581
35.220289570874385 23.7741
35.24383161619786 23.7107
35.267192683604904 23.6481
35.290555264930376 23.6165
35.314101899412165 23.6299
35.33746752422433 23.6191
35.36083466676374 23.5659
35.38420332829803 23.5295
35.407756095629054 23.555
35.43112781085063 23.553
35.45450104888391 23.4959
35.477875810999194 23.4662
35.50143473172161 23.4325
35.52481255774625 23.4785
35.54819191167777 23.3583
35.57157279478914 23.3583
35.595137889488406 23.3964
35.61852184675279 23.2477
35.641907337029984 23.1143
35.665294361595684 23.1551
35.68886565090076 23.116
35.7122557598848 23.0803
35.73564740699838 23.0702
35.759040593519934 23.0457
35.78261809810353 23.0092
35.80601437933051 22.918000000000003
35.829412203814705 22.814
35.85281157283719 22.788
35.876395313415884 22.8275
35.8997977874528 22.7034
35.92320180988546 22.6953
35.946790244133936 22.5982
35.97019737933222 22.6319
35.993606066789866 22.5955
36.01701630779276 22.6174
36.04061101440684 22.5716
36.06402437852291 22.5782
36.08743930005611 22.5548
36.1108557802951 22.3978
36.13445678011326 22.4515
36.15787639383515 22.4342
36.18129757014299 22.3513
36.20472031032821 22.3714
36.22832762423364 22.3323
36.25175350829375 22.2919
36.275180960119776 22.1876
36.298609981005924 22.2083
36.32222362992669 22.2114
36.34565580510207 22.2144
36.36908955323448 22.1031
36.39252487562093 22.0157
36.416144880530226 21.9866
36.43958336764275 21.9622
36.463023432914625 21.951
36.486465077645676 21.9065
36.51009145956204 21.9837
36.53353627947859 21.96
36.55698268276811 21.913
36.58043067073321 21.8072
36.60406345072071 21.7204
36.62751462435344 21.8262
36.65096738658405 21.7243
36.67460498210655 21.8078
36.69806093788647 21.6797
36.72151848619297 21.6015
36.744977628333636 21.5996
36.76862165890998 21.4824
36.79208400512205 21.5253
36.81554794910557 21.5165
36.83901349217101 21.4387
36.862663978991606 21.4262
36.88613273667352 21.3851
36.90960309738324 21.3757
36.933075062434064 21.2959
36.95673202673572 21.3549
36.98020721697122 21.3005
37.003684015502365 21.1968
37.027162423645365 21.103
37.050825886711465 21.1348
37.07430753063053 21.1016
37.09779078812467 21.076999999999998
37.121275660513014 21.0887
37.144945643673694 21.0172
37.16843376245278 21.0436
37.19192350009803 20.9914
37.215414857931435 20.9008
37.239091382563885 20.8525
37.262585997426164 20.8419
37.28608223645736 20.8337
37.309763684451696 20.8199
37.33326318851098 20.7564
37.356764320726555 20.7901
37.380267082425526 20.7657
37.40395510942588 20.6282
37.42746114683234 20.5865
37.45096881771841 20.6087
37.474478123414166 20.5938
37.49817275092816 20.5663
37.52168534303452 20.5059
37.54519957395567 20.4648
37.568715445024665 20.3925
37.592416694607714 20.3984
37.61593586281424 20.4778
37.63945667518264 20.4369
37.66297913304891 20.3419
37.68668702630454 20.3266
37.710212792059274 20.2079
37.733740207334854 20.1898
37.757269273470364 20.1807
37.780983832050374 20.0679
37.80451621684926 20.075
37.82805025654007 20.0696
37.851585952464795 20.0503
37.8753071980695 19.9864
37.89884622345676 19.9433
37.92238690911902 19.9372
37.94611318753442 19.8939
37.969657210779765 19.8416
37.99320289834801 19.8861
38.016750251586465 19.7481
38.04048325513017 19.7637
38.06403395679343 19.7482
38.087586328183946 19.7082
38.11114037065203 19.7085
38.13488012115898 19.7231
38.1584375229181 19.575
38.181996599821 19.5591
38.205557353221124 19.5264
38.229303872575656 19.598
38.2528679961576 19.5728
38.27643380031219 19.4765
38.30000128639589 19.4648
38.32375459653193 19.4291
38.34732546371299 19.4234
38.37089801690786 19.357
38.39447225747609 19.2805
38.418232380377425 19.2696
38.441810012983396 19.2689
38.46538933705673 19.2223
38.488970353960084 19.1968
38.51273731166058 19.1925
38.536321731567014 19.0918
38.55990784840681 19.1043
38.58367995004091 19.0598
38.60726947812959 19.0589
38.63086070726198 19.0428
38.654453638806274 19.0655
38.678232613930824 18.9736
38.70182896773327 18.8898
38.72542702806741 19.0019
38.7490267963045 18.9387
38.77281266709232 18.8634
38.79641586862214 18.8084
38.8200207821842 18.7948
38.843627409152944 18.7874
38.86742019782782 18.7554
38.891030269149255 18.6702
38.914642058016156 18.6646
38.938255565806124 18.6083
38.96205529464307 18.6532
38.98567225787121 18.572
39.00929094417078 18.5093
39.03291135492255 18.5272
39.05671804624804 18.5025
39.080341923549106 18.4956
39.103967529460334 18.4398
39.127594865365744 18.3535
39.15140854155791 18.3337
39.17503935514948 18.3633
39.19867190290282 18.3643
39.22249083587951 18.316
39.24612686969409 18.3015
39.269764641845306 18.2483
39.293404153722804 18.2586
39.317230110864074 18.1581
39.34087311998506 18.1349
39.36451787301696 18.0959
39.388164371352595 18.0709
39.41199737518003 18.0914
39.43564738196752 18.0362
39.45929913825317 18.0132
39.48295264543308 17.969
39.506792718520884 17.8915
39.530449745387216 17.8473
39.55410852735203 17.8697
39.57776906581474 17.9327
39.60161623079 17.8498
39.625280300200025 17.7708
39.64894613032202 17.7509
39.67261372255866 17.7671
39.6964680021016 17.7356
39.72013913657293 17.6962
39.74381203738292 17.6665
39.76748670593756 17.6555
39.79134812278169 17.6299
39.81502634488497 17.5765
39.83870633896685 17.5937
39.862388106436654 17.5968
39.88625668336918 17.4794
39.90994201572829 17.4894
39.933629125719285 17.4573
39.957503091207826 17.408
39.9811937746168 17.4003
40.00488623990914 17.3496
40.02858048850006 17.3253
40.05246165409549 17.2707
40.076159487492085 17.2239
40.099859108448875 17.2248
40.123560518384345 17.2029
40.1474489070226 17.2212
40.171153913178564 17.1148
40.194860712584955 17.1217
40.2185693066637 17.0981
40.242464941335314 17.0704
40.26617714307655 17.0833
40.289891143772046 17.0727
40.3136069448471 17.0959
40.33750984859743 16.9576
40.3612292688043 16.9648
40.3849504936829 17.0247
40.40867352466194 16.9265
40.43258372059144 16.8985
40.45631038219906 16.9047
40.48003885420956 16.778
40.503769138055105 16.7721
40.52768664931955 16.7841
40.55142057531802 16.7618
40.57515631746428 16.7099
40.599079334038514 16.6846
40.62281872700477 16.6519
40.64655994043941 16.5741
40.67030297578061 16.5615
40.69423334835778 16.5748
40.71798004609188 16.5231
40.74172857006355 16.5222
40.76547892171441 16.5584
40.7894166736039 16.4822
40.813170699248566 16.4217
40.83692655691388 16.3897
40.86068424804498 16.4629
40.884629402612525 16.4065
40.908390779366385 16.3387
40.932153993938 16.2971
40.95591904777605 16.2903
40.979871628443995 16.3091
41.003640379561936 16.2809
41.02741097430883 16.2538
41.05118341413683 16.252
41.075143444384416 16.1859
41.098919593177826 16.1692
41.1226975914255 16.1202
41.14647744058318 16.1473
41.170444943946755 16.0803
41.19422851378379 16.0846
41.218013938914645 16.0248
41.24198706625173 15.9299
41.26577622087193 15.934000000000001
41.289567235177785 15.9426
41.31336011063129 15.9172
41.337340752422875 15.8683
41.361137369129835 15.8628
41.38493585138705 15.8274
41.40873620066004 15.7539
41.43272438060107 15.7676
41.45652848292052 15.7362
41.48033445666918 15.7676
41.50414230331616 15.7142
41.528138045159764 15.6476
41.551949656675205 15.5921
41.575763145513235 15.575999999999999
41.59957851314666 15.5791
41.62358184070442 15.5192
41.64740098505737 15.5049
41.6712220126409 15.4868
41.69504492493139 15.47
41.71905586207357 15.3761
41.74288256296395 15.4226
41.766711153007456 15.3433
41.79054163368412 15.337
41.814560204340054 15.388
41.838394485526365 15.3307
41.86223066180303 15.3077
41.88625497706819 15.2859
41.910094962812 15.2047
41.93393684811168 15.245
41.95778063445365 15.1366
41.981812625263366 15.1057
42.00566023303407 15.1515
42.029509746323676 15.1772
42.05336116662236 15.1405
42.077400857069705 15.0636
42.10125611078846 15.0183
42.12511327600405 15.0167
42.14897235421036 14.9649
42.173019768448455 14.9977
42.19688269209613 14.9473
42.22074753323349 14.9263
42.24461429335818 14.9041
42.268669455600495 14.8968
42.292540073217886 14.8717
42.31641261433284 14.9002
42.34028708044675 14.8146
42.36435001496739 14.8076
42.38822835065557 14.7263
42.41210861586426 14.7613
42.4359908120986 14.7495
42.46006154323262 14.6828
42.48394762115317 14.6362
42.507835634632315 14.6687
42.531912233047436 14.6196
42.55580413732265 14.5368
42.579697981698 14.5532
42.60359376768525 14.5187
42.62767820545945 14.5067
42.65157789440821 14.5308
42.67547952952185 14.4251
42.699383112316 14.4019
42.72347541395347 14.4306
42.74738291190531 14.3809
42.771292362102166 14.3424
42.795203766063516 14.321
42.819303956130405 14.272
42.843219287476536 14.2651
42.86713657716324 14.2595
42.89105582671383 14.2618
42.91516392983864 14.2082
42.939087119032166 14.1699
42.963012272677304 14.1696
42.98693939230129 14.118
43.01105543317513 14.0666
43.034986504731386 14.0495
43.05891954686589 14.0468
43.08285456110972 14.1103
43.10697856448665 14.0205
43.130917542983475 13.9816
43.15485849820081 13.9542
43.17880143167367 13.9071
43.20293342237094 13.9402
43.226880332449 13.9209
43.25082922540554 13.9163
43.27496722682525 13.8619
43.29892010567796 13.8269
43.32287497204102 13.8106
43.34683182745632 13.75
43.370977859791836 13.7298
43.39493871351105 13.7196
43.41890156092628 13.7024
43.44286640358341 13.6756
43.46702049182749 13.6751
43.49098934522816 13.6312
43.51496019852649 13.6653
43.5389330532723 13.6207
43.56309522248204 13.548
43.58707210044314 13.4953
43.61105098451946 13.5037
43.63503187626491 13.4527
43.659202151562134 13.4578
43.68318707902681 13.4654
43.70717401884041 13.4521
43.731162972560874 13.3772
43.75534137913236 13.3615
43.779334381108384 13.3148
43.803329401683186 13.3413
43.82732644241872 13.2981
43.8515130055166 13.3124
43.87551410707659 13.2565
43.89951723350145 13.2152
43.923709934595614 13.1731
43.94771713129917 13.1706
43.97172635758096 13.1755
43.99573761501002 13.1649
44.0199385169922 13.1134
44.04395385732619 13.1166
44.067971233533086 13.102
44.09199064718605 13.06
44.11619977548961 13.0074
44.14022328470671 12.9737
44.16424883610785 12.9767
44.18827643127035 13.0142
44.21249381139513 12.9705
44.236525514814076 12.9268
44.26055926674478 12.9028
44.28459506876863 12.904000000000002
44.3088207262813 12.8618
44.33286064928722 12.8782
44.35690262714919 12.8407
44.38094666145278 12.7904
44.4051806219871 12.7592
44.42922879003185 12.6644
44.45327901929361 12.6866
44.477331311362136 12.7069
44.501573600619416 12.6622
44.525630039221795 12.6491
44.54968854541895 12.6184
44.573937102200176 12.559000000000001
44.5979997645541 12.6181
44.622064499300315 12.5597
44.64613130803592 12.5331
44.67038823869318 12.5361
44.69445921643748 12.4906
44.718532272981385 12.4799
44.742607409926194 12.4709
44.76687274034801 12.452
44.79095205918753 12.4245
44.81503346325094 12.4268
44.839116954143876 12.3944
44.86339071028742 12.3912
44.88747839599524 12.3571
44.91156817336837 12.3119
44.93566004401666 12.2889
44.959942251908146 12.2811
44.984038330325966 12.2261
45.00813650686762 12.2
45.03223678314731 12.1891
45.05652746888232 12.1443
45.08063196592069 12.1647
45.104738567558705 12.173
45.128847275414856 12.123
45.15314646515866 12.0914
45.17725940679741 12.0536
45.20137445952892 12.0422
45.22568004865265 12.0227
45.24979934496396 11.9565
45.27392075725247 11.9683
45.29804428714431 11.9573
45.322358426247604 11.9505
45.346486212804315 11.9318
45.370616121861914 11.9195
45.39474815505086 11.8736
45.41907087049246 11.8525
45.4432071734666 11.8212
45.46734560548283 11.8633
45.49148616817604 11.8127
45.51581748638564 11.784
45.5399623320197 11.7609
45.56410931325473 11.7157
45.58825843173002 11.6798
45.61259837920865 11.7009
45.636751793816 11.7051
45.66090735060093 11.6544
45.68506505120716 11.5957
45.7094136545275 11.5909
45.73357566449271 11.574000000000002
45.75773982322992 11.5706
45.78190613238733 11.5534
45.806263418194064 11.4842
45.83043404997326 11.4508
45.85460683713677 11.469000000000001
45.87897065658495 11.4586
45.90314777634752 11.4219
45.92732705646868 11.4245
45.9515084986045 11.4147
45.97588104735473 11.3867
46.00006683541565 11.3776
46.02425479047904 11.3336
46.04844491420549 11.2892
46.0728262191024 11.2948
46.09702070211635 11.252
46.12121735879483 11.2566
46.14541619080294 11.2282
46.169806278764455 11.2268
46.194009483459034 11.2158
46.21821486849841 11.1764
46.24242243555223 11.1663
46.266821333570014 11.1602
46.29103328674601 11.1069
46.31524742696538 11.1144
46.33946375590237 11.0721
46.36387149104216 11.0143
46.38809221957392 10.995
46.41231514186606 11.0311
46.436540259597464 10.9881
46.460956858999374 10.9843
46.48518638983522 10.9755
46.509418121166966 10.9343
46.533652054678114 10.8866
46.55807754555709 10.8697
46.58231590571962 10.8251
46.60655647313217 10.8453
46.630988654873654 10.8299
46.655233659129024 10.7612
46.67948087571551 10.8414
46.70373030632484 10.8298
46.72817142736393 10.7617
46.752425308428684 10.7247
46.77668140861147 10.7465
46.80093972960865 10.6773
46.82538981736788 10.6407
46.849652602470904 10.6297
46.87391761349769 10.6234
46.8981848521493 10.6014
46.9226439341274 10.5898
46.946915650573224 10.5932
46.97118959976749 10.5478
46.99546578341598 10.5471
47.019933887188216 10.5573
47.04421456235744 10.5146
47.06849747711879 10.4732
47.09278263318286 10.4742
47.11725978640143 10.4336
47.14154944775105 10.4068
47.165841355555656 10.3958
47.1901355115306 10.3705
47.214621741924994 10.3723
47.23892041698887 10.3876
47.26322134538975 10.3267
47.28771440635075 10.2952
47.31201986422527 10.2746
47.33632758061436 10.259
47.360637557241866 10.2559
47.38513974410611 10.2014
47.40945426407847 10.1732
47.43377104948137 10.2109
47.45809010204344 10.157
47.48260144275502 10.1176
47.506925052572285 10.1347
47.53125093475548 10.1165
47.55557909103813 10.0827
47.58009961361992 10.0362
47.60443234110732 10.0451
47.62876734791564 10.0128
47.65310463578333 10.0509
47.6776343683373 10.0303
47.7019762413987 9.96546
47.72632040075572 9.94792
47.75066684815169 9.97428
47.77520581885936 9.93017
47.799556865477655 9.88814
47.823910205386 9.89604
47.84826584033272 9.86897
47.87281407745551 9.82665
47.89717432569297 9.85704
47.92153687423484 9.83009
47.94609208429692 9.82888
47.97045925671401 9.79016
47.99482873471275 9.71237
48.01920052005013 9.76136
48.04376504619224 9.733239999999999
48.068141469543484 9.7452
48.09252020552573 9.70834
48.11690125590099 9.65353
48.1414751266064 9.69524
48.16586082917454 9.68101
48.19024885144316 9.62492
48.2146391951793 9.59953
48.239222439012764 9.57537
48.26361744916137 9.56427
48.28801478610016 9.5747
48.31241445160131 9.58052
48.337007097209366 9.52741
48.36141144338331 9.50812
48.38581812345755 9.53503
48.41022713920929 9.462589999999999
48.434829215320704 9.42331
48.45924292604658 9.46394
48.48365897780325 9.41646
48.50807737237308 9.413910000000001
48.532688907799276 9.397219999999999
48.55711201168574 9.362969999999999
48.581537463754074 9.35595
48.60615611725119 9.341280000000001
48.63058628942721 9.333169999999999
48.65501881516546 9.32817
48.6794536962573 9.28755
48.70408185970339 9.3107
48.72852147531801 9.26305
48.75296345168211 9.23129
48.77740779059232 9.25715
48.80204549302823 9.2343
48.82649458091802 9.21433
48.85094603676547 9.15742
48.87539986237231 9.13998
48.90004713292306 9.11335
48.92450572200832 9.100430000000001
48.94896668628025 9.10176
48.97343002754588 9.069230000000001
48.99808689542115 9.07522
49.02255501470614 9.0744
49.04702551642794 8.995560000000001
49.0714984023988 8.99547
49.096164896893235 8.97777
49.120642575466796 8.94815
49.145122643748394 8.93773
49.16960510355558 8.959589999999999
49.19428125404938 8.919880000000001
49.2187685210852 8.91889
49.243258185121555 8.90172
49.26794160167084 8.86341
49.2924360839405 8.83955
49.31693296869764 8.85418
49.34143225776915 8.80035
49.36612538195438 8.77797
49.39062950396021 8.802719999999999
49.41513603578346 8.78812
49.4396449792564 8.768510000000001
49.46434784069503 8.7361
49.488861631846454 8.72919
49.513377840166804 8.69652
49.537896467493745 8.67286
49.56260909589029 8.64588
49.587132585683285 8.64354
49.611658500018365 8.672239999999999
49.636186840738596 8.59932
49.66090926588511 8.605080000000001
49.685442483902584 8.58082
49.70997813385706 8.5658
49.734516217597076 8.56102
49.75924846937352 8.54222
49.7837914452858 8.49605
49.80833686055187 8.47518
49.83288471702571 8.48413
49.85762682540054 8.45683
49.882179588965734 8.44294
49.9067347993235 8.444339999999999
49.93129245833333 8.4424
49.95604445336378 8.41688
49.98060703442832 8.41205
50.005172069746266 8.38078
50.02993150438364 8.35164
50.05450147301533 8.33933
50.07907390151433 8.31055
50.10364879174981 8.30987
50.12841816587289 8.2724
50.1529980044635 8.279910000000001
50.17758031042124 8.27099
50.20216508562089 8.25285
50.22694442953363 8.20094
50.25153416817468 8.20022
50.27612638170508 8.18779
50.300721072005196 8.186060000000001
50.325510416102105 8.168330000000001
50.350110084975064 8.17886
50.37471223628208 8.14283
50.39931687190919 8.10736
50.424116246675766 8.11312
50.44872587605249 8.109060000000001
50.47333799543065 8.0915
50.49795260670191 8.07366
50.52276204271512 8.02999
50.54738166295838 8.004610000000001
50.57200378079314 8.01605
50.596628398116835 7.98769
50.62144792604559 7.9978
50.646077567609396 7.946110000000001
50.670709714377715 7.934660000000001
50.69553683636198 7.93317
50.72017401885922 7.9323
50.7448137122895 7.93637
50.76945591856022 7.89498
50.79429318636823 7.85695
50.818940443716784 7.84968
50.84359021965163 7.849080000000001
50.868242516085964 7.847389999999999
50.893089960641895 7.8115
50.917747323549435 7.796710000000001
50.94240721271973 7.7867
50.96706963007175 7.766830000000001
50.99192728239342 7.741339999999999
51.01659478166073 7.77095
51.04126481489051 7.73596
51.06593738400761 7.7344
51.090805275207074 7.7062800000000005
51.11548294172845 7.666760000000001
51.14016314993547 7.65917
51.164845901758845 7.6578800000000005
51.18972406304274 7.633780000000001
51.21441192780656 7.62447
51.23910234200271 7.63155
51.2637953075678 7.576639999999999
51.288683770237945 7.55634
51.31338186432707 7.54623
51.33808251561888 7.5319199999999995
51.362978729967345 7.51479
51.387684521509755 7.52347
51.41239287610203 7.542510000000001
51.437103795691165 7.452310000000001
51.46201036644977 7.46977
51.486726441956634 7.45322
51.51144508832545 7.453469999999999
51.536166307509156 7.39699
51.56108326624387 7.368060000000001
51.58580965706056 7.3707
51.61053862657523 7.33882
51.635270176746864 7.3207
51.66019755512065 7.33783
51.68493429268881 7.337039999999999
51.70967361681515 7.327780000000001
51.73441552946465 7.29409
51.759353359237934 7.28167
51.7841004750961 7.2492600000000005
51.80885018539685 7.22848
51.833602492111254 7.2370399999999995
51.8585508051424 7.1978
51.883308330926425 7.183389999999999
51.90806845906181 7.16833
51.932831191525715 7.181960000000001
51.95779001977161 7.1667
51.98255798721516 7.138160000000001
52.00732856494335 7.11954
52.03229530577543 7.12122
52.057071130455945 7.1058
52.081849571391054 7.07494
52.106630630568695 7.07718
52.13160794279417 7.0254
52.15639426492067 7.0467699999999995
52.18118321127822 7.032589999999999
52.205974783860896 7.0030399999999995
52.23096269971011 6.9935
52.255759551287994 6.99856
52.280559035098186 6.948989999999999
52.30536115314103 6.93314
52.33035970494467 6.91736
52.35516711807904 6.926019999999999
52.37997717147198 6.936160000000001
52.40478986713005 6.895789999999999
52.42979908731974 6.87897
52.454617094216 6.867539999999999
52.47943774942214 6.884360000000001
52.50426105495102 6.82667
52.529280976059844 6.84214
52.554109609024096 6.758260000000001
52.57894089837482 6.78132
52.60377484613117 6.77451
52.62880550079408 6.80057
52.65364479223379 6.747719999999999
52.67848674816189 6.73585
52.70352547971946 6.7217899999999995
52.72837279155837 6.7503899999999994
52.753222773982785 6.6886
52.778075429022984 6.6954199999999995
52.80312495150885 6.71243
52.827982978797436 6.68685
52.85284368481815 6.667339999999999
52.87770707160767 6.629589999999999
52.90276741793998 6.587999999999999
52.92763619336701 6.5936699999999995
52.952507655698504 6.608960000000001
52.977381806977576 6.5799199999999995
53.00245301017842 6.58168
53.02733256653592 6.5451
53.052214817996074 6.52799
53.077099766608484 6.527
53.102181859804446 6.49935
53.127072229988265 6.546530000000001
53.15196530349892 6.48955
53.17686108239249 6.43968
53.20195409881522 6.47335
53.22685531582556 6.4541699999999995
53.25175924441303 6.43124
53.27666588664027 6.39799
53.30176985962693 6.3958
53.3266819565689 6.4050199999999995
53.35159677336455 6.35998
53.376514312083096 6.35772
53.40162927507703 6.34196
53.42655228516116 6.3632
53.45147802340193 6.29929
53.47660125628886 6.33105
53.50153247842639 6.29429
53.52646643496923 6.2732
53.55140312799818 6.25873
53.576537409691696 6.25845
53.60147960336152 6.29459
53.626424539786164 6.23385
53.65137222105307 6.19522
53.67651758529126 6.2016800000000005
53.70147078399681 6.18344
53.72642673383343 6.17596
53.75138543689533 6.1314
53.776541917524526 6.11899
53.801506154876755 6.1183
53.826473151763246 6.08333
53.851442910284916 6.07061
53.87661054126026 6.06848
53.9015858509782 6.09675
53.92656392866066 6.07709
53.95154477641532 6.03519
53.976723591801296 6.016830000000001
54.00171000771266 5.99472
54.02669920004598 6.00704
54.051691170915745 5.97835
54.076881204886796 5.97848
54.101878760928514 5.956519999999999
54.12687910187696 5.99136
54.152077577768296 5.93394
54.1770835166946 5.93432
54.20209224691339 5.9498
54.22710377055121 5.9035
54.25231352511594 5.90113
54.27733066384342 5.8602099999999995
54.30235060239643 5.8651800000000005
54.32737334290836 5.84
54.35259441062629 5.76664
54.377622783395324 5.80521
54.40265396455061 5.80905
54.42768795623251 5.82929
54.45292037169559 5.76708
54.477960012857906 5.71082
54.50300247099511 5.69375
54.52804774825457 5.69651
54.55329154616743 5.68904
54.57834249018678 5.72617
54.6033962597977 5.67319
54.6284528571545 5.6070199999999994
54.653708072335164 5.5783
54.67877035378786 5.59955
54.70383546947698 5.55655
54.72890342156389 5.536169999999999
54.7541700889442 5.47234
54.77924374251975 5.47623
54.8043202390049 5.46341
54.82959552413022 5.46013
54.8546777351945 5.4646099999999995
54.87976279569621 5.41582
54.90485070780914 5.3970400000000005
54.930137506558005 5.3876800000000005
54.95523115074295 5.4195199999999994
54.98032765308844 5.32379
55.005427015775496 5.29075
55.03072536339621 5.36161
55.05583047570572 5.27902
55.080938454927676 5.29165
55.10604930325027 5.2441699999999996
55.131359235107396 5.2390300000000005
55.15647585066083 5.21626
55.181595341907496 5.21776
55.20671771104285 5.14502
55.232039262617704 5.16535
55.25716741665048 5.13274
55.28229845518636 5.11506
55.30743238042802 5.06731
55.33276558731939 5.04349
55.357905315183636 5.04319
55.383047936390035 4.9997
55.40819345314859 4.96108
55.433538351073295 4.95469
55.458689688238415 4.93009
55.483843927614096 4.8993
55.509197623043605 4.90741
55.53435769621134 4.8505
55.55952067826466 4.89624
55.5846865714265 4.88243
55.61005202069737 4.82335
55.63522376553902 4.79095
55.66039842818645 4.71865
55.68557601087004 4.7293
55.7109532500271 4.697830000000001
55.73613670233794 4.75875
