TT I
1.2716486653135266 8.32155
1.2939594142134223 8.05388
1.3162702121660406 7.54815
1.3385810600174564 7.3287
1.3608919586137629 6.91706
1.383202908801069 6.972160000000001
1.405513911425503 6.53329
1.4278249673332093 6.9245600000000005
1.4501343378461518 6.955489999999999
1.4724455028545926 6.584410000000001
1.4947567236847858 6.98615
1.517068001182951 6.834339999999999
1.5393793361953272 6.41985
1.5616907295681737 6.5545
1.5840021821477681 5.99276
1.60631369478041 6.0544199999999995
1.6286252683124185 6.0218300000000005
1.6509369035901333 4.94484
1.6732468618895553 5.221830000000001
1.695558623192809 5.0073
1.7178704487808514 5.47433
1.7401823395001077 5.50513
1.7625012545597203 5.70219
1.7848028405262486 5.34581
1.8071218901122095 5.20927
1.8294236121921872 5.22609
1.8517427996910911 5.20941
1.8740620574440425 5.12142
1.8963639900671978 4.9709900000000005
1.9186833908139995 5.729480000000001
1.9409854680117449 4.94271
1.9633050151394713 5.41205
1.9856246367570705 5.1466
2.0079269371922672 4.68469
2.03024671027244 5.36828
2.0525491637446027 4.554819999999999
2.074869091674931 4.6693
2.097171701569106 5.22275
2.1194917877373847 5.18926
2.141811954326636 4.83286
2.164114805233074 4.77641
2.186435135143035 4.99127
2.208738150935709 4.71705
2.231058647554722 4.23435
2.2533792288321184 4.91221
2.275682498336085 4.32659
2.298003251406138 4.60885
2.3203066942619714 4.72269
2.3426276225136022 4.3490400000000005
2.3649486396617507 4.51466
2.387252348930071 4.38096
2.4095735463442893 4.09816
2.4318774374315884 3.67222
2.4541988185014043 4.32014
2.476502894794693 4.1239
2.498824462909887 4.8327599999999995
2.521146125856138 4.036519999999999
2.5434504863470337 4.02803
2.5657723414244717 4.338369999999999
2.588076895590662 4.8863199999999996
2.610398946189713 3.9519599999999997
2.6327210958598384 4.35933
2.6550259469304716 4.55408
2.6773482972090137 5.176080000000001
2.6996533504259 5.19805
2.7219759047039602 5.69414
2.744298562293959 5.18012
2.7666039251246595 4.78412
2.7889267918020164 5.57132
2.8112323652516555 6.42866
2.833555444408179 7.56761
2.8558786311183852 7.02632
2.8781845268938557 6.970389999999999
2.9005079311721484 7.80162
2.9228140460410397 8.30087
2.9451376712799635 8.40765
2.967444008632326 8.56662
2.9897678582247247 9.060139999999999
3.0120918213106695 10.0597
3.0343984987899373 10.5924
3.0567226913198637 10.9423
3.079029599759726 11.5589
3.101354025127254 12.196
3.123678568232338 12.3487
3.145985829517914 12.7081
3.16831061055229 13.6544
3.1906181112775593 13.8382
3.212943133635653 14.415999999999999
3.2352682779763207 15.1225
3.2575761442691227 15.5078
3.2799015350264273 15.8563
3.302209649240067 15.9421
3.3245352898092655 16.3451
3.3468436553365257 16.9941
3.369169549113219 17.1446
3.3914955708171384 18.0558
3.413804319727358 18.5308
3.4361305997334863 18.6667
3.4584396084414553 19.0427
3.4807661501462652 19.3674
3.503092824025881 20.0629
3.5254022288463154 20.4075
3.5477291695206588 20.7526
3.5700388426251948 20.6956
3.5923660534916446 21.6531
3.6146934007816114 21.6659
3.637003482731501 22.0461
3.6593311053109985 22.4853
3.681641464033634 22.6792
3.7039693653009733 23.311
3.726297407241705 23.9795
3.7486081875460804 23.7614
3.7709365132734978 24.7809
3.793247578841633 25.3179
3.8155761917550093 25.6709
3.8378875459837216 25.3404
3.8602164494827234 26.01
3.882545499606844 26.7618
3.9048572932539183 27.173000000000002
3.9271866390645718 27.7844
3.9494987298666713 28.1986
3.971828374764527 29.1421
3.9941581705403255 29.3334
4.016470713506008 29.7591
4.038800813471445 30.0547
4.061113662089144 30.6499
4.0834440696459176 30.9985
4.105774632334751 31.5477
4.128087945865126 32.1898
4.150418821249301 33.0856
4.172732448931298 33.995
4.195063640413578 34.6553
4.2173775856475215 35.1211
4.239709096631102 35.7553
4.262040768704612 35.9131
4.284355196706267 36.5087
4.306687193387355 37.277
4.329001947444346 38.6715
4.35133427213731 39.3802
4.373666762177566 40.1044
4.395982011761091 40.9785
4.418314834921175 41.91
4.44063041906622 42.24
4.4629635787515625 43.1307
4.4852969080429785 44.2861
4.5076130004776225 45.9961
4.529946671403969 46.977
4.552263106909177 47.6722
4.574597122877047 49.0762
4.596931312711224 50.4477
4.619248269273446 51.4293
4.6415828092605835 52.5772
4.663900117405352 53.8055
4.686235010953232 54.9125
4.708552674085913 56.1842
4.730887924602802 57.2493
4.753223354952695 58.7902
4.775541557023902 60.7384
4.797877349456786 62.7478
4.820195915032126 64.5896
4.842532072957498 66.3656
4.864868414979744 68.2289
4.88718753227192 70.6814
4.909524244902505 72.6584
4.931843734218147 75.639
4.954180820867835 79.0729
4.976518095879839 83.1603
4.998838149695359 87.3353
5.021175803844231 92.1808
5.043496238205739 96.8293
5.065834274903528 103.48899999999999
5.088172504230693 111.804
5.1104935158799565 121.59700000000001
5.132832132875765 137.817
5.155153533596801 164.295
5.1774925416746225 229.305
5.199814334878411 622.705
5.2221537374521505 2102.68
5.244493338631803 3786.61
5.266815727034316 4908.87
5.289155727832427 7358.48
5.311478517248165 9396.95
5.333818921080011 6670.42
5.356159527788849 2304.84
5.3784829252032536 562.49
5.400823940070432 243.852
5.423147747031976 177.144
5.445489173474152 148.273
5.467830807066149 133.14700000000002
5.490155234831516 124.251
5.512497285125229 117.447
5.534822130975162 113.07
5.557164601388673 109.225
5.579489868738879 105.31
5.601832762690846 102.84299999999999
5.6241758697774475 101.741
5.646501775867269 100.46
5.668845311622074 99.2623
5.691171647754637 98.9325
5.713515615597765 97.6953
5.735859800852677 96.9298
5.758186788542988 95.9283
5.780531411018185 96.5236
5.802858837297399 96.4594
5.825203900414495 96.8356
5.8475491852224 98.4838
5.869877275883075 100.525
5.892223006467101 104.12200000000001
5.914551544266608 108.493
5.936897724049891 117.085
5.959244129804903 131.27100000000002
5.981573344815301 167.43599999999998
6.0039202049061 318.20599999999996
6.026249875609095 809.002
6.04859719346037 1422.5
6.070927323278297 1829.69
6.093275102315365 2418.67
6.115623113320588 3456.07
6.137953938319995 3920.02
6.160302415650845 2398.6
6.182633708324452 828.171
6.2049826554078376 255.58900000000003
6.227331838745022 134.31
6.249663839443684 105.93
6.27201349767565 92.5782
6.294345974611799 85.5408
6.316696111167083 79.5871
6.339046488263839 76.446
6.361379686074702 72.8124
6.383730546639482 71.359
6.406064229255215 68.7353
6.428415576718203 67.5512
6.450749747566656 66.5025
6.47310158535871 65.0184
6.495453669698332 63.9483
6.517788579421056 63.1573
6.540141159237969 62.0071
6.562476565766648 61.1102
6.5848296444934045 60.4616
6.607182974060425 59.9535
6.6295191323281015 59.4495
6.651872965955752 59.156000000000006
6.6742096296068985 58.3063
6.6965639707294615 57.7672
6.71891856698715 57.5621
6.741255995248479 56.8943
6.763611104154477 56.4832
6.785949046381137 56.0524
6.808304671371482 55.2795
6.8306605557940046 55.1407
6.852999275508618 54.5444
6.875355681171544 54.0638
6.897694923437771 54.2013
6.92005185377892 54.2364
6.9423916220322655 53.5776
6.964749080490181 53.1046
6.987106804399774 52.8425
7.009447368180821 53.3633
7.031805625367033 52.8195
7.054146723727803 53.0051
7.076505517631004 52.5102
7.098864581288365 52.5088
7.121206488070854 52.1899
7.143566093607822 51.7937
7.165908543567245 51.9867
7.188268694426048 51.5074
7.2106291193438095 51.4213
7.232972390625943 51.8217
7.255333366030969 51.4469
7.277677189091925 51.2127
7.300038718428332 51.5707
7.322400526130865 51.549
7.344745183422596 51.5963
7.367107550224791 51.5778
7.389452767901992 51.9227
7.411815697249891 51.7154
7.434161478756298 51.5017
7.456524974096713 51.9892
7.478888753837185 51.4704
7.501235387657368 52.7109
7.523599738562711 57.2197
7.545946944825532 65.3537
7.568311870344528 69.2031
7.5906770845765665 63.5282
7.613025156078678 56.9644
7.635390950099687 54.1953
7.657739602662809 53.3289
7.680105979923558 52.7089
7.702472650212829 53.5242
7.724822180948224 53.4145
7.747189439655568 53.7052
7.769539560075357 53.9255
7.791907410653562 54.3877
7.81425812420825 54.2589
7.836626570110925 54.6291
7.858995315087906 55.5871
7.881346924933401 55.9102
7.903716270417482 55.9963
7.926068482028405 56.9179
7.948438431475253 57.3646
7.9708086843180235 57.7162
7.993161805171116 58.1503
8.015532667162402 58.6556
8.037886398416653 59.6201
8.060257873014221 60.2845
8.082629655331942 60.7173
8.104984308787587 61.6904
8.127356708900503 62.3847
8.149711981398308 63.2174
8.172085002766314 63.9543
8.194458336181368 64.9091
8.216814543847752 65.9394
8.23918850371002 67.7392
8.26154533906492 68.5421
8.283919928836452 70.6472
8.306277395339652 71.8569
8.328652618483376 73.3886
8.351028159736202 75.8359
8.373386579575245 78.3221
8.395762759396959 80.3842
8.418121819038275 83.6374
8.440498640894003 88.8217
8.462875785192262 97.382
8.485235811156207 114.154
8.507613602688501 183.91299999999998
8.529974277114228 391.462
8.552352719347912 631.756
8.574731488360351 772.023
8.59709314210385 812.217
8.619472567021075 953.69
8.64183487789147 1305.59
8.664214962183097 1757.48
8.686577933647762 1692.79
8.708958680784317 1063.46
8.731339760774953 475.98800000000006
8.753703729764451 195.24900000000002
8.77608547780821 122.22200000000001
8.798450116065078 106.53399999999999
8.820832535634787 98.9308
8.843215292401656 94.6484
8.865580941199045 91.5857
8.887964374703538 89.495
8.910330701447199 87.9204
8.932714815164482 86.3585
8.955099270424924 85.1586
8.977466620733543 84.056
8.999851761421976 83.6177
9.022219798361645 82.7013
9.04460562795561 82.8848
9.066991803441677 82.28
9.089360876979615 81.9707
9.111747746589993 81.6608
9.13411751544971 81.1021
9.156505082664324 80.9118
9.178875550323522 81.49
9.20126381862328 82.34200000000001
9.223652438908596 89.3742
9.246023961427412 102.95
9.26841328802173 106.807
9.290785518039224 100.02600000000001
9.313175554425882 90.2409
9.335565947154315 84.0377
9.357939245086508 82.3834
9.380330352834827 81.7857
9.40270436697103 81.8874
9.425096193225055 82.0643
9.447488380180165 82.7128
9.469863475295412 82.6642
9.492256385987508 82.9241
9.514632206018318 83.4314
9.537025843935714 83.6947
9.559402392368193 84.5339
9.581796761000229 85.3657
9.604191496441521 85.45700000000001
9.626569144158516 86.7145
9.648964615551032 87.2602
9.671343000390081 88.2623
9.693739211225699 88.889
9.716135793237463 90.354
9.738515290448102 91.1664
9.760912617143402 92.5335
9.783292860202891 93.4699
9.805690935076182 95.0723
9.828089385495742 96.5838
9.850470754023561 98.4469
9.872869957865444 100.756
9.89525208097539 104.265
9.917652041736662 108.369
9.940052382417589 115.715
9.962435644102392 134.399
9.984836746950979 196.35299999999998
10.007220771957746 363.38
10.029622640473708 572.758
10.052007432299963 685.9580000000001
10.074410069984072 696.5189999999999
10.096813093716005 728.247
10.119199042482517 884.352
10.141602840636468 1219.25
10.163989564971628 1545.87
10.186394141051062 1579.02
10.208799107559706 1099.95
10.231187001965623 557.952
10.253592751657669 243.672
10.275981430388155 142.108
10.298387966769793 119.292
10.320794897965431 112.745
10.343184759907361 108.88600000000001
10.36559248305461 105.805
10.387983138083852 104.65100000000001
10.410391656691655 107.471
10.432800574501677 123.727
10.455192425893369 169.14700000000002
10.47760214443012 222.51
10.499994797678786 252.21099999999998
10.522405320453982 251.713
10.54479877906917 256.64799999999997
10.567210109595656 292.435
10.5896218454736 364.439
10.612016518879773 463.413
10.634429067781074 494.468
10.656824555333241 399.745
10.679237920773568 254.104
10.701651695961992 147.341
10.724048411481384 105.235
10.746463008485165 92.5355
10.768860546937125 87.0418
10.791275969274796 83.3461
10.81369180576079 81.7372
10.836090585366925 80.29
10.858507252467449 78.7178
10.88090686379991 77.3701
10.903324365036394 76.8546
10.925724811614439 75.1296
10.948143150509463 74.8819
10.970561909719066 73.7756
10.992963615930844 73.0537
11.015383218085756 72.3309
11.037785768347074 71.2733
11.06020621697282 70.8021
11.082627090322113 70.4394
11.105030913430326 69.5293
11.12745263854165 69.17399999999999
11.149857314510728 68.143
11.172279894912576 68.3542
11.194702904450653 67.3574
11.217108866490921 66.8157
11.239532736615194 66.4903
11.26193956033512 65.9964
11.284364294577085 65.5539
11.306789462371718 64.9415
11.329197585398376 64.8479
11.351623622610898 64.9435
11.37403261614354 64.2483
11.396459526308487 63.9189
11.418869393879497 63.71
11.441297180532617 63.2479
11.463725406927658 62.9843
11.486136592353875 62.7498
11.508565700543707 62.3817
11.530977768845315 62.1706
11.553407762368774 61.6814
11.575838200059769 61.5031
11.598251599479612 61.4098
11.620682927815501 61.7252
11.64309721895548 61.9338
11.665529441478206 61.3387
11.687962112597958 61.0315
11.710377748130886 61.1017
11.732811318753434 60.9588
11.755227854859067 60.8892
11.777662328529495 60.9716
11.800079768750786 60.7868
11.822515149015453 60.6967
11.844950984084935 60.8631
11.867369787303163 60.8717
11.889806534289491 61.1036
11.912226250487029 62.3783
11.934663912939751 65.1714
11.9571020346363 67.7208
11.979523127133968 67.7384
12.001962169624331 67.0931
12.024384183972964 66.0646
12.046824150809913 68.4263
12.069264581333726 78.7405
12.091687985297767 92.2968
12.11412934550045 102.818
12.136553680195208 107.09899999999999
12.158995973632788 107.635
12.181438735204349 109.728
12.20386447284199 118.875
12.226308172985636 137.148
12.24873485024193 163.858
12.271179492516982 185.671
12.293607112949127 182.41299999999998
12.316052700916226 152.817
12.338498763250042 107.461
12.360927805303868 78.3932
12.383374818673879 67.2906
12.405804812803074 63.9027
12.428252780773262 63.2142
12.45070122756722 63.101000000000006
12.473132656675375 62.6783
12.49558206341869 62.6744
12.518014453510101 62.4923
12.540464823770117 62.7823
12.562915677315177 63.1088
12.58534951575545 63.0825
12.607801338171472 62.8701
12.630236146511358 63.1672
12.652688941369085 63.6589
12.675124723177234 63.7677
12.697578494048786 64.3593
12.720032754458185 64.4147
12.742470003354093 65.0732
12.764925245138771 65.5858
12.787363476431278 65.9863
12.809819703166806 66.3517
12.83227642391173 67.1294
12.854716135692716 67.7083
12.877173846755147 68.8176
12.899614549869717 69.0469
12.9220732548287 69.9473
12.94453245827299 70.6849
12.966974655289818 71.7549
12.989434858002571 72.6059
13.011878055298721 73.4368
13.034339260862497 74.5533
13.056800969391883 76.0989
13.079245674017244 78.9123
13.101708390774869 81.3706
13.12415410463411 87.2556
13.146617833206086 104.72200000000001
13.169064559883248 136.78799999999998
13.191529303857127 169.32
13.213994557076367 190.65200000000002
13.236442809902437 194.83599999999998
13.258909083908291 192.72099999999998
13.28135835851934 197.81400000000002
13.30382565690295 217.83599999999998
13.326293469022952 258.319
13.348744283242008 317.403
13.371213125129904 376.908
13.39366497011003 387.223
13.416134845360597 327.003
13.438605238843131 230.584
13.46105863690397 155.3
13.483530069144786 124.37200000000001
13.505984506951902 134.145
13.528456981549432 159.387
13.550929978879088 177.21
13.573385983253365 182.761
13.595860028340867 178.75900000000001
13.618317081455832 177.86
13.64079217790333 188.291
13.663250283359057 211.705
13.685726434770173 251.63400000000001
13.708203115221277 307.082
13.730662806148091 337.98900000000003
13.75314054697177 317.231
13.775601299246777 250.523
13.798080104050406 168.75400000000002
13.820559442405358 111.97
13.843021793671388 90.0027
13.865502201420897 82.7221
13.887965623051947 80.7298
13.910447103807167 79.1845
13.932929122629764 77.4442
13.955394156785959 76.6641
13.977877254034569 75.3668
14.000343367582113 74.4956
14.022827546871707 73.9053
14.045294743423524 73.03399999999999
14.06778000837062 72.3827
14.090265817715476 72.5209
14.112734645763819 72.6752
14.13522154619454 73.9441
14.157691466286913 75.13
14.180179461423874 74.8292
14.202668005486178 73.6008
14.22513957064374 72.055
14.247629214846473 70.5515
14.270101881097517 69.545
14.29259262906496 68.988
14.315083930490205 68.8803
14.337558255389705 68.5764
14.360050666019726 68.5342
14.382526101071944 68.11
14.405019624534942 67.6227
14.427513705993134 67.5148
14.449990813291825 67.5358
14.47248601302899 67.8679
14.49496423954951 67.6063
14.517460561197822 67.8546
14.539939910570322 67.619
14.562437357763558 67.723
14.58493536931253 68.2041
14.607416409993311 68.0994
14.62991555254159 68.3429
14.652397725157423 68.4658
14.674898002342799 68.9566
14.697398848433282 69.2373
14.719882725991326 70.3217
14.74238471217934 71.0991
14.764869730765593 74.0521
14.787372860692983 81.0071
14.809876564079925 94.874
14.83236330125751 109.29899999999999
14.854868153850365 117.759
14.877356041159485 120.081
14.899862046604186 118.84700000000001
14.922351087688757 118.895
14.944858249632887 123.75299999999999
14.967365991421232 134.496
14.989856770231246 150.863
15.012365673994204 177.024
15.03485761569738 201.017
15.05736768508665 205.72099999999998
15.07987833888692 186.639
15.102372032001655 148.599
15.124883856909658 108.215
15.14737872204565 84.7159
15.169891721717274 74.3359
15.192405310371893 71.3521
15.214901940621196 69.8308
15.237416709527137 68.5391
15.259914520936249 68.2447
15.282430473753607 67.4254
15.304947020131227 66.7111
15.327446610371178 66.4115
15.349964346154254 66.0677
15.372465126703139 66.1054
15.394984055556009 65.7242
15.417486030076159 65.7624
15.44000615566487 65.4065
15.462526881230803 65.059
15.485030653812652 65.1291
15.507552581617434 64.7712
15.530057557334603 64.9709
15.55258069104857 64.9495
15.575104429329837 65.1124
15.597611216864632 65.0797
15.620136166564563 65.4944
15.6426441664095 66.25399999999999
15.665170331202765 68.2279
15.687697105158826 74.0784
15.710206930593545 85.1126
15.732734925158933 96.712
15.755245972089478 104.212
15.77777519094324 107.238
15.800287463046663 106.37799999999999
15.822817909869592 105.181
15.84534897229804 106.81700000000001
15.867863089299354 113.679
15.890395385222186 124.185
15.912910736597423 141.315
15.935444269699861 163.52100000000002
15.957978423016485 181.71900000000002
15.980495633101265 179.407
16.003031029129367 160.13
16.02554948280019 125.71600000000001
16.048086125229432 94.4065
16.070623392487107 75.8952
16.09314371869582 67.3087
16.11568223789321 63.6545
16.13820381691126 61.9549
16.160743591742527 60.6533
16.183283996022084 59.9544
16.205807461423195 59.1617
16.228349126881973 58.5074
16.25087385432698 58.2194
16.27341678466365 57.5436
16.29594277784926 57.3437
16.31848697676433 56.8894
16.341031811604868 56.2872
16.36355971058487 56.0467
16.3861058195587 56.0302
16.40863499352978 55.5783
16.431182380342005 55.2885
16.453730407713202 55.0345
16.476261501364792 54.9016
16.498810812136167 54.3745
16.52134319004079 54.6682
16.54389378792203 54.5452
16.566445031001553 54.1845
16.588979342490088 54.089
16.61153187824822 53.9619
16.634067483263312 53.9239
16.656621315414416 53.8629
16.679175797408888 53.4394
16.701713349928728 53.6001
16.72426913389191 54.0597
16.74680798922351 53.876999999999995
16.76936507887444 53.753
16.791905240734874 53.6606
16.814463639794468 53.4951
16.837022695210294 53.5704
16.859564824093756 53.7013
16.882125194503903 53.9068
16.904668639217885 54.2769
16.927230328348003 54.3453
16.949792678493612 54.5743
16.972338104193863 54.4174
16.994901778652235 54.4775
17.017448529496576 54.6989
17.040013531998152 54.8004
17.06257920018044 55.31100000000001
17.0851279459922 56.2387
17.107694947817667 58.6055
17.130245028099072 60.7423
17.15281336730298 62.838
17.17536478578733 64.1578
17.19793446610687 64.2572
17.220504818648422 63.9642
17.243058251703697 63.6631
17.265629950971032 64.9782
17.288184731571736 66.3271
17.310757781306908 69.3434
17.33333150794385 72.087
17.355888317140174 76.2631
17.37846339986244 80.0694
17.401021565958885 81.10600000000001
17.42359800851343 77.6776
17.44617513265564 72.4676
17.468735341390783 66.4675
17.491261035594565 61.5975
17.51396340099364 59.3671
17.536490463869136 58.7853
17.559018209820174 58.5892
17.58154663977963 58.5724
17.604251766089718 58.6669
17.626781572227713 58.8383
17.64931206518155 58.6821
17.671843245885103 59.1893
17.69455114821572 59.2405
17.717083712612634 59.6439
17.739616967569667 60.21
17.762150914021706 61.0132
17.78486160749854 61.137
17.807396945166804 61.6226
17.829932977143503 62.3735
17.85246970436452 63.4098
17.875183204129467 66.2463
17.897721330097664 72.1956
17.920260154126645 78.9884
17.942799677153296 84.7049
17.9655159983646 87.2782
17.988056927677544 87.7674
18.010598558807683 86.9406
18.033140892692916 87.10700000000001
18.05586005052525 88.4589
18.07840379824407 91.9333
18.10094825154059 97.7818
18.12366954819864 106.541
18.146215420998306 119.65100000000001
18.16876200220057 134.55200000000002
18.191309292745153 144.839
18.214033452627167 145.435
18.236582170236648 133.134
18.259131600016456 114.94200000000001
18.281681742907335 97.8785
18.304408781233683 86.9658
18.32696035875955 82.9739
18.349512652227624 82.8621
18.372065662579683 85.9027
18.394795594587553 90.1621
18.41735004715306 95.8377
18.43990521943684 100.805
18.46246111238171 101.73700000000001
18.485193953325208 97.1209
18.507751296070428 88.3014
18.530309362314178 78.9176
18.552868153000343 70.4627
18.57560391815056 65.3494
18.59816416623245 63.1941
18.620725141597372 61.8306
18.643286845190268 61.0383
18.666025549835414 60.521
18.688588718427933 59.7818
18.711152618092243 59.3065
18.73389353884365 59.1693
18.75645890921984 58.9011
18.77902501351406 58.4109
18.801591852673102 58.4537
18.824335739722738 57.8193
18.846904057212626 57.4539
18.8694731124168 57.2246
18.89204290628315 57.2682
18.914789774966803 57.0424
18.937361054791623 56.8654
18.959933076131318 56.6576
18.982505839934877 56.5469
19.00525570560582 56.5066
19.027829963004184 56.228
19.05040496572238 56.3514
19.072980714710468 56.4272
19.095733592739563 56.6529
19.11831084296757 56.9162
19.140888842324735 58.1107
19.16346759176222 59.4481
19.18622349753803 60.5752
19.208803755869358 61.5706
19.231384767143577 61.964
19.253966532312948 61.6735
19.276725481241822 61.5113
19.29930876296784 61.5084
19.3218928014549 62.3218
19.34465404436217 63.346000000000004
19.36723960516257 64.8985
19.389825925592426 66.8218
19.412413006605938 69.2878
19.43517731967805 72.0012
19.457765930683355 73.4579
19.48035530514408 72.5768
19.50294544401556 69.2318
19.525712842708348 64.8404
19.54830451925909 60.3669
19.570896963095727 56.6808
19.593490175174704 54.6871
19.616260674962184 53.9075
19.638855432416964 53.2881
19.661450960992624 53.4922
19.68404726164677 53.2478
19.706820878021247 53.1181
19.729418731756834 53.1698
19.752017360452857 52.8048
19.77461676506804 53.1482
19.797393513540218 52.9796
19.819994478951667 53.4116
19.84259622316767 54.4477
19.8651987471481 55.7101
19.887978643247177 56.5315
19.91058273574792 57.268
19.933187610901943 57.681999999999995
19.955969879466828 58.0837
19.97857632894404 57.6421
20.00118356396599 57.5482
20.023791585494575 57.7496
20.046577028914875 58.6844
20.069186632506966 60.1806
20.091797025500632 62.3498
20.114408208858933 64.8456
20.137196842715273 68.0493
20.159809615886765 70.8432
20.18242318232135 71.86
20.20503754298326 70.9209
20.227829382875154 68.4999
20.250445341109344 65.1832
20.27306209647285 62.132
20.29567964993108 60.0984
20.31847471147704 59.2813
20.34109387027612 59.7932
20.363713830075454 61.0852
20.386334591841646 62.9653
20.409132890679302 64.3812
20.431755265564437 64.268
20.454378445325528 62.5671
20.477002430930366 59.6459
20.499803982716553 56.5827
20.522429589228004 53.5634
20.54505600449589 51.6036
20.567683229489194 50.7243
20.590488049900088 50.2764
20.61311690359731 49.9249
20.63574656993626 49.7309
20.658553853717297 49.434
20.681185154618298 49.2789
20.703817271080066 49.3019
20.72645020407368 48.9019
20.749260783967177 49.0147
20.771895359337133 48.9009
20.794530754161617 48.9823
20.817166969412938 48.7075
20.83998086114876 48.6721
20.86261872660049 48.5661
20.885257415405402 48.558
20.90789692853701 48.391999999999996
20.930714147864748 48.1805
20.953355319030678 48.2003
20.97599731745334 48.5828
20.99864014410749 48.3969
21.021460706796564 48.6065
21.044105199328826 49.0724
21.06675052302631 49.0222
21.089396678865015 48.9348
21.112220600704806 48.9698
21.134868430275347 48.971000000000004
21.15751709492456 48.863
21.180166595629693 48.7501
21.202993892429635 49.0187
21.22564507473034 49.1523
21.24829709602816 49.4084
21.27112693608965 49.9386
21.293780644891275 50.5525
21.316435195634053 50.9159
21.339090589297417 50.8368
21.361923832041875 51.0031
21.384580921090404 50.3227
21.407238856007325 49.6566
21.429897637773326 48.9854
21.45273429906592 48.5455
21.475394784108598 48.3474
21.498056118951983 48.1767
21.520718304578022 48.3791
21.543558400304388 48.5379
21.566222297108816 48.4557
21.58888704765135 48.5576
21.61155265291521 48.9595
21.63439619898156 50.0746
21.657063523335786 51.0509
21.67973170537063 52.2618
21.7024007460706 52.8399
21.72524775840385 53.3495
21.747918526116475 53.5811
21.770590155457388 53.474
21.79326264741238 53.4363
21.816113141960237 53.7536
21.838787368860547 54.3885
21.861462461341976 55.1839
21.884315579735777 56.9329
21.90699241312273 58.2603
21.92967011506078 60.3086
21.95234868653799 62.1428
21.9752053151131 64.0971
21.997885635446785 65.3664
22.020566828293532 65.2488
22.04324889464272 63.6847
22.066109049404666 61.0039
22.088792872571794 58.1147
22.111477572219204 55.6424
22.1341631493376 54.7473
22.157026846313123 54.6111
22.179714188221507 55.1608
22.202402410582668 55.794
22.22509151438863 55.5355
22.24795876962584 54.8743
22.270649646204486 54.0649
22.293341407213727 52.6265
22.316034053646906 51.1305
22.338904883215342 49.9002
22.36159931041458 49.2825
22.38429462602756 48.7544
22.40699083104897 48.5018
22.429865251039757 48.4404
22.452563244831367 48.3675
22.47526213102522 48.4163
22.49813925616515 48.4514
22.520839937143307 48.3162
22.543541513520587 48.3929
22.56624398629403 48.2363
22.589124730075895 48.2755
22.611829005656723 48.538000000000004
22.63453418063466 48.43
22.657240256008077 48.5937
22.680124634582935 49.184
22.70283252079775 50.0313
22.725541310413075 50.5009
22.74825100442868 51.0362
22.771139033969575 51.8248
22.79385054687155 51.5822
22.81656296718292 51.2621
22.83927629590484 51.2683
22.862167992606945 51.3802
22.88488314827121 51.5448
22.907599215359284 51.9021
22.93031619487366 52.2226
22.953211574954405 52.7271
22.975930389478226 53.6513
22.998650119445763 54.765
23.02137076586092 55.7251
23.044269845560063 56.8861
23.06699233506288 57.6083
23.089715744034912 57.2709
23.112617610931565 56.3138
23.135342869061212 54.4325
23.158069049684816 52.5161
23.1807961538087 50.7443
23.20370174880544 49.7913
23.226430710184808 49.0591
23.249160598093425 48.9156
23.271891413539002 48.9778
23.294800752937697 49.3389
23.31753343374794 50.1169
23.340267045128353 50.6665
23.36300158808808 51.3677
23.38591468821339 51.5194
23.408651104658304 51.4313
23.431388455719986 51.2243
23.454126742409 50.888999999999996
23.4770436196085 50.9933
23.499783787914662 51.2735
23.522524894889884 51.1808
23.54526694154616 51.3611
23.56818761219047 52.2717
23.59093154860734 53.0385
23.613676427751283 54.2541
23.636422250635754 55.2927
23.659346731118656 56.4668
23.68209445191868 57.42
23.704843119509587 57.0585
23.72759273490623 55.7676
23.750521041644767 53.8517
23.77327256312355 51.4969
23.796025035462787 49.3108
23.818956224555475 47.5712
23.841710609113413 46.9457
23.86446594758979 46.1411
23.887222241002014 45.668
23.910157285144578 45.1848
23.932915498962537 45.4156
23.955674670778713 45.144
23.978434801611975 44.8012
24.001373717286125 44.7472
24.024135776723917 44.5979
24.046898798245582 44.4292
24.06966278287146 44.3792
24.092605586582614 44.0562
24.115371508023642 44.038000000000004
24.1381383956401 43.8675
24.16090625045381 43.8698
24.183852958731244 43.7141
24.206622758582608 43.5642
24.229393528706886 43.3621
24.252165270127392 43.4558
24.27511589952438 43.5428
24.297889594216997 43.2469
24.32066426328598 43.0622
24.34343990775613 43.0993
24.36639447485003 42.8936
24.38917208083877 42.9447
24.41195066531332 42.8049
24.43490819850244 42.8482
24.457688750692377 42.6938
24.48047028445616 42.6194
24.503252800821233 42.6734
24.526214300784112 42.7389
24.548998793132213 42.6049
24.57178427117417 42.5563
24.59457073593893 42.5053
24.617536219319863 42.6151
24.64032466834748 42.7871
24.663114107195035 42.7594
24.685904536893013 42.5698
24.708874020360852 42.7403
24.731666442613744 42.5752
24.754459858818787 42.5445
24.777254270007962 42.2084
24.80022777025625 41.9982
24.82302418230472 42.0821
24.845821592443674 42.1297
24.86862000170663 42.2653
24.891597535453727 42.118
24.914397953892728 42.4768
24.93719937456671 42.3412
24.96000179851076 42.3088
24.98298338249997 42.4351
25.00578782394922 42.5636
25.028593271784167 42.6111
25.05157790644186 42.9623
25.07438537804115 43.0875
25.097193859145293 43.1458
25.120003350792075 43.3802
25.142992065061257 43.5234
25.165803588823465 43.7101
25.18861612625217 43.8607
25.211429678386736 43.9669
25.234422489079968 44.0252
25.257238081693636 44.2936
25.280054692141732 44.4806
25.3028723214652 44.2382
25.325869245420463 44.3259
25.348688923599397 44.3015
25.371509623787006 44.1578
25.394331347025812 44.0936
25.41733240110666 44.251000000000005
25.440156181590016 44.4569
25.46298098826268 44.7124
25.48580682216873 44.3725
25.50881202326435 43.7416
25.53163992281684 42.9949
25.55446885274561 42.3085
25.577298814096377 41.6011
25.600308179121807 41.0373
25.623140214533745 41.1356
25.64597328451537 40.8407
25.66898578564376 40.513000000000005
25.691820936010206 40.6597
25.714657124097695 40.5047
25.737494350954734 40.6306
25.760511045684957 40.5181
25.783350361364224 40.5914
25.806190718969255 40.6684
25.82903211955018 40.8522
25.852053024868923 40.8052
25.874896522722523 40.9938
25.897741066713106 40.6175
25.920586657892454 40.5565
25.943611790812668 40.6376
25.966459487728237 40.5687
25.989308234998564 40.3444
26.01215803367705 40.6547
26.03518741123814 40.8168
26.05803932412957 40.7801
26.080892291600094 40.649
26.10374631470478 40.7655
26.12677995397268 41.0741
26.14963609978026 41.281000000000006
26.172493304397875 41.3025
26.19535156888223 41.6858
26.218389486949604 41.6439
26.241249882640123 41.4822
26.26411134137826 41.3056
26.28715248187403 41.0711
26.31001607820869 40.6575
26.3328807407756 40.4491
26.35574647063438 40.5773
26.37879191991473 40.4663
26.401659795896734 40.4593
26.424528742360263 40.4071
26.447398760366614 40.5834
26.470448535598294 40.527
26.49332070826805 40.397
26.516193955675355 40.5392
26.53906827888316 40.586
26.562122397260108 40.6657
26.584998883685063 40.9293
26.607876449110325 40.9651
26.63075509460056 41.0629
26.65381357334404 41.2119
26.67669439061878 41.3811
26.699576291163382 41.663999999999994
26.722459276044212 42.1495
26.745522132402975 42.2539
26.768407297649354 42.255
26.791293550442003 41.983000000000004
26.814180891848974 41.865
26.837248143099337 41.3377
26.860137673466657 40.9523
26.88302829566349 40.6269
26.90592001075963 40.5052
26.92899167420566 40.4694
26.951885586870763 40.2341
26.974780595655517 40.0493
26.99785558178161 39.9623
27.020752794605112 39.5703
27.043651106772522 39.2125
27.06655051935668 38.9532
27.089629948036183 38.8607
27.112531573292053 38.7433
27.135434302194138 38.8876
27.158338135817015 38.6691
27.181422024430987 38.716
27.204328079372566 38.5614
27.22723524226965 38.5937
27.250143514198573 38.6692
27.273231880156334 38.6519
27.296142382065014 38.6512
27.319053996245536 38.4007
27.341966723775965 38.378
27.365059584515222 38.4762
27.38797455070062 38.4633
27.410890633481237 38.2782
27.433807833936918 38.0999
27.456905206923906 38.3243
27.47982465472398 38.1846
27.502745223449743 38.2117
27.525666914182825 38.4019
27.548768816912457 38.4069
27.571692763693633 38.2991
27.59461783573812 38.2856
27.617723149491244 38.1877
27.640650484125285 38.3869
27.66357894728264 38.3704
27.686508540048052 38.4094
27.709618414237887 38.4195
27.732550278321757 38.3216
27.755483275279115 38.2698
27.778417406196485 38.3379
27.801531858397514 38.2766
27.824468269376716 38.1064
27.847405817586786 37.9118
27.870344504116094 38.036
27.893463551932008 38.0052
27.916404527281053 38.1061
27.93934664422563 38.1425
27.962289903855886 38.0754
27.98541356491974 38.08
28.00835912214229 38.1639
28.03130582533231 38.3155
28.054253675581805 38.4962
28.077381967556104 38.3921
28.100332124185126 38.6173
28.123283431160893 38.7516
28.146235889577238 38.9109
28.169368830154156 38.9431
28.192323603752033 39.0588
28.215279532083304 38.9139
28.238415973016764 38.5209
28.261374223145094 38.251
28.284333631303806 38.0655
28.307294198589954 37.8828
28.330435319167677 37.6643
28.353398217078915 37.5738
28.376362277420153 37.2961
28.39932750129032 37.1806
28.422473319286713 36.92
28.44544088262495 36.8065
28.468409612800283 36.4963
28.491379510913497 36.1703
28.51453004413313 36.0528
28.53750229057244 35.9365
28.56047570826344 35.7651
28.583450298308804 35.7854
28.606605564586562 35.7309
28.629582511831156 35.778
28.65256063474956 35.7506
28.675539934446338 35.7199
28.698699951647605 35.5802
28.72168161743193 35.3771
28.74466446331978 35.5213
28.767648490417624 35.4824
28.790813276438353 35.2729
28.813799678527303 35.3224
28.836787265157085 35.2549
28.859955641890075 35.1414
28.882945610203045 35.1411
28.905936766392035 35.0273
28.928929111566863 35.1184
28.952102288520145 35.1201
28.975097024308607 35.1264
28.998092952423807 35.0206
29.021090073977508 35.0534
29.04426806913204 35.0389
29.067267590245258 34.8778
29.090268308143695 34.8177
29.11327022394099 34.7973
29.13645305530891 34.6003
29.159457379627167 34.4351
29.18246290519685 34.4105
29.20546963313352 34.304
29.22865731875826 34.3677
29.25166646419296 34.2851
29.27467681535305 33.9552
29.29768837335608 33.9939
29.320880931312562 34.0815
29.34389491580634 33.9317
29.366910110507334 33.8911
29.38992651653503 33.9605
29.41312396492981 34.0004
29.436142806456754 33.9792
29.45916286268059 33.8099
29.48236399319994 33.7593
29.50538649169417 33.8123
29.528410208259935 33.9638
29.55143514402014 33.7643
29.574641196749695 33.5837
29.597668583816574 33.5774
29.6206971934585 33.3646
29.64372702680042 33.2247
29.666938019934474 33.0503
29.689970313635285 33.0271
29.713003834422636 32.8549
29.73603858342347 32.8093
29.759254535188578 32.7704
29.78229175361658 32.7399
29.80533020365064 32.787
29.82836988641968 32.7912
29.85159081507472 32.6363
29.874632976355343 32.616
29.89767637376955 32.6673
29.920721008448314 32.4696
29.9439469322847 32.4828
29.96699405457564 32.3803
29.9900424175358 32.4274
30.013092022298157 32.429
30.03632295963995 32.3391
30.059375061131373 32.3724
30.08242840783577 32.4536
30.105483000888153 32.2486
30.128718970092244 32.1993
30.151776069006917 32.2341
30.17483441768648 32.2472
30.198074175317235 32.1668
30.221135036724256 32.2288
30.24419715131772 32.2233
30.267260520236203 32.1278
30.290505341942243 32.1775
30.313571232750228 32.268
30.336638381310948 32.298
30.35970678876503 32.412
30.38295669299435 32.3845
30.40602763151657 32.286
30.429099832366074 32.269
30.452173296685572 32.097
30.47542830191959 32.0456
30.498504306502497 31.943
30.521581577995562 31.9312
30.544660117543582 32.0396
30.56792024229725 32.0629
30.59100133132069 31.8281
30.614083691845494 31.8571
30.637167325018545 31.9967
30.660432587840603 31.8811
30.683518779717886 31.7738
30.70660624769615 31.7835
30.729694992924372 31.8707
30.75296541239743 32.0598
30.77605672557558 31.9797
30.799149319462742 32.0523
30.8224236211637 32.0431
30.845518789950724 32.0696
30.868615242910597 32.0654
30.891712981195973 32.0043
30.91499247215866 31.8002
30.938092794619365 31.7852
30.96119440587579 31.7256
30.984297307082752 31.5914
31.00758200598383 31.4318
31.030687500658694 31.2862
31.053794288760695 31.2562
31.076902371446767 31.1996
31.100192296997445 31.1905
31.12330298246119 31.0845
31.14641496599209 31.061
31.169528248749216 30.9833
31.19282341969534 30.9208
31.215939314557186 30.9557
31.239056512134788 31.034000000000002
31.262175013589378 30.8764
31.28547544871168 30.8008
31.30859657161541 30.7675
31.331719001892175 30.7266
31.35484274070538 30.848000000000003
31.378148458819545 30.8033
31.401274828443725 30.7283
31.424402510106933 30.7241
31.447712205419993 30.8022
31.470842524931633 30.6911
31.493974159989783 30.6398
31.51710711176168 30.6094
31.54042212308802 30.6767
31.563557722100917 30.8095
31.586694641341655 30.6845
31.609832881979628 30.6805
31.63315322823208 30.6151
31.656294125521327 30.5324
31.679436347728515 30.4816
31.70257989602529 30.3835
31.725905596152327 30.2313
31.74905181052835 30.1175
31.772199354521323 30.1218
31.79534822930507 30.1439
31.818679302290967 30.0273
31.84183085259981 30.1102
31.864983737233473 30.0479
31.88813795736804 30.0502
31.911474422233013 29.8945
31.934631327356435 29.9489
31.9577895715215 29.9226
31.980949155906522 29.8653
32.004291031706956 29.8972
32.027453310562606 29.9495
32.05061693318573 29.8024
32.07396288236386 29.816999999999997
32.09712920658542 29.7934
32.12029687812702 29.7229
32.14346589817093 29.6736
32.166817291729984 29.6886
32.18998902288583 29.5889
32.21316210610336 29.5115
32.23633654256711 29.3564
32.259693399663725 29.3199
32.282870556771144 29.2782
32.30604907069099 29.2209
32.329228942610065 29.1184
32.35259128243769 29.0207
32.375773884550505 28.9682
32.398957848235646 28.9222
32.422143174682176 28.7726
32.445511016471215 28.7224
32.468699082679954 28.7389
32.49188851523011 28.7261
32.51507931531304 28.5645
32.538452678331 28.5409
32.56164622776311 28.436
32.58484114831493 28.4495
32.60803744118015 28.4214
32.631416344731896 28.4401
32.654615396551876 28.4223
32.67781582427913 28.3696
32.701198898634416 28.2318
32.72440209253756 28.2586
32.747606665947124 28.2228
32.77081262006088 28.0467
32.79420126883317 28.0822
32.81740999876112 28.1037
32.840620112999424 28.0272
32.86383161274818 27.9568
32.88722585534586 28.0031
32.91044014056596 28.1287
32.933655814909734 27.9498
32.95687287957963 27.9023
32.98027273544904 27.8506
33.00349259526636 27.7671
33.026713849030116 27.7183
33.04993649794511 27.8008
33.073341986570746 27.7173
33.09656744032826 27.6929
33.11979429286444 27.6317
33.14302254538647 27.5774
33.166433686291185 27.5953
33.18966475336992 27.586
33.212897224069096 27.4579
33.23613109959831 27.4905
33.259547912343415 27.5464
33.2827846121627 27.5924
33.306022720453775 27.4695
33.32926223842861 27.3632
33.352684742614166 27.3456
33.37592709463173 27.4122
33.399170859982064 27.3629
33.422597648419426 27.4025
33.44584425514446 27.1713
33.46909227885668 27.1557
33.4923417207723 26.9929
33.51577423505344 27.0234
33.539026528130385 26.9168
33.56228024307245 26.9014
33.585535381098246 26.7444
33.60897364093058 26.7426
33.63223163992385 26.7373
33.6554910656699 26.6165
33.678751919389796 26.5644
33.702195944520106 26.5858
33.72545966903325 26.5669
33.74872482519663 26.3682
33.771991414233746 26.4072
33.79544122444841 26.4425
33.81871069412428 26.3685
33.84198160035767 26.2555
33.86525394437455 26.2888
33.88870955949969 26.2558
33.911984794020626 26.2767
33.93526147001624 26.2716
33.958539588715006 26.2055
33.98200102861669 26.0398
34.0052820477047 25.9828
34.02856451319451 26.0125
34.05203033759056 25.969
34.07531571090147 25.9267
34.09860253431845 25.9248
34.121890809074316 25.8155
34.145362493118924 25.7168
34.16865368561615 25.7321
34.191946333164054 25.7104
34.21524043699793 25.6478
34.23871800066799 25.6108
34.26201503218366 25.4905
34.28531352370466 25.4763
34.30861347646881 25.474
34.33209693978188 25.4936
34.3553998301885 25.4137
34.378704185565205 25.4127
34.402010007152356 25.2644
34.42549939016683 25.3014
34.44880815937748 25.2115
34.472118398533134 25.2186
34.49543010887669 25.1441
34.51892543169198 25.0781
34.54224009966052 25.1112
34.56555624255917 25.0776
34.58887386163339 24.9574
34.61237514439016 24.8801
34.6356957311114 24.9474
34.65901779775809 24.9361
34.68252356662995 24.8753
34.705848608458616 24.8319
34.72917513396849 24.7482
34.75250314440949 24.7806
34.77601490857862 24.6477
34.799345904259795 24.6391
34.82267838863559 24.6614
34.846012362958525 24.6136
34.869530142679984 24.5754
34.89286711232212 24.4867
34.91620557568269 24.5065
34.93954553401677 24.4001
34.9630693495876 24.3908
34.986412313340814 24.4495
35.00975677584668 24.3705
35.033102738362956 24.3223
35.05663261012228 24.2537
35.0799815881786 24.2974
35.10333207003229 24.2445
35.12668405694369 24.2899
35.150220005273056 24.2632
35.17357501786656 24.2392
35.19693153931268 24.1917
35.220289570874385 24.101
35.24383161619786 24.154
35.267192683604904 24.0847
35.290555264930376 24.0383
35.314101899412165 24.029
35.33746752422433 23.8997
35.36083466676374 23.9289
35.38420332829803 23.8852
35.407756095629054 24.0553
35.43112781085063 23.8757
35.45450104888391 23.7924
35.477875810999194 23.8045
35.50143473172161 23.7524
35.52481255774625 23.7866
35.54819191167777 23.7125
35.57157279478914 23.7311
35.595137889488406 23.6617
35.61852184675279 23.6818
35.641907337029984 23.6044
35.665294361595684 23.6498
35.68886565090076 23.6091
35.7122557598848 23.5307
35.73564740699838 23.5066
35.759040593519934 23.4772
35.78261809810353 23.3555
35.80601437933051 23.3588
35.829412203814705 23.2897
35.85281157283719 23.2559
35.876395313415884 23.2873
35.8997977874528 23.1998
35.92320180988546 23.1294
35.946790244133936 23.0459
35.97019737933222 23.049
35.993606066789866 22.9979
36.01701630779276 22.9658
36.04061101440684 22.9205
36.06402437852291 22.8942
36.08743930005611 22.8818
36.1108557802951 22.897
36.13445678011326 22.8027
36.15787639383515 22.7481
36.18129757014299 22.7206
36.20472031032821 22.6919
36.22832762423364 22.6584
36.25175350829375 22.7152
36.275180960119776 22.6235
36.298609981005924 22.6333
36.32222362992669 22.6043
36.34565580510207 22.5698
36.36908955323448 22.4733
36.39252487562093 22.4912
36.416144880530226 22.3384
36.43958336764275 22.4436
36.463023432914625 22.4703
36.486465077645676 22.2637
36.51009145956204 22.3052
36.53353627947859 22.3228
36.55698268276811 22.3499
36.58043067073321 22.2179
36.60406345072071 22.0655
36.62751462435344 22.1151
36.65096738658405 22.1576
36.67460498210655 22.1088
36.69806093788647 22.0438
36.72151848619297 21.9967
36.744977628333636 22.0718
36.76862165890998 22.0121
36.79208400512205 21.8975
36.81554794910557 21.9007
36.83901349217101 21.8122
36.862663978991606 21.8305
36.88613273667352 21.8138
36.90960309738324 21.7764
36.933075062434064 21.6627
36.95673202673572 21.6315
36.98020721697122 21.6623
37.003684015502365 21.545
37.027162423645365 21.539
37.050825886711465 21.4923
37.07430753063053 21.3977
37.09779078812467 21.3948
37.121275660513014 21.4332
37.144945643673694 21.3451
37.16843376245278 21.3103
37.19192350009803 21.3422
37.215414857931435 21.2484
37.239091382563885 21.2302
37.262585997426164 21.2086
37.28608223645736 21.1629
37.309763684451696 21.1566
37.33326318851098 21.0808
37.356764320726555 21.0287
37.380267082425526 21.0121
37.40395510942588 21.035999999999998
37.42746114683234 21.0109
37.45096881771841 20.9154
37.474478123414166 20.9393
37.49817275092816 20.9379
37.52168534303452 20.8713
37.54519957395567 20.8367
37.568715445024665 20.7554
37.592416694607714 20.693
37.61593586281424 20.7487
37.63945667518264 20.7393
37.66297913304891 20.6663
37.68668702630454 20.6811
37.710212792059274 20.5723
37.733740207334854 20.5246
37.757269273470364 20.5295
37.780983832050374 20.51
37.80451621684926 20.5267
37.82805025654007 20.4564
37.851585952464795 20.4229
37.8753071980695 20.3194
37.89884622345676 20.2879
37.92238690911902 20.2463
37.94611318753442 20.2255
37.969657210779765 20.2125
37.99320289834801 20.259
38.016750251586465 20.1199
38.04048325513017 20.1077
38.06403395679343 20.0917
38.087586328183946 20.0584
38.11114037065203 20.0666
38.13488012115898 20.0832
38.1584375229181 19.9027
38.181996599821 19.903
38.205557353221124 19.8789
38.229303872575656 19.8565
38.2528679961576 19.8055
38.27643380031219 19.7859
38.30000128639589 19.7225
38.32375459653193 19.6859
38.34732546371299 19.7411
38.37089801690786 19.659000000000002
38.39447225747609 19.641
38.418232380377425 19.5824
38.441810012983396 19.5857
38.46538933705673 19.5328
38.488970353960084 19.5515
38.51273731166058 19.5118
38.536321731567014 19.4649
38.55990784840681 19.4231
38.58367995004091 19.3832
38.60726947812959 19.3234
38.63086070726198 19.3586
38.654453638806274 19.4298
38.678232613930824 19.244
38.70182896773327 19.2326
38.72542702806741 19.1951
38.7490267963045 19.1959
38.77281266709232 19.1063
38.79641586862214 19.0907
38.8200207821842 19.0883
38.843627409152944 19.1339
38.86742019782782 19.1499
38.891030269149255 18.9929
38.914642058016156 19.0125
38.938255565806124 18.9664
38.96205529464307 18.9027
38.98567225787121 18.816
39.00929094417078 18.8006
39.03291135492255 18.8094
39.05671804624804 18.8016
39.080341923549106 18.7216
39.103967529460334 18.7673
39.127594865365744 18.7245
39.15140854155791 18.6465
39.17503935514948 18.673
39.19867190290282 18.6478
39.22249083587951 18.594
39.24612686969409 18.6159
39.269764641845306 18.5929
39.293404153722804 18.5756
39.317230110864074 18.4409
39.34087311998506 18.4126
39.36451787301696 18.4004
39.388164371352595 18.3783
39.41199737518003 18.302
39.43564738196752 18.3138
39.45929913825317 18.3134
39.48295264543308 18.2879
39.506792718520884 18.2744
39.530449745387216 18.2477
39.55410852735203 18.1979
39.57776906581474 18.1901
39.60161623079 18.1785
39.625280300200025 18.1673
39.64894613032202 18.0126
39.67261372255866 18.0363
39.6964680021016 18.0415
39.72013913657293 18.0509
39.74381203738292 17.965
39.76748670593756 17.9498
39.79134812278169 17.9549
39.81502634488497 17.9132
39.83870633896685 17.8736
39.862388106436654 17.8023
39.88625668336918 17.8049
39.90994201572829 17.7928
39.933629125719285 17.7029
39.957503091207826 17.6344
39.9811937746168 17.6575
40.00488623990914 17.6505
40.02858048850006 17.6307
40.05246165409549 17.5341
40.076159487492085 17.5244
40.099859108448875 17.5367
40.123560518384345 17.5366
40.1474489070226 17.4997
40.171153913178564 17.3855
40.194860712584955 17.4021
40.2185693066637 17.3469
40.242464941335314 17.3237
40.26617714307655 17.3182
40.289891143772046 17.2798
40.3136069448471 17.2456
40.33750984859743 17.2349
40.3612292688043 17.2436
40.3849504936829 17.1705
40.40867352466194 17.1481
40.43258372059144 17.2038
40.45631038219906 17.1602
40.48003885420956 17.0351
40.503769138055105 17.0485
40.52768664931955 17.0643
40.55142057531802 17.014
40.57515631746428 16.9591
40.599079334038514 16.8979
40.62281872700477 16.8845
40.64655994043941 16.8797
40.67030297578061 16.8664
40.69423334835778 16.8819
40.71798004609188 16.8379
40.74172857006355 16.8022
40.76547892171441 16.8028
40.7894166736039 16.7679
40.813170699248566 16.7509
40.83692655691388 16.6853
40.86068424804498 16.6876
40.884629402612525 16.6514
40.908390779366385 16.6026
40.932153993938 16.6213
40.95591904777605 16.6325
40.979871628443995 16.5335
41.003640379561936 16.4992
41.02741097430883 16.5327
41.05118341413683 16.4093
41.075143444384416 16.4259
41.098919593177826 16.4074
41.1226975914255 16.3861
41.14647744058318 16.3479
41.170444943946755 16.3205
41.19422851378379 16.3744
41.218013938914645 16.31
41.24198706625173 16.2068
41.26577622087193 16.187
41.289567235177785 16.2002
41.31336011063129 16.2447
41.337340752422875 16.125
41.361137369129835 16.1561
41.38493585138705 16.1145
41.40873620066004 16.0194
41.43272438060107 16.0132
41.45652848292052 15.9932
41.48033445666918 15.9159
41.50414230331616 15.9447
41.528138045159764 15.8793
41.551949656675205 15.8218
41.575763145513235 15.7968
41.59957851314666 15.767999999999999
41.62358184070442 15.799000000000001
41.64740098505737 15.7863
41.6712220126409 15.7123
41.69504492493139 15.6598
41.71905586207357 15.6547
41.74288256296395 15.6514
41.766711153007456 15.6521
41.79054163368412 15.6182
41.814560204340054 15.595
41.838394485526365 15.6139
41.86223066180303 15.5009
41.88625497706819 15.4781
41.910094962812 15.5226
41.93393684811168 15.4781
41.95778063445365 15.4128
41.981812625263366 15.397
42.00566023303407 15.3874
42.029509746323676 15.3304
42.05336116662236 15.3079
42.077400857069705 15.3539
42.10125611078846 15.3084
42.12511327600405 15.2263
42.14897235421036 15.2243
42.173019768448455 15.1742
42.19688269209613 15.21
42.22074753323349 15.1744
42.24461429335818 15.1248
42.268669455600495 15.1294
42.292540073217886 15.03
42.31641261433284 15.0751
42.34028708044675 15.0199
42.36435001496739 15.0352
42.38822835065557 14.9761
42.41210861586426 14.9714
42.4359908120986 14.9574
42.46006154323262 14.8633
42.48394762115317 14.7811
42.507835634632315 14.8224
42.531912233047436 14.7983
42.55580413732265 14.7831
42.579697981698 14.7853
42.60359376768525 14.7562
42.62767820545945 14.7092
42.65157789440821 14.7558
42.67547952952185 14.7204
42.699383112316 14.7055
42.72347541395347 14.5978
42.74738291190531 14.5753
42.771292362102166 14.617
42.795203766063516 14.5877
42.819303956130405 14.58
42.843219287476536 14.4808
42.86713657716324 14.5076
42.89105582671383 14.4321
42.91516392983864 14.4144
42.939087119032166 14.3949
42.963012272677304 14.3975
42.98693939230129 14.3835
43.01105543317513 14.3227
43.034986504731386 14.2999
43.05891954686589 14.2483
43.08285456110972 14.2315
43.10697856448665 14.2091
43.130917542983475 14.1596
43.15485849820081 14.2216
43.17880143167367 14.1878
43.20293342237094 14.1139
43.226880332449 14.1451
43.25082922540554 14.0946
43.27496722682525 14.0654
43.29892010567796 14.0452
43.32287497204102 14.037
43.34683182745632 13.9818
43.370977859791836 13.9551
43.39493871351105 13.950999999999999
43.41890156092628 13.942
43.44286640358341 13.948
43.46702049182749 13.8584
43.49098934522816 13.783
43.51496019852649 13.8121
43.5389330532723 13.8267
43.56309522248204 13.7746
43.58707210044314 13.7306
43.61105098451946 13.6825
43.63503187626491 13.7386
43.659202151562134 13.6677
43.68318707902681 13.6636
43.70717401884041 13.6506
43.731162972560874 13.5642
43.75534137913236 13.5784
43.779334381108384 13.5437
43.803329401683186 13.5014
43.82732644241872 13.4982
43.8515130055166 13.5183
43.87551410707659 13.4699
43.89951723350145 13.4434
43.923709934595614 13.4108
43.94771713129917 13.4404
43.97172635758096 13.3733
43.99573761501002 13.33
44.0199385169922 13.3344
44.04395385732619 13.2964
44.067971233533086 13.2739
44.09199064718605 13.2537
44.11619977548961 13.2168
44.14022328470671 13.2464
44.16424883610785 13.2182
44.18827643127035 13.1865
44.21249381139513 13.1428
44.236525514814076 13.0949
44.26055926674478 13.0837
44.28459506876863 13.1105
44.3088207262813 13.0692
44.33286064928722 13.0336
44.35690262714919 12.9654
44.38094666145278 12.9442
44.4051806219871 12.9715
44.42922879003185 12.9547
44.45327901929361 12.9528
44.477331311362136 12.9066
44.501573600619416 12.8601
44.525630039221795 12.7934
44.54968854541895 12.8058
44.573937102200176 12.8052
44.5979997645541 12.7836
44.622064499300315 12.7773
44.64613130803592 12.7086
44.67038823869318 12.7084
44.69445921643748 12.6964
44.718532272981385 12.651
44.742607409926194 12.6489
44.76687274034801 12.6096
44.79095205918753 12.5469
44.81503346325094 12.5812
44.839116954143876 12.5193
44.86339071028742 12.485
44.88747839599524 12.488
44.91156817336837 12.4829
44.93566004401666 12.4786
44.959942251908146 12.4315
44.984038330325966 12.4134
45.00813650686762 12.3946
45.03223678314731 12.4079
45.05652746888232 12.3314
45.08063196592069 12.3112
45.104738567558705 12.3041
45.128847275414856 12.3007
45.15314646515866 12.2388
45.17725940679741 12.212
45.20137445952892 12.1895
45.22568004865265 12.1981
45.24979934496396 12.1582
45.27392075725247 12.16
45.29804428714431 12.1371
45.322358426247604 12.0653
45.346486212804315 12.1062
45.370616121861914 12.0956
45.39474815505086 12.0703
45.41907087049246 12.0382
45.4432071734666 11.991
45.46734560548283 11.9949
45.49148616817604 11.9805
45.51581748638564 11.9453
45.5399623320197 11.895999999999999
45.56410931325473 11.8867
45.58825843173002 11.9195
45.61259837920865 11.8478
45.636751793816 11.8538
45.66090735060093 11.8304
45.68506505120716 11.788
45.7094136545275 11.7972
45.73357566449271 11.7501
45.75773982322992 11.7031
45.78190613238733 11.7109
45.806263418194064 11.6286
45.83043404997326 11.6791
45.85460683713677 11.6543
45.87897065658495 11.62
45.90314777634752 11.6342
45.92732705646868 11.6257
45.9515084986045 11.6009
45.97588104735473 11.5235
46.00006683541565 11.542
46.02425479047904 11.5295
46.04844491420549 11.4792
46.0728262191024 11.4735
46.09702070211635 11.4604
46.12121735879483 11.4552
46.14541619080294 11.3978
46.169806278764455 11.3991
46.194009483459034 11.3667
46.21821486849841 11.3159
46.24242243555223 11.3151
46.266821333570014 11.2997
46.29103328674601 11.2894
46.31524742696538 11.2698
46.33946375590237 11.2169
46.36387149104216 11.1941
46.38809221957392 11.165999999999999
46.41231514186606 11.1967
46.436540259597464 11.1617
46.460956858999374 11.1262
46.48518638983522 11.0992
46.509418121166966 11.1175
46.533652054678114 11.0986
46.55807754555709 11.0622
46.58231590571962 11.0524
46.60655647313217 11.0528
46.630988654873654 10.9717
46.655233659129024 10.9644
46.67948087571551 10.935
46.70373030632484 10.9458
46.72817142736393 10.9215
46.752425308428684 10.9119
46.77668140861147 10.9269
46.80093972960865 10.8094
46.82538981736788 10.8474
46.849652602470904 10.8112
46.87391761349769 10.7752
46.8981848521493 10.7629
46.9226439341274 10.7509
46.946915650573224 10.7476
46.97118959976749 10.6997
46.99546578341598 10.6603
47.019933887188216 10.6779
47.04421456235744 10.6904
47.06849747711879 10.6144
47.09278263318286 10.6379
47.11725978640143 10.5784
47.14154944775105 10.5492
47.165841355555656 10.5111
47.1901355115306 10.5211
47.214621741924994 10.5608
47.23892041698887 10.4864
47.26322134538975 10.4747
47.28771440635075 10.4348
47.31201986422527 10.4332
47.33632758061436 10.4208
47.360637557241866 10.395
47.38513974410611 10.4209
47.40945426407847 10.3584
47.43377104948137 10.3441
47.45809010204344 10.3617
47.48260144275502 10.3215
47.506925052572285 10.2314
47.53125093475548 10.2553
47.55557909103813 10.2463
47.58009961361992 10.1973
47.60443234110732 10.2178
47.62876734791564 10.2068
47.65310463578333 10.1832
47.6776343683373 10.1708
47.7019762413987 10.1225
47.72632040075572 10.0854
47.75066684815169 10.0888
47.77520581885936 10.0946
47.799556865477655 10.0493
47.823910205386 9.997580000000001
47.84826584033272 9.97948
47.87281407745551 10.0012
47.89717432569297 9.99976
47.92153687423484 9.96866
47.94609208429692 9.94914
47.97045925671401 9.9385
47.99482873471275 9.87631
48.01920052005013 9.86611
48.04376504619224 9.862630000000001
48.068141469543484 9.89678
48.09252020552573 9.84352
48.11690125590099 9.82185
48.1414751266064 9.85015
48.16586082917454 9.83545
48.19024885144316 9.76389
48.2146391951793 9.81162
48.239222439012764 9.7735
48.26361744916137 9.709719999999999
48.28801478610016 9.7321
48.31241445160131 9.69672
48.337007097209366 9.65466
48.36141144338331 9.64937
48.38581812345755 9.65659
48.41022713920929 9.62473
48.434829215320704 9.59464
48.45924292604658 9.5737
48.48365897780325 9.577639999999999
48.50807737237308 9.57343
48.532688907799276 9.55365
48.55711201168574 9.50429
48.581537463754074 9.48499
48.60615611725119 9.52655
48.63058628942721 9.49291
48.65501881516546 9.471219999999999
48.6794536962573 9.43784
48.70408185970339 9.40077
48.72852147531801 9.38387
48.75296345168211 9.37797
48.77740779059232 9.36924
48.80204549302823 9.37374
48.82649458091802 9.31134
48.85094603676547 9.32049
48.87539986237231 9.29012
48.90004713292306 9.273439999999999
48.92450572200832 9.301
48.94896668628025 9.27251
48.97343002754588 9.2409
48.99808689542115 9.19501
49.02255501470614 9.20796
49.04702551642794 9.18498
49.0714984023988 9.14885
49.096164896893235 9.125580000000001
49.120642575466796 9.10563
49.145122643748394 9.136239999999999
49.16960510355558 9.078339999999999
49.19428125404938 9.061119999999999
49.2187685210852 9.05258
49.243258185121555 9.06982
49.26794160167084 8.99897
49.2924360839405 8.98196
49.31693296869764 8.98881
49.34143225776915 8.99397
49.36612538195438 8.922089999999999
49.39062950396021 8.970180000000001
49.41513603578346 8.94549
49.4396449792564 8.897689999999999
49.46434784069503 8.89344
49.488861631846454 8.86802
49.513377840166804 8.848189999999999
49.537896467493745 8.79855
49.56260909589029 8.78352
49.587132585683285 8.8075
49.611658500018365 8.7889
49.636186840738596 8.76881
49.66090926588511 8.76786
49.685442483902584 8.715910000000001
49.70997813385706 8.69988
49.734516217597076 8.68689
49.75924846937352 8.67888
49.7837914452858 8.66687
49.80833686055187 8.64189
49.83288471702571 8.612039999999999
49.85762682540054 8.6123
49.882179588965734 8.599160000000001
49.9067347993235 8.5756
49.93129245833333 8.56745
49.95604445336378 8.607660000000001
49.98060703442832 8.528369999999999
50.005172069746266 8.48189
50.02993150438364 8.51234
50.05450147301533 8.5214
50.07907390151433 8.502460000000001
50.10364879174981 8.46673
50.12841816587289 8.4704
50.1529980044635 8.44078
50.17758031042124 8.412289999999999
50.20216508562089 8.41052
50.22694442953363 8.380980000000001
50.25153416817468 8.34411
50.27612638170508 8.34268
50.300721072005196 8.33434
50.325510416102105 8.29995
50.350110084975064 8.298
50.37471223628208 8.26867
50.39931687190919 8.29986
50.424116246675766 8.27919
50.44872587605249 8.223889999999999
50.47333799543065 8.22972
50.49795260670191 8.19465
50.52276204271512 8.194280000000001
50.54738166295838 8.1688
50.57200378079314 8.122639999999999
50.596628398116835 8.136610000000001
50.62144792604559 8.11219
50.646077567609396 8.10034
50.670709714377715 8.11972
50.69553683636198 8.04612
50.72017401885922 8.02988
50.7448137122895 8.02517
50.76945591856022 8.05364
50.79429318636823 8.04331
50.818940443716784 7.99902
50.84359021965163 7.982819999999999
50.868242516085964 7.97168
50.893089960641895 7.94079
50.917747323549435 7.932460000000001
50.94240721271973 7.90879
50.96706963007175 7.8949
50.99192728239342 7.898810000000001
51.01659478166073 7.89072
51.04126481489051 7.89878
51.06593738400761 7.8660000000000005
51.090805275207074 7.81165
51.11548294172845 7.797439999999999
51.14016314993547 7.77882
51.164845901758845 7.7851300000000005
51.18972406304274 7.758789999999999
51.21441192780656 7.749439999999999
51.23910234200271 7.74105
51.2637953075678 7.72451
51.288683770237945 7.70029
51.31338186432707 7.70291
51.33808251561888 7.672789999999999
51.362978729967345 7.6696800000000005
51.387684521509755 7.65535
51.41239287610203 7.6349100000000005
51.437103795691165 7.581110000000001
51.46201036644977 7.5635
51.486726441956634 7.53575
51.51144508832545 7.5319199999999995
51.536166307509156 7.52525
51.56108326624387 7.53419
51.58580965706056 7.518739999999999
51.61053862657523 7.49298
51.635270176746864 7.46497
51.66019755512065 7.46075
51.68493429268881 7.415710000000001
51.70967361681515 7.4223
51.73441552946465 7.3971100000000005
51.759353359237934 7.38077
51.7841004750961 7.38311
51.80885018539685 7.38823
51.833602492111254 7.366110000000001
51.8585508051424 7.3453100000000004
51.883308330926425 7.32993
51.90806845906181 7.306830000000001
51.932831191525715 7.28875
51.95779001977161 7.264660000000001
51.98255798721516 7.254760000000001
52.00732856494335 7.23071
52.03229530577543 7.21586
52.057071130455945 7.24178
52.081849571391054 7.20178
52.106630630568695 7.19172
52.13160794279417 7.16213
52.15639426492067 7.138669999999999
52.18118321127822 7.15545
52.205974783860896 7.12108
52.23096269971011 7.12833
52.255759551287994 7.1063
52.280559035098186 7.08815
52.30536115314103 7.079689999999999
52.33035970494467 7.05957
52.35516711807904 7.051010000000001
52.37997717147198 7.032710000000001
52.40478986713005 7.0301800000000005
52.42979908731974 6.985639999999999
52.454617094216 7.00047
52.47943774942214 6.96697
52.50426105495102 6.955019999999999
52.529280976059844 6.93617
52.554109609024096 6.92462
52.57894089837482 6.89986
52.60377484613117 6.944960000000001
52.62880550079408 6.929880000000001
52.65364479223379 6.87107
52.67848674816189 6.84933
52.70352547971946 6.8799399999999995
52.72837279155837 6.823410000000001
52.753222773982785 6.78775
52.778075429022984 6.782139999999999
52.80312495150885 6.803160000000001
52.827982978797436 6.74472
52.85284368481815 6.759289999999999
52.87770707160767 6.73538
52.90276741793998 6.73347
52.92763619336701 6.72558
52.952507655698504 6.7011899999999995
52.977381806977576 6.68071
53.00245301017842 6.65906
53.02733256653592 6.63462
53.052214817996074 6.671889999999999
53.077099766608484 6.65415
53.102181859804446 6.62322
53.127072229988265 6.616410000000001
53.15196530349892 6.58383
53.17686108239249 6.582339999999999
53.20195409881522 6.57159
53.22685531582556 6.54169
53.25175924441303 6.49696
53.27666588664027 6.54919
53.30176985962693 6.54251
53.3266819565689 6.5041400000000005
53.35159677336455 6.46077
53.376514312083096 6.46472
53.40162927507703 6.436380000000001
53.42655228516116 6.44287
53.45147802340193 6.46019
53.47660125628886 6.42419
53.50153247842639 6.3966
53.52646643496923 6.38152
53.55140312799818 6.32874
53.576537409691696 6.31955
53.60147960336152 6.3017
53.626424539786164 6.30145
53.65137222105307 6.29171
53.67651758529126 6.32519
53.70147078399681 6.25369
53.72642673383343 6.24354
53.75138543689533 6.2221
53.776541917524526 6.230180000000001
53.801506154876755 6.19637
53.826473151763246 6.18315
53.851442910284916 6.1771199999999995
53.87661054126026 6.14968
53.9015858509782 6.16844
53.92656392866066 6.14075
53.95154477641532 6.1228
53.976723591801296 6.12268
54.00171000771266 6.09219
54.02669920004598 6.08269
54.051691170915745 6.102469999999999
54.076881204886796 6.05489
54.101878760928514 6.0210300000000005
54.12687910187696 6.021730000000001
54.152077577768296 6.02081
54.1770835166946 5.99097
54.20209224691339 5.961180000000001
54.22710377055121 5.96671
54.25231352511594 5.92119
54.27733066384342 5.88703
54.30235060239643 5.89883
54.32737334290836 5.90753
54.35259441062629 5.82838
54.377622783395324 5.82267
54.40265396455061 5.80617
54.42768795623251 5.79804
54.45292037169559 5.77669
54.477960012857906 5.75055
54.50300247099511 5.76004
54.52804774825457 5.7571
54.55329154616743 5.6593599999999995
54.57834249018678 5.67269
54.6033962597977 5.65701
54.6284528571545 5.67434
54.653708072335164 5.55514
54.67877035378786 5.58884
54.70383546947698 5.54364
54.72890342156389 5.5414900000000005
54.7541700889442 5.5057599999999995
54.77924374251975 5.4955099999999995
54.8043202390049 5.51201
54.82959552413022 5.47176
54.8546777351945 5.5021
54.87976279569621 5.43652
54.90485070780914 5.45987
54.930137506558005 5.376
54.95523115074295 5.35613
54.98032765308844 5.31461
55.005427015775496 5.35895
55.03072536339621 5.3076
55.05583047570572 5.2681
55.080938454927676 5.28891
55.10604930325027 5.23639
55.131359235107396 5.25076
55.15647585066083 5.18666
55.181595341907496 5.17859
55.20671771104285 5.14859
55.232039262617704 5.1043
55.25716741665048 5.0709
55.28229845518636 5.06982
55.30743238042802 5.018009999999999
55.33276558731939 5.00908
55.357905315183636 4.967969999999999
55.383047936390035 4.93544
55.40819345314859 4.88535
55.433538351073295 4.93343
55.458689688238415 4.928780000000001
55.483843927614096 4.91296
55.509197623043605 4.84394
55.53435769621134 4.82298
55.55952067826466 4.81427
55.5846865714265 4.74948
55.61005202069737 4.78534
55.63522376553902 4.75801
55.66039842818645 4.79678
55.68557601087004 4.7731699999999995
55.7109532500271 4.63246
55.73613670233794 4.724
