TT I
1.2716486653135266 7.473439999999999
1.2939594142134223 7.2137199999999995
1.3162702121660406 7.550039999999999
1.3385810600174564 7.003839999999999
1.3608919586137629 7.14248
1.383202908801069 6.955239999999999
1.405513911425503 6.68593
1.4278249673332093 6.05656
1.4501343378461518 6.22317
1.4724455028545926 6.418080000000001
1.4947567236847858 6.828469999999999
1.517068001182951 6.1902
1.5393793361953272 5.8676900000000005
1.5616907295681737 4.82556
1.5840021821477681 5.17865
1.60631369478041 4.8677
1.6286252683124185 4.72769
1.6509369035901333 4.68123
1.6732468618895553 4.5316
1.695558623192809 4.3858
1.7178704487808514 4.6842
1.7401823395001077 4.65802
1.7625012545597203 4.7216
1.7848028405262486 5.069369999999999
1.8071218901122095 4.9207
1.8294236121921872 4.84932
1.8517427996910911 5.45834
1.8740620574440425 4.63622
1.8963639900671978 4.62434
1.9186833908139995 5.1391
1.9409854680117449 5.31083
1.9633050151394713 4.496659999999999
1.9856246367570705 4.79552
2.0079269371922672 4.71209
2.03024671027244 4.84875
2.0525491637446027 5.115819999999999
2.074869091674931 4.51031
2.097171701569106 4.74369
2.1194917877373847 5.23663
2.141811954326636 5.02464
2.164114805233074 4.5778300000000005
2.186435135143035 6.0185900000000006
2.208738150935709 17.9871
2.231058647554722 40.3409
2.2533792288321184 31.4027
2.275682498336085 13.1314
2.298003251406138 6.12436
2.3203066942619714 5.68719
2.3426276225136022 5.41616
2.3649486396617507 5.527080000000001
2.387252348930071 5.89489
2.4095735463442893 6.06376
2.4318774374315884 5.60304
2.4541988185014043 5.63192
2.476502894794693 6.117999999999999
2.498824462909887 6.14586
2.521146125856138 5.8554
2.5434504863470337 6.50237
2.5657723414244717 6.7998199999999995
2.588076895590662 7.4767600000000005
2.610398946189713 7.0221100000000005
2.6327210958598384 6.36571
2.6550259469304716 7.53932
2.6773482972090137 7.4404699999999995
2.6996533504259 7.63625
2.7219759047039602 7.41275
2.744298562293959 7.28004
2.7666039251246595 7.534210000000001
2.7889267918020164 7.07762
2.8112323652516555 7.826689999999999
2.833555444408179 7.558489999999999
2.8558786311183852 8.03046
2.8781845268938557 8.40589
2.9005079311721484 8.56043
2.9228140460410397 8.61973
2.9451376712799635 9.24329
2.967444008632326 9.450439999999999
2.9897678582247247 9.91355
3.0120918213106695 10.4728
3.0343984987899373 10.5036
3.0567226913198637 10.8424
3.079029599759726 11.2619
3.101354025127254 11.5555
3.123678568232338 12.4539
3.145985829517914 12.8024
3.16831061055229 13.2621
3.1906181112775593 13.6889
3.212943133635653 14.207
3.2352682779763207 14.626
3.2575761442691227 15.3886
3.2799015350264273 16.0483
3.302209649240067 16.588
3.3245352898092655 17.0664
3.3468436553365257 18.06
3.369169549113219 17.8869
3.3914955708171384 19.0019
3.413804319727358 19.3208
3.4361305997334863 19.2695
3.4584396084414553 20.2908
3.4807661501462652 20.7393
3.503092824025881 21.7295
3.5254022288463154 21.5484
3.5477291695206588 22.0504
3.5700388426251948 23.2854
3.5923660534916446 24.7696
3.6146934007816114 45.8127
3.637003482731501 124.166
3.6593311053109985 141.222
3.681641464033634 76.072
3.7039693653009733 34.4923
3.726297407241705 27.3958
3.7486081875460804 26.5356
3.7709365132734978 26.7366
3.793247578841633 27.175
3.8155761917550093 27.6517
3.8378875459837216 27.6601
3.8602164494827234 27.7836
3.882545499606844 28.7356
3.9048572932539183 29.5032
3.9271866390645718 29.728
3.9494987298666713 30.1902
3.971828374764527 30.9258
3.9941581705403255 31.3367
4.016470713506008 32.0441
4.038800813471445 33.1558
4.061113662089144 33.3613
4.0834440696459176 34.7516
4.105774632334751 35.0205
4.128087945865126 35.8198
4.150418821249301 36.806
4.172732448931298 38.3538
4.195063640413578 40.8988
4.2173775856475215 45.8679
4.239709096631102 90.9846
4.262040768704612 340.695
4.284355196706267 474.457
4.306687193387355 301.455
4.329001947444346 104.26899999999999
4.35133427213731 52.6618
4.373666762177566 47.158
4.395982011761091 46.1442
4.418314834921175 47.4141
4.44063041906622 58.1944
4.4629635787515625 75.1877
4.4852969080429785 75.2042
4.5076130004776225 58.3539
4.529946671403969 52.099
4.552263106909177 51.4404
4.574597122877047 52.2342
4.596931312711224 53.5767
4.619248269273446 54.2316
4.6415828092605835 55.368
4.663900117405352 56.0285
4.686235010953232 57.6807
4.708552674085913 58.8839
4.730887924602802 59.9577
4.753223354952695 61.56100000000001
4.775541557023902 62.9656
4.797877349456786 63.8568
4.820195915032126 66.3894
4.842532072957498 67.8474
4.864868414979744 69.7496
4.88718753227192 72.0504
4.909524244902505 74.1294
4.931843734218147 75.8864
4.954180820867835 78.4096
4.976518095879839 81.6101
4.998838149695359 84.7264
5.021175803844231 88.0587
5.043496238205739 91.7427
5.065834274903528 96.0629
5.088172504230693 101.221
5.1104935158799565 109.338
5.132832132875765 139.408
5.155153533596801 204.908
5.1774925416746225 248.268
5.199814334878411 417.903
5.2221537374521505 1111.51
5.244493338631803 2817.41
5.266815727034316 6591.38
5.289155727832427 11458.0
5.311478517248165 9464.04
5.333818921080011 3607.97
5.356159527788849 763.487
5.3784829252032536 223.327
5.400823940070432 159.43200000000002
5.423147747031976 137.609
5.445489173474152 125.36200000000001
5.467830807066149 118.238
5.490155234831516 112.46
5.512497285125229 108.897
5.534822130975162 106.31200000000001
5.557164601388673 103.90100000000001
5.579489868738879 100.98899999999999
5.601832762690846 100.626
5.6241758697774475 100.693
5.646501775867269 98.985
5.668845311622074 97.1192
5.691171647754637 96.2434
5.713515615597765 94.8072
5.735859800852677 94.0624
5.758186788542988 93.0662
5.780531411018185 93.3646
5.802858837297399 92.6436
5.825203900414495 92.7781
5.8475491852224 93.2715
5.869877275883075 94.2413
5.892223006467101 95.7664
5.914551544266608 96.5665
5.936897724049891 99.7738
5.959244129804903 105.57799999999999
5.981573344815301 126.412
6.0039202049061 225.52900000000002
6.026249875609095 482.63199999999995
6.04859719346037 986.4
6.070927323278297 2004.6
6.093275102315365 3931.16
6.115623113320588 5106.9
6.137953938319995 3698.07
6.160302415650845 1319.34
6.182633708324452 317.043
6.2049826554078376 130.988
6.227331838745022 101.039
6.249663839443684 90.3913
6.27201349767565 87.4293
6.294345974611799 97.1842
6.316696111167083 116.9
6.339046488263839 109.71799999999999
6.361379686074702 86.9978
6.383730546639482 74.8329
6.406064229255215 71.1088
6.428415576718203 70.3427
6.450749747566656 69.1333
6.47310158535871 68.1173
6.495453669698332 67.0222
6.517788579421056 66.7323
6.540141159237969 65.6664
6.562476565766648 65.1862
6.5848296444934045 64.6161
6.607182974060425 64.5157
6.6295191323281015 65.0209
6.651872965955752 70.1932
6.6742096296068985 108.811
6.6965639707294615 181.53
6.71891856698715 186.145
6.741255995248479 116.335
6.763611104154477 74.7486
6.785949046381137 63.2032
6.808304671371482 60.6096
6.8306605557940046 59.9597
6.852999275508618 58.9617
6.875355681171544 58.9929
6.897694923437771 58.3847
6.92005185377892 58.263000000000005
6.9423916220322655 58.2174
6.964749080490181 57.3979
6.987106804399774 57.3928
7.009447368180821 57.3293
7.031805625367033 57.1139
7.054146723727803 57.0422
7.076505517631004 56.8799
7.098864581288365 56.6057
7.121206488070854 56.5441
7.143566093607822 56.7966
7.165908543567245 57.2434
7.188268694426048 57.2197
7.2106291193438095 57.4427
7.232972390625943 59.6382
7.255333366030969 77.2947
7.277677189091925 159.335
7.300038718428332 239.31599999999997
7.322400526130865 197.209
7.344745183422596 110.83200000000001
7.367107550224791 67.9432
7.389452767901992 58.9033
7.411815697249891 57.5153
7.434161478756298 56.1796
7.456524974096713 55.9422
7.478888753837185 55.8121
7.501235387657368 55.9193
7.523599738562711 56.2698
7.545946944825532 56.8101
7.568311870344528 57.0109
7.5906770845765665 57.2246
7.613025156078678 59.1118
7.635390950099687 60.776
7.657739602662809 59.7091
7.680105979923558 57.8538
7.702472650212829 57.4384
7.724822180948224 57.5657
7.747189439655568 57.4236
7.769539560075357 57.4239
7.791907410653562 58.1329
7.81425812420825 57.9314
7.836626570110925 58.2197
7.858995315087906 58.9444
7.881346924933401 59.2251
7.903716270417482 59.5778
7.926068482028405 59.8745
7.948438431475253 60.7193
7.9708086843180235 60.8649
7.993161805171116 62.0022
8.015532667162402 62.0382
8.037886398416653 62.9279
8.060257873014221 63.3729
8.082629655331942 63.708999999999996
8.104984308787587 65.2263
8.127356708900503 69.5703
8.149711981398308 78.5042
8.172085002766314 81.9624
8.194458336181368 76.4485
8.216814543847752 71.7637
8.23918850371002 71.1843
8.26154533906492 71.5732
8.283919928836452 73.3249
8.306277395339652 74.0569
8.328652618483376 75.4223
8.351028159736202 77.6183
8.373386579575245 79.7245
8.395762759396959 81.5568
8.418121819038275 87.6004
8.440498640894003 106.73899999999999
8.462875785192262 127.20200000000001
8.485235811156207 139.108
8.507613602688501 175.36700000000002
8.529974277114228 264.366
8.552352719347912 394.648
8.574731488360351 621.077
8.59709314210385 1054.65
8.619472567021075 1606.16
8.64183487789147 2092.85
8.664214962183097 1897.45
8.686577933647762 1149.78
8.708958680784317 470.579
8.731339760774953 194.373
8.753703729764451 121.086
8.77608547780821 104.038
8.798450116065078 98.9038
8.820832535634787 95.0836
8.843215292401656 93.2873
8.865580941199045 91.9646
8.887964374703538 91.1605
8.910330701447199 92.8253
8.932714815164482 96.6571
8.955099270424924 96.1281
8.977466620733543 91.8445
8.999851761421976 87.25299999999999
9.022219798361645 85.1733
9.04460562795561 84.7473
9.066991803441677 84.2715
9.089360876979615 84.0294
9.111747746589993 84.0496
9.13411751544971 82.98299999999999
9.156505082664324 83.1103
9.178875550323522 83.6057
9.20126381862328 84.2103
9.223652438908596 84.8257
9.246023961427412 84.20299999999999
9.26841328802173 83.50200000000001
9.290785518039224 83.3528
9.313175554425882 84.0191
9.335565947154315 84.0978
9.357939245086508 84.2768
9.380330352834827 84.2146
9.40270436697103 84.3319
9.425096193225055 84.3172
9.447488380180165 85.0471
9.469863475295412 85.2903
9.492256385987508 85.82600000000001
9.514632206018318 86.2444
9.537025843935714 86.5968
9.559402392368193 87.6554
9.581796761000229 88.9152
9.604191496441521 89.762
9.626569144158516 95.0457
9.648964615551032 102.205
9.671343000390081 104.58200000000001
9.693739211225699 100.59200000000001
9.716135793237463 96.3056
9.738515290448102 94.7808
9.760912617143402 95.3473
9.783292860202891 96.4695
9.805690935076182 97.8082
9.828089385495742 98.9389
9.850470754023561 101.73
9.872869957865444 112.338
9.89525208097539 135.164
9.917652041736662 153.95
9.940052382417589 151.138
9.962435644102392 151.44799999999998
9.984836746950979 184.00599999999997
10.007220771957746 248.49200000000002
10.029622640473708 349.14599999999996
10.052007432299963 502.24699999999996
10.074410069984072 734.805
10.096813093716005 1111.17
10.119199042482517 1576.21
10.141602840636468 1913.65
10.163989564971628 1776.48
10.186394141051062 1098.19
10.208799107559706 501.897
10.231187001965623 231.011
10.253592751657669 140.092
10.275981430388155 119.54
10.298387966769793 119.36200000000001
10.320794897965431 123.958
10.343184759907361 122.979
10.36559248305461 114.837
10.387983138083852 108.32700000000001
10.410391656691655 110.46
10.432800574501677 121.836
10.455192425893369 138.379
10.47760214443012 161.502
10.499994797678786 198.699
10.522405320453982 260.378
10.54479877906917 353.17400000000004
10.567210109595656 471.93199999999996
10.5896218454736 553.0319999999999
10.612016518879773 525.323
10.634429067781074 394.352
10.656824555333241 232.294
10.679237920773568 139.24200000000002
10.701651695961992 102.24700000000001
10.724048411481384 92.3936
10.746463008485165 89.13600000000001
10.768860546937125 87.1022
10.791275969274796 85.1385
10.81369180576079 84.07799999999999
10.836090585366925 82.8847
10.858507252467449 81.477
10.88090686379991 80.5192
10.903324365036394 80.1415
10.925724811614439 80.9118
10.948143150509463 82.8077
10.970561909719066 82.1919
10.992963615930844 79.8981
11.015383218085756 76.9902
11.037785768347074 74.929
11.06020621697282 74.5449
11.082627090322113 74.1705
11.105030913430326 73.5778
11.12745263854165 74.6996
11.149857314510728 80.3972
11.172279894912576 89.7154
11.194702904450653 92.2623
11.217108866490921 85.7309
11.239532736615194 78.9717
11.26193956033512 75.417
11.284364294577085 73.2618
11.306789462371718 70.6121
11.329197585398376 69.0609
11.351623622610898 68.6668
11.37403261614354 67.6784
11.396459526308487 67.6256
11.418869393879497 66.9859
11.441297180532617 66.4561
11.463725406927658 66.4735
11.486136592353875 66.4467
11.508565700543707 67.3276
11.530977768845315 70.2911
11.553407762368774 72.0833
11.575838200059769 70.9236
11.598251599479612 67.7096
11.620682927815501 65.5575
11.64309721895548 65.0608
11.665529441478206 64.6638
11.687962112597958 64.3419
11.710377748130886 64.5871
11.732811318753434 64.2156
11.755227854859067 64.3131
11.777662328529495 64.3044
11.800079768750786 64.1039
11.822515149015453 63.6234
11.844950984084935 63.9283
11.867369787303163 63.7202
11.889806534289491 63.8494
11.912226250487029 63.9612
11.934663912939751 64.1667
11.9571020346363 64.1063
11.979523127133968 64.3557
12.001962169624331 65.1622
12.024384183972964 66.2331
12.046824150809913 69.1118
12.069264581333726 74.8033
12.091687985297767 80.8531
12.11412934550045 90.1161
12.136553680195208 101.64
12.158995973632788 120.34299999999999
12.181438735204349 141.895
12.20386447284199 173.472
12.226308172985636 202.80599999999998
12.24873485024193 210.845
12.271179492516982 186.65200000000002
12.293607112949127 147.024
12.316052700916226 112.266
12.338498763250042 88.0468
12.360927805303868 75.3654
12.383374818673879 69.4137
12.405804812803074 66.6846
12.428252780773262 65.9664
12.45070122756722 65.8433
12.473132656675375 65.7291
12.49558206341869 65.881
12.518014453510101 65.6028
12.540464823770117 66.0136
12.562915677315177 66.3723
12.58534951575545 67.0498
12.607801338171472 69.8587
12.630236146511358 78.199
12.652688941369085 85.8473
12.675124723177234 86.6372
12.697578494048786 80.2578
12.720032754458185 73.2793
12.742470003354093 70.0594
12.764925245138771 69.3048
12.787363476431278 69.5693
12.809819703166806 69.9599
12.83227642391173 70.4334
12.854716135692716 71.2247
12.877173846755147 72.3148
12.899614549869717 72.3034
12.9220732548287 73.1451
12.94453245827299 73.3873
12.966974655289818 74.3329
12.989434858002571 75.41199999999999
13.011878055298721 76.0539
13.034339260862497 77.027
13.056800969391883 78.0892
13.079245674017244 80.1582
13.101708390774869 82.758
13.12415410463411 90.0999
13.146617833206086 102.65799999999999
13.169064559883248 115.13600000000001
13.191529303857127 129.675
13.213994557076367 148.966
13.236442809902437 177.14
13.258909083908291 219.25
13.28135835851934 270.185
13.30382565690295 334.575
13.326293469022952 403.366
13.348744283242008 436.006
13.371213125129904 397.36699999999996
13.39366497011003 303.593
13.416134845360597 204.72299999999998
13.438605238843131 139.584
13.46105863690397 112.889
13.483530069144786 109.40100000000001
13.505984506951902 113.92200000000001
13.528456981549432 123.086
13.550929978879088 136.001
13.573385983253365 155.273
13.595860028340867 184.22799999999998
13.618317081455832 225.11900000000003
13.64079217790333 274.374
13.663250283359057 324.26599999999996
13.685726434770173 366.561
13.708203115221277 366.087
13.730662806148091 301.29
13.75314054697177 220.338
13.775601299246777 149.291
13.798080104050406 106.435
13.820559442405358 89.2761
13.843021793671388 84.2299
13.865502201420897 82.0602
13.887965623051947 81.3059
13.910447103807167 80.1858
13.932929122629764 78.7259
13.955394156785959 78.2632
13.977877254034569 77.3264
14.000343367582113 76.5225
14.022827546871707 75.7767
14.045294743423524 74.9233
14.06778000837062 74.52
14.090265817715476 74.436
14.112734645763819 74.2162
14.13522154619454 74.3136
14.157691466286913 74.517
14.180179461423874 74.1562
14.202668005486178 72.9356
14.22513957064374 72.1786
14.247629214846473 71.9426
14.270101881097517 71.8242
14.29259262906496 72.5577
14.315083930490205 73.47399999999999
14.337558255389705 74.2342
14.360050666019726 73.7042
14.382526101071944 72.2023
14.405019624534942 71.1522
14.427513705993134 70.1977
14.449990813291825 70.0517
14.47248601302899 70.2486
14.49496423954951 70.3245
14.517460561197822 70.4175
14.539939910570322 69.9577
14.562437357763558 70.4101
14.58493536931253 72.0906
14.607416409993311 73.6107
14.62991555254159 74.6612
14.652397725157423 74.1593
14.674898002342799 72.9161
14.697398848433282 72.1355
14.719882725991326 72.2924
14.74238471217934 73.2779
14.764869730765593 76.5834
14.787372860692983 80.0573
14.809876564079925 84.9016
14.83236330125751 90.3376
14.854868153850365 97.6209
14.877356041159485 108.87100000000001
14.899862046604186 123.49700000000001
14.922351087688757 143.11700000000002
14.944858249632887 166.922
14.967365991421232 193.981
14.989856770231246 217.97299999999998
15.012365673994204 225.92700000000002
15.03485761569738 207.149
15.05736768508665 167.671
15.07987833888692 130.221
15.102372032001655 101.335
15.124883856909658 82.6029
15.14737872204565 75.0633
15.169891721717274 72.6946
15.192405310371893 72.4882
15.214901940621196 73.3408
15.237416709527137 73.805
15.259914520936249 74.0274
15.282430473753607 72.7756
15.304947020131227 71.2555
15.327446610371178 69.9909
15.349964346154254 68.7598
15.372465126703139 68.2702
15.394984055556009 68.0712
15.417486030076159 67.8689
15.44000615566487 67.3895
15.462526881230803 67.55199999999999
15.485030653812652 67.7814
15.507552581617434 67.9417
15.530057557334603 67.8965
15.55258069104857 67.8185
15.575104429329837 67.7573
15.597611216864632 67.0906
15.620136166564563 66.993
15.6426441664095 68.184
15.665170331202765 70.6408
15.687697105158826 73.9691
15.710206930593545 77.0394
15.732734925158933 81.4419
15.755245972089478 86.8387
15.77777519094324 94.1623
15.800287463046663 104.38
15.822817909869592 118.65799999999999
15.84534897229804 136.047
15.867863089299354 156.746
15.890395385222186 176.90400000000002
15.912910736597423 192.097
15.935444269699861 192.176
15.957978423016485 171.66
15.980495633101265 139.648
16.003031029129367 107.781
16.02554948280019 83.7167
16.048086125229432 71.6678
16.070623392487107 68.57600000000001
16.09314371869582 67.7383
16.11568223789321 66.7311
16.13820381691126 65.369
16.160743591742527 63.7645
16.183283996022084 62.268
16.205807461423195 61.1827
16.228349126881973 60.4801
16.25087385432698 60.4892
16.27341678466365 59.906000000000006
16.29594277784926 60.0078
16.31848697676433 60.7358
16.341031811604868 61.2707
16.36355971058487 62.0014
16.3861058195587 61.5742
16.40863499352978 60.0139
16.431182380342005 58.6148
16.453730407713202 57.7499
16.476261501364792 57.1935
16.498810812136167 56.9915
16.52134319004079 57.0907
16.54389378792203 56.8693
16.566445031001553 56.4328
16.588979342490088 56.4793
16.61153187824822 56.3803
16.634067483263312 56.1734
16.656621315414416 56.1121
16.679175797408888 55.7344
16.701713349928728 55.9472
16.72426913389191 56.173
16.74680798922351 56.2883
16.76936507887444 56.5283
16.791905240734874 56.4365
16.814463639794468 56.1926
16.837022695210294 56.2767
16.859564824093756 56.6566
16.882125194503903 57.7105
16.904668639217885 59.0804
16.927230328348003 59.3886
16.949792678493612 59.2189
16.972338104193863 58.3967
16.994901778652235 57.3539
17.017448529496576 57.0331
17.040013531998152 57.0952
17.06257920018044 57.5408
17.0851279459922 58.3994
17.107694947817667 59.2244
17.130245028099072 59.8161
17.15281336730298 61.3156
17.17536478578733 62.7572
17.19793446610687 64.2662
17.220504818648422 66.7604
17.243058251703697 68.9183
17.265629950971032 72.7824
17.288184731571736 76.831
17.310757781306908 81.1167
17.33333150794385 84.0409
17.355888317140174 84.0635
17.37846339986244 80.5938
17.401021565958885 74.7972
17.42359800851343 69.2272
17.44617513265564 64.4867
17.468735341390783 61.7756
17.491261035594565 60.6449
17.51396340099364 60.2346
17.536490463869136 60.4535
17.559018209820174 60.4828
17.58154663977963 60.4929
17.604251766089718 60.571000000000005
17.626781572227713 60.6787
17.64931206518155 61.0148
17.671843245885103 61.6445
17.69455114821572 62.1672
17.717083712612634 62.57
17.739616967569667 62.5357
17.762150914021706 62.4967
17.78486160749854 62.4014
17.807396945166804 62.8452
17.829932977143503 63.7339
17.85246970436452 65.26
17.875183204129467 67.2765
17.897721330097664 69.79899999999999
17.920260154126645 72.1741
17.942799677153296 75.1338
17.9655159983646 77.8694
17.988056927677544 82.2397
18.010598558807683 88.2732
18.033140892692916 95.8818
18.05586005052525 104.458
18.07840379824407 114.699
18.10094825154059 125.916
18.12366954819864 137.393
18.146215420998306 142.467
18.16876200220057 138.418
18.191309292745153 126.335
18.214033452627167 112.21799999999999
18.236582170236648 97.8492
18.259131600016456 89.2714
18.281681742907335 86.6382
18.304408781233683 88.8368
18.32696035875955 92.6644
18.349512652227624 97.4162
18.372065662579683 103.367
18.394795594587553 107.44
18.41735004715306 107.389
18.43990521943684 102.551
18.46246111238171 93.6218
18.485193953325208 83.0568
18.507751296070428 74.1923
18.530309362314178 68.7068
18.552868153000343 65.6553
18.57560391815056 63.8168
18.59816416623245 63.1385
18.620725141597372 62.5198
18.643286845190268 62.1982
18.666025549835414 61.9995
18.688588718427933 61.2395
18.711152618092243 61.2682
18.73389353884365 60.6228
18.75645890921984 60.1923
18.77902501351406 60.0722
18.801591852673102 59.9696
18.824335739722738 59.4818
18.846904057212626 59.3871
18.8694731124168 58.9622
18.89204290628315 58.9858
18.914789774966803 58.7214
18.937361054791623 58.3812
18.959933076131318 58.2733
18.982505839934877 58.424
19.00525570560582 58.6045
19.027829963004184 58.5118
19.05040496572238 58.4416
19.072980714710468 58.368
19.095733592739563 58.4656
19.11831084296757 58.8685
19.140888842324735 59.3723
19.16346759176222 59.9115
19.18622349753803 60.1697
19.208803755869358 60.7232
19.231384767143577 61.78
19.253966532312948 62.7143
19.276725481241822 64.2907
19.29930876296784 66.2758
19.3218928014549 68.7694
19.34465404436217 72.2401
19.36723960516257 75.4852
19.389825925592426 77.7805
19.412413006605938 78.3463
19.43517731967805 75.789
19.457765930683355 71.5953
19.48035530514408 66.5972
19.50294544401556 62.269
19.525712842708348 58.9225
19.54830451925909 56.9574
19.570896963095727 55.6068
19.593490175174704 55.1398
19.616260674962184 54.9791
19.638855432416964 54.6611
19.661450960992624 55.0334
19.68404726164677 54.7428
19.706820878021247 54.6389
19.729418731756834 54.8432
19.752017360452857 54.4527
19.77461676506804 54.615
19.797393513540218 54.6912
19.819994478951667 55.1906
19.84259622316767 55.7633
19.8651987471481 56.1008
19.887978643247177 56.3461
19.91058273574792 56.6052
19.933187610901943 57.2536
19.955969879466828 58.1328
19.97857632894404 59.2101
20.00118356396599 60.3229
20.023791585494575 62.1466
20.046577028914875 64.3912
20.069186632506966 66.8329
20.091797025500632 68.9349
20.114408208858933 70.8578
20.137196842715273 71.6066
20.159809615886765 70.9237
20.18242318232135 68.2701
20.20503754298326 65.7892
20.227829382875154 63.8749
20.250445341109344 63.0108
20.27306209647285 62.7328
20.29567964993108 63.5475
20.31847471147704 64.9507
20.34109387027612 66.181
20.363713830075454 66.92399999999999
20.386334591841646 66.5259
20.409132890679302 64.4889
20.431755265564437 61.1874
20.454378445325528 58.1304
20.477002430930366 55.8729
20.499803982716553 54.5034
20.522429589228004 53.3251
20.54505600449589 52.6275
20.567683229489194 52.5158
20.590488049900088 52.0016
20.61311690359731 51.7086
20.63574656993626 51.1565
20.658553853717297 50.8259
20.681185154618298 50.7647
20.703817271080066 50.667
20.72645020407368 50.31100000000001
20.749260783967177 50.0878
20.771895359337133 50.1577
20.794530754161617 50.1665
20.817166969412938 50.1111
20.83998086114876 49.7947
20.86261872660049 49.7632
20.885257415405402 49.9315
20.90789692853701 49.845
20.930714147864748 49.5881
20.953355319030678 49.6661
20.97599731745334 49.9125
20.99864014410749 49.6618
21.021460706796564 49.673
21.044105199328826 49.8259
21.06675052302631 50.0117
21.089396678865015 50.345
21.112220600704806 50.596000000000004
21.134868430275347 50.857
21.15751709492456 51.0563
21.180166595629693 51.1186
21.202993892429635 51.6593
21.22564507473034 52.0935
21.24829709602816 52.2567
21.27112693608965 52.4186
21.293780644891275 52.8202
21.316435195634053 52.411
21.339090589297417 51.5901
21.361923832041875 51.0162
21.384580921090404 50.4391
21.407238856007325 49.5712
21.429897637773326 49.4563
21.45273429906592 49.3059
21.475394784108598 49.4258
21.498056118951983 49.3386
21.520718304578022 49.583
21.543558400304388 49.7218
21.566222297108816 49.8059
21.58888704765135 49.9577
21.61155265291521 50.3513
21.63439619898156 50.7181
21.657063523335786 50.9331
21.67973170537063 51.4718
21.7024007460706 51.8349
21.72524775840385 52.4041
21.747918526116475 53.4778
21.770590155457388 54.3511
21.79326264741238 55.65
21.816113141960237 57.2194
21.838787368860547 58.6235
21.861462461341976 60.3944
21.884315579735777 62.3153
21.90699241312273 64.1651
21.92967011506078 65.5552
21.95234868653799 66.1709
21.9752053151131 65.4779
21.997885635446785 63.9802
22.020566828293532 61.9215
22.04324889464272 59.7281
22.066109049404666 57.827
22.088792872571794 56.8913
22.111477572219204 56.957
22.1341631493376 57.0758
22.157026846313123 57.405
22.179714188221507 57.0253
22.202402410582668 56.1926
22.22509151438863 54.7607
22.24795876962584 53.4957
22.270649646204486 52.3765
22.293341407213727 51.3972
22.316034053646906 50.9382
22.338904883215342 50.2972
22.36159931041458 50.3447
22.38429462602756 50.3771
22.40699083104897 50.1956
22.429865251039757 50.2763
22.452563244831367 50.4221
22.47526213102522 50.1338
22.49813925616515 49.7796
22.520839937143307 49.7467
22.543541513520587 49.7337
22.56624398629403 49.5883
22.589124730075895 49.6758
22.611829005656723 49.8122
22.63453418063466 49.645
22.657240256008077 49.7394
22.680124634582935 50.0147
22.70283252079775 50.2835
22.725541310413075 50.5584
22.74825100442868 50.8175
22.771139033969575 51.1784
22.79385054687155 51.1638
22.81656296718292 51.8646
22.83927629590484 52.7294
22.862167992606945 53.2208
22.88488314827121 54.2756
22.907599215359284 55.1759
22.93031619487366 56.1339
22.953211574954405 57.1518
22.975930389478226 58.36
22.998650119445763 59.1143
23.02137076586092 58.9544
23.044269845560063 58.3877
23.06699233506288 56.9397
23.089715744034912 54.7995
23.112617610931565 53.0118
23.135342869061212 51.591
23.158069049684816 50.632
23.1807961538087 50.1088
23.20370174880544 49.9397
23.226430710184808 49.8222
23.249160598093425 49.9253
23.271891413539002 49.8941
23.294800752937697 50.0051
23.31753343374794 50.0526
23.340267045128353 50.1838
23.36300158808808 50.461000000000006
23.38591468821339 50.545
23.408651104658304 51.0607
23.431388455719986 51.434
23.454126742409 52.0253
23.4770436196085 52.9309
23.499783787914662 54.0302
23.522524894889884 54.7709
23.54526694154616 55.818000000000005
23.56818761219047 57.0344
23.59093154860734 57.9646
23.613676427751283 58.9386
23.636422250635754 58.8485
23.659346731118656 57.8264
23.68209445191868 56.3792
23.704843119509587 54.2713
23.72759273490623 51.9315
23.750521041644767 50.0165
23.77327256312355 48.7102
23.796025035462787 47.7861
23.818956224555475 47.2053
23.841710609113413 47.1666
23.86446594758979 46.8652
23.887222241002014 46.5593
23.910157285144578 46.233999999999995
23.932915498962537 46.3982
23.955674670778713 46.0779
23.978434801611975 45.9538
24.001373717286125 45.7813
24.024135776723917 45.7436
24.046898798245582 45.7328
24.06966278287146 45.4733
24.092605586582614 45.3413
24.115371508023642 45.2137
24.1381383956401 45.0749
24.16090625045381 45.0659
24.183852958731244 45.0247
24.206622758582608 44.9994
24.229393528706886 44.7738
24.252165270127392 44.7543
24.27511589952438 44.6749
24.297889594216997 44.3595
24.32066426328598 44.4066
24.34343990775613 44.3066
24.36639447485003 44.1311
24.38917208083877 44.1861
24.41195066531332 44.0188
24.43490819850244 44.0225
24.457688750692377 43.891999999999996
24.48047028445616 43.8617
24.503252800821233 44.067
24.526214300784112 44.0613
24.548998793132213 44.0497
24.57178427117417 43.878
24.59457073593893 43.9063
24.617536219319863 43.9845
24.64032466834748 44.0265
24.663114107195035 43.9387
24.685904536893013 43.648999999999994
24.708874020360852 43.5177
24.731666442613744 43.4598
24.754459858818787 43.5043
24.777254270007962 43.3429
24.80022777025625 43.2779
24.82302418230472 43.1037
24.845821592443674 43.1615
24.86862000170663 43.1952
24.891597535453727 42.9291
24.914397953892728 43.1635
24.93719937456671 43.2214
24.96000179851076 43.2838
24.98298338249997 43.3674
25.00578782394922 43.5749
25.028593271784167 43.5705
25.05157790644186 43.9045
25.07438537804115 44.0124
25.097193859145293 44.2789
25.120003350792075 44.4246
25.142992065061257 44.7596
25.165803588823465 45.1451
25.18861612625217 45.3813
25.211429678386736 45.6163
25.234422489079968 45.5492
25.257238081693636 45.6006
25.280054692141732 45.6762
25.3028723214652 45.4719
25.325869245420463 45.7071
25.348688923599397 45.8457
25.371509623787006 45.8678
25.394331347025812 45.9393
25.41733240110666 45.5439
25.440156181590016 44.7805
25.46298098826268 44.3877
25.48580682216873 43.7301
25.50881202326435 43.099
25.53163992281684 42.5831
25.55446885274561 42.1815
25.577298814096377 42.038999999999994
25.600308179121807 41.8972
25.623140214533745 41.7188
25.64597328451537 41.637
25.66898578564376 41.4036
25.691820936010206 41.4207
25.714657124097695 41.4373
25.737494350954734 41.474
25.760511045684957 41.465
25.783350361364224 41.4669
25.806190718969255 41.3878
25.82903211955018 41.5528
25.852053024868923 41.5797
25.874896522722523 41.507
25.897741066713106 41.5409
25.920586657892454 41.6442
25.943611790812668 41.7118
25.966459487728237 41.571000000000005
25.989308234998564 41.7269
26.01215803367705 42.0281
26.03518741123814 42.0429
26.05803932412957 42.3421
26.080892291600094 42.3113
26.10374631470478 42.4643
26.12677995397268 42.6669
26.14963609978026 42.7491
26.172493304397875 42.5122
26.19535156888223 42.365
26.218389486949604 41.9012
26.241249882640123 41.5962
26.26411134137826 41.3169
26.28715248187403 41.2843
26.31001607820869 41.074
26.3328807407756 40.7986
26.35574647063438 41.0648
26.37879191991473 41.0636
26.401659795896734 40.9482
26.424528742360263 40.9712
26.447398760366614 41.3008
26.470448535598294 41.3836
26.49332070826805 41.5578
26.516193955675355 41.8783
26.53906827888316 41.9421
26.562122397260108 41.9587
26.584998883685063 42.2946
26.607876449110325 42.5454
26.63075509460056 42.8661
26.65381357334404 42.9765
26.67669439061878 43.0066
26.699576291163382 43.0331
26.722459276044212 43.1003
26.745522132402975 42.7274
26.768407297649354 42.504
26.791293550442003 42.0897
26.814180891848974 41.8749
26.837248143099337 41.5302
26.860137673466657 41.4905
26.88302829566349 41.2465
26.90592001075963 41.0137
26.92899167420566 40.7669
26.951885586870763 40.5271
26.974780595655517 40.3909
26.99785558178161 40.2154
27.020752794605112 39.8952
27.043651106772522 39.8222
27.06655051935668 39.7087
27.089629948036183 39.5387
27.112531573292053 39.4506
27.135434302194138 39.6744
27.158338135817015 39.3803
27.181422024430987 39.4904
27.204328079372566 39.2725
27.22723524226965 39.4217
27.250143514198573 39.4293
27.273231880156334 39.3015
27.296142382065014 39.1557
27.319053996245536 39.1957
27.341966723775965 39.3199
27.365059584515222 39.3236
27.38797455070062 39.4214
27.410890633481237 39.3702
27.433807833936918 39.2734
27.456905206923906 39.3202
27.47982465472398 39.2672
27.502745223449743 39.446999999999996
27.525666914182825 39.5137
27.548768816912457 39.4351
27.571692763693633 39.3837
27.59461783573812 39.2117
27.617723149491244 39.0271
27.640650484125285 39.0929
27.66357894728264 38.9487
27.686508540048052 38.9273
27.709618414237887 38.9201
27.732550278321757 38.6847
27.755483275279115 38.6588
27.778417406196485 38.6586
27.801531858397514 38.6574
27.824468269376716 38.6672
27.847405817586786 38.5651
27.870344504116094 38.8992
27.893463551932008 38.899
27.916404527281053 39.0265
27.93934664422563 39.1544
27.962289903855886 39.0012
27.98541356491974 39.1984
28.00835912214229 39.2813
28.03130582533231 39.5697
28.054253675581805 39.6639
28.077381967556104 39.6702
28.100332124185126 39.7355
28.123283431160893 39.9162
28.146235889577238 39.7702
28.169368830154156 39.4848
28.192323603752033 39.4464
28.215279532083304 39.1303
28.238415973016764 38.917
28.261374223145094 38.8754
28.284333631303806 38.5958
28.307294198589954 38.4059
28.330435319167677 38.1208
28.353398217078915 37.8714
28.376362277420153 37.7755
28.39932750129032 37.5823
28.422473319286713 37.3362
28.44544088262495 37.2921
28.468409612800283 37.132
28.491379510913497 36.8292
28.51453004413313 36.8577
28.53750229057244 36.728
28.56047570826344 36.6561
28.583450298308804 36.7739
28.606605564586562 36.344
28.629582511831156 36.5024
28.65256063474956 36.4488
28.675539934446338 36.5146
28.698699951647605 36.4099
28.72168161743193 36.2129
28.74466446331978 36.3297
28.767648490417624 36.2555
28.790813276438353 36.2061
28.813799678527303 36.150999999999996
28.836787265157085 36.2027
28.859955641890075 36.1785
28.882945610203045 36.1589
28.905936766392035 36.0065
28.928929111566863 36.1116
28.952102288520145 36.0726
28.975097024308607 35.9426
28.998092952423807 35.9304
29.021090073977508 35.7718
29.04426806913204 35.6785
29.067267590245258 35.4492
29.090268308143695 35.4229
29.11327022394099 35.3943
29.13645305530891 35.1487
29.159457379627167 35.1042
29.18246290519685 35.1331
29.20546963313352 35.1556
29.22865731875826 35.109
29.25166646419296 34.9786
29.27467681535305 34.9905
29.29768837335608 35.0084
29.320880931312562 34.9739
29.34389491580634 34.9905
29.366910110507334 34.9816
29.38992651653503 35.0071
29.41312396492981 35.0805
29.436142806456754 34.8648
29.45916286268059 34.8922
29.48236399319994 34.7708
29.50538649169417 34.6356
29.528410208259935 34.4645
29.55143514402014 34.2827
29.574641196749695 34.2268
29.597668583816574 34.0579
29.6206971934585 33.8777
29.64372702680042 33.8746
29.666938019934474 33.7941
29.689970313635285 33.7947
29.713003834422636 33.6544
29.73603858342347 33.6919
29.759254535188578 33.6965
29.78229175361658 33.6282
29.80533020365064 33.6802
29.82836988641968 33.6667
29.85159081507472 33.4911
29.874632976355343 33.4885
29.89767637376955 33.5393
29.920721008448314 33.4129
29.9439469322847 33.4062
29.96699405457564 33.2577
29.9900424175358 33.2408
30.013092022298157 33.2323
30.03632295963995 33.1409
30.059375061131373 33.0847
30.08242840783577 33.1045
30.105483000888153 33.1482
30.128718970092244 33.1095
30.151776069006917 33.1186
30.17483441768648 33.1435
30.198074175317235 33.074
30.221135036724256 33.1831
30.24419715131772 33.0317
30.267260520236203 33.0047
30.290505341942243 33.0866
30.313571232750228 33.1954
30.336638381310948 33.1043
30.35970678876503 33.0316
30.38295669299435 32.9579
30.40602763151657 32.8924
30.429099832366074 32.8331
30.452173296685572 32.6589
30.47542830191959 32.7073
30.498504306502497 32.6739
30.521581577995562 32.8424
30.544660117543582 32.7596
30.56792024229725 32.8733
30.59100133132069 32.78
30.614083691845494 32.7924
30.637167325018545 32.8645
30.660432587840603 32.876999999999995
30.683518779717886 32.8395
30.70660624769615 32.8096
30.729694992924372 32.9314
30.75296541239743 33.007
30.77605672557558 32.912
30.799149319462742 32.7615
30.8224236211637 32.6998
30.845518789950724 32.5671
30.868615242910597 32.5733
30.891712981195973 32.3823
30.91499247215866 32.3637
30.938092794619365 32.2488
30.96119440587579 32.1537
30.984297307082752 32.0385
31.00758200598383 31.9916
31.030687500658694 31.9357
31.053794288760695 31.7863
31.076902371446767 31.7523
31.100192296997445 31.7864
31.12330298246119 31.7656
31.14641496599209 31.6409
31.169528248749216 31.7523
31.19282341969534 31.7335
31.215939314557186 31.7389
31.239056512134788 31.6005
31.262175013589378 31.6273
31.28547544871168 31.57
31.30859657161541 31.4194
31.331719001892175 31.4968
31.35484274070538 31.6438
31.378148458819545 31.5601
31.401274828443725 31.4763
31.424402510106933 31.4713
31.447712205419993 31.563000000000002
31.470842524931633 31.5682
31.493974159989783 31.5271
31.51710711176168 31.4881
31.54042212308802 31.581
31.563557722100917 31.5404
31.586694641341655 31.27
31.609832881979628 31.1791
31.63315322823208 31.2042
31.656294125521327 30.982
31.679436347728515 31.0042
31.70257989602529 30.9661
31.725905596152327 30.877
31.74905181052835 30.7045
31.772199354521323 30.8569
31.79534822930507 30.8815
31.818679302290967 30.8539
31.84183085259981 30.6798
31.864983737233473 30.676
31.88813795736804 30.7399
31.911474422233013 30.6443
31.934631327356435 30.64
31.9577895715215 30.6641
31.980949155906522 30.7686
32.004291031706956 30.7646
32.027453310562606 30.6423
32.05061693318573 30.4706
32.07396288236386 30.526999999999997
32.09712920658542 30.4889
32.12029687812702 30.3042
32.14346589817093 30.2297
32.166817291729984 30.1727
32.18998902288583 30.1286
32.21316210610336 30.0307
32.23633654256711 29.9479
32.259693399663725 29.9789
32.282870556771144 29.845
32.30604907069099 29.8824
32.329228942610065 29.745
32.35259128243769 29.645
32.375773884550505 29.653000000000002
32.398957848235646 29.5928
32.422143174682176 29.4984
32.445511016471215 29.3675
32.468699082679954 29.4039
32.49188851523011 29.3705
32.51507931531304 29.2923
32.538452678331 29.2794
32.56164622776311 29.1866
32.58484114831493 29.065
32.60803744118015 29.1378
32.631416344731896 29.0382
32.654615396551876 29.0509
32.67781582427913 29.0409
32.701198898634416 28.939
32.72440209253756 29.0134
32.747606665947124 28.9275
32.77081262006088 28.8114
32.79420126883317 28.8073
32.81740999876112 28.8593
32.840620112999424 28.7457
32.86383161274818 28.7163
32.88722585534586 28.718000000000004
32.91044014056596 28.7173
32.933655814909734 28.6902
32.95687287957963 28.6669
32.98027273544904 28.543000000000003
33.00349259526636 28.4817
33.026713849030116 28.5009
33.04993649794511 28.4897
33.073341986570746 28.4206
33.09656744032826 28.4319
33.11979429286444 28.4379
33.14302254538647 28.4178
33.166433686291185 28.4173
33.18966475336992 28.3814
33.212897224069096 28.1917
33.23613109959831 28.264
33.259547912343415 28.2208
33.2827846121627 28.2783
33.306022720453775 28.1742
33.32926223842861 28.0239
33.352684742614166 28.0948
33.37592709463173 28.0387
33.399170859982064 27.9448
33.422597648419426 27.7507
33.44584425514446 27.7093
33.46909227885668 27.868000000000002
33.4923417207723 27.6538
33.51577423505344 27.6459
33.539026528130385 27.4634
33.56228024307245 27.4998
33.585535381098246 27.3553
33.60897364093058 27.4292
33.63223163992385 27.4466
33.6554910656699 27.3318
33.678751919389796 27.2969
33.702195944520106 27.2469
33.72545966903325 27.208000000000002
33.74872482519663 27.1586
33.771991414233746 27.1096
33.79544122444841 27.1255
33.81871069412428 26.9738
33.84198160035767 26.9859
33.86525394437455 27.0195
33.88870955949969 26.9479
33.911984794020626 26.8759
33.93526147001624 26.7761
33.958539588715006 26.8219
33.98200102861669 26.7595
34.0052820477047 26.6589
34.02856451319451 26.6491
34.05203033759056 26.6111
34.07531571090147 26.6603
34.09860253431845 26.6202
34.121890809074316 26.5181
34.145362493118924 26.4758
34.16865368561615 26.3423
34.191946333164054 26.4131
34.21524043699793 26.3687
34.23871800066799 26.3147
34.26201503218366 26.2718
34.28531352370466 26.2503
34.30861347646881 26.1763
34.33209693978188 26.1423
34.3553998301885 26.1829
34.378704185565205 26.0313
34.402010007152356 25.9342
34.42549939016683 25.9312
34.44880815937748 25.8354
34.472118398533134 25.8125
34.49543010887669 25.7977
34.51892543169198 25.726999999999997
34.54224009966052 25.7472
34.56555624255917 25.7105
34.58887386163339 25.6528
34.61237514439016 25.5824
34.6356957311114 25.5369
34.65901779775809 25.4992
34.68252356662995 25.4674
34.705848608458616 25.475
34.72917513396849 25.3813
34.75250314440949 25.3595
34.77601490857862 25.2887
34.799345904259795 25.3213
34.82267838863559 25.3475
34.846012362958525 25.2705
34.869530142679984 25.1596
34.89286711232212 25.1729
34.91620557568269 25.2165
34.93954553401677 25.1922
34.9630693495876 25.0382
34.986412313340814 25.0545
35.00975677584668 25.0753
35.033102738362956 25.0229
35.05663261012228 24.8773
35.0799815881786 24.954
35.10333207003229 24.9132
35.12668405694369 24.8406
35.150220005273056 24.8415
35.17357501786656 24.7887
35.19693153931268 24.6972
35.220289570874385 24.6989
35.24383161619786 24.7618
35.267192683604904 24.6806
35.290555264930376 24.6162
35.314101899412165 24.6685
35.33746752422433 24.5714
35.36083466676374 24.6009
35.38420332829803 24.5419
35.407756095629054 24.5667
35.43112781085063 24.5899
35.45450104888391 24.4691
35.477875810999194 24.5082
35.50143473172161 24.4685
35.52481255774625 24.3943
35.54819191167777 24.3278
35.57157279478914 24.3257
35.595137889488406 24.2236
35.61852184675279 24.2268
35.641907337029984 24.1699
35.665294361595684 24.1942
35.68886565090076 24.0944
35.7122557598848 24.0634
35.73564740699838 24.052
35.759040593519934 24.0489
35.78261809810353 23.9591
35.80601437933051 23.783
35.829412203814705 23.9094
35.85281157283719 23.7311
35.876395313415884 23.8419
35.8997977874528 23.7315
35.92320180988546 23.6948
35.946790244133936 23.6532
35.97019737933222 23.6922
35.993606066789866 23.6044
36.01701630779276 23.5249
36.04061101440684 23.5399
36.06402437852291 23.4939
36.08743930005611 23.4473
36.1108557802951 23.4214
36.13445678011326 23.4014
36.15787639383515 23.3297
36.18129757014299 23.3154
36.20472031032821 23.3154
36.22832762423364 23.2245
36.25175350829375 23.2232
36.275180960119776 23.101
36.298609981005924 23.2599
36.32222362992669 23.1582
36.34565580510207 23.1357
36.36908955323448 23.0398
36.39252487562093 22.8918
36.416144880530226 22.9329
36.43958336764275 23.0035
36.463023432914625 23.0082
36.486465077645676 22.8997
36.51009145956204 22.9456
36.53353627947859 22.8415
36.55698268276811 22.9289
36.58043067073321 22.8852
36.60406345072071 22.738000000000003
36.62751462435344 22.7409
36.65096738658405 22.7258
36.67460498210655 22.6548
36.69806093788647 22.5999
36.72151848619297 22.5564
36.744977628333636 22.5156
36.76862165890998 22.4653
36.79208400512205 22.5119
36.81554794910557 22.5032
36.83901349217101 22.3226
36.862663978991606 22.3084
36.88613273667352 22.3749
36.90960309738324 22.233
36.933075062434064 22.1969
36.95673202673572 22.1452
36.98020721697122 22.1082
37.003684015502365 22.0842
37.027162423645365 22.0166
37.050825886711465 22.0915
37.07430753063053 22.0623
37.09779078812467 22.0168
37.121275660513014 21.9893
37.144945643673694 21.9162
37.16843376245278 21.8575
37.19192350009803 21.8763
37.215414857931435 21.7846
37.239091382563885 21.7788
37.262585997426164 21.7583
37.28608223645736 21.7575
37.309763684451696 21.7404
37.33326318851098 21.7008
37.356764320726555 21.6618
37.380267082425526 21.5652
37.40395510942588 21.5263
37.42746114683234 21.5025
37.45096881771841 21.4631
37.474478123414166 21.4994
37.49817275092816 21.3988
37.52168534303452 21.3871
37.54519957395567 21.2639
37.568715445024665 21.2388
37.592416694607714 21.1854
37.61593586281424 21.2947
37.63945667518264 21.2897
37.66297913304891 21.1655
37.68668702630454 21.1839
37.710212792059274 21.0818
37.733740207334854 21.0694
37.757269273470364 21.0037
37.780983832050374 20.959
37.80451621684926 21.0232
37.82805025654007 20.9775
37.851585952464795 20.8356
37.8753071980695 20.8536
37.89884622345676 20.8807
37.92238690911902 20.8424
37.94611318753442 20.659000000000002
37.969657210779765 20.7072
37.99320289834801 20.7399
38.016750251586465 20.6826
38.04048325513017 20.6121
38.06403395679343 20.5823
38.087586328183946 20.5846
38.11114037065203 20.6099
38.13488012115898 20.5182
38.1584375229181 20.4647
38.181996599821 20.3712
38.205557353221124 20.4056
38.229303872575656 20.4162
38.2528679961576 20.3774
38.27643380031219 20.3169
38.30000128639589 20.2975
38.32375459653193 20.2714
38.34732546371299 20.3447
38.37089801690786 20.1976
38.39447225747609 20.1131
38.418232380377425 20.1428
38.441810012983396 20.1406
38.46538933705673 20.107
38.488970353960084 20.0978
38.51273731166058 19.9613
38.536321731567014 19.8804
38.55990784840681 19.9665
38.58367995004091 19.9047
38.60726947812959 19.8253
38.63086070726198 19.8333
38.654453638806274 19.8813
38.678232613930824 19.7643
38.70182896773327 19.7203
38.72542702806741 19.769000000000002
38.7490267963045 19.6994
38.77281266709232 19.6509
38.79641586862214 19.6602
38.8200207821842 19.5591
38.843627409152944 19.5612
38.86742019782782 19.5436
38.891030269149255 19.4758
38.914642058016156 19.4782
38.938255565806124 19.4995
38.96205529464307 19.3144
38.98567225787121 19.3744
39.00929094417078 19.441
39.03291135492255 19.3275
39.05671804624804 19.2764
39.080341923549106 19.2113
39.103967529460334 19.2064
39.127594865365744 19.2006
39.15140854155791 19.2028
39.17503935514948 19.0822
39.19867190290282 19.1285
39.22249083587951 19.0904
39.24612686969409 19.0838
39.269764641845306 19.1056
39.293404153722804 19.0792
39.317230110864074 18.8947
39.34087311998506 18.8859
39.36451787301696 18.9012
39.388164371352595 18.8737
39.41199737518003 18.7509
39.43564738196752 18.7449
39.45929913825317 18.7357
39.48295264543308 18.7189
39.506792718520884 18.6635
39.530449745387216 18.6968
39.55410852735203 18.7164
39.57776906581474 18.6077
39.60161623079 18.596
39.625280300200025 18.6082
39.64894613032202 18.5398
39.67261372255866 18.5086
39.6964680021016 18.5194
39.72013913657293 18.5092
39.74381203738292 18.3552
39.76748670593756 18.4211
39.79134812278169 18.3287
39.81502634488497 18.3207
39.83870633896685 18.3023
39.862388106436654 18.2513
39.88625668336918 18.2842
39.90994201572829 18.2077
39.933629125719285 18.1698
39.957503091207826 18.147000000000002
39.9811937746168 18.1356
40.00488623990914 18.0381
40.02858048850006 18.0686
40.05246165409549 18.0059
40.076159487492085 17.9429
40.099859108448875 18.0018
40.123560518384345 17.9848
40.1474489070226 17.9271
40.171153913178564 17.8867
40.194860712584955 17.8145
40.2185693066637 17.8289
40.242464941335314 17.8313
40.26617714307655 17.8118
40.289891143772046 17.7541
40.3136069448471 17.6806
40.33750984859743 17.6846
40.3612292688043 17.6767
40.3849504936829 17.5878
40.40867352466194 17.5729
40.43258372059144 17.5894
40.45631038219906 17.5984
40.48003885420956 17.5083
40.503769138055105 17.4762
40.52768664931955 17.5072
40.55142057531802 17.4607
40.57515631746428 17.4244
40.599079334038514 17.3745
40.62281872700477 17.3753
40.64655994043941 17.3755
40.67030297578061 17.3751
40.69423334835778 17.2798
40.71798004609188 17.197
40.74172857006355 17.2075
40.76547892171441 17.1758
40.7894166736039 17.1393
40.813170699248566 17.1347
40.83692655691388 17.0945
40.86068424804498 17.1274
40.884629402612525 17.0447
40.908390779366385 17.0551
40.932153993938 17.0741
40.95591904777605 17.0009
40.979871628443995 16.9667
41.003640379561936 16.9457
41.02741097430883 16.9489
41.05118341413683 16.9277
41.075143444384416 16.9438
41.098919593177826 16.8642
41.1226975914255 16.7947
41.14647744058318 16.7572
41.170444943946755 16.712
41.19422851378379 16.7398
41.218013938914645 16.6434
41.24198706625173 16.6313
41.26577622087193 16.6072
41.289567235177785 16.538
41.31336011063129 16.5963
41.337340752422875 16.5723
41.361137369129835 16.5519
41.38493585138705 16.5097
41.40873620066004 16.4307
41.43272438060107 16.4944
41.45652848292052 16.4142
41.48033445666918 16.3231
41.50414230331616 16.276
41.528138045159764 16.3073
41.551949656675205 16.261
41.575763145513235 16.2663
41.59957851314666 16.2853
41.62358184070442 16.2386
41.64740098505737 16.1944
41.6712220126409 16.1166
41.69504492493139 16.0876
41.71905586207357 16.0838
41.74288256296395 16.054000000000002
41.766711153007456 16.0436
41.79054163368412 16.017
41.814560204340054 16.0033
41.838394485526365 15.9781
41.86223066180303 15.9423
41.88625497706819 15.8634
41.910094962812 15.907
41.93393684811168 15.8282
41.95778063445365 15.7568
41.981812625263366 15.8085
42.00566023303407 15.7447
42.029509746323676 15.739
42.05336116662236 15.7313
42.077400857069705 15.71
42.10125611078846 15.6876
42.12511327600405 15.6531
42.14897235421036 15.6177
42.173019768448455 15.6196
42.19688269209613 15.554
42.22074753323349 15.5572
42.24461429335818 15.5704
42.268669455600495 15.5218
42.292540073217886 15.5116
42.31641261433284 15.4333
42.34028708044675 15.3739
42.36435001496739 15.4045
42.38822835065557 15.3569
42.41210861586426 15.3243
42.4359908120986 15.3797
42.46006154323262 15.2542
42.48394762115317 15.2076
42.507835634632315 15.2501
42.531912233047436 15.2007
42.55580413732265 15.2108
42.579697981698 15.1722
42.60359376768525 15.1305
42.62767820545945 15.1212
42.65157789440821 15.0527
42.67547952952185 15.0816
42.699383112316 15.0826
42.72347541395347 14.9838
42.74738291190531 14.9242
42.771292362102166 14.9833
42.795203766063516 14.9213
42.819303956130405 14.8774
42.843219287476536 14.8479
42.86713657716324 14.8747
42.89105582671383 14.829
42.91516392983864 14.8122
42.939087119032166 14.8094
42.963012272677304 14.7153
42.98693939230129 14.7021
43.01105543317513 14.7023
43.034986504731386 14.7285
43.05891954686589 14.6488
43.08285456110972 14.6545
43.10697856448665 14.6105
43.130917542983475 14.533
43.15485849820081 14.5473
43.17880143167367 14.526
43.20293342237094 14.5
43.226880332449 14.4908
43.25082922540554 14.4543
43.27496722682525 14.4613
43.29892010567796 14.4158
43.32287497204102 14.3915
43.34683182745632 14.3631
43.370977859791836 14.3315
43.39493871351105 14.3366
43.41890156092628 14.2517
43.44286640358341 14.2577
43.46702049182749 14.2426
43.49098934522816 14.183
43.51496019852649 14.1937
43.5389330532723 14.1339
43.56309522248204 14.1159
43.58707210044314 14.1111
43.61105098451946 14.0262
43.63503187626491 14.0271
43.659202151562134 13.9601
43.68318707902681 14.0203
43.70717401884041 13.9776
43.731162972560874 13.9461
43.75534137913236 13.9147
43.779334381108384 13.8917
43.803329401683186 13.8591
43.82732644241872 13.912
43.8515130055166 13.8414
43.87551410707659 13.7897
43.89951723350145 13.7803
43.923709934595614 13.787
43.94771713129917 13.7788
43.97172635758096 13.6741
43.99573761501002 13.6694
44.0199385169922 13.6425
44.04395385732619 13.6438
44.067971233533086 13.6488
44.09199064718605 13.6252
44.11619977548961 13.5952
44.14022328470671 13.5751
44.16424883610785 13.5896
44.18827643127035 13.5453
44.21249381139513 13.4821
44.236525514814076 13.4438
44.26055926674478 13.4472
44.28459506876863 13.4791
44.3088207262813 13.4073
44.33286064928722 13.3972
44.35690262714919 13.352
44.38094666145278 13.3415
44.4051806219871 13.3216
44.42922879003185 13.2689
44.45327901929361 13.2702
44.477331311362136 13.2611
44.501573600619416 13.1978
44.525630039221795 13.1979
44.54968854541895 13.1605
44.573937102200176 13.1583
44.5979997645541 13.1659
44.622064499300315 13.1401
44.64613130803592 13.0766
44.67038823869318 13.0536
44.69445921643748 13.0161
44.718532272981385 12.9928
44.742607409926194 12.9816
44.76687274034801 12.9852
44.79095205918753 12.9188
44.81503346325094 12.9103
44.839116954143876 12.8995
44.86339071028742 12.8874
44.88747839599524 12.8688
44.91156817336837 12.8489
44.93566004401666 12.7767
44.959942251908146 12.7834
44.984038330325966 12.7549
45.00813650686762 12.6308
45.03223678314731 12.6791
45.05652746888232 12.6793
45.08063196592069 12.7007
45.104738567558705 12.6862
45.128847275414856 12.64
45.15314646515866 12.5572
45.17725940679741 12.5362
45.20137445952892 12.5679
45.22568004865265 12.5362
45.24979934496396 12.5079
45.27392075725247 12.4953
45.29804428714431 12.465
45.322358426247604 12.4613
45.346486212804315 12.4295
45.370616121861914 12.3934
45.39474815505086 12.3566
45.41907087049246 12.3686
45.4432071734666 12.3209
45.46734560548283 12.3217
45.49148616817604 12.3197
45.51581748638564 12.2383
45.5399623320197 12.2136
45.56410931325473 12.2002
45.58825843173002 12.2351
45.61259837920865 12.1834
45.636751793816 12.1544
45.66090735060093 12.1255
45.68506505120716 12.1215
45.7094136545275 12.0509
45.73357566449271 12.0571
45.75773982322992 12.0369
45.78190613238733 12.0438
45.806263418194064 12.0026
45.83043404997326 11.9912
45.85460683713677 11.9939
45.87897065658495 11.9304
45.90314777634752 11.883
45.92732705646868 11.9139
45.9515084986045 11.8862
45.97588104735473 11.7947
46.00006683541565 11.79
46.02425479047904 11.7952
46.04844491420549 11.8087
46.0728262191024 11.7704
46.09702070211635 11.7799
46.12121735879483 11.7195
46.14541619080294 11.7259
46.169806278764455 11.694
46.194009483459034 11.6968
46.21821486849841 11.6325
46.24242243555223 11.6469
46.266821333570014 11.5974
46.29103328674601 11.5953
46.31524742696538 11.6035
46.33946375590237 11.5618
46.36387149104216 11.507
46.38809221957392 11.5038
46.41231514186606 11.4538
46.436540259597464 11.4613
46.460956858999374 11.4392
46.48518638983522 11.4289
46.509418121166966 11.3893
46.533652054678114 11.3563
46.55807754555709 11.3521
46.58231590571962 11.3713
46.60655647313217 11.2717
46.630988654873654 11.2759
46.655233659129024 11.2245
46.67948087571551 11.2747
46.70373030632484 11.2123
46.72817142736393 11.2022
46.752425308428684 11.1971
46.77668140861147 11.2043
46.80093972960865 11.1126
46.82538981736788 11.0847
46.849652602470904 11.0755
46.87391761349769 11.1248
46.8981848521493 11.0688
46.9226439341274 11.052
46.946915650573224 10.9898
46.97118959976749 10.9953
46.99546578341598 10.9758
47.019933887188216 10.9459
47.04421456235744 10.9098
47.06849747711879 10.9136
47.09278263318286 10.8938
47.11725978640143 10.865
47.14154944775105 10.8678
47.165841355555656 10.82
47.1901355115306 10.7943
47.214621741924994 10.8076
47.23892041698887 10.8075
47.26322134538975 10.7656
47.28771440635075 10.7397
47.31201986422527 10.725999999999999
47.33632758061436 10.7033
47.360637557241866 10.6672
47.38513974410611 10.6424
47.40945426407847 10.6221
47.43377104948137 10.5971
47.45809010204344 10.573
47.48260144275502 10.5683
47.506925052572285 10.5642
47.53125093475548 10.5236
47.55557909103813 10.5225
47.58009961361992 10.4959
47.60443234110732 10.4992
47.62876734791564 10.4655
47.65310463578333 10.4421
47.6776343683373 10.397
47.7019762413987 10.3905
47.72632040075572 10.4018
47.75066684815169 10.3941
47.77520581885936 10.3453
47.799556865477655 10.2972
47.823910205386 10.2658
47.84826584033272 10.2897
47.87281407745551 10.2813
47.89717432569297 10.2573
47.92153687423484 10.2614
47.94609208429692 10.1941
47.97045925671401 10.2215
47.99482873471275 10.1845
48.01920052005013 10.1544
48.04376504619224 10.1055
48.068141469543484 10.1429
48.09252020552573 10.0779
48.11690125590099 10.0914
48.1414751266064 10.0748
48.16586082917454 10.0881
48.19024885144316 10.0341
48.2146391951793 9.99835
48.239222439012764 9.98744
48.26361744916137 9.98599
48.28801478610016 9.98678
48.31241445160131 9.96527
48.337007097209366 9.93839
48.36141144338331 9.90632
48.38581812345755 9.90661
48.41022713920929 9.892560000000001
48.434829215320704 9.83873
48.45924292604658 9.83796
48.48365897780325 9.82516
48.50807737237308 9.79168
48.532688907799276 9.78111
48.55711201168574 9.79412
48.581537463754074 9.74974
48.60615611725119 9.785969999999999
48.63058628942721 9.73678
48.65501881516546 9.71543
48.6794536962573 9.69362
48.70408185970339 9.6931
48.72852147531801 9.64594
48.75296345168211 9.64074
48.77740779059232 9.64588
48.80204549302823 9.63775
48.82649458091802 9.60255
48.85094603676547 9.58035
48.87539986237231 9.54038
48.90004713292306 9.50195
48.92450572200832 9.5117
48.94896668628025 9.46882
48.97343002754588 9.471910000000001
48.99808689542115 9.46875
49.02255501470614 9.46027
49.04702551642794 9.45014
49.0714984023988 9.401
49.096164896893235 9.38256
49.120642575466796 9.342410000000001
49.145122643748394 9.33827
49.16960510355558 9.31275
49.19428125404938 9.28347
49.2187685210852 9.305539999999999
49.243258185121555 9.298
49.26794160167084 9.241539999999999
49.2924360839405 9.2106
49.31693296869764 9.18849
49.34143225776915 9.18355
49.36612538195438 9.12394
49.39062950396021 9.159419999999999
49.41513603578346 9.15414
49.4396449792564 9.14428
49.46434784069503 9.14987
49.488861631846454 9.092139999999999
49.513377840166804 9.06845
49.537896467493745 9.049610000000001
49.56260909589029 9.04912
49.587132585683285 9.03651
49.611658500018365 8.99703
49.636186840738596 8.98392
49.66090926588511 8.99191
49.685442483902584 8.972439999999999
49.70997813385706 8.93175
49.734516217597076 8.91392
49.75924846937352 8.90864
49.7837914452858 8.88904
49.80833686055187 8.88336
49.83288471702571 8.86856
49.85762682540054 8.85238
49.882179588965734 8.79368
49.9067347993235 8.7924
49.93129245833333 8.76988
49.95604445336378 8.76538
49.98060703442832 8.716000000000001
50.005172069746266 8.704930000000001
50.02993150438364 8.725439999999999
50.05450147301533 8.720989999999999
50.07907390151433 8.692110000000001
50.10364879174981 8.6926
50.12841816587289 8.64012
50.1529980044635 8.66863
50.17758031042124 8.61556
50.20216508562089 8.61458
50.22694442953363 8.610330000000001
50.25153416817468 8.53144
50.27612638170508 8.56771
50.300721072005196 8.525739999999999
50.325510416102105 8.494760000000001
50.350110084975064 8.50592
50.37471223628208 8.456430000000001
50.39931687190919 8.46772
50.424116246675766 8.462769999999999
50.44872587605249 8.41142
50.47333799543065 8.42887
50.49795260670191 8.36861
50.52276204271512 8.36352
50.54738166295838 8.37701
50.57200378079314 8.35632
50.596628398116835 8.33935
50.62144792604559 8.31198
50.646077567609396 8.297260000000001
50.670709714377715 8.31674
50.69553683636198 8.26488
50.72017401885922 8.23692
50.7448137122895 8.229519999999999
50.76945591856022 8.22482
50.79429318636823 8.19294
50.818940443716784 8.206
50.84359021965163 8.16817
50.868242516085964 8.14687
50.893089960641895 8.14335
50.917747323549435 8.13073
50.94240721271973 8.10098
50.96706963007175 8.07653
50.99192728239342 8.09816
51.01659478166073 8.08165
51.04126481489051 8.05568
51.06593738400761 8.054969999999999
51.090805275207074 8.00508
51.11548294172845 8.00722
51.14016314993547 8.003260000000001
51.164845901758845 7.98623
51.18972406304274 7.94724
51.21441192780656 7.93317
51.23910234200271 7.9145
51.2637953075678 7.879410000000001
51.288683770237945 7.89032
51.31338186432707 7.87237
51.33808251561888 7.83622
51.362978729967345 7.80156
51.387684521509755 7.79334
51.41239287610203 7.79547
51.437103795691165 7.79138
51.46201036644977 7.800739999999999
51.486726441956634 7.75955
51.51144508832545 7.7476199999999995
51.536166307509156 7.761819999999999
51.56108326624387 7.68345
51.58580965706056 7.7017
51.61053862657523 7.667910000000001
51.635270176746864 7.669969999999999
51.66019755512065 7.64055
51.68493429268881 7.62639
51.70967361681515 7.6005
51.73441552946465 7.5735399999999995
51.759353359237934 7.58581
51.7841004750961 7.6181600000000005
51.80885018539685 7.59674
51.833602492111254 7.53653
51.8585508051424 7.51426
51.883308330926425 7.4926699999999995
51.90806845906181 7.47871
51.932831191525715 7.456180000000001
51.95779001977161 7.4775100000000005
51.98255798721516 7.44618
52.00732856494335 7.39536
52.03229530577543 7.39922
52.057071130455945 7.40325
52.081849571391054 7.3797
52.106630630568695 7.410939999999999
52.13160794279417 7.31002
52.15639426492067 7.3263
52.18118321127822 7.3307899999999995
52.205974783860896 7.327210000000001
52.23096269971011 7.31197
52.255759551287994 7.2628699999999995
52.280559035098186 7.274430000000001
52.30536115314103 7.255039999999999
52.33035970494467 7.21672
52.35516711807904 7.2205699999999995
52.37997717147198 7.19711
52.40478986713005 7.1714199999999995
52.42979908731974 7.1417
52.454617094216 7.15017
52.47943774942214 7.143389999999999
52.50426105495102 7.1315
52.529280976059844 7.09425
52.554109609024096 7.11608
52.57894089837482 7.0827100000000005
52.60377484613117 7.095089999999999
52.62880550079408 7.05828
52.65364479223379 7.02093
52.67848674816189 6.973660000000001
52.70352547971946 7.0049
52.72837279155837 7.02595
52.753222773982785 6.945880000000001
52.778075429022984 6.9907
52.80312495150885 6.96785
52.827982978797436 6.92356
52.85284368481815 6.90365
52.87770707160767 6.917439999999999
52.90276741793998 6.87103
52.92763619336701 6.860530000000001
52.952507655698504 6.836010000000001
52.977381806977576 6.8384
53.00245301017842 6.8508
53.02733256653592 6.83603
53.052214817996074 6.8105
53.077099766608484 6.7887
53.102181859804446 6.77716
53.127072229988265 6.798260000000001
53.15196530349892 6.7617199999999995
53.17686108239249 6.714510000000001
53.20195409881522 6.72681
53.22685531582556 6.70793
53.25175924441303 6.683680000000001
53.27666588664027 6.6867600000000005
53.30176985962693 6.649369999999999
53.3266819565689 6.70452
53.35159677336455 6.63703
53.376514312083096 6.60567
53.40162927507703 6.56113
53.42655228516116 6.60163
53.45147802340193 6.56245
53.47660125628886 6.56113
53.50153247842639 6.53561
53.52646643496923 6.535
53.55140312799818 6.51251
53.576537409691696 6.49941
53.60147960336152 6.48704
53.626424539786164 6.45158
53.65137222105307 6.44624
53.67651758529126 6.489380000000001
53.70147078399681 6.47615
53.72642673383343 6.46818
53.75138543689533 6.4208099999999995
53.776541917524526 6.3939900000000005
53.801506154876755 6.37115
53.826473151763246 6.37186
53.851442910284916 6.337269999999999
53.87661054126026 6.33082
53.9015858509782 6.334169999999999
53.92656392866066 6.32359
53.95154477641532 6.33734
53.976723591801296 6.252190000000001
54.00171000771266 6.26518
54.02669920004598 6.26614
54.051691170915745 6.25598
54.076881204886796 6.2279599999999995
54.101878760928514 6.17351
54.12687910187696 6.21341
54.152077577768296 6.20744
54.1770835166946 6.14529
54.20209224691339 6.10481
54.22710377055121 6.11231
54.25231352511594 6.12972
54.27733066384342 6.05961
54.30235060239643 6.10049
54.32737334290836 6.05052
54.35259441062629 6.07563
54.377622783395324 6.08078
54.40265396455061 6.0488599999999995
54.42768795623251 6.02241
54.45292037169559 5.97815
54.477960012857906 5.96783
54.50300247099511 5.93077
54.52804774825457 5.90974
54.55329154616743 5.90298
54.57834249018678 5.8595
54.6033962597977 5.81211
54.6284528571545 5.83526
54.653708072335164 5.83255
54.67877035378786 5.81772
54.70383546947698 5.7923800000000005
54.72890342156389 5.78115
54.7541700889442 5.73675
54.77924374251975 5.76344
54.8043202390049 5.72786
54.82959552413022 5.667330000000001
54.8546777351945 5.65322
54.87976279569621 5.59392
54.90485070780914 5.6462900000000005
54.930137506558005 5.62322
54.95523115074295 5.62271
54.98032765308844 5.62786
55.005427015775496 5.58144
55.03072536339621 5.57554
55.05583047570572 5.52332
55.080938454927676 5.49249
55.10604930325027 5.442019999999999
55.131359235107396 5.45196
55.15647585066083 5.43762
55.181595341907496 5.42065
55.20671771104285 5.388319999999999
55.232039262617704 5.45149
55.25716741665048 5.33964
55.28229845518636 5.3045599999999995
55.30743238042802 5.29574
55.33276558731939 5.328069999999999
55.357905315183636 5.25486
55.383047936390035 5.21861
55.40819345314859 5.20709
55.433538351073295 5.21574
55.458689688238415 5.18114
55.483843927614096 5.08641
55.509197623043605 5.0967400000000005
55.53435769621134 5.0792
55.55952067826466 5.02011
55.5846865714265 5.01199
55.61005202069737 5.00435
55.63522376553902 5.02314
55.66039842818645 4.99038
55.68557601087004 5.04012
55.7109532500271 4.92632
55.73613670233794 4.90942
