TT I
1.2716486653135266 7.675910000000001
1.2939594142134223 6.76347
1.3162702121660406 6.424869999999999
1.3385810600174564 7.302110000000001
1.3608919586137629 6.6092699999999995
1.383202908801069 5.7245
1.405513911425503 6.15551
1.4278249673332093 6.4875
1.4501343378461518 5.97046
1.4724455028545926 6.03648
1.4947567236847858 5.75137
1.517068001182951 5.92189
1.5393793361953272 5.56475
1.5616907295681737 5.14124
1.5840021821477681 5.16859
1.60631369478041 5.03918
1.6286252683124185 4.84932
1.6509369035901333 4.93317
1.6732468618895553 4.5263
1.695558623192809 4.9094
1.7178704487808514 5.02021
1.7401823395001077 4.81672
1.7625012545597203 4.45193
1.7848028405262486 4.77069
1.8071218901122095 4.829
1.8294236121921872 4.73575
1.8517427996910911 4.26706
1.8740620574440425 4.29744
1.8963639900671978 4.78176
1.9186833908139995 4.77208
1.9409854680117449 4.64669
1.9633050151394713 4.78251
1.9856246367570705 4.60999
2.0079269371922672 4.32501
2.03024671027244 4.15874
2.0525491637446027 4.22875
2.074869091674931 4.5973
2.097171701569106 4.14909
2.1194917877373847 5.462999999999999
2.141811954326636 5.08778
2.164114805233074 4.7984
2.186435135143035 5.74947
2.208738150935709 12.4497
2.231058647554722 24.8574
2.2533792288321184 18.3165
2.275682498336085 9.454989999999999
2.298003251406138 5.96628
2.3203066942619714 5.38437
2.3426276225136022 5.5971
2.3649486396617507 5.82405
2.387252348930071 6.17632
2.4095735463442893 5.59424
2.4318774374315884 6.45947
2.4541988185014043 6.49439
2.476502894794693 7.2880899999999995
2.498824462909887 6.97348
2.521146125856138 7.4275899999999995
2.5434504863470337 7.07585
2.5657723414244717 7.478269999999999
2.588076895590662 8.42868
2.610398946189713 8.46
2.6327210958598384 8.52233
2.6550259469304716 7.805
2.6773482972090137 8.22575
2.6996533504259 8.65282
2.7219759047039602 8.45452
2.744298562293959 8.2631
2.7666039251246595 8.0828
2.7889267918020164 8.37786
2.8112323652516555 8.34172
2.833555444408179 8.928939999999999
2.8558786311183852 8.92037
2.8781845268938557 8.76784
2.9005079311721484 9.196019999999999
2.9228140460410397 8.98055
2.9451376712799635 9.48677
2.967444008632326 9.40664
2.9897678582247247 9.65484
3.0120918213106695 10.6135
3.0343984987899373 11.123
3.0567226913198637 11.187999999999999
3.079029599759726 11.8251
3.101354025127254 12.6532
3.123678568232338 12.7449
3.145985829517914 12.6861
3.16831061055229 13.5149
3.1906181112775593 14.6698
3.212943133635653 14.7492
3.2352682779763207 14.9549
3.2575761442691227 15.5681
3.2799015350264273 15.6861
3.302209649240067 16.6997
3.3245352898092655 16.8228
3.3468436553365257 17.3128
3.369169549113219 17.5931
3.3914955708171384 18.7723
3.413804319727358 19.6279
3.4361305997334863 19.3229
3.4584396084414553 19.4679
3.4807661501462652 20.1635
3.503092824025881 20.4856
3.5254022288463154 21.1357
3.5477291695206588 21.3119
3.5700388426251948 22.3948
3.5923660534916446 23.533
3.6146934007816114 36.1801
3.637003482731501 77.5792
3.6593311053109985 86.4732
3.681641464033634 51.065
3.7039693653009733 29.8214
3.726297407241705 25.9457
3.7486081875460804 25.4261
3.7709365132734978 25.8696
3.793247578841633 26.0805
3.8155761917550093 26.7627
3.8378875459837216 26.8786
3.8602164494827234 27.6408
3.882545499606844 28.3698
3.9048572932539183 28.5026
3.9271866390645718 29.1352
3.9494987298666713 29.5066
3.971828374764527 30.639
3.9941581705403255 31.1787
4.016470713506008 31.4282
4.038800813471445 32.295
4.061113662089144 32.9872
4.0834440696459176 33.5098
4.105774632334751 33.6022
4.128087945865126 34.2983
4.150418821249301 34.9124
4.172732448931298 36.1205
4.195063640413578 37.5478
4.2173775856475215 41.1363
4.239709096631102 68.1355
4.262040768704612 203.18099999999998
4.284355196706267 272.216
4.306687193387355 176.695
4.329001947444346 73.5777
4.35133427213731 46.638000000000005
4.373666762177566 43.9755
4.395982011761091 43.8555
4.418314834921175 45.0645
4.44063041906622 51.754
4.4629635787515625 62.1237
4.4852969080429785 61.1196
4.5076130004776225 52.7478
4.529946671403969 49.803999999999995
4.552263106909177 49.8321
4.574597122877047 50.7343
4.596931312711224 51.8606
4.619248269273446 52.8979
4.6415828092605835 54.0943
4.663900117405352 54.8162
4.686235010953232 56.1632
4.708552674085913 57.9037
4.730887924602802 58.7441
4.753223354952695 60.1437
4.775541557023902 61.7459
4.797877349456786 63.4268
4.820195915032126 65.6605
4.842532072957498 66.735
4.864868414979744 68.7918
4.88718753227192 70.6195
4.909524244902505 73.0048
4.931843734218147 74.4433
4.954180820867835 76.8326
4.976518095879839 79.6749
4.998838149695359 82.9025
5.021175803844231 86.06
5.043496238205739 89.4239
5.065834274903528 93.4435
5.088172504230693 97.9796
5.1104935158799565 104.11200000000001
5.132832132875765 123.686
5.155153533596801 162.209
5.1774925416746225 194.09900000000002
5.199814334878411 335.171
5.2221537374521505 950.4860000000001
5.244493338631803 2772.27
5.266815727034316 7833.05
5.289155727832427 12830.7
5.311478517248165 8623.3
5.333818921080011 2630.07
5.356159527788849 497.166
5.3784829252032536 176.43599999999998
5.400823940070432 139.191
5.423147747031976 124.979
5.445489173474152 116.25
5.467830807066149 110.62299999999999
5.490155234831516 106.84299999999999
5.512497285125229 103.943
5.534822130975162 102.539
5.557164601388673 100.49799999999999
5.579489868738879 97.9459
5.601832762690846 96.6172
5.6241758697774475 95.9047
5.646501775867269 95.5696
5.668845311622074 94.1088
5.691171647754637 93.1903
5.713515615597765 92.1608
5.735859800852677 90.6723
5.758186788542988 90.1765
5.780531411018185 90.53399999999999
5.802858837297399 90.3997
5.825203900414495 89.9561
5.8475491852224 89.9793
5.869877275883075 91.1309
5.892223006467101 91.7409
5.914551544266608 92.7918
5.936897724049891 95.4448
5.959244129804903 100.936
5.981573344815301 120.03399999999999
6.0039202049061 205.321
6.026249875609095 438.224
6.04859719346037 943.053
6.070927323278297 2199.61
6.093275102315365 4512.19
6.115623113320588 5264.81
6.137953938319995 3209.99
6.160302415650845 908.806
6.182633708324452 209.515
6.2049826554078376 108.212
6.227331838745022 90.046
6.249663839443684 83.5747
6.27201349767565 80.9371
6.294345974611799 85.7296
6.316696111167083 94.7678
6.339046488263839 89.7476
6.361379686074702 77.5289
6.383730546639482 70.5855
6.406064229255215 67.7496
6.428415576718203 67.2635
6.450749747566656 66.6755
6.47310158535871 65.5007
6.495453669698332 64.7162
6.517788579421056 64.2391
6.540141159237969 62.7718
6.562476565766648 62.7019
6.5848296444934045 62.4417
6.607182974060425 61.4981
6.6295191323281015 61.7924
6.651872965955752 64.8069
6.6742096296068985 87.053
6.6965639707294615 125.02600000000001
6.71891856698715 124.04799999999999
6.741255995248479 88.4059
6.763611104154477 66.0648
6.785949046381137 59.4023
6.808304671371482 57.7789
6.8306605557940046 57.3692
6.852999275508618 56.7777
6.875355681171544 56.6308
6.897694923437771 56.1588
6.92005185377892 55.5081
6.9423916220322655 55.8321
6.964749080490181 55.0488
6.987106804399774 55.0399
7.009447368180821 54.9781
7.031805625367033 54.8984
7.054146723727803 54.7867
7.076505517631004 54.9652
7.098864581288365 54.7106
7.121206488070854 54.4387
7.143566093607822 54.5372
7.165908543567245 54.799
7.188268694426048 54.4771
7.2106291193438095 54.6215
7.232972390625943 55.8531
7.255333366030969 66.8927
7.277677189091925 112.39200000000001
7.300038718428332 150.431
7.322400526130865 129.17600000000002
7.344745183422596 82.8759
7.367107550224791 59.8999
7.389452767901992 55.6078
7.411815697249891 54.5572
7.434161478756298 53.5559
7.456524974096713 53.5433
7.478888753837185 53.5531
7.501235387657368 53.9666
7.523599738562711 54.0636
7.545946944825532 54.1023
7.568311870344528 54.6717
7.5906770845765665 55.0116
7.613025156078678 56.0726
7.635390950099687 56.902
7.657739602662809 56.1095
7.680105979923558 55.3907
7.702472650212829 55.4464
7.724822180948224 55.4338
7.747189439655568 55.2769
7.769539560075357 55.3937
7.791907410653562 56.0028
7.81425812420825 56.0104
7.836626570110925 56.4378
7.858995315087906 57.1005
7.881346924933401 57.2131
7.903716270417482 57.5235
7.926068482028405 58.0114
7.948438431475253 58.4057
7.9708086843180235 58.9944
7.993161805171116 59.8934
8.015532667162402 60.0958
8.037886398416653 61.08
8.060257873014221 61.4858
8.082629655331942 62.0229
8.104984308787587 62.8844
8.127356708900503 66.1626
8.149711981398308 70.9123
8.172085002766314 72.8903
8.194458336181368 70.4165
8.216814543847752 68.7052
8.23918850371002 68.869
8.26154533906492 69.5814
8.283919928836452 71.2175
8.306277395339652 71.9109
8.328652618483376 73.2828
8.351028159736202 75.4748
8.373386579575245 77.5422
8.395762759396959 79.0347
8.418121819038275 83.5535
8.440498640894003 95.0631
8.462875785192262 108.773
8.485235811156207 121.647
8.507613602688501 162.429
8.529974277114228 248.264
8.552352719347912 374.277
8.574731488360351 641.865
8.59709314210385 1207.3
8.619472567021075 1930.87
8.64183487789147 2213.69
8.664214962183097 1730.14
8.686577933647762 866.596
8.708958680784317 318.723
8.731339760774953 148.084
8.753703729764451 106.67
8.77608547780821 97.0419
8.798450116065078 93.7453
8.820832535634787 90.7074
8.843215292401656 89.4262
8.865580941199045 88.096
8.887964374703538 87.2516
8.910330701447199 88.0969
8.932714815164482 89.9506
8.955099270424924 89.3375
8.977466620733543 86.6345
8.999851761421976 84.4832
9.022219798361645 82.9354
9.04460562795561 82.3381
9.066991803441677 81.9006
9.089360876979615 81.8412
9.111747746589993 81.5234
9.13411751544971 80.938
9.156505082664324 80.6417
9.178875550323522 81.3213
9.20126381862328 81.2962
9.223652438908596 81.63600000000001
9.246023961427412 81.6114
9.26841328802173 80.7938
9.290785518039224 80.5789
9.313175554425882 81.6156
9.335565947154315 81.6509
9.357939245086508 81.5275
9.380330352834827 81.9562
9.40270436697103 82.3365
9.425096193225055 82.4392
9.447488380180165 83.0619
9.469863475295412 83.4302
9.492256385987508 83.5946
9.514632206018318 83.9697
9.537025843935714 84.5505
9.559402392368193 85.2981
9.581796761000229 85.9869
9.604191496441521 87.031
9.626569144158516 90.2047
9.648964615551032 94.0254
9.671343000390081 95.7486
9.693739211225699 93.9963
9.716135793237463 92.315
9.738515290448102 92.0284
9.760912617143402 92.7668
9.783292860202891 93.977
9.805690935076182 95.3825
9.828089385495742 96.1736
9.850470754023561 98.6851
9.872869957865444 105.685
9.89525208097539 118.75200000000001
9.917652041736662 129.369
9.940052382417589 131.28
9.962435644102392 139.192
9.984836746950979 173.081
10.007220771957746 236.005
10.029622640473708 335.006
10.052007432299963 505.626
10.074410069984072 814.7810000000001
10.096813093716005 1290.5
10.119199042482517 1778.85
10.141602840636468 1978.17
10.163989564971628 1517.73
10.186394141051062 807.2610000000001
10.208799107559706 347.075
10.231187001965623 167.96900000000002
10.253592751657669 119.994
10.275981430388155 110.414
10.298387966769793 110.186
10.320794897965431 111.89
10.343184759907361 110.544
10.36559248305461 106.258
10.387983138083852 103.075
10.410391656691655 105.916
10.432800574501677 116.976
10.455192425893369 134.054
10.47760214443012 158.366
10.499994797678786 202.895
10.522405320453982 286.652
10.54479877906917 412.74699999999996
10.567210109595656 533.927
10.5896218454736 580.072
10.612016518879773 481.15
10.634429067781074 325.263
10.656824555333241 186.50599999999997
10.679237920773568 116.354
10.701651695961992 93.76100000000001
10.724048411481384 87.794
10.746463008485165 85.1349
10.768860546937125 83.5535
10.791275969274796 82.1395
10.81369180576079 80.7543
10.836090585366925 79.9559
10.858507252467449 78.7628
10.88090686379991 77.9091
10.903324365036394 77.2231
10.925724811614439 77.0429
10.948143150509463 77.9719
10.970561909719066 77.245
10.992963615930844 75.4927
11.015383218085756 73.5183
11.037785768347074 71.99600000000001
11.06020621697282 72.0482
11.082627090322113 71.5054
11.105030913430326 70.8988
11.12745263854165 71.2502
11.149857314510728 74.2148
11.172279894912576 79.017
11.194702904450653 79.793
11.217108866490921 75.7662
11.239532736615194 72.4963
11.26193956033512 70.6074
11.284364294577085 68.9436
11.306789462371718 67.2137
11.329197585398376 66.4146
11.351623622610898 66.2017
11.37403261614354 65.3695
11.396459526308487 65.0272
11.418869393879497 64.7332
11.441297180532617 64.6322
11.463725406927658 64.3301
11.486136592353875 64.1275
11.508565700543707 64.3549
11.530977768845315 65.639
11.553407762368774 66.2588
11.575838200059769 65.9273
11.598251599479612 64.4356
11.620682927815501 63.1193
11.64309721895548 62.715
11.665529441478206 62.1252
11.687962112597958 62.1038
11.710377748130886 62.2981
11.732811318753434 61.9908
11.755227854859067 62.0192
11.777662328529495 61.8839
11.800079768750786 61.8551
11.822515149015453 61.6848
11.844950984084935 62.0813
11.867369787303163 61.6589
11.889806534289491 61.4056
11.912226250487029 61.787
11.934663912939751 62.028999999999996
11.9571020346363 62.2756
11.979523127133968 62.395
12.001962169624331 63.0453
12.024384183972964 64.0097
12.046824150809913 67.1521
12.069264581333726 71.8932
12.091687985297767 77.3583
12.11412934550045 86.1156
12.136553680195208 101.59700000000001
12.158995973632788 125.414
12.181438735204349 158.055
12.20386447284199 192.87599999999998
12.226308172985636 213.74400000000003
12.24873485024193 204.86900000000003
12.271179492516982 168.044
12.293607112949127 120.662
12.316052700916226 89.4225
12.338498763250042 75.0397
12.360927805303868 68.134
12.383374818673879 65.0751
12.405804812803074 63.7189
12.428252780773262 63.445
12.45070122756722 63.4948
12.473132656675375 63.2619
12.49558206341869 63.691
12.518014453510101 63.4188
12.540464823770117 63.6697
12.562915677315177 63.8515
12.58534951575545 64.4289
12.607801338171472 66.3669
12.630236146511358 70.63600000000001
12.652688941369085 74.7871
12.675124723177234 75.0877
12.697578494048786 72.2084
12.720032754458185 68.5621
12.742470003354093 67.0605
12.764925245138771 66.7009
12.787363476431278 67.2197
12.809819703166806 67.4229
12.83227642391173 68.2117
12.854716135692716 68.8951
12.877173846755147 69.7704
12.899614549869717 70.2488
12.9220732548287 70.9829
12.94453245827299 71.3876
12.966974655289818 72.2677
12.989434858002571 73.0748
13.011878055298721 74.081
13.034339260862497 75.082
13.056800969391883 76.3459
13.079245674017244 78.3165
13.101708390774869 80.3992
13.12415410463411 87.0951
13.146617833206086 98.5224
13.169064559883248 109.803
13.191529303857127 124.46
13.213994557076367 146.262
13.236442809902437 183.162
13.258909083908291 241.274
13.28135835851934 312.041
13.30382565690295 385.68300000000005
13.326293469022952 434.32599999999996
13.348744283242008 425.532
13.371213125129904 346.159
13.39366497011003 243.141
13.416134845360597 159.822
13.438605238843131 117.235
13.46105863690397 102.339
13.483530069144786 103.469
13.505984506951902 109.214
13.528456981549432 118.133
13.550929978879088 132.16899999999998
13.573385983253365 156.505
13.595860028340867 196.25
13.618317081455832 252.937
13.64079217790333 314.665
13.663250283359057 363.293
13.685726434770173 385.028
13.708203115221277 338.57199999999995
13.730662806148091 250.00900000000001
13.75314054697177 170.03900000000002
13.775601299246777 118.60600000000001
13.798080104050406 92.4543
13.820559442405358 83.1352
13.843021793671388 80.2081
13.865502201420897 78.8458
13.887965623051947 78.4556
13.910447103807167 77.3518
13.932929122629764 76.0654
13.955394156785959 75.7064
13.977877254034569 74.873
14.000343367582113 74.10600000000001
14.022827546871707 73.7273
14.045294743423524 72.7652
14.06778000837062 71.9461
14.090265817715476 71.9643
14.112734645763819 71.7747
14.13522154619454 71.5811
14.157691466286913 71.3669
14.180179461423874 71.2393
14.202668005486178 70.608
14.22513957064374 70.0978
14.247629214846473 69.6013
14.270101881097517 69.4937
14.29259262906496 69.5418
14.315083930490205 70.0183
14.337558255389705 70.4315
14.360050666019726 70.0291
14.382526101071944 69.1675
14.405019624534942 68.4355
14.427513705993134 67.9434
14.449990813291825 67.8783
14.47248601302899 67.8202
14.49496423954951 67.8179
14.517460561197822 68.1393
14.539939910570322 67.8546
14.562437357763558 68.2078
14.58493536931253 68.9212
14.607416409993311 69.8587
14.62991555254159 70.4359
14.652397725157423 70.3336
14.674898002342799 69.9933
14.697398848433282 69.7333
14.719882725991326 70.4891
14.74238471217934 71.3668
14.764869730765593 74.4497
14.787372860692983 77.9801
14.809876564079925 82.1116
14.83236330125751 87.7707
14.854868153850365 96.109
14.877356041159485 109.583
14.899862046604186 129.253
14.922351087688757 156.046
14.944858249632887 186.472
14.967365991421232 215.857
14.989856770231246 227.364
15.012365673994204 220.3
15.03485761569738 188.72099999999998
15.05736768508665 145.08100000000002
15.07987833888692 108.102
15.102372032001655 86.5772
15.124883856909658 75.1512
15.14737872204565 70.744
15.169891721717274 69.4642
15.192405310371893 69.4199
15.214901940621196 69.6479
15.237416709527137 69.6347
15.259914520936249 69.7232
15.282430473753607 68.8127
15.304947020131227 67.765
15.327446610371178 66.942
15.349964346154254 66.2456
15.372465126703139 65.8999
15.394984055556009 65.5573
15.417486030076159 65.5925
15.44000615566487 65.1884
15.462526881230803 65.2616
15.485030653812652 65.2686
15.507552581617434 65.2887
15.530057557334603 65.3795
15.55258069104857 65.2992
15.575104429329837 65.5885
15.597611216864632 65.111
15.620136166564563 65.2207
15.6426441664095 66.1228
15.665170331202765 68.2226
15.687697105158826 71.3808
15.710206930593545 74.9856
15.732734925158933 78.503
15.755245972089478 84.2458
15.77777519094324 93.2573
15.800287463046663 107.051
15.822817909869592 127.508
15.84534897229804 151.907
15.867863089299354 176.601
15.890395385222186 195.018
15.912910736597423 198.713
15.935444269699861 181.61700000000002
15.957978423016485 149.683
15.980495633101265 118.259
16.003031029129367 90.57600000000001
16.02554948280019 73.4331
16.048086125229432 65.7785
16.070623392487107 63.9696
16.09314371869582 63.3735
16.11568223789321 62.2651
16.13820381691126 61.4754
16.160743591742527 60.5636
16.183283996022084 59.7849
16.205807461423195 58.5911
16.228349126881973 58.2041
16.25087385432698 58.1289
16.27341678466365 57.613
16.29594277784926 57.492
16.31848697676433 57.61
16.341031811604868 57.88
16.36355971058487 58.1844
16.3861058195587 57.8839
16.40863499352978 56.6977
16.431182380342005 56.0755
16.453730407713202 55.732
16.476261501364792 55.2858
16.498810812136167 54.8868
16.52134319004079 54.8604
16.54389378792203 54.7098
16.566445031001553 54.4232
16.588979342490088 54.3303
16.61153187824822 54.3182
16.634067483263312 54.3055
16.656621315414416 54.1941
16.679175797408888 53.8362
16.701713349928728 54.0052
16.72426913389191 54.2512
16.74680798922351 54.1678
16.76936507887444 54.1249
16.791905240734874 54.2804
16.814463639794468 54.1447
16.837022695210294 54.0617
16.859564824093756 54.5283
16.882125194503903 55.2453
16.904668639217885 55.8584
16.927230328348003 55.9134
16.949792678493612 55.8077
16.972338104193863 55.4076
16.994901778652235 54.998999999999995
17.017448529496576 55.0656
17.040013531998152 55.1837
17.06257920018044 55.6214
17.0851279459922 56.3099
17.107694947817667 57.2576
17.130245028099072 57.8368
17.15281336730298 59.0748
17.17536478578733 60.9914
17.19793446610687 63.3032
17.220504818648422 66.4606
17.243058251703697 69.9515
17.265629950971032 74.8177
17.288184731571736 79.883
17.310757781306908 83.3128
17.33333150794385 82.8577
17.355888317140174 81.2678
17.37846339986244 75.6784
17.401021565958885 68.8085
17.42359800851343 64.1077
17.44617513265564 60.6856
17.468735341390783 59.0715
17.491261035594565 58.3519
17.51396340099364 58.1656
17.536490463869136 58.4159
17.559018209820174 58.5102
17.58154663977963 58.5294
17.604251766089718 58.7718
17.626781572227713 58.8005
17.64931206518155 59.1641
17.671843245885103 59.83
17.69455114821572 60.0006
17.717083712612634 60.0783
17.739616967569667 60.2931
17.762150914021706 60.6642
17.78486160749854 60.6032
17.807396945166804 61.247
17.829932977143503 61.9161
17.85246970436452 63.3121
17.875183204129467 65.4306
17.897721330097664 67.5094
17.920260154126645 69.6507
17.942799677153296 72.8134
17.9655159983646 76.3373
17.988056927677544 81.4959
18.010598558807683 89.8019
18.033140892692916 100.382
18.05586005052525 112.361
18.07840379824407 124.806
18.10094825154059 134.983
18.12366954819864 141.811
18.146215420998306 138.747
18.16876200220057 127.42
18.191309292745153 112.755
18.214033452627167 98.7527
18.236582170236648 88.3117
18.259131600016456 84.3946
18.281681742907335 85.4937
18.304408781233683 90.383
18.32696035875955 96.1799
18.349512652227624 101.59700000000001
18.372065662579683 105.729
18.394795594587553 105.93299999999999
18.41735004715306 101.15100000000001
18.43990521943684 92.9253
18.46246111238171 83.5317
18.485193953325208 74.1087
18.507751296070428 67.7094
18.530309362314178 64.4204
18.552868153000343 62.2611
18.57560391815056 61.422
18.59816416623245 61.0828
18.620725141597372 60.5067
18.643286845190268 60.1807
18.666025549835414 59.8094
18.688588718427933 59.1232
18.711152618092243 58.8094
18.73389353884365 58.5693
18.75645890921984 58.1235
18.77902501351406 57.9931
18.801591852673102 57.9852
18.824335739722738 57.2944
18.846904057212626 57.3217
18.8694731124168 56.8806
18.89204290628315 56.9697
18.914789774966803 57.0189
18.937361054791623 56.6897
18.959933076131318 56.3842
18.982505839934877 56.2082
19.00525570560582 56.4485
19.027829963004184 56.1704
19.05040496572238 56.3219
19.072980714710468 56.4125
19.095733592739563 56.5378
19.11831084296757 56.7637
19.140888842324735 57.1365
19.16346759176222 57.4466
19.18622349753803 57.8894
19.208803755869358 58.8406
19.231384767143577 59.8057
19.253966532312948 61.3499
19.276725481241822 63.6063
19.29930876296784 66.3758
19.3218928014549 69.5241
19.34465404436217 72.8113
19.36723960516257 75.4764
19.389825925592426 75.9788
19.412413006605938 74.7531
19.43517731967805 70.9522
19.457765930683355 66.1891
19.48035530514408 61.4053
19.50294544401556 58.5115
19.525712842708348 55.7004
19.54830451925909 54.3158
19.570896963095727 53.4678
19.593490175174704 53.2356
19.616260674962184 53.2621
19.638855432416964 52.8486
19.661450960992624 53.1033
19.68404726164677 52.7995
19.706820878021247 52.718
19.729418731756834 52.7667
19.752017360452857 52.6051
19.77461676506804 52.8895
19.797393513540218 53.1042
19.819994478951667 53.3114
19.84259622316767 53.7829
19.8651987471481 54.2676
19.887978643247177 54.3721
19.91058273574792 54.7904
19.933187610901943 55.5652
19.955969879466828 56.6212
19.97857632894404 58.3238
20.00118356396599 60.0657
20.023791585494575 62.3654
20.046577028914875 65.1518
20.069186632506966 67.4556
20.091797025500632 69.1319
20.114408208858933 69.4783
20.137196842715273 68.794
20.159809615886765 66.9969
20.18242318232135 64.2807
20.20503754298326 62.4574
20.227829382875154 61.1158
20.250445341109344 61.5092
20.27306209647285 62.4845
20.29567964993108 64.008
20.31847471147704 65.0096
20.34109387027612 65.5137
20.363713830075454 64.7071
20.386334591841646 62.7989
20.409132890679302 60.0123
20.431755265564437 56.9616
20.454378445325528 54.1785
20.477002430930366 52.3342
20.499803982716553 51.3171
20.522429589228004 50.8916
20.54505600449589 50.3644
20.567683229489194 50.2697
20.590488049900088 49.957
20.61311690359731 49.6364
20.63574656993626 49.3625
20.658553853717297 49.0897
20.681185154618298 49.2877
20.703817271080066 48.9303
20.72645020407368 48.5179
20.749260783967177 48.4
20.771895359337133 48.5453
20.794530754161617 48.4659
20.817166969412938 48.3738
20.83998086114876 48.2947
20.86261872660049 48.1326
20.885257415405402 48.0966
20.90789692853701 48.1172
20.930714147864748 47.9388
20.953355319030678 48.0292
20.97599731745334 48.1342
20.99864014410749 47.886
21.021460706796564 48.0676
21.044105199328826 48.4817
21.06675052302631 48.4782
21.089396678865015 48.4652
21.112220600704806 48.8933
21.134868430275347 49.3399
21.15751709492456 49.4883
21.180166595629693 50.0526
21.202993892429635 50.3514
21.22564507473034 50.8483
21.24829709602816 50.9899
21.27112693608965 50.995
21.293780644891275 50.803999999999995
21.316435195634053 50.1837
21.339090589297417 49.357
21.361923832041875 48.8217
21.384580921090404 48.325
21.407238856007325 47.9407
21.429897637773326 47.8194
21.45273429906592 47.8072
21.475394784108598 47.8442
21.498056118951983 47.656000000000006
21.520718304578022 47.9235
21.543558400304388 47.9789
21.566222297108816 48.1517
21.58888704765135 48.3687
21.61155265291521 48.6394
21.63439619898156 49.1316
21.657063523335786 49.3479
21.67973170537063 49.8643
21.7024007460706 50.2332
21.72524775840385 51.1055
21.747918526116475 52.0386
21.770590155457388 53.3228
21.79326264741238 54.9037
21.816113141960237 56.7836
21.838787368860547 58.7672
21.861462461341976 60.7538
21.884315579735777 62.7292
21.90699241312273 63.8863
21.92967011506078 64.1375
21.95234868653799 63.4902
21.9752053151131 61.8604
21.997885635446785 59.8201
22.020566828293532 58.0841
22.04324889464272 56.855
22.066109049404666 55.8443
22.088792872571794 55.7745
22.111477572219204 55.6945
22.1341631493376 55.8678
22.157026846313123 55.4041
22.179714188221507 54.496
22.202402410582668 53.4206
22.22509151438863 51.8457
22.24795876962584 50.5123
22.270649646204486 49.7022
22.293341407213727 49.3364
22.316034053646906 48.7233
22.338904883215342 48.3409
22.36159931041458 48.4297
22.38429462602756 48.4239
22.40699083104897 48.2768
22.429865251039757 48.2839
22.452563244831367 48.2289
22.47526213102522 48.4348
22.49813925616515 48.2088
22.520839937143307 48.0232
22.543541513520587 48.0567
22.56624398629403 47.9687
22.589124730075895 47.7896
22.611829005656723 48.0468
22.63453418063466 48.0536
22.657240256008077 48.1881
22.680124634582935 48.3809
22.70283252079775 48.8417
22.725541310413075 49.1178
22.74825100442868 49.1712
22.771139033969575 49.6767
22.79385054687155 49.9066
22.81656296718292 50.5883
22.83927629590484 51.3698
22.862167992606945 52.5568
22.88488314827121 53.9376
22.907599215359284 55.0453
22.93031619487366 56.0051
22.953211574954405 56.9148
22.975930389478226 57.6636
22.998650119445763 57.7018
23.02137076586092 56.9196
23.044269845560063 55.2877
23.06699233506288 53.6455
23.089715744034912 51.6382
23.112617610931565 50.2584
23.135342869061212 49.1631
23.158069049684816 48.5741
23.1807961538087 48.3311
23.20370174880544 48.2706
23.226430710184808 48.1836
23.249160598093425 48.2249
23.271891413539002 48.2966
23.294800752937697 48.3173
23.31753343374794 48.4996
23.340267045128353 48.4995
23.36300158808808 48.9635
23.38591468821339 49.2672
23.408651104658304 49.7549
23.431388455719986 50.255
23.454126742409 51.23
23.4770436196085 52.3393
23.499783787914662 53.5648
23.522524894889884 54.7513
23.54526694154616 55.7472
23.56818761219047 56.9824
23.59093154860734 57.4846
23.613676427751283 57.4197
23.636422250635754 56.3329
23.659346731118656 54.4133
23.68209445191868 52.4707
23.704843119509587 50.5415
23.72759273490623 48.8452
23.750521041644767 47.5225
23.77327256312355 46.6072
23.796025035462787 46.076
23.818956224555475 45.6437
23.841710609113413 45.4742
23.86446594758979 45.2349
23.887222241002014 45.1654
23.910157285144578 44.6711
23.932915498962537 44.6634
23.955674670778713 44.6188
23.978434801611975 44.3871
24.001373717286125 44.2768
24.024135776723917 44.1539
24.046898798245582 44.0466
24.06966278287146 43.9363
24.092605586582614 43.6891
24.115371508023642 43.5904
24.1381383956401 43.4722
24.16090625045381 43.4312
24.183852958731244 43.32899999999999
24.206622758582608 43.257
24.229393528706886 43.1292
24.252165270127392 43.2542
24.27511589952438 43.1718
24.297889594216997 42.9688
24.32066426328598 42.7677
24.34343990775613 42.7324
24.36639447485003 42.6944
24.38917208083877 42.5608
24.41195066531332 42.4778
24.43490819850244 42.5491
24.457688750692377 42.4458
24.48047028445616 42.4271
24.503252800821233 42.5353
24.526214300784112 42.6039
24.548998793132213 42.6681
24.57178427117417 42.4931
24.59457073593893 42.4549
24.617536219319863 42.4262
24.64032466834748 42.4235
24.663114107195035 42.2567
24.685904536893013 42.0309
24.708874020360852 42.0663
24.731666442613744 41.9512
24.754459858818787 41.8322
24.777254270007962 41.8704
24.80022777025625 41.6527
24.82302418230472 41.706
24.845821592443674 41.7735
24.86862000170663 41.5944
24.891597535453727 41.4812
24.914397953892728 41.7664
24.93719937456671 41.6588
24.96000179851076 41.8015
24.98298338249997 42.1055
25.00578782394922 42.3179
25.028593271784167 42.286
25.05157790644186 42.7243
25.07438537804115 42.8137
25.097193859145293 43.2714
25.120003350792075 43.4828
25.142992065061257 43.733999999999995
25.165803588823465 43.8766
25.18861612625217 44.2409
25.211429678386736 44.3531
25.234422489079968 44.306999999999995
25.257238081693636 44.4407
25.280054692141732 44.4823
25.3028723214652 44.3199
25.325869245420463 44.5172
25.348688923599397 44.5303
25.371509623787006 44.4738
25.394331347025812 44.0508
25.41733240110666 43.5
25.440156181590016 42.7933
25.46298098826268 42.3059
25.48580682216873 41.7853
25.50881202326435 41.2032
25.53163992281684 40.8621
25.55446885274561 40.5667
25.577298814096377 40.3747
25.600308179121807 40.2581
25.623140214533745 40.4768
25.64597328451537 40.3145
25.66898578564376 40.1659
25.691820936010206 40.1863
25.714657124097695 40.0812
25.737494350954734 40.0557
25.760511045684957 39.9661
25.783350361364224 40.1125
25.806190718969255 40.0586
25.82903211955018 40.1156
25.852053024868923 40.0693
25.874896522722523 40.1666
25.897741066713106 40.1205
25.920586657892454 40.2776
25.943611790812668 40.2679
25.966459487728237 40.5227
25.989308234998564 40.6243
26.01215803367705 40.8881
26.03518741123814 41.0043
26.05803932412957 41.152
26.080892291600094 41.1733
26.10374631470478 41.2658
26.12677995397268 41.2565
26.14963609978026 41.1698
26.172493304397875 40.9053
26.19535156888223 40.6435
26.218389486949604 40.3315
26.241249882640123 39.9647
26.26411134137826 39.75
26.28715248187403 39.7374
26.31001607820869 39.6129
26.3328807407756 39.4829
26.35574647063438 39.6369
26.37879191991473 39.5785
26.401659795896734 39.7035
26.424528742360263 39.8832
26.447398760366614 39.9295
26.470448535598294 40.0091
26.49332070826805 40.3354
26.516193955675355 40.7051
26.53906827888316 40.8972
26.562122397260108 41.1515
26.584998883685063 41.5483
26.607876449110325 41.6536
26.63075509460056 41.7171
26.65381357334404 41.7828
26.67669439061878 41.8677
26.699576291163382 41.6151
26.722459276044212 41.475
26.745522132402975 41.2099
26.768407297649354 40.8857
26.791293550442003 40.561
26.814180891848974 40.3849
26.837248143099337 40.0705
26.860137673466657 39.9598
26.88302829566349 39.8211
26.90592001075963 39.5739
26.92899167420566 39.3511
26.951885586870763 39.1379
26.974780595655517 38.9491
26.99785558178161 38.6844
27.020752794605112 38.5609
27.043651106772522 38.4524
27.06655051935668 38.4655
27.089629948036183 38.3193
27.112531573292053 38.3241
27.135434302194138 38.365
27.158338135817015 38.1791
27.181422024430987 38.211
27.204328079372566 37.9773
27.22723524226965 38.0795
27.250143514198573 38.2097
27.273231880156334 37.999
27.296142382065014 37.917
27.319053996245536 37.9545
27.341966723775965 38.0483
27.365059584515222 38.0574
27.38797455070062 38.0845
27.410890633481237 38.0133
27.433807833936918 37.9766
27.456905206923906 38.0868
27.47982465472398 38.1691
27.502745223449743 38.2279
27.525666914182825 38.3201
27.548768816912457 38.273
27.571692763693633 38.0922
27.59461783573812 37.8776
27.617723149491244 37.8017
27.640650484125285 37.7968
27.66357894728264 37.6623
27.686508540048052 37.7022
27.709618414237887 37.631
27.732550278321757 37.3763
27.755483275279115 37.4069
27.778417406196485 37.3391
27.801531858397514 37.4569
27.824468269376716 37.3472
27.847405817586786 37.3895
27.870344504116094 37.5443
27.893463551932008 37.7236
27.916404527281053 37.8869
27.93934664422563 37.8392
27.962289903855886 38.0167
27.98541356491974 38.3939
28.00835912214229 38.4777
28.03130582533231 38.6629
28.054253675581805 38.7574
28.077381967556104 38.5572
28.100332124185126 38.5702
28.123283431160893 38.5476
28.146235889577238 38.4439
28.169368830154156 38.2154
28.192323603752033 38.1644
28.215279532083304 37.6742
28.238415973016764 37.5699
28.261374223145094 37.3422
28.284333631303806 37.1064
28.307294198589954 36.9795
28.330435319167677 36.6371
28.353398217078915 36.4421
28.376362277420153 36.2603
28.39932750129032 36.1654
28.422473319286713 36.0406
28.44544088262495 36.0112
28.468409612800283 35.8516
28.491379510913497 35.6831
28.51453004413313 35.493
28.53750229057244 35.468
28.56047570826344 35.5103
28.583450298308804 35.5967
28.606605564586562 35.2631
28.629582511831156 35.3015
28.65256063474956 35.2598
28.675539934446338 35.2494
28.698699951647605 35.1895
28.72168161743193 35.0652
28.74466446331978 35.1267
28.767648490417624 35.177
28.790813276438353 35.077
28.813799678527303 35.0133
28.836787265157085 35.0657
28.859955641890075 35.2077
28.882945610203045 35.0427
28.905936766392035 34.9387
28.928929111566863 34.9538
28.952102288520145 34.8187
28.975097024308607 34.6942
28.998092952423807 34.591
29.021090073977508 34.4421
29.04426806913204 34.39
29.067267590245258 34.2443
29.090268308143695 34.283
29.11327022394099 34.1392
29.13645305530891 34.0726
29.159457379627167 33.9929
29.18246290519685 33.9511
29.20546963313352 33.9671
29.22865731875826 33.9112
29.25166646419296 33.9525
29.27467681535305 33.8273
29.29768837335608 33.8609
29.320880931312562 33.9462
29.34389491580634 33.8846
29.366910110507334 33.7907
29.38992651653503 33.9012
29.41312396492981 33.9154
29.436142806456754 33.7915
29.45916286268059 33.6197
29.48236399319994 33.4744
29.50538649169417 33.4562
29.528410208259935 33.3695
29.55143514402014 33.1414
29.574641196749695 33.0698
29.597668583816574 33.0125
29.6206971934585 32.7216
29.64372702680042 32.851
29.666938019934474 32.7172
29.689970313635285 32.6967
29.713003834422636 32.6512
29.73603858342347 32.5751
29.759254535188578 32.4612
29.78229175361658 32.4983
29.80533020365064 32.5399
29.82836988641968 32.4698
29.85159081507472 32.5019
29.874632976355343 32.3724
29.89767637376955 32.4441
29.920721008448314 32.291
29.9439469322847 32.2647
29.96699405457564 32.3926
29.9900424175358 32.3335
30.013092022298157 32.1617
30.03632295963995 32.1003
30.059375061131373 32.1471
30.08242840783577 32.1766
30.105483000888153 32.1961
30.128718970092244 32.1318
30.151776069006917 32.0743
30.17483441768648 32.1215
30.198074175317235 32.0762
30.221135036724256 32.1566
30.24419715131772 31.951999999999998
30.267260520236203 31.9238
30.290505341942243 32.0066
30.313571232750228 31.9554
30.336638381310948 31.9171
30.35970678876503 31.9437
30.38295669299435 31.8895
30.40602763151657 31.8532
30.429099832366074 31.8299
30.452173296685572 31.7395
30.47542830191959 31.8215
30.498504306502497 31.7576
30.521581577995562 31.8264
30.544660117543582 31.8726
30.56792024229725 31.7852
30.59100133132069 31.7845
30.614083691845494 31.8532
30.637167325018545 31.8817
30.660432587840603 31.846
30.683518779717886 31.8071
30.70660624769615 31.9751
30.729694992924372 31.8964
30.75296541239743 32.0173
30.77605672557558 31.8737
30.799149319462742 31.7968
30.8224236211637 31.6659
30.845518789950724 31.4855
30.868615242910597 31.4297
30.891712981195973 31.3446
30.91499247215866 31.2813
30.938092794619365 31.3049
30.96119440587579 31.2092
30.984297307082752 31.0845
31.00758200598383 31.0454
31.030687500658694 30.8725
31.053794288760695 30.8547
31.076902371446767 30.7763
31.100192296997445 30.8544
31.12330298246119 30.7431
31.14641496599209 30.6311
31.169528248749216 30.6649
31.19282341969534 30.5153
31.215939314557186 30.6689
31.239056512134788 30.6723
31.262175013589378 30.5711
31.28547544871168 30.5621
31.30859657161541 30.5012
31.331719001892175 30.5945
31.35484274070538 30.6632
31.378148458819545 30.5561
31.401274828443725 30.6103
31.424402510106933 30.5188
31.447712205419993 30.666999999999998
31.470842524931633 30.4489
31.493974159989783 30.5469
31.51710711176168 30.441999999999997
31.54042212308802 30.4846
31.563557722100917 30.3861
31.586694641341655 30.1842
31.609832881979628 30.1173
31.63315322823208 30.1118
31.656294125521327 30.0085
31.679436347728515 30.0177
31.70257989602529 30.0517
31.725905596152327 29.9099
31.74905181052835 29.7873
31.772199354521323 29.8823
31.79534822930507 29.823
31.818679302290967 29.8195
31.84183085259981 29.81
31.864983737233473 29.818
31.88813795736804 29.8416
31.911474422233013 29.753
31.934631327356435 29.8702
31.9577895715215 29.7094
31.980949155906522 29.6193
32.004291031706956 29.6944
32.027453310562606 29.6202
32.05061693318573 29.4875
32.07396288236386 29.4942
32.09712920658542 29.4174
32.12029687812702 29.2126
32.14346589817093 29.2352
32.166817291729984 29.2518
32.18998902288583 29.0979
32.21316210610336 29.0509
32.23633654256711 28.8918
32.259693399663725 28.8862
32.282870556771144 28.8822
32.30604907069099 28.7889
32.329228942610065 28.8004
32.35259128243769 28.6409
32.375773884550505 28.6385
32.398957848235646 28.6691
32.422143174682176 28.5641
32.445511016471215 28.4748
32.468699082679954 28.2921
32.49188851523011 28.3439
32.51507931531304 28.4086
32.538452678331 28.3239
32.56164622776311 28.2059
32.58484114831493 28.1517
32.60803744118015 28.2024
32.631416344731896 28.2876
32.654615396551876 28.1908
32.67781582427913 28.1451
32.701198898634416 28.0024
32.72440209253756 27.9968
32.747606665947124 28.0081
32.77081262006088 27.864
32.79420126883317 27.796999999999997
32.81740999876112 27.8197
32.840620112999424 27.8186
32.86383161274818 27.7635
32.88722585534586 27.7281
32.91044014056596 27.8535
32.933655814909734 27.7858
32.95687287957963 27.7719
32.98027273544904 27.6436
33.00349259526636 27.5989
33.026713849030116 27.6518
33.04993649794511 27.5742
33.073341986570746 27.5429
33.09656744032826 27.4962
33.11979429286444 27.4499
33.14302254538647 27.4743
33.166433686291185 27.4754
33.18966475336992 27.3466
33.212897224069096 27.2889
33.23613109959831 27.3097
33.259547912343415 27.2664
33.2827846121627 27.2773
33.306022720453775 27.143
33.32926223842861 27.1077
33.352684742614166 27.1426
33.37592709463173 27.0791
33.399170859982064 27.0441
33.422597648419426 26.9652
33.44584425514446 26.8697
33.46909227885668 26.781
33.4923417207723 26.7368
33.51577423505344 26.748
33.539026528130385 26.6127
33.56228024307245 26.6186
33.585535381098246 26.5014
33.60897364093058 26.4805
33.63223163992385 26.4695
33.6554910656699 26.3813
33.678751919389796 26.374000000000002
33.702195944520106 26.3571
33.72545966903325 26.3166
33.74872482519663 26.2369
33.771991414233746 26.2588
33.79544122444841 26.1773
33.81871069412428 26.0829
33.84198160035767 26.107
33.86525394437455 26.1125
33.88870955949969 26.064
33.911984794020626 26.0368
33.93526147001624 25.9791
33.958539588715006 25.893
33.98200102861669 25.9079
34.0052820477047 25.7389
34.02856451319451 25.6914
34.05203033759056 25.7674
34.07531571090147 25.7672
34.09860253431845 25.6709
34.121890809074316 25.5919
34.145362493118924 25.5973
34.16865368561615 25.5133
34.191946333164054 25.5626
34.21524043699793 25.4829
34.23871800066799 25.535999999999998
34.26201503218366 25.3801
34.28531352370466 25.32
34.30861347646881 25.256
34.33209693978188 25.2052
34.3553998301885 25.1934
34.378704185565205 25.2303
34.402010007152356 25.1381
34.42549939016683 25.1234
34.44880815937748 25.0342
34.472118398533134 25.0444
34.49543010887669 24.995
34.51892543169198 24.9263
34.54224009966052 24.8855
34.56555624255917 24.8697
34.58887386163339 24.8383
34.61237514439016 24.7228
34.6356957311114 24.7293
34.65901779775809 24.739
34.68252356662995 24.6813
34.705848608458616 24.6579
34.72917513396849 24.5895
34.75250314440949 24.6109
34.77601490857862 24.5268
34.799345904259795 24.441999999999997
34.82267838863559 24.4483
34.846012362958525 24.5158
34.869530142679984 24.359
34.89286711232212 24.3307
34.91620557568269 24.3262
34.93954553401677 24.2085
34.9630693495876 24.3073
34.986412313340814 24.3194
35.00975677584668 24.1959
35.033102738362956 24.1653
35.05663261012228 24.0967
35.0799815881786 24.0676
35.10333207003229 24.026999999999997
35.12668405694369 24.0532
35.150220005273056 23.9744
35.17357501786656 24.0477
35.19693153931268 23.9044
35.220289570874385 23.8887
35.24383161619786 23.8967
35.267192683604904 23.945
35.290555264930376 23.8577
35.314101899412165 23.837
35.33746752422433 23.7676
35.36083466676374 23.8567
35.38420332829803 23.7921
35.407756095629054 23.7565
35.43112781085063 23.7667
35.45450104888391 23.7726
35.477875810999194 23.704
35.50143473172161 23.6191
35.52481255774625 23.6151
35.54819191167777 23.5747
35.57157279478914 23.5227
35.595137889488406 23.4534
35.61852184675279 23.458000000000002
35.641907337029984 23.3706
35.665294361595684 23.3904
35.68886565090076 23.346
35.7122557598848 23.3205
35.73564740699838 23.3009
35.759040593519934 23.1839
35.78261809810353 23.2015
35.80601437933051 23.1498
35.829412203814705 23.0139
35.85281157283719 22.993000000000002
35.876395313415884 22.987
35.8997977874528 22.9937
35.92320180988546 22.9531
35.946790244133936 22.9264
35.97019737933222 22.8887
35.993606066789866 22.9086
36.01701630779276 22.8541
36.04061101440684 22.7765
36.06402437852291 22.7128
36.08743930005611 22.7498
36.1108557802951 22.5995
36.13445678011326 22.6429
36.15787639383515 22.7133
36.18129757014299 22.603
36.20472031032821 22.5507
36.22832762423364 22.4432
36.25175350829375 22.4288
36.275180960119776 22.4234
36.298609981005924 22.4509
36.32222362992669 22.4662
36.34565580510207 22.34
36.36908955323448 22.3218
36.39252487562093 22.2228
36.416144880530226 22.1694
36.43958336764275 22.162
36.463023432914625 22.1992
36.486465077645676 22.098000000000003
36.51009145956204 22.1865
36.53353627947859 22.146
36.55698268276811 22.1144
36.58043067073321 21.9501
36.60406345072071 21.9781
36.62751462435344 21.916999999999998
36.65096738658405 21.8867
36.67460498210655 21.924
36.69806093788647 21.8952
36.72151848619297 21.8156
36.744977628333636 21.8296
36.76862165890998 21.8129
36.79208400512205 21.8015
36.81554794910557 21.7688
36.83901349217101 21.6576
36.862663978991606 21.5954
36.88613273667352 21.5684
36.90960309738324 21.5362
36.933075062434064 21.4815
36.95673202673572 21.5309
36.98020721697122 21.434
37.003684015502365 21.3535
37.027162423645365 21.3066
37.050825886711465 21.375999999999998
37.07430753063053 21.3498
37.09779078812467 21.2678
37.121275660513014 21.2207
37.144945643673694 21.1883
37.16843376245278 21.2063
37.19192350009803 21.2083
37.215414857931435 21.1201
37.239091382563885 21.0962
37.262585997426164 21.0215
37.28608223645736 21.0845
37.309763684451696 20.9878
37.33326318851098 20.9389
37.356764320726555 20.8573
37.380267082425526 20.9799
37.40395510942588 20.8971
37.42746114683234 20.8312
37.45096881771841 20.8061
37.474478123414166 20.7733
37.49817275092816 20.6868
37.52168534303452 20.6925
37.54519957395567 20.6439
37.568715445024665 20.5977
37.592416694607714 20.521
37.61593586281424 20.6157
37.63945667518264 20.5937
37.66297913304891 20.505
37.68668702630454 20.4674
37.710212792059274 20.4016
37.733740207334854 20.4292
37.757269273470364 20.3717
37.780983832050374 20.3283
37.80451621684926 20.3391
37.82805025654007 20.312
37.851585952464795 20.2216
37.8753071980695 20.2016
37.89884622345676 20.1303
37.92238690911902 20.0784
37.94611318753442 20.0403
37.969657210779765 20.0415
37.99320289834801 20.0299
38.016750251586465 20.0192
38.04048325513017 19.9622
38.06403395679343 19.8965
38.087586328183946 19.8785
38.11114037065203 19.8429
38.13488012115898 19.8317
38.1584375229181 19.7724
38.181996599821 19.7532
38.205557353221124 19.7457
38.229303872575656 19.7259
38.2528679961576 19.6663
38.27643380031219 19.6915
38.30000128639589 19.6713
38.32375459653193 19.6158
38.34732546371299 19.5928
38.37089801690786 19.537
38.39447225747609 19.472
38.418232380377425 19.4776
38.441810012983396 19.5207
38.46538933705673 19.4293
38.488970353960084 19.4231
38.51273731166058 19.3501
38.536321731567014 19.303
38.55990784840681 19.2607
38.58367995004091 19.2508
38.60726947812959 19.1656
38.63086070726198 19.2306
38.654453638806274 19.2038
38.678232613930824 19.1329
38.70182896773327 19.0938
38.72542702806741 19.0478
38.7490267963045 19.0772
38.77281266709232 19.0496
38.79641586862214 18.9899
38.8200207821842 18.9421
38.843627409152944 18.9257
38.86742019782782 18.8589
38.891030269149255 18.8136
38.914642058016156 18.8734
38.938255565806124 18.8608
38.96205529464307 18.7978
38.98567225787121 18.8196
39.00929094417078 18.7595
39.03291135492255 18.7206
39.05671804624804 18.6607
39.080341923549106 18.615
39.103967529460334 18.5665
39.127594865365744 18.5178
39.15140854155791 18.4731
39.17503935514948 18.491
39.19867190290282 18.4941
39.22249083587951 18.433
39.24612686969409 18.4332
39.269764641845306 18.4714
39.293404153722804 18.3622
39.317230110864074 18.3048
39.34087311998506 18.2769
39.36451787301696 18.2337
39.388164371352595 18.2008
39.41199737518003 18.1875
39.43564738196752 18.1999
39.45929913825317 18.2155
39.48295264543308 18.1599
39.506792718520884 18.0799
39.530449745387216 17.9877
39.55410852735203 18.0714
39.57776906581474 18.0676
39.60161623079 17.9937
39.625280300200025 18.0047
39.64894613032202 17.877
39.67261372255866 17.8489
39.6964680021016 17.8657
39.72013913657293 17.8463
39.74381203738292 17.8309
39.76748670593756 17.8152
39.79134812278169 17.7204
39.81502634488497 17.7242
39.83870633896685 17.6956
39.862388106436654 17.7065
39.88625668336918 17.6771
39.90994201572829 17.697
39.933629125719285 17.5648
39.957503091207826 17.5526
39.9811937746168 17.5565
40.00488623990914 17.5051
40.02858048850006 17.4894
40.05246165409549 17.4275
40.076159487492085 17.389
40.099859108448875 17.3462
40.123560518384345 17.3375
40.1474489070226 17.2886
40.171153913178564 17.3288
40.194860712584955 17.3053
40.2185693066637 17.3093
40.242464941335314 17.1745
40.26617714307655 17.2137
40.289891143772046 17.2125
40.3136069448471 17.1695
40.33750984859743 17.0992
40.3612292688043 17.0796
40.3849504936829 17.083
40.40867352466194 17.0357
40.43258372059144 16.9916
40.45631038219906 17.024
40.48003885420956 16.9284
40.503769138055105 16.9301
40.52768664931955 16.9673
40.55142057531802 16.8984
40.57515631746428 16.8911
40.599079334038514 16.8375
40.62281872700477 16.7751
40.64655994043941 16.7539
40.67030297578061 16.7455
40.69423334835778 16.711
40.71798004609188 16.6747
40.74172857006355 16.6513
40.76547892171441 16.6216
40.7894166736039 16.6482
40.813170699248566 16.5824
40.83692655691388 16.5195
40.86068424804498 16.5649
40.884629402612525 16.554000000000002
40.908390779366385 16.5124
40.932153993938 16.430999999999997
40.95591904777605 16.422
40.979871628443995 16.4192
41.003640379561936 16.4185
41.02741097430883 16.3304
41.05118341413683 16.3313
41.075143444384416 16.3045
41.098919593177826 16.2377
41.1226975914255 16.2159
41.14647744058318 16.2536
41.170444943946755 16.2286
41.19422851378379 16.2004
41.218013938914645 16.1618
41.24198706625173 16.1038
41.26577622087193 16.0579
41.289567235177785 16.0287
41.31336011063129 16.0357
41.337340752422875 15.9951
41.361137369129835 15.9633
41.38493585138705 15.9944
41.40873620066004 15.9304
41.43272438060107 15.9132
41.45652848292052 15.8636
41.48033445666918 15.7739
41.50414230331616 15.7556
41.528138045159764 15.7927
41.551949656675205 15.7578
41.575763145513235 15.6963
41.59957851314666 15.7265
41.62358184070442 15.7541
41.64740098505737 15.7082
41.6712220126409 15.6336
41.69504492493139 15.6218
41.71905586207357 15.5994
41.74288256296395 15.6043
41.766711153007456 15.4983
41.79054163368412 15.4849
41.814560204340054 15.5073
41.838394485526365 15.4991
41.86223066180303 15.4213
41.88625497706819 15.3604
41.910094962812 15.3751
41.93393684811168 15.339
41.95778063445365 15.2813
41.981812625263366 15.2785
42.00566023303407 15.2919
42.029509746323676 15.2443
42.05336116662236 15.2475
42.077400857069705 15.1252
42.10125611078846 15.1462
42.12511327600405 15.1447
42.14897235421036 15.1211
42.173019768448455 15.0905
42.19688269209613 15.077
42.22074753323349 15.0381
42.24461429335818 15.0089
42.268669455600495 15.0701
42.292540073217886 15.033
42.31641261433284 15.0021
42.34028708044675 14.8995
42.36435001496739 14.9103
42.38822835065557 14.9255
42.41210861586426 14.8386
42.4359908120986 14.8466
42.46006154323262 14.7859
42.48394762115317 14.7684
42.507835634632315 14.7199
42.531912233047436 14.7006
42.55580413732265 14.6743
42.579697981698 14.6622
42.60359376768525 14.6348
42.62767820545945 14.5953
42.65157789440821 14.607000000000001
42.67547952952185 14.5863
42.699383112316 14.5705
42.72347541395347 14.5305
42.74738291190531 14.4956
42.771292362102166 14.4653
42.795203766063516 14.4263
42.819303956130405 14.4697
42.843219287476536 14.4025
42.86713657716324 14.4012
42.89105582671383 14.3818
42.91516392983864 14.3364
42.939087119032166 14.3013
42.963012272677304 14.302999999999999
42.98693939230129 14.2711
43.01105543317513 14.1928
43.034986504731386 14.1324
43.05891954686589 14.1504
43.08285456110972 14.1606
43.10697856448665 14.1129
43.130917542983475 14.0944
43.15485849820081 14.0995
43.17880143167367 14.0674
43.20293342237094 13.9874
43.226880332449 13.9863
43.25082922540554 13.9839
43.27496722682525 13.9323
43.29892010567796 13.9653
43.32287497204102 13.9562
43.34683182745632 13.8728
43.370977859791836 13.8232
43.39493871351105 13.7863
43.41890156092628 13.8398
43.44286640358341 13.8109
43.46702049182749 13.7502
43.49098934522816 13.7389
43.51496019852649 13.717
43.5389330532723 13.6403
43.56309522248204 13.6507
43.58707210044314 13.6432
43.61105098451946 13.6276
43.63503187626491 13.6699
43.659202151562134 13.6408
43.68318707902681 13.529000000000002
43.70717401884041 13.5056
43.731162972560874 13.487
43.75534137913236 13.5052
43.779334381108384 13.4573
43.803329401683186 13.4509
43.82732644241872 13.4372
43.8515130055166 13.3973
43.87551410707659 13.347000000000001
43.89951723350145 13.3959
43.923709934595614 13.3055
43.94771713129917 13.3185
43.97172635758096 13.2578
43.99573761501002 13.2557
44.0199385169922 13.2622
44.04395385732619 13.1977
44.067971233533086 13.1913
44.09199064718605 13.2017
44.11619977548961 13.1181
44.14022328470671 13.0968
44.16424883610785 13.1564
44.18827643127035 13.1136
44.21249381139513 13.0153
44.236525514814076 13.0356
44.26055926674478 13.0303
44.28459506876863 12.9897
44.3088207262813 12.9299
44.33286064928722 12.8864
44.35690262714919 12.927
44.38094666145278 12.8739
44.4051806219871 12.8758
44.42922879003185 12.8605
44.45327901929361 12.8126
44.477331311362136 12.7711
44.501573600619416 12.7609
44.525630039221795 12.7121
44.54968854541895 12.7258
44.573937102200176 12.7096
44.5979997645541 12.6969
44.622064499300315 12.654000000000002
44.64613130803592 12.6242
44.67038823869318 12.6543
44.69445921643748 12.6097
44.718532272981385 12.5505
44.742607409926194 12.5717
44.76687274034801 12.5369
44.79095205918753 12.5227
44.81503346325094 12.5225
44.839116954143876 12.4396
44.86339071028742 12.4663
44.88747839599524 12.3805
44.91156817336837 12.3807
44.93566004401666 12.3653
44.959942251908146 12.3366
44.984038330325966 12.3766
45.00813650686762 12.3175
45.03223678314731 12.2589
45.05652746888232 12.2857
45.08063196592069 12.2669
45.104738567558705 12.2172
45.128847275414856 12.1895
45.15314646515866 12.1677
45.17725940679741 12.1538
45.20137445952892 12.1305
45.22568004865265 12.137
45.24979934496396 12.1155
45.27392075725247 12.0873
45.29804428714431 12.0247
45.322358426247604 12.0582
45.346486212804315 12.03
45.370616121861914 12.0231
45.39474815505086 11.9646
45.41907087049246 11.9266
45.4432071734666 11.8837
45.46734560548283 11.9241
45.49148616817604 11.9175
45.51581748638564 11.8573
45.5399623320197 11.8652
45.56410931325473 11.7999
45.58825843173002 11.8326
45.61259837920865 11.7701
45.636751793816 11.7696
45.66090735060093 11.7223
45.68506505120716 11.7063
45.7094136545275 11.6926
45.73357566449271 11.6624
45.75773982322992 11.6361
45.78190613238733 11.638
45.806263418194064 11.6045
45.83043404997326 11.5841
45.85460683713677 11.5478
45.87897065658495 11.564
45.90314777634752 11.5259
45.92732705646868 11.512
45.9515084986045 11.5031
45.97588104735473 11.4834
46.00006683541565 11.4705
46.02425479047904 11.4599
46.04844491420549 11.4317
46.0728262191024 11.3901
46.09702070211635 11.375
46.12121735879483 11.3996
46.14541619080294 11.3518
46.169806278764455 11.3276
46.194009483459034 11.2807
46.21821486849841 11.2596
46.24242243555223 11.229000000000001
46.266821333570014 11.1739
46.29103328674601 11.1712
46.31524742696538 11.1893
46.33946375590237 11.1591
46.36387149104216 11.1288
46.38809221957392 11.0998
46.41231514186606 11.1113
46.436540259597464 11.1038
46.460956858999374 11.0692
46.48518638983522 11.0664
46.509418121166966 11.0105
46.533652054678114 11.0265
46.55807754555709 11.0203
46.58231590571962 10.9314
46.60655647313217 10.9458
46.630988654873654 10.9388
46.655233659129024 10.8864
46.67948087571551 10.88
46.70373030632484 10.8648
46.72817142736393 10.8339
46.752425308428684 10.8555
46.77668140861147 10.8527
46.80093972960865 10.8107
46.82538981736788 10.7454
46.849652602470904 10.7614
46.87391761349769 10.7117
46.8981848521493 10.7708
46.9226439341274 10.6959
46.946915650573224 10.6702
46.97118959976749 10.635
46.99546578341598 10.6071
47.019933887188216 10.6298
47.04421456235744 10.6019
47.06849747711879 10.5775
47.09278263318286 10.5365
47.11725978640143 10.5264
47.14154944775105 10.4727
47.165841355555656 10.478
47.1901355115306 10.4487
47.214621741924994 10.4456
47.23892041698887 10.4247
47.26322134538975 10.4032
47.28771440635075 10.3391
47.31201986422527 10.3985
47.33632758061436 10.3548
47.360637557241866 10.3501
47.38513974410611 10.3025
47.40945426407847 10.267000000000001
47.43377104948137 10.2842
47.45809010204344 10.1987
47.48260144275502 10.2118
47.506925052572285 10.1712
47.53125093475548 10.1561
47.55557909103813 10.1715
47.58009961361992 10.1833
47.60443234110732 10.1524
47.62876734791564 10.1453
47.65310463578333 10.0969
47.6776343683373 10.0803
47.7019762413987 10.0473
47.72632040075572 10.015
47.75066684815169 10.0132
47.77520581885936 9.98269
47.799556865477655 9.99995
47.823910205386 9.97216
47.84826584033272 9.95001
47.87281407745551 9.878160000000001
47.89717432569297 9.94107
47.92153687423484 9.90161
47.94609208429692 9.9088
47.97045925671401 9.86937
47.99482873471275 9.798810000000001
48.01920052005013 9.82832
48.04376504619224 9.81945
48.068141469543484 9.8049
48.09252020552573 9.768289999999999
48.11690125590099 9.73932
48.1414751266064 9.71686
48.16586082917454 9.72155
48.19024885144316 9.68021
48.2146391951793 9.6504
48.239222439012764 9.66959
48.26361744916137 9.68443
48.28801478610016 9.67163
48.31241445160131 9.634319999999999
48.337007097209366 9.64131
48.36141144338331 9.58503
48.38581812345755 9.5513
48.41022713920929 9.57112
48.434829215320704 9.536539999999999
48.45924292604658 9.48853
48.48365897780325 9.50405
48.50807737237308 9.5182
48.532688907799276 9.49437
48.55711201168574 9.42932
48.581537463754074 9.39183
48.60615611725119 9.411430000000001
48.63058628942721 9.39128
48.65501881516546 9.40874
48.6794536962573 9.38627
48.70408185970339 9.3172
48.72852147531801 9.31136
48.75296345168211 9.2736
48.77740779059232 9.33205
48.80204549302823 9.30901
48.82649458091802 9.25998
48.85094603676547 9.2263
48.87539986237231 9.16312
48.90004713292306 9.19613
48.92450572200832 9.24001
48.94896668628025 9.15803
48.97343002754588 9.14705
48.99808689542115 9.14467
49.02255501470614 9.173760000000001
49.04702551642794 9.09472
49.0714984023988 9.09263
49.096164896893235 9.09177
49.120642575466796 9.04373
49.145122643748394 9.05043
49.16960510355558 9.003739999999999
49.19428125404938 9.00376
49.2187685210852 8.99335
49.243258185121555 8.93098
49.26794160167084 8.942680000000001
49.2924360839405 8.94942
49.31693296869764 8.913030000000001
49.34143225776915 8.89065
49.36612538195438 8.86525
49.39062950396021 8.856589999999999
49.41513603578346 8.83147
49.4396449792564 8.82982
49.46434784069503 8.790289999999999
49.488861631846454 8.760819999999999
49.513377840166804 8.77711
49.537896467493745 8.77582
49.56260909589029 8.6971
49.587132585683285 8.69318
49.611658500018365 8.74005
49.636186840738596 8.6923
49.66090926588511 8.664769999999999
49.685442483902584 8.679789999999999
49.70997813385706 8.60543
49.734516217597076 8.58862
49.75924846937352 8.60951
49.7837914452858 8.591619999999999
49.80833686055187 8.572339999999999
49.83288471702571 8.54014
49.85762682540054 8.52781
49.882179588965734 8.541739999999999
49.9067347993235 8.5273
49.93129245833333 8.49098
49.95604445336378 8.49741
49.98060703442832 8.46847
50.005172069746266 8.44587
50.02993150438364 8.44125
50.05450147301533 8.4234
50.07907390151433 8.4013
50.10364879174981 8.35784
50.12841816587289 8.35635
50.1529980044635 8.36341
50.17758031042124 8.326139999999999
50.20216508562089 8.33053
50.22694442953363 8.2901
50.25153416817468 8.28881
50.27612638170508 8.29765
50.300721072005196 8.2529
50.325510416102105 8.234160000000001
50.350110084975064 8.2326
50.37471223628208 8.23134
50.39931687190919 8.18955
50.424116246675766 8.17188
50.44872587605249 8.15563
50.47333799543065 8.1408
50.49795260670191 8.12295
50.52276204271512 8.08256
50.54738166295838 8.07167
50.57200378079314 8.05993
50.596628398116835 8.0613
50.62144792604559 8.05499
50.646077567609396 7.99488
50.670709714377715 8.04092
50.69553683636198 8.02166
50.72017401885922 7.971
50.7448137122895 7.96968
50.76945591856022 7.9645399999999995
50.79429318636823 7.93969
50.818940443716784 7.95015
50.84359021965163 7.897539999999999
50.868242516085964 7.886369999999999
50.893089960641895 7.882060000000001
50.917747323549435 7.8612
50.94240721271973 7.8548800000000005
50.96706963007175 7.83943
50.99192728239342 7.8317
51.01659478166073 7.830760000000001
51.04126481489051 7.82458
51.06593738400761 7.7664
51.090805275207074 7.71657
51.11548294172845 7.732660000000001
51.14016314993547 7.75415
51.164845901758845 7.71922
51.18972406304274 7.678910000000001
51.21441192780656 7.69867
51.23910234200271 7.6835
51.2637953075678 7.6489899999999995
51.288683770237945 7.652660000000001
51.31338186432707 7.628710000000001
51.33808251561888 7.60645
51.362978729967345 7.60659
51.387684521509755 7.586939999999999
51.41239287610203 7.5652
51.437103795691165 7.543760000000001
51.46201036644977 7.482239999999999
51.486726441956634 7.467060000000001
51.51144508832545 7.49448
51.536166307509156 7.5246
51.56108326624387 7.44044
51.58580965706056 7.44528
51.61053862657523 7.4088199999999995
51.635270176746864 7.389310000000001
51.66019755512065 7.391369999999999
51.68493429268881 7.37467
51.70967361681515 7.390510000000001
51.73441552946465 7.344119999999999
51.759353359237934 7.35053
51.7841004750961 7.30381
51.80885018539685 7.27774
51.833602492111254 7.2998
51.8585508051424 7.28435
51.883308330926425 7.28945
51.90806845906181 7.2500100000000005
51.932831191525715 7.196689999999999
51.95779001977161 7.22175
51.98255798721516 7.211410000000001
52.00732856494335 7.1513100000000005
52.03229530577543 7.17312
52.057071130455945 7.16832
52.081849571391054 7.139189999999999
52.106630630568695 7.15994
52.13160794279417 7.07834
52.15639426492067 7.10642
52.18118321127822 7.08655
52.205974783860896 7.080210000000001
52.23096269971011 7.05135
52.255759551287994 7.00634
52.280559035098186 7.0060199999999995
52.30536115314103 7.03954
52.33035970494467 7.02527
52.35516711807904 6.96585
52.37997717147198 6.96333
52.40478986713005 6.968369999999999
52.42979908731974 6.92754
52.454617094216 6.907889999999999
52.47943774942214 6.90572
52.50426105495102 6.898280000000001
52.529280976059844 6.908930000000001
52.554109609024096 6.8762300000000005
52.57894089837482 6.82667
52.60377484613117 6.8377300000000005
52.62880550079408 6.83201
52.65364479223379 6.77117
52.67848674816189 6.777989999999999
52.70352547971946 6.77303
52.72837279155837 6.73389
52.753222773982785 6.72164
52.778075429022984 6.745410000000001
52.80312495150885 6.73375
52.827982978797436 6.718560000000001
52.85284368481815 6.641939999999999
52.87770707160767 6.6855
52.90276741793998 6.660819999999999
52.92763619336701 6.65596
52.952507655698504 6.65995
52.977381806977576 6.62356
53.00245301017842 6.59934
53.02733256653592 6.607239999999999
53.052214817996074 6.605060000000001
53.077099766608484 6.58962
53.102181859804446 6.53045
53.127072229988265 6.56845
53.15196530349892 6.54357
53.17686108239249 6.50402
53.20195409881522 6.53878
53.22685531582556 6.4903699999999995
53.25175924441303 6.4665099999999995
53.27666588664027 6.4369
53.30176985962693 6.41555
53.3266819565689 6.42004
53.35159677336455 6.4134199999999995
53.376514312083096 6.43656
53.40162927507703 6.41619
53.42655228516116 6.39171
53.45147802340193 6.35155
53.47660125628886 6.3561
53.50153247842639 6.35123
53.52646643496923 6.28761
53.55140312799818 6.32065
53.576537409691696 6.33513
53.60147960336152 6.2912099999999995
53.626424539786164 6.27393
53.65137222105307 6.26193
53.67651758529126 6.25165
53.70147078399681 6.2192099999999995
53.72642673383343 6.2333
53.75138543689533 6.20221
53.776541917524526 6.22848
53.801506154876755 6.18123
53.826473151763246 6.16895
53.851442910284916 6.168819999999999
53.87661054126026 6.13058
53.9015858509782 6.11268
53.92656392866066 6.1213
53.95154477641532 6.1151
53.976723591801296 6.02473
54.00171000771266 6.06201
54.02669920004598 6.06233
54.051691170915745 6.018669999999999
54.076881204886796 6.00041
54.101878760928514 6.01127
54.12687910187696 5.92938
54.152077577768296 5.97109
54.1770835166946 5.97091
54.20209224691339 5.93316
54.22710377055121 5.91642
54.25231352511594 5.9116599999999995
54.27733066384342 5.89917
54.30235060239643 5.92667
54.32737334290836 5.89476
54.35259441062629 5.85067
54.377622783395324 5.84277
54.40265396455061 5.81665
54.42768795623251 5.82265
54.45292037169559 5.7927
54.477960012857906 5.80826
54.50300247099511 5.74256
54.52804774825457 5.76164
54.55329154616743 5.7013300000000005
54.57834249018678 5.71929
54.6033962597977 5.6842
54.6284528571545 5.65792
54.653708072335164 5.65573
54.67877035378786 5.63145
54.70383546947698 5.56489
54.72890342156389 5.6329400000000005
54.7541700889442 5.56356
54.77924374251975 5.593430000000001
54.8043202390049 5.5365400000000005
54.82959552413022 5.5181
54.8546777351945 5.4857
54.87976279569621 5.4391300000000005
54.90485070780914 5.44573
54.930137506558005 5.40988
54.95523115074295 5.4447
54.98032765308844 5.41705
55.005427015775496 5.3832699999999996
55.03072536339621 5.3451699999999995
55.05583047570572 5.34771
55.080938454927676 5.32544
55.10604930325027 5.29824
55.131359235107396 5.284730000000001
55.15647585066083 5.26665
55.181595341907496 5.2217
55.20671771104285 5.244330000000001
55.232039262617704 5.2096599999999995
55.25716741665048 5.2245
55.28229845518636 5.207409999999999
55.30743238042802 5.123880000000001
55.33276558731939 5.08185
55.357905315183636 5.10548
55.383047936390035 5.05714
55.40819345314859 4.96886
55.433538351073295 4.97283
55.458689688238415 4.92983
55.483843927614096 4.94181
55.509197623043605 4.97433
55.53435769621134 4.95143
55.55952067826466 4.9118699999999995
55.5846865714265 4.8689599999999995
55.61005202069737 4.85741
55.63522376553902 4.8371
55.66039842818645 4.855919999999999
55.68557601087004 4.80529
55.7109532500271 4.74571
55.73613670233794 4.8142
