TT I
1.2716486653135266 7.87027
1.2939594142134223 7.97457
1.3162702121660406 7.185689999999999
1.3385810600174564 7.59658
1.3608919586137629 7.3572
1.383202908801069 6.8254
1.405513911425503 6.645569999999999
1.4278249673332093 7.21041
1.4501343378461518 6.8183
1.4724455028545926 6.343
1.4947567236847858 6.6517100000000005
1.517068001182951 6.20509
1.5393793361953272 6.33125
1.5616907295681737 5.88469
1.5840021821477681 5.80507
1.60631369478041 5.64335
1.6286252683124185 5.38149
1.6509369035901333 5.644909999999999
1.6732468618895553 5.26348
1.695558623192809 5.12678
1.7178704487808514 5.83169
1.7401823395001077 5.60952
1.7625012545597203 5.12805
1.7848028405262486 5.56441
1.8071218901122095 5.3093900000000005
1.8294236121921872 5.40855
1.8517427996910911 5.45509
1.8740620574440425 5.31152
1.8963639900671978 5.58655
1.9186833908139995 5.63251
1.9409854680117449 4.6959599999999995
1.9633050151394713 5.3801
1.9856246367570705 5.21287
2.0079269371922672 4.71663
2.03024671027244 5.528630000000001
2.0525491637446027 5.4225900000000005
2.074869091674931 5.34277
2.097171701569106 4.987369999999999
2.1194917877373847 4.68766
2.141811954326636 5.20827
2.164114805233074 5.0229
2.186435135143035 5.12753
2.208738150935709 4.47063
2.231058647554722 4.45486
2.2533792288321184 4.6642
2.275682498336085 4.203130000000001
2.298003251406138 4.45076
2.3203066942619714 4.73729
2.3426276225136022 4.36996
2.3649486396617507 4.76892
2.387252348930071 4.42476
2.4095735463442893 4.63605
2.4318774374315884 4.29005
2.4541988185014043 4.448230000000001
2.476502894794693 4.21854
2.498824462909887 5.27186
2.521146125856138 5.13385
2.5434504863470337 4.82026
2.5657723414244717 4.65594
2.588076895590662 5.43406
2.610398946189713 5.531569999999999
2.6327210958598384 4.88322
2.6550259469304716 4.90026
2.6773482972090137 5.54218
2.6996533504259 5.84891
2.7219759047039602 6.11252
2.744298562293959 5.95761
2.7666039251246595 6.37977
2.7889267918020164 6.27604
2.8112323652516555 6.594539999999999
2.833555444408179 7.122839999999999
2.8558786311183852 7.4412899999999995
2.8781845268938557 7.632689999999999
2.9005079311721484 8.591569999999999
2.9228140460410397 8.459660000000001
2.9451376712799635 8.85217
2.967444008632326 9.1745
2.9897678582247247 9.85324
3.0120918213106695 10.9077
3.0343984987899373 11.255999999999998
3.0567226913198637 11.3878
3.079029599759726 11.6811
3.101354025127254 11.838
3.123678568232338 13.4193
3.145985829517914 13.2056
3.16831061055229 13.7702
3.1906181112775593 14.6927
3.212943133635653 14.6713
3.2352682779763207 15.1802
3.2575761442691227 15.9645
3.2799015350264273 16.1055
3.302209649240067 16.7789
3.3245352898092655 17.6326
3.3468436553365257 18.0436
3.369169549113219 18.2944
3.3914955708171384 18.8312
3.413804319727358 19.3995
3.4361305997334863 19.3677
3.4584396084414553 19.5627
3.4807661501462652 20.4594
3.503092824025881 20.7568
3.5254022288463154 21.1612
3.5477291695206588 21.613000000000003
3.5700388426251948 22.0066
3.5923660534916446 22.5482
3.6146934007816114 23.2427
3.637003482731501 23.5493
3.6593311053109985 24.299
3.681641464033634 23.9476
3.7039693653009733 24.4059
3.726297407241705 25.2053
3.7486081875460804 25.2346
3.7709365132734978 25.9185
3.793247578841633 26.2185
3.8155761917550093 27.1345
3.8378875459837216 27.5512
3.8602164494827234 27.8669
3.882545499606844 28.4063
3.9048572932539183 29.2115
3.9271866390645718 29.7726
3.9494987298666713 30.2816
3.971828374764527 30.5095
3.9941581705403255 31.2315
4.016470713506008 31.6514
4.038800813471445 32.2861
4.061113662089144 33.2553
4.0834440696459176 33.7973
4.105774632334751 33.7383
4.128087945865126 34.8836
4.150418821249301 35.2969
4.172732448931298 36.293
4.195063640413578 37.2678
4.2173775856475215 37.8281
4.239709096631102 38.5427
4.262040768704612 38.7811
4.284355196706267 39.7625
4.306687193387355 40.7533
4.329001947444346 41.9572
4.35133427213731 42.8031
4.373666762177566 43.8344
4.395982011761091 44.2126
4.418314834921175 45.2888
4.44063041906622 46.2232
4.4629635787515625 47.3816
4.4852969080429785 48.6368
4.5076130004776225 49.9618
4.529946671403969 50.7579
4.552263106909177 51.7011
4.574597122877047 53.6245
4.596931312711224 54.1219
4.619248269273446 55.3618
4.6415828092605835 56.8503
4.663900117405352 58.3024
4.686235010953232 59.4561
4.708552674085913 60.9195
4.730887924602802 62.6919
4.753223354952695 64.5991
4.775541557023902 65.8869
4.797877349456786 67.2959
4.820195915032126 69.9138
4.842532072957498 71.4771
4.864868414979744 73.4383
4.88718753227192 75.4447
4.909524244902505 78.4598
4.931843734218147 81.5529
4.954180820867835 84.4551
4.976518095879839 88.7655
4.998838149695359 92.3039
5.021175803844231 96.8939
5.043496238205739 101.648
5.065834274903528 108.551
5.088172504230693 115.969
5.1104935158799565 125.185
5.132832132875765 140.69299999999998
5.155153533596801 166.172
5.1774925416746225 248.703
5.199814334878411 777.7439999999999
5.2221537374521505 2231.58
5.244493338631803 3974.59
5.266815727034316 6343.44
5.289155727832427 9883.99
5.311478517248165 9639.19
5.333818921080011 4817.83
5.356159527788849 1262.46
5.3784829252032536 324.383
5.400823940070432 193.36599999999999
5.423147747031976 159.175
5.445489173474152 141.172
5.467830807066149 130.77200000000002
5.490155234831516 124.09899999999999
5.512497285125229 119.397
5.534822130975162 116.35600000000001
5.557164601388673 112.67399999999999
5.579489868738879 109.145
5.601832762690846 107.61
5.6241758697774475 105.77799999999999
5.646501775867269 105.116
5.668845311622074 104.179
5.691171647754637 103.929
5.713515615597765 102.471
5.735859800852677 101.823
5.758186788542988 101.051
5.780531411018185 100.96600000000001
5.802858837297399 100.914
5.825203900414495 101.669
5.8475491852224 103.021
5.869877275883075 104.529
5.892223006467101 107.62100000000001
5.914551544266608 110.995
5.936897724049891 118.54700000000001
5.959244129804903 133.042
5.981573344815301 179.998
6.0039202049061 392.11400000000003
6.026249875609095 894.169
6.04859719346037 1457.67
6.070927323278297 2127.78
6.093275102315365 3364.53
6.115623113320588 4394.87
6.137953938319995 3815.16
6.160302415650845 1649.43
6.182633708324452 447.713
6.2049826554078376 165.28599999999997
6.227331838745022 114.87899999999999
6.249663839443684 98.8686
6.27201349767565 90.6516
6.294345974611799 85.5846
6.316696111167083 81.7569
6.339046488263839 79.1375
6.361379686074702 76.5077
6.383730546639482 75.1048
6.406064229255215 72.5254
6.428415576718203 72.1119
6.450749747566656 70.453
6.47310158535871 69.2495
6.495453669698332 68.6544
6.517788579421056 67.7294
6.540141159237969 66.6746
6.562476565766648 66.1858
6.5848296444934045 65.2635
6.607182974060425 64.3396
6.6295191323281015 64.2186
6.651872965955752 63.2448
6.6742096296068985 62.5066
6.6965639707294615 62.1894
6.71891856698715 61.6697
6.741255995248479 60.8402
6.763611104154477 60.4446
6.785949046381137 59.8968
6.808304671371482 60.1012
6.8306605557940046 59.5239
6.852999275508618 58.8534
6.875355681171544 58.3916
6.897694923437771 58.1961
6.92005185377892 57.9909
6.9423916220322655 57.7231
6.964749080490181 57.4732
6.987106804399774 57.4723
7.009447368180821 57.3523
7.031805625367033 56.4063
7.054146723727803 56.9391
7.076505517631004 56.4339
7.098864581288365 56.5742
7.121206488070854 56.2112
7.143566093607822 56.0024
7.165908543567245 56.2257
7.188268694426048 55.7405
7.2106291193438095 55.488
7.232972390625943 55.8358
7.255333366030969 55.6235
7.277677189091925 55.2333
7.300038718428332 55.3565
7.322400526130865 55.5853
7.344745183422596 55.8663
7.367107550224791 55.6177
7.389452767901992 55.7392
7.411815697249891 55.7519
7.434161478756298 55.5922
7.456524974096713 55.7263
7.478888753837185 56.1266
7.501235387657368 56.5672
7.523599738562711 58.5966
7.545946944825532 61.4599
7.568311870344528 61.4998
7.5906770845765665 59.6033
7.613025156078678 57.868
7.635390950099687 57.5837
7.657739602662809 57.0233
7.680105979923558 56.7912
7.702472650212829 57.6818
7.724822180948224 57.6484
7.747189439655568 57.8736
7.769539560075357 58.0307
7.791907410653562 58.8999
7.81425812420825 58.706
7.836626570110925 59.188
7.858995315087906 59.9675
7.881346924933401 60.027
7.903716270417482 60.64
7.926068482028405 61.2605
7.948438431475253 62.1422
7.9708086843180235 62.6595
7.993161805171116 62.9854
8.015532667162402 63.6788
8.037886398416653 64.6943
8.060257873014221 64.9833
8.082629655331942 65.6866
8.104984308787587 66.4608
8.127356708900503 67.4566
8.149711981398308 68.441
8.172085002766314 69.1955
8.194458336181368 70.0927
8.216814543847752 71.3587
8.23918850371002 73.1146
8.26154533906492 74.6112
8.283919928836452 76.0573
8.306277395339652 77.1341
8.328652618483376 79.0042
8.351028159736202 81.3002
8.373386579575245 83.9459
8.395762759396959 86.6058
8.418121819038275 90.165
8.440498640894003 95.71600000000001
8.462875785192262 105.70200000000001
8.485235811156207 136.553
8.507613602688501 253.058
8.529974277114228 454.41
8.552352719347912 621.355
8.574731488360351 767.637
8.59709314210385 1012.65
8.619472567021075 1385.41
8.64183487789147 1830.73
8.664214962183097 1940.09
8.686577933647762 1339.39
8.708958680784317 621.636
8.731339760774953 256.643
8.753703729764451 140.766
8.77608547780821 113.381
8.798450116065078 106.22200000000001
8.820832535634787 100.915
8.843215292401656 98.1566
8.865580941199045 95.8936
8.887964374703538 94.2844
8.910330701447199 92.9848
8.932714815164482 91.9813
8.955099270424924 90.4852
8.977466620733543 89.8804
8.999851761421976 89.3753
9.022219798361645 88.5033
9.04460562795561 88.6474
9.066991803441677 87.7609
9.089360876979615 87.633
9.111747746589993 87.4751
9.13411751544971 87.1764
9.156505082664324 86.5904
9.178875550323522 86.7753
9.20126381862328 87.2773
9.223652438908596 91.0432
9.246023961427412 94.9506
9.26841328802173 94.156
9.290785518039224 91.4483
9.313175554425882 89.1515
9.335565947154315 87.7372
9.357939245086508 87.8451
9.380330352834827 87.6719
9.40270436697103 87.7364
9.425096193225055 87.7314
9.447488380180165 89.1867
9.469863475295412 89.2212
9.492256385987508 89.4332
9.514632206018318 90.1458
9.537025843935714 90.54700000000001
9.559402392368193 91.3318
9.581796761000229 92.565
9.604191496441521 93.1508
9.626569144158516 93.4521
9.648964615551032 93.9963
9.671343000390081 94.8988
9.693739211225699 96.1258
9.716135793237463 97.1297
9.738515290448102 98.4127
9.760912617143402 99.7095
9.783292860202891 100.986
9.805690935076182 102.54799999999999
9.828089385495742 103.865
9.850470754023561 106.471
9.872869957865444 108.681
9.89525208097539 112.015
9.917652041736662 117.141
9.940052382417589 127.29799999999999
9.962435644102392 166.895
9.984836746950979 269.409
10.007220771957746 423.536
10.029622640473708 553.436
10.052007432299963 653.1709999999999
10.074410069984072 772.552
10.096813093716005 992.455
10.119199042482517 1316.32
10.141602840636468 1665.82
10.163989564971628 1740.92
10.186394141051062 1291.73
10.208799107559706 669.622
10.231187001965623 304.564
10.253592751657669 163.238
10.275981430388155 127.48
10.298387966769793 118.902
10.320794897965431 115.60799999999999
10.343184759907361 113.39399999999999
10.36559248305461 111.859
10.387983138083852 111.779
10.410391656691655 120.90899999999999
10.432800574501677 150.069
10.455192425893369 189.74900000000002
10.47760214443012 222.33
10.499994797678786 244.16099999999997
10.522405320453982 275.442
10.54479877906917 329.584
10.567210109595656 407.404
10.5896218454736 492.684
10.612016518879773 531.501
10.634429067781074 436.642
10.656824555333241 284.505
10.679237920773568 176.347
10.701651695961992 116.259
10.724048411481384 98.8612
10.746463008485165 93.6622
10.768860546937125 90.7065
10.791275969274796 88.4427
10.81369180576079 87.0833
10.836090585366925 85.34100000000001
10.858507252467449 84.0901
10.88090686379991 82.8078
10.903324365036394 81.8423
10.925724811614439 80.7895
10.948143150509463 80.5017
10.970561909719066 79.3093
10.992963615930844 78.5269
11.015383218085756 77.6664
11.037785768347074 76.6086
11.06020621697282 76.1345
11.082627090322113 75.3797
11.105030913430326 74.6318
11.12745263854165 74.0077
11.149857314510728 73.2599
11.172279894912576 73.2028
11.194702904450653 72.1921
11.217108866490921 71.3381
11.239532736615194 71.1472
11.26193956033512 71.2133
11.284364294577085 70.6811
11.306789462371718 70.2846
11.329197585398376 69.8635
11.351623622610898 69.9317
11.37403261614354 68.8715
11.396459526308487 69.0069
11.418869393879497 68.6801
11.441297180532617 68.2789
11.463725406927658 67.5256
11.486136592353875 67.4258
11.508565700543707 66.9235
11.530977768845315 66.88600000000001
11.553407762368774 66.5665
11.575838200059769 66.2042
11.598251599479612 66.3525
11.620682927815501 66.3027
11.64309721895548 66.1729
11.665529441478206 66.1049
11.687962112597958 65.7752
11.710377748130886 65.7523
11.732811318753434 65.6666
11.755227854859067 65.2761
11.777662328529495 65.3574
11.800079768750786 65.2131
11.822515149015453 65.1389
11.844950984084935 65.5959
11.867369787303163 65.1619
11.889806534289491 65.6427
11.912226250487029 66.3711
11.934663912939751 67.4154
11.9571020346363 67.6565
11.979523127133968 67.7611
12.001962169624331 68.7219
12.024384183972964 70.6681
12.046824150809913 76.9834
12.069264581333726 88.0035
12.091687985297767 96.9136
12.11412934550045 103.344
12.136553680195208 109.00299999999999
12.158995973632788 119.255
12.181438735204349 134.184
12.20386447284199 153.963
12.226308172985636 179.42
12.24873485024193 197.42700000000002
12.271179492516982 190.08700000000002
12.293607112949127 156.112
12.316052700916226 114.75399999999999
12.338498763250042 85.4988
12.360927805303868 71.9271
12.383374818673879 68.41
12.405804812803074 67.15899999999999
12.428252780773262 67.2991
12.45070122756722 67.3384
12.473132656675375 67.0254
12.49558206341869 67.5138
12.518014453510101 67.3333
12.540464823770117 67.2658
12.562915677315177 67.3518
12.58534951575545 67.9301
12.607801338171472 67.76899999999999
12.630236146511358 68.0229
12.652688941369085 68.65899999999999
12.675124723177234 68.9442
12.697578494048786 69.6992
12.720032754458185 69.6727
12.742470003354093 70.2277
12.764925245138771 70.8722
12.787363476431278 71.2907
12.809819703166806 71.4661
12.83227642391173 72.1796
12.854716135692716 72.7521
12.877173846755147 74.1491
12.899614549869717 74.4762
12.9220732548287 75.6395
12.94453245827299 76.2551
12.966974655289818 77.308
12.989434858002571 78.0077
13.011878055298721 79.171
13.034339260862497 80.2395
13.056800969391883 82.1784
13.079245674017244 85.1956
13.101708390774869 88.77799999999999
13.12415410463411 101.71
13.146617833206086 127.134
13.169064559883248 151.16
13.191529303857127 168.71900000000002
13.213994557076367 181.382
13.236442809902437 196.53099999999998
13.258909083908291 220.577
13.28135835851934 252.86700000000002
13.30382565690295 296.658
13.326293469022952 355.792
13.348744283242008 405.346
13.371213125129904 401.5
13.39366497011003 334.07300000000004
13.416134845360597 237.475
13.438605238843131 161.405
13.46105863690397 128.171
13.483530069144786 130.412
13.505984506951902 146.219
13.528456981549432 160.066
13.550929978879088 168.53799999999998
13.573385983253365 177.054
13.595860028340867 191.699
13.618317081455832 215.24400000000003
13.64079217790333 248.176
13.663250283359057 290.33799999999997
13.685726434770173 336.102
13.708203115221277 360.611
13.730662806148091 325.395
13.75314054697177 250.907
13.775601299246777 176.114
13.798080104050406 120.404
13.820559442405358 95.7898
13.843021793671388 88.3969
13.865502201420897 85.2779
13.887965623051947 84.4891
13.910447103807167 83.0844
13.932929122629764 81.6617
13.955394156785959 81.4058
13.977877254034569 80.1263
14.000343367582113 79.1625
14.022827546871707 78.565
14.045294743423524 77.6524
14.06778000837062 76.8672
14.090265817715476 77.0353
14.112734645763819 76.7673
14.13522154619454 76.8494
14.157691466286913 76.8721
14.180179461423874 76.1622
14.202668005486178 75.2567
14.22513957064374 74.7227
14.247629214846473 74.3392
14.270101881097517 73.7364
14.29259262906496 73.4594
14.315083930490205 73.4298
14.337558255389705 73.2764
14.360050666019726 72.9339
14.382526101071944 72.6643
14.405019624534942 72.4717
14.427513705993134 72.3239
14.449990813291825 72.1953
14.47248601302899 72.3993
14.49496423954951 72.5462
14.517460561197822 72.5732
14.539939910570322 72.3721
14.562437357763558 72.3985
14.58493536931253 72.8668
14.607416409993311 72.9143
14.62991555254159 73.1654
14.652397725157423 73.3939
14.674898002342799 73.7117
14.697398848433282 74.0284
14.719882725991326 75.3577
14.74238471217934 77.8807
14.764869730765593 84.6475
14.787372860692983 94.0404
14.809876564079925 103.499
14.83236330125751 110.43299999999999
14.854868153850365 114.63799999999999
14.877356041159485 120.131
14.899862046604186 127.87899999999999
14.922351087688757 139.668
14.944858249632887 154.32
14.967365991421232 174.52
14.989856770231246 197.655
15.012365673994204 215.243
15.03485761569738 211.275
15.05736768508665 182.635
15.07987833888692 145.171
15.102372032001655 110.96
15.124883856909658 87.8902
15.14737872204565 78.4474
15.169891721717274 74.8873
15.192405310371893 73.9483
15.214901940621196 73.4463
15.237416709527137 72.5497
15.259914520936249 72.3771
15.282430473753607 71.3529
15.304947020131227 70.7433
15.327446610371178 70.3195
15.349964346154254 70.2733
15.372465126703139 70.1383
15.394984055556009 70.1081
15.417486030076159 69.9493
15.44000615566487 69.559
15.462526881230803 69.503
15.485030653812652 69.32300000000001
15.507552581617434 69.12100000000001
15.530057557334603 69.2618
15.55258069104857 69.4154
15.575104429329837 69.7086
15.597611216864632 69.6957
15.620136166564563 70.1687
15.6426441664095 71.9586
15.665170331202765 77.1338
15.687697105158826 85.0358
15.710206930593545 92.8277
15.732734925158933 98.2302
15.755245972089478 101.684
15.77777519094324 104.936
15.800287463046663 110.235
15.822817909869592 118.40899999999999
15.84534897229804 128.929
15.867863089299354 143.482
15.890395385222186 160.19899999999998
15.912910736597423 179.083
15.935444269699861 188.26
15.957978423016485 178.111
15.980495633101265 152.893
16.003031029129367 122.49799999999999
16.02554948280019 93.10700000000001
16.048086125229432 76.4227
16.070623392487107 69.4577
16.09314371869582 66.6077
16.11568223789321 65.0722
16.13820381691126 64.4514
16.160743591742527 63.9414
16.183283996022084 63.2717
16.205807461423195 62.4282
16.228349126881973 61.8298
16.25087385432698 61.6335
16.27341678466365 61.0222
16.29594277784926 60.7918
16.31848697676433 60.1745
16.341031811604868 59.7108
16.36355971058487 59.6883
16.3861058195587 59.2232
16.40863499352978 58.8203
16.431182380342005 58.8269
16.453730407713202 58.5291
16.476261501364792 58.4772
16.498810812136167 58.2478
16.52134319004079 58.2929
16.54389378792203 57.934
16.566445031001553 57.9534
16.588979342490088 57.8177
16.61153187824822 57.4508
16.634067483263312 57.4999
16.656621315414416 57.3244
16.679175797408888 56.9946
16.701713349928728 57.1177
16.72426913389191 57.2195
16.74680798922351 57.245
16.76936507887444 57.2124
16.791905240734874 57.0567
16.814463639794468 57.0523
16.837022695210294 57.1918
16.859564824093756 57.5779
16.882125194503903 57.3469
16.904668639217885 57.6684
16.927230328348003 57.5931
16.949792678493612 57.8749
16.972338104193863 57.8808
16.994901778652235 57.9989
17.017448529496576 58.1709
17.040013531998152 58.6208
17.06257920018044 59.8346
17.0851279459922 61.364
17.107694947817667 63.2169
17.130245028099072 64.4185
17.15281336730298 65.3992
17.17536478578733 66.1037
17.19793446610687 67.0544
17.220504818648422 68.3663
17.243058251703697 69.8397
17.265629950971032 72.1941
17.288184731571736 75.5625
17.310757781306908 79.9076
17.33333150794385 82.9687
17.355888317140174 84.9228
17.37846339986244 83.7807
17.401021565958885 79.2095
17.42359800851343 73.6107
17.44617513265564 68.5416
17.468735341390783 64.7848
17.491261035594565 62.7226
17.51396340099364 61.9764
17.536490463869136 62.0883
17.559018209820174 61.9323
17.58154663977963 61.9568
17.604251766089718 62.2679
17.626781572227713 62.5577
17.64931206518155 62.6575
17.671843245885103 63.0157
17.69455114821572 63.181999999999995
17.717083712612634 63.5922
17.739616967569667 64.1063
17.762150914021706 64.6596
17.78486160749854 64.7161
17.807396945166804 65.6376
17.829932977143503 67.1068
17.85246970436452 69.9487
17.875183204129467 74.5141
17.897721330097664 78.9948
17.920260154126645 82.3239
17.942799677153296 84.8085
17.9655159983646 86.3594
17.988056927677544 88.3305
18.010598558807683 92.0181
18.033140892692916 96.7685
18.05586005052525 102.3
18.07840379824407 109.932
18.10094825154059 120.152
18.12366954819864 132.173
18.146215420998306 142.493
18.16876200220057 145.373
18.191309292745153 139.07299999999998
18.214033452627167 125.859
18.236582170236648 109.57700000000001
18.259131600016456 97.1316
18.281681742907335 90.8327
18.304408781233683 89.6121
18.32696035875955 91.0371
18.349512652227624 94.2391
18.372065662579683 99.4235
18.394795594587553 103.583
18.41735004715306 105.85
18.43990521943684 103.541
18.46246111238171 97.1541
18.485193953325208 87.7014
18.507751296070428 78.3947
18.530309362314178 71.959
18.552868153000343 68.0503
18.57560391815056 65.794
18.59816416623245 65.1419
18.620725141597372 64.5589
18.643286845190268 63.7672
18.666025549835414 63.416000000000004
18.688588718427933 62.7594
18.711152618092243 62.7794
18.73389353884365 62.5524
18.75645890921984 62.1463
18.77902501351406 61.6453
18.801591852673102 61.6028
18.824335739722738 61.1753
18.846904057212626 61.123000000000005
18.8694731124168 60.7681
18.89204290628315 60.7418
18.914789774966803 60.6846
18.937361054791623 60.1824
18.959933076131318 59.9707
18.982505839934877 59.8297
19.00525570560582 59.9322
19.027829963004184 59.3089
19.05040496572238 59.4537
19.072980714710468 59.8291
19.095733592739563 60.4338
19.11831084296757 61.2663
19.140888842324735 62.2931
19.16346759176222 62.5311
19.18622349753803 63.0063
19.208803755869358 63.5524
19.231384767143577 63.9287
19.253966532312948 64.6826
19.276725481241822 65.6015
19.29930876296784 66.6148
19.3218928014549 68.1276
19.34465404436217 70.124
19.36723960516257 72.4483
19.389825925592426 74.5707
19.412413006605938 76.2242
19.43517731967805 75.9039
19.457765930683355 73.9626
19.48035530514408 69.8353
19.50294544401556 65.1456
19.525712842708348 61.4666
19.54830451925909 59.0533
19.570896963095727 57.4661
19.593490175174704 56.7894
19.616260674962184 56.6729
19.638855432416964 56.1759
19.661450960992624 56.4168
19.68404726164677 56.288999999999994
19.706820878021247 55.9554
19.729418731756834 56.1118
19.752017360452857 55.9273
19.77461676506804 56.2033
19.797393513540218 56.6268
19.819994478951667 57.1506
19.84259622316767 57.9954
19.8651987471481 58.7897
19.887978643247177 59.0957
19.91058273574792 59.4471
19.933187610901943 59.7945
19.955969879466828 60.3537
19.97857632894404 61.1122
20.00118356396599 61.8688
20.023791585494575 62.9376
20.046577028914875 64.9645
20.069186632506966 67.253
20.091797025500632 69.5101
20.114408208858933 71.793
20.137196842715273 73.4555
20.159809615886765 73.6119
20.18242318232135 71.6284
20.20503754298326 69.2574
20.227829382875154 66.7712
20.250445341109344 64.7272
20.27306209647285 63.8576
20.29567964993108 63.8153
20.31847471147704 64.64699999999999
20.34109387027612 65.8676
20.363713830075454 67.0494
20.386334591841646 67.3329
20.409132890679302 66.0706
20.431755265564437 63.5555
20.454378445325528 60.6749
20.477002430930366 57.8041
20.499803982716553 55.4859
20.522429589228004 53.9807
20.54505600449589 53.2678
20.567683229489194 53.1114
20.590488049900088 52.6963
20.61311690359731 52.6214
20.63574656993626 52.3874
20.658553853717297 52.1086
20.681185154618298 52.2514
20.703817271080066 52.0044
20.72645020407368 51.6146
20.749260783967177 51.3945
20.771895359337133 51.4309
20.794530754161617 51.3468
20.817166969412938 51.443999999999996
20.83998086114876 51.388000000000005
20.86261872660049 51.1517
20.885257415405402 51.0496
20.90789692853701 51.0438
20.930714147864748 51.032
20.953355319030678 51.0936
20.97599731745334 51.3813
20.99864014410749 51.187
21.021460706796564 51.3334
21.044105199328826 51.4103
21.06675052302631 51.5427
21.089396678865015 51.5787
21.112220600704806 51.8768
21.134868430275347 51.9809
21.15751709492456 51.7719
21.180166595629693 51.9405
21.202993892429635 52.3396
21.22564507473034 52.4932
21.24829709602816 52.8766
21.27112693608965 53.4133
21.293780644891275 53.8181
21.316435195634053 53.4971
21.339090589297417 52.9666
21.361923832041875 52.6667
21.384580921090404 51.7413
21.407238856007325 51.1344
21.429897637773326 50.9818
21.45273429906592 50.9997
21.475394784108598 50.8644
21.498056118951983 50.7749
21.520718304578022 51.0766
21.543558400304388 51.1477
21.566222297108816 51.375
21.58888704765135 51.8699
21.61155265291521 52.4706
21.63439619898156 53.4016
21.657063523335786 53.9616
21.67973170537063 54.298
21.7024007460706 54.7407
21.72524775840385 55.0355
21.747918526116475 55.2487
21.770590155457388 55.9771
21.79326264741238 56.9479
21.816113141960237 57.9021
21.838787368860547 59.3469
21.861462461341976 60.531000000000006
21.884315579735777 62.3784
21.90699241312273 64.036
21.92967011506078 65.4155
21.95234868653799 66.8271
21.9752053151131 67.1036
21.997885635446785 65.9881
22.020566828293532 64.0849
22.04324889464272 61.6661
22.066109049404666 59.1762
22.088792872571794 57.7168
22.111477572219204 57.3117
22.1341631493376 57.6434
22.157026846313123 58.0883
22.179714188221507 58.1767
22.202402410582668 57.6062
22.22509151438863 56.6013
22.24795876962584 55.2683
22.270649646204486 53.8973
22.293341407213727 52.8999
22.316034053646906 52.0507
22.338904883215342 51.4934
22.36159931041458 51.4153
22.38429462602756 51.1879
22.40699083104897 50.8602
22.429865251039757 50.9285
22.452563244831367 50.8922
22.47526213102522 50.9148
22.49813925616515 50.8926
22.520839937143307 51.0226
22.543541513520587 50.9862
22.56624398629403 50.8789
22.589124730075895 50.8391
22.611829005656723 51.0791
22.63453418063466 51.1234
22.657240256008077 51.7054
22.680124634582935 52.1621
22.70283252079775 52.5684
22.725541310413075 52.8669
22.74825100442868 53.2075
22.771139033969575 53.3637
22.79385054687155 53.2272
22.81656296718292 53.6292
22.83927629590484 53.9046
22.862167992606945 54.5243
22.88488314827121 55.038000000000004
22.907599215359284 55.6807
22.93031619487366 56.371
22.953211574954405 57.1492
22.975930389478226 58.2427
22.998650119445763 59.3418
23.02137076586092 59.534
23.044269845560063 59.3817
23.06699233506288 58.446999999999996
23.089715744034912 56.9681
23.112617610931565 55.3189
23.135342869061212 53.5391
23.158069049684816 52.4189
23.1807961538087 51.525
23.20370174880544 51.4002
23.226430710184808 51.3042
23.249160598093425 51.5371
23.271891413539002 51.9501
23.294800752937697 52.2537
23.31753343374794 52.53
23.340267045128353 52.574
23.36300158808808 52.8843
23.38591468821339 52.8524
23.408651104658304 52.885
23.431388455719986 53.2042
23.454126742409 53.5618
23.4770436196085 53.8748
23.499783787914662 54.7359
23.522524894889884 55.06100000000001
23.54526694154616 55.6351
23.56818761219047 56.7783
23.59093154860734 57.72
23.613676427751283 58.9655
23.636422250635754 59.2802
23.659346731118656 58.9923
23.68209445191868 58.1106
23.704843119509587 56.0958
23.72759273490623 54.1145
23.750521041644767 52.0655
23.77327256312355 50.4678
23.796025035462787 49.4443
23.818956224555475 48.6672
23.841710609113413 48.5087
23.86446594758979 48.0864
23.887222241002014 47.8618
23.910157285144578 47.3418
23.932915498962537 47.4829
23.955674670778713 47.2982
23.978434801611975 47.1879
24.001373717286125 46.9305
24.024135776723917 46.9593
24.046898798245582 46.6354
24.06966278287146 46.5638
24.092605586582614 46.3079
24.115371508023642 46.2232
24.1381383956401 46.1674
24.16090625045381 45.9767
24.183852958731244 46.0272
24.206622758582608 45.9149
24.229393528706886 45.6728
24.252165270127392 45.9225
24.27511589952438 45.7476
24.297889594216997 45.4438
24.32066426328598 45.3772
24.34343990775613 45.3586
24.36639447485003 45.2278
24.38917208083877 45.2061
24.41195066531332 45.1273
24.43490819850244 45.093
24.457688750692377 44.8489
24.48047028445616 44.9481
24.503252800821233 45.1404
24.526214300784112 45.0844
24.548998793132213 44.8745
24.57178427117417 44.7553
24.59457073593893 44.9802
24.617536219319863 44.9356
24.64032466834748 44.9948
24.663114107195035 44.8353
24.685904536893013 44.6802
24.708874020360852 44.583999999999996
24.731666442613744 44.6195
24.754459858818787 44.303000000000004
24.777254270007962 44.2914
24.80022777025625 44.1612
24.82302418230472 44.2358
24.845821592443674 44.4752
24.86862000170663 44.3047
24.891597535453727 44.1864
24.914397953892728 44.5353
24.93719937456671 44.3726
24.96000179851076 44.443999999999996
24.98298338249997 44.726000000000006
25.00578782394922 44.8657
25.028593271784167 45.0726
25.05157790644186 45.4408
25.07438537804115 45.3677
25.097193859145293 45.4371
25.120003350792075 45.5685
25.142992065061257 45.7915
25.165803588823465 46.0514
25.18861612625217 46.3135
25.211429678386736 46.4422
25.234422489079968 46.5631
25.257238081693636 46.5782
25.280054692141732 46.5533
25.3028723214652 46.3392
25.325869245420463 46.4571
25.348688923599397 46.3612
25.371509623787006 46.4428
25.394331347025812 46.5012
25.41733240110666 46.4213
25.440156181590016 45.8802
25.46298098826268 45.6933
25.48580682216873 45.1354
25.50881202326435 44.4293
25.53163992281684 43.8502
25.55446885274561 43.316
25.577298814096377 43.0042
25.600308179121807 42.7659
25.623140214533745 42.8792
25.64597328451537 42.7921
25.66898578564376 42.5303
25.691820936010206 42.5551
25.714657124097695 42.5127
25.737494350954734 42.5254
25.760511045684957 42.5209
25.783350361364224 42.4419
25.806190718969255 42.5206
25.82903211955018 42.5248
25.852053024868923 42.7096
25.874896522722523 42.6887
25.897741066713106 42.4814
25.920586657892454 42.5872
25.943611790812668 42.6468
25.966459487728237 42.7295
25.989308234998564 42.5925
26.01215803367705 42.8617
26.03518741123814 42.9202
26.05803932412957 42.9144
26.080892291600094 43.1425
26.10374631470478 43.1791
26.12677995397268 43.303000000000004
26.14963609978026 43.6294
26.172493304397875 43.336000000000006
26.19535156888223 43.402
26.218389486949604 43.1283
26.241249882640123 42.9525
26.26411134137826 42.5874
26.28715248187403 42.5565
26.31001607820869 42.2153
26.3328807407756 42.0694
26.35574647063438 42.1269
26.37879191991473 42.0563
26.401659795896734 42.1164
26.424528742360263 42.2555
26.447398760366614 42.368
26.470448535598294 42.396
26.49332070826805 42.4911
26.516193955675355 42.7278
26.53906827888316 42.8075
26.562122397260108 42.8817
26.584998883685063 43.0597
26.607876449110325 43.2781
26.63075509460056 43.4196
26.65381357334404 43.6551
26.67669439061878 43.8389
26.699576291163382 43.8402
26.722459276044212 43.917
26.745522132402975 43.7611
26.768407297649354 43.5477
26.791293550442003 43.1169
26.814180891848974 42.9629
26.837248143099337 42.4837
26.860137673466657 42.5098
26.88302829566349 42.1769
26.90592001075963 42.1842
26.92899167420566 42.0291
26.951885586870763 41.5493
26.974780595655517 41.478
26.99785558178161 41.2908
27.020752794605112 40.9357
27.043651106772522 40.7763
27.06655051935668 40.8052
27.089629948036183 40.6246
27.112531573292053 40.5434
27.135434302194138 40.645
27.158338135817015 40.4066
27.181422024430987 40.3739
27.204328079372566 40.2637
27.22723524226965 40.3936
27.250143514198573 40.4017
27.273231880156334 40.4667
27.296142382065014 40.1588
27.319053996245536 40.153
27.341966723775965 40.3684
27.365059584515222 40.336
27.38797455070062 40.2006
27.410890633481237 39.9366
27.433807833936918 40.1087
27.456905206923906 40.2712
27.47982465472398 40.1704
27.502745223449743 40.1638
27.525666914182825 40.3379
27.548768816912457 40.2602
27.571692763693633 40.4217
27.59461783573812 40.2343
27.617723149491244 40.0682
27.640650484125285 40.1252
27.66357894728264 40.1395
27.686508540048052 40.1647
27.709618414237887 39.9659
27.732550278321757 39.85
27.755483275279115 39.7145
27.778417406196485 39.724000000000004
27.801531858397514 39.7345
27.824468269376716 39.674
27.847405817586786 39.6515
27.870344504116094 39.6981
27.893463551932008 39.6978
27.916404527281053 39.8807
27.93934664422563 39.9849
27.962289903855886 39.891999999999996
27.98541356491974 40.1488
28.00835912214229 40.1499
28.03130582533231 40.3421
28.054253675581805 40.5388
28.077381967556104 40.4759
28.100332124185126 40.5879
28.123283431160893 40.6278
28.146235889577238 40.6491
28.169368830154156 40.467
28.192323603752033 40.3076
28.215279532083304 39.8647
28.238415973016764 39.7558
28.261374223145094 39.6875
28.284333631303806 39.4462
28.307294198589954 39.3812
28.330435319167677 39.0028
28.353398217078915 38.8161
28.376362277420153 38.5102
28.39932750129032 38.2577
28.422473319286713 38.1187
28.44544088262495 38.1529
28.468409612800283 38.07
28.491379510913497 37.6696
28.51453004413313 37.6529
28.53750229057244 37.6081
28.56047570826344 37.5156
28.583450298308804 37.6029
28.606605564586562 37.3133
28.629582511831156 37.3757
28.65256063474956 37.2708
28.675539934446338 37.2115
28.698699951647605 37.1684
28.72168161743193 37.1063
28.74466446331978 37.0863
28.767648490417624 37.0346
28.790813276438353 36.902
28.813799678527303 36.9705
28.836787265157085 36.9338
28.859955641890075 36.9849
28.882945610203045 36.8656
28.905936766392035 36.8858
28.928929111566863 36.9524
28.952102288520145 36.9029
28.975097024308607 36.8219
28.998092952423807 36.6276
29.021090073977508 36.6933
29.04426806913204 36.552
29.067267590245258 36.3632
29.090268308143695 36.2502
29.11327022394099 36.2258
29.13645305530891 36.0733
29.159457379627167 36.0131
29.18246290519685 35.8839
29.20546963313352 35.8981
29.22865731875826 35.8751
29.25166646419296 35.8195
29.27467681535305 35.6548
29.29768837335608 35.6263
29.320880931312562 35.6247
29.34389491580634 35.5824
29.366910110507334 35.580999999999996
29.38992651653503 35.7242
29.41312396492981 35.6869
29.436142806456754 35.6178
29.45916286268059 35.6448
29.48236399319994 35.5159
29.50538649169417 35.4159
29.528410208259935 35.4105
29.55143514402014 35.1991
29.574641196749695 35.0015
29.597668583816574 34.8525
29.6206971934585 34.7874
29.64372702680042 34.7144
29.666938019934474 34.5549
29.689970313635285 34.525999999999996
29.713003834422636 34.4168
29.73603858342347 34.4926
29.759254535188578 34.4143
29.78229175361658 34.2738
29.80533020365064 34.3873
29.82836988641968 34.4205
29.85159081507472 34.281
29.874632976355343 34.3167
29.89767637376955 34.3267
29.920721008448314 34.1529
29.9439469322847 34.1347
29.96699405457564 34.0922
29.9900424175358 34.0913
30.013092022298157 34.0281
30.03632295963995 33.9042
30.059375061131373 33.8525
30.08242840783577 33.9286
30.105483000888153 33.9504
30.128718970092244 33.8129
30.151776069006917 33.8707
30.17483441768648 33.8491
30.198074175317235 33.8461
30.221135036724256 33.7947
30.24419715131772 33.751
30.267260520236203 33.6285
30.290505341942243 33.7254
30.313571232750228 33.8315
30.336638381310948 33.7856
30.35970678876503 33.8421
30.38295669299435 33.7935
30.40602763151657 33.7611
30.429099832366074 33.6894
30.452173296685572 33.5666
30.47542830191959 33.493
30.498504306502497 33.4237
30.521581577995562 33.5664
30.544660117543582 33.6301
30.56792024229725 33.6224
30.59100133132069 33.4905
30.614083691845494 33.5904
30.637167325018545 33.6067
30.660432587840603 33.5035
30.683518779717886 33.3565
30.70660624769615 33.4901
30.729694992924372 33.5308
30.75296541239743 33.5871
30.77605672557558 33.5007
30.799149319462742 33.6248
30.8224236211637 33.558
30.845518789950724 33.3158
30.868615242910597 33.3202
30.891712981195973 33.1226
30.91499247215866 33.0943
30.938092794619365 33.0914
30.96119440587579 33.0076
30.984297307082752 32.8479
31.00758200598383 32.7664
31.030687500658694 32.7262
31.053794288760695 32.6073
31.076902371446767 32.4586
31.100192296997445 32.6034
31.12330298246119 32.578
31.14641496599209 32.4218
31.169528248749216 32.4048
31.19282341969534 32.2832
31.215939314557186 32.3128
31.239056512134788 32.5097
31.262175013589378 32.2453
31.28547544871168 32.2482
31.30859657161541 32.1437
31.331719001892175 32.3658
31.35484274070538 32.3289
31.378148458819545 32.2559
31.401274828443725 32.1399
31.424402510106933 32.1666
31.447712205419993 32.1903
31.470842524931633 32.075
31.493974159989783 32.0935
31.51710711176168 32.104
31.54042212308802 32.0901
31.563557722100917 32.123000000000005
31.586694641341655 31.9728
31.609832881979628 31.989
31.63315322823208 32.0094
31.656294125521327 31.8145
31.679436347728515 31.7487
31.70257989602529 31.645
31.725905596152327 31.6168
31.74905181052835 31.4798
31.772199354521323 31.537
31.79534822930507 31.5094
31.818679302290967 31.4962
31.84183085259981 31.5059
31.864983737233473 31.4022
31.88813795736804 31.3764
31.911474422233013 31.3112
31.934631327356435 31.3904
31.9577895715215 31.4062
31.980949155906522 31.3067
32.004291031706956 31.3835
32.027453310562606 31.2643
32.05061693318573 31.1777
32.07396288236386 31.1343
32.09712920658542 31.0905
32.12029687812702 30.9544
32.14346589817093 30.9749
32.166817291729984 30.9114
32.18998902288583 30.881
32.21316210610336 30.7465
32.23633654256711 30.660999999999998
32.259693399663725 30.6912
32.282870556771144 30.4653
32.30604907069099 30.4303
32.329228942610065 30.4575
32.35259128243769 30.2867
32.375773884550505 30.2918
32.398957848235646 30.2664
32.422143174682176 30.1439
32.445511016471215 30.1066
32.468699082679954 30.0596
32.49188851523011 30.0373
32.51507931531304 29.9398
32.538452678331 29.9494
32.56164622776311 29.8657
32.58484114831493 29.8145
32.60803744118015 29.8102
32.631416344731896 29.8246
32.654615396551876 29.7334
32.67781582427913 29.7182
32.701198898634416 29.6296
32.72440209253756 29.5346
32.747606665947124 29.5146
32.77081262006088 29.4802
32.79420126883317 29.4805
32.81740999876112 29.5513
32.840620112999424 29.335
32.86383161274818 29.3279
32.88722585534586 29.3591
32.91044014056596 29.3478
32.933655814909734 29.2914
32.95687287957963 29.3055
32.98027273544904 29.1764
33.00349259526636 29.1253
33.026713849030116 29.1285
33.04993649794511 29.1298
33.073341986570746 29.0165
33.09656744032826 29.0221
33.11979429286444 29.1369
33.14302254538647 29.0419
33.166433686291185 28.9335
33.18966475336992 28.8506
33.212897224069096 28.7845
33.23613109959831 28.8861
33.259547912343415 28.8035
33.2827846121627 28.8332
33.306022720453775 28.7146
33.32926223842861 28.6551
33.352684742614166 28.6761
33.37592709463173 28.5498
33.399170859982064 28.5723
33.422597648419426 28.5885
33.44584425514446 28.3293
33.46909227885668 28.3226
33.4923417207723 28.2571
33.51577423505344 28.1721
33.539026528130385 28.1684
33.56228024307245 28.1173
33.585535381098246 27.9981
33.60897364093058 27.9288
33.63223163992385 27.9888
33.6554910656699 27.8068
33.678751919389796 27.8571
33.702195944520106 27.8003
33.72545966903325 27.7058
33.74872482519663 27.6858
33.771991414233746 27.7453
33.79544122444841 27.6442
33.81871069412428 27.5643
33.84198160035767 27.5287
33.86525394437455 27.613000000000003
33.88870955949969 27.5777
33.911984794020626 27.5421
33.93526147001624 27.4537
33.958539588715006 27.4376
33.98200102861669 27.359
34.0052820477047 27.2435
34.02856451319451 27.2645
34.05203033759056 27.2353
34.07531571090147 27.2759
34.09860253431845 27.1731
34.121890809074316 27.0901
34.145362493118924 27.0704
34.16865368561615 26.9258
34.191946333164054 26.9319
34.21524043699793 26.9406
34.23871800066799 26.8393
34.26201503218366 26.8161
34.28531352370466 26.7545
34.30861347646881 26.6921
34.33209693978188 26.7594
34.3553998301885 26.6951
34.378704185565205 26.6202
34.402010007152356 26.5363
34.42549939016683 26.5404
34.44880815937748 26.4071
34.472118398533134 26.4497
34.49543010887669 26.3864
34.51892543169198 26.2473
34.54224009966052 26.3022
34.56555624255917 26.3408
34.58887386163339 26.2104
34.61237514439016 26.1305
34.6356957311114 26.0375
34.65901779775809 26.0462
34.68252356662995 26.0832
34.705848608458616 25.9784
34.72917513396849 26.0145
34.75250314440949 25.9366
34.77601490857862 25.7789
34.799345904259795 25.7985
34.82267838863559 25.8459
34.846012362958525 25.8171
34.869530142679984 25.7581
34.89286711232212 25.6517
34.91620557568269 25.6499
34.93954553401677 25.6331
34.9630693495876 25.5187
34.986412313340814 25.6047
35.00975677584668 25.6277
35.033102738362956 25.5234
35.05663261012228 25.4059
35.0799815881786 25.4371
35.10333207003229 25.506999999999998
35.12668405694369 25.4306
35.150220005273056 25.3443
35.17357501786656 25.3092
35.19693153931268 25.2627
35.220289570874385 25.2708
35.24383161619786 25.2263
35.267192683604904 25.1249
35.290555264930376 25.1617
35.314101899412165 25.0783
35.33746752422433 25.1186
35.36083466676374 25.1205
35.38420332829803 25.0048
35.407756095629054 25.0128
35.43112781085063 25.0328
35.45450104888391 24.9475
35.477875810999194 24.9964
35.50143473172161 24.8882
35.52481255774625 25.0798
35.54819191167777 24.9681
35.57157279478914 24.8495
35.595137889488406 24.8017
35.61852184675279 24.7871
35.641907337029984 24.7113
35.665294361595684 24.6912
35.68886565090076 24.6122
35.7122557598848 24.564
35.73564740699838 24.5923
35.759040593519934 24.4947
35.78261809810353 24.4802
35.80601437933051 24.4505
35.829412203814705 24.3649
35.85281157283719 24.3081
35.876395313415884 24.3044
35.8997977874528 24.2508
35.92320180988546 24.2574
35.946790244133936 24.1227
35.97019737933222 24.1428
35.993606066789866 24.0947
36.01701630779276 24.0566
36.04061101440684 23.9795
36.06402437852291 24.0406
36.08743930005611 24.0567
36.1108557802951 23.9095
36.13445678011326 23.9294
36.15787639383515 23.989
36.18129757014299 23.8694
36.20472031032821 23.755
36.22832762423364 23.7783
36.25175350829375 23.7722
36.275180960119776 23.6374
36.298609981005924 23.7247
36.32222362992669 23.6374
36.34565580510207 23.6347
36.36908955323448 23.5087
36.39252487562093 23.4302
36.416144880530226 23.3936
36.43958336764275 23.4279
36.463023432914625 23.4569
36.486465077645676 23.3585
36.51009145956204 23.3837
36.53353627947859 23.3499
36.55698268276811 23.2744
36.58043067073321 23.2766
36.60406345072071 23.1355
36.62751462435344 23.1514
36.65096738658405 23.2269
36.67460498210655 23.1676
36.69806093788647 23.1775
36.72151848619297 23.0465
36.744977628333636 22.9879
36.76862165890998 22.9237
36.79208400512205 22.951
36.81554794910557 22.9698
36.83901349217101 22.8648
36.862663978991606 22.7752
36.88613273667352 22.8218
36.90960309738324 22.799
36.933075062434064 22.753
36.95673202673572 22.6424
36.98020721697122 22.6197
37.003684015502365 22.5881
37.027162423645365 22.544
37.050825886711465 22.5803
37.07430753063053 22.4411
37.09779078812467 22.4987
37.121275660513014 22.3981
37.144945643673694 22.3742
37.16843376245278 22.3249
37.19192350009803 22.3386
37.215414857931435 22.2633
37.239091382563885 22.2123
37.262585997426164 22.1541
37.28608223645736 22.1714
37.309763684451696 22.1495
37.33326318851098 22.0963
37.356764320726555 22.1698
37.380267082425526 22.143
37.40395510942588 22.0475
37.42746114683234 21.9508
37.45096881771841 21.8989
37.474478123414166 21.8393
37.49817275092816 21.8779
37.52168534303452 21.8565
37.54519957395567 21.7293
37.568715445024665 21.7056
37.592416694607714 21.7158
37.61593586281424 21.6882
37.63945667518264 21.7375
37.66297913304891 21.6201
37.68668702630454 21.7078
37.710212792059274 21.6091
37.733740207334854 21.534000000000002
37.757269273470364 21.5499
37.780983832050374 21.4833
37.80451621684926 21.4883
37.82805025654007 21.4194
37.851585952464795 21.3707
37.8753071980695 21.3059
37.89884622345676 21.3065
37.92238690911902 21.1931
37.94611318753442 21.1538
37.969657210779765 21.2566
37.99320289834801 21.1587
38.016750251586465 21.1196
38.04048325513017 21.0682
38.06403395679343 20.9727
38.087586328183946 21.0363
38.11114037065203 21.0227
38.13488012115898 20.9538
38.1584375229181 20.9043
38.181996599821 20.784000000000002
38.205557353221124 20.8609
38.229303872575656 20.8096
38.2528679961576 20.7414
38.27643380031219 20.6892
38.30000128639589 20.6558
38.32375459653193 20.6806
38.34732546371299 20.6175
38.37089801690786 20.6078
38.39447225747609 20.5656
38.418232380377425 20.5518
38.441810012983396 20.5199
38.46538933705673 20.4953
38.488970353960084 20.4489
38.51273731166058 20.372
38.536321731567014 20.3266
38.55990784840681 20.3494
38.58367995004091 20.3303
38.60726947812959 20.2575
38.63086070726198 20.3312
38.654453638806274 20.2568
38.678232613930824 20.1844
38.70182896773327 20.0367
38.72542702806741 20.1072
38.7490267963045 20.1124
38.77281266709232 20.0861
38.79641586862214 19.9892
38.8200207821842 19.8908
38.843627409152944 19.9426
38.86742019782782 19.9186
38.891030269149255 19.8262
38.914642058016156 19.8718
38.938255565806124 19.8461
38.96205529464307 19.7638
38.98567225787121 19.7634
39.00929094417078 19.7808
39.03291135492255 19.7607
39.05671804624804 19.719
39.080341923549106 19.6838
39.103967529460334 19.6575
39.127594865365744 19.5705
39.15140854155791 19.5177
39.17503935514948 19.5632
39.19867190290282 19.5078
39.22249083587951 19.5117
39.24612686969409 19.4726
39.269764641845306 19.4351
39.293404153722804 19.4025
39.317230110864074 19.2874
39.34087311998506 19.2632
39.36451787301696 19.3002
39.388164371352595 19.233
39.41199737518003 19.2587
39.43564738196752 19.2017
39.45929913825317 19.1601
39.48295264543308 19.1447
39.506792718520884 19.0743
39.530449745387216 19.0503
39.55410852735203 18.9965
39.57776906581474 19.0369
39.60161623079 18.9528
39.625280300200025 18.8996
39.64894613032202 18.8844
39.67261372255866 18.9249
39.6964680021016 18.8624
39.72013913657293 18.8473
39.74381203738292 18.8377
39.76748670593756 18.8313
39.79134812278169 18.752
39.81502634488497 18.7512
39.83870633896685 18.7562
39.862388106436654 18.6843
39.88625668336918 18.6067
39.90994201572829 18.619
39.933629125719285 18.5446
39.957503091207826 18.559
39.9811937746168 18.5503
40.00488623990914 18.4609
40.02858048850006 18.4113
40.05246165409549 18.4389
40.076159487492085 18.3777
40.099859108448875 18.3797
40.123560518384345 18.3169
40.1474489070226 18.3295
40.171153913178564 18.3364
40.194860712584955 18.2715
40.2185693066637 18.2718
40.242464941335314 18.1765
40.26617714307655 18.1833
40.289891143772046 18.1143
40.3136069448471 18.0872
40.33750984859743 18.0438
40.3612292688043 18.0261
40.3849504936829 18.012
40.40867352466194 18.01
40.43258372059144 17.9865
40.45631038219906 17.9836
40.48003885420956 17.8994
40.503769138055105 17.8586
40.52768664931955 17.832
40.55142057531802 17.8398
40.57515631746428 17.7792
40.599079334038514 17.7948
40.62281872700477 17.744
40.64655994043941 17.7046
40.67030297578061 17.7187
40.69423334835778 17.629
40.71798004609188 17.6261
40.74172857006355 17.5375
40.76547892171441 17.5395
40.7894166736039 17.5977
40.813170699248566 17.5421
40.83692655691388 17.4466
40.86068424804498 17.4585
40.884629402612525 17.4313
40.908390779366385 17.4286
40.932153993938 17.35
40.95591904777605 17.3436
40.979871628443995 17.3165
41.003640379561936 17.3119
41.02741097430883 17.3051
41.05118341413683 17.1962
41.075143444384416 17.2489
41.098919593177826 17.2367
41.1226975914255 17.1469
41.14647744058318 17.1202
41.170444943946755 17.0772
41.19422851378379 17.0598
41.218013938914645 17.0048
41.24198706625173 17.0221
41.26577622087193 16.9482
41.289567235177785 16.8971
41.31336011063129 16.8787
41.337340752422875 16.8217
41.361137369129835 16.8926
41.38493585138705 16.8865
41.40873620066004 16.8204
41.43272438060107 16.7624
41.45652848292052 16.7156
41.48033445666918 16.6939
41.50414230331616 16.7038
41.528138045159764 16.715999999999998
41.551949656675205 16.5885
41.575763145513235 16.5348
41.59957851314666 16.498
41.62358184070442 16.5692
41.64740098505737 16.5018
41.6712220126409 16.4775
41.69504492493139 16.4107
41.71905586207357 16.426
41.74288256296395 16.38
41.766711153007456 16.3716
41.79054163368412 16.3456
41.814560204340054 16.3241
41.838394485526365 16.3654
41.86223066180303 16.2633
41.88625497706819 16.2125
41.910094962812 16.25
41.93393684811168 16.237000000000002
41.95778063445365 16.1481
41.981812625263366 16.1665
42.00566023303407 16.1353
42.029509746323676 16.0554
42.05336116662236 15.9944
42.077400857069705 15.952
42.10125611078846 16.0241
42.12511327600405 15.9477
42.14897235421036 15.927999999999999
42.173019768448455 15.9489
42.19688269209613 15.8768
42.22074753323349 15.8785
42.24461429335818 15.8117
42.268669455600495 15.8307
42.292540073217886 15.7662
42.31641261433284 15.7465
42.34028708044675 15.7534
42.36435001496739 15.709000000000001
42.38822835065557 15.6917
42.41210861586426 15.6158
42.4359908120986 15.6368
42.46006154323262 15.5784
42.48394762115317 15.5471
42.507835634632315 15.5905
42.531912233047436 15.511
42.55580413732265 15.4974
42.579697981698 15.4643
42.60359376768525 15.4031
42.62767820545945 15.4206
42.65157789440821 15.3628
42.67547952952185 15.374
42.699383112316 15.3415
42.72347541395347 15.3302
42.74738291190531 15.2366
42.771292362102166 15.2729
42.795203766063516 15.1983
42.819303956130405 15.1323
42.843219287476536 15.1754
42.86713657716324 15.1633
42.89105582671383 15.1399
42.91516392983864 15.0574
42.939087119032166 15.0029
42.963012272677304 14.9884
42.98693939230129 15.0394
43.01105543317513 15.0081
43.034986504731386 14.9152
43.05891954686589 14.9842
43.08285456110972 14.8966
43.10697856448665 14.857000000000001
43.130917542983475 14.8355
43.15485849820081 14.8394
43.17880143167367 14.8163
43.20293342237094 14.7703
43.226880332449 14.7682
43.25082922540554 14.7522
43.27496722682525 14.7544
43.29892010567796 14.7134
43.32287497204102 14.6602
43.34683182745632 14.6122
43.370977859791836 14.6169
43.39493871351105 14.5852
43.41890156092628 14.5719
43.44286640358341 14.5309
43.46702049182749 14.5124
43.49098934522816 14.4542
43.51496019852649 14.4419
43.5389330532723 14.4416
43.56309522248204 14.4034
43.58707210044314 14.3892
43.61105098451946 14.3204
43.63503187626491 14.349
43.659202151562134 14.285
43.68318707902681 14.2758
43.70717401884041 14.2849
43.731162972560874 14.2259
43.75534137913236 14.2014
43.779334381108384 14.1767
43.803329401683186 14.1532
43.82732644241872 14.0874
43.8515130055166 14.1053
43.87551410707659 14.0752
43.89951723350145 14.0944
43.923709934595614 14.0552
43.94771713129917 14.0333
43.97172635758096 14.0087
43.99573761501002 14.004000000000001
44.0199385169922 13.9625
44.04395385732619 13.9347
44.067971233533086 13.952
44.09199064718605 13.8375
44.11619977548961 13.7999
44.14022328470671 13.8345
44.16424883610785 13.8082
44.18827643127035 13.8443
44.21249381139513 13.7799
44.236525514814076 13.7746
44.26055926674478 13.7001
44.28459506876863 13.6881
44.3088207262813 13.6535
44.33286064928722 13.6049
44.35690262714919 13.5898
44.38094666145278 13.6087
44.4051806219871 13.583
44.42922879003185 13.5385
44.45327901929361 13.5044
44.477331311362136 13.5113
44.501573600619416 13.4732
44.525630039221795 13.3898
44.54968854541895 13.4297
44.573937102200176 13.4469
44.5979997645541 13.3333
44.622064499300315 13.3278
44.64613130803592 13.3551
44.67038823869318 13.3472
44.69445921643748 13.2972
44.718532272981385 13.254000000000001
44.742607409926194 13.2596
44.76687274034801 13.2025
44.79095205918753 13.1512
44.81503346325094 13.1727
44.839116954143876 13.1304
44.86339071028742 13.1104
44.88747839599524 13.0783
44.91156817336837 13.0852
44.93566004401666 13.0569
44.959942251908146 13.0773
44.984038330325966 13.0223
45.00813650686762 12.9637
45.03223678314731 12.9414
45.05652746888232 12.8923
45.08063196592069 12.9066
45.104738567558705 12.9062
45.128847275414856 12.869000000000002
45.15314646515866 12.8181
45.17725940679741 12.8063
45.20137445952892 12.7897
45.22568004865265 12.7141
45.24979934496396 12.7436
45.27392075725247 12.6885
45.29804428714431 12.7051
45.322358426247604 12.6539
45.346486212804315 12.6107
45.370616121861914 12.6268
45.39474815505086 12.6106
45.41907087049246 12.5721
45.4432071734666 12.5667
45.46734560548283 12.5689
45.49148616817604 12.5527
45.51581748638564 12.4881
45.5399623320197 12.4712
45.56410931325473 12.4455
45.58825843173002 12.440999999999999
45.61259837920865 12.3991
45.636751793816 12.4025
45.66090735060093 12.3702
45.68506505120716 12.3175
45.7094136545275 12.3378
45.73357566449271 12.3308
45.75773982322992 12.274000000000001
45.78190613238733 12.2574
45.806263418194064 12.2032
45.83043404997326 12.1838
45.85460683713677 12.2568
45.87897065658495 12.2091
45.90314777634752 12.1498
45.92732705646868 12.106
45.9515084986045 12.0435
45.97588104735473 12.0807
46.00006683541565 12.0698
46.02425479047904 12.0143
46.04844491420549 12.0531
46.0728262191024 12.0361
46.09702070211635 11.9791
46.12121735879483 11.9674
46.14541619080294 11.9204
46.169806278764455 11.8659
46.194009483459034 11.8939
46.21821486849841 11.8658
46.24242243555223 11.8523
46.266821333570014 11.8432
46.29103328674601 11.8111
46.31524742696538 11.7974
46.33946375590237 11.727
46.36387149104216 11.7278
46.38809221957392 11.6846
46.41231514186606 11.6813
46.436540259597464 11.6713
46.460956858999374 11.6471
46.48518638983522 11.6438
46.509418121166966 11.6293
46.533652054678114 11.5504
46.55807754555709 11.5433
46.58231590571962 11.5485
46.60655647313217 11.538
46.630988654873654 11.5058
46.655233659129024 11.4457
46.67948087571551 11.462
46.70373030632484 11.417
46.72817142736393 11.4246
46.752425308428684 11.419
46.77668140861147 11.4212
46.80093972960865 11.3344
46.82538981736788 11.322000000000001
46.849652602470904 11.2866
46.87391761349769 11.2476
46.8981848521493 11.2457
46.9226439341274 11.2609
46.946915650573224 11.2262
46.97118959976749 11.231
46.99546578341598 11.1857
47.019933887188216 11.1761
47.04421456235744 11.126
47.06849747711879 11.0997
47.09278263318286 11.128
47.11725978640143 11.0535
47.14154944775105 11.0569
47.165841355555656 11.0437
47.1901355115306 11.0417
47.214621741924994 11.0183
47.23892041698887 10.9641
47.26322134538975 10.9578
47.28771440635075 10.9736
47.31201986422527 10.9563
47.33632758061436 10.8856
47.360637557241866 10.8461
47.38513974410611 10.8688
47.40945426407847 10.8504
47.43377104948137 10.8066
47.45809010204344 10.7898
47.48260144275502 10.770999999999999
47.506925052572285 10.734000000000002
47.53125093475548 10.741
47.55557909103813 10.6961
47.58009961361992 10.6713
47.60443234110732 10.6743
47.62876734791564 10.615
47.65310463578333 10.6184
47.6776343683373 10.6013
47.7019762413987 10.5834
47.72632040075572 10.5737
47.75066684815169 10.5668
47.77520581885936 10.5193
47.799556865477655 10.4979
47.823910205386 10.4872
47.84826584033272 10.5002
47.87281407745551 10.4165
47.89717432569297 10.453
47.92153687423484 10.4461
47.94609208429692 10.3949
47.97045925671401 10.3785
47.99482873471275 10.3523
48.01920052005013 10.3578
48.04376504619224 10.3373
48.068141469543484 10.3175
48.09252020552573 10.2864
48.11690125590099 10.2667
48.1414751266064 10.2493
48.16586082917454 10.252
48.19024885144316 10.2089
48.2146391951793 10.1818
48.239222439012764 10.1988
48.26361744916137 10.1398
48.28801478610016 10.1334
48.31241445160131 10.1414
48.337007097209366 10.1563
48.36141144338331 10.0896
48.38581812345755 10.0404
48.41022713920929 10.0414
48.434829215320704 10.038
48.45924292604658 10.0337
48.48365897780325 10.0205
48.50807737237308 9.97632
48.532688907799276 9.9813
48.55711201168574 9.935369999999999
48.581537463754074 9.93688
48.60615611725119 9.93478
48.63058628942721 9.907639999999999
48.65501881516546 9.87166
48.6794536962573 9.851280000000001
48.70408185970339 9.83157
48.72852147531801 9.80294
48.75296345168211 9.80612
48.77740779059232 9.78116
48.80204549302823 9.782210000000001
48.82649458091802 9.7669
48.85094603676547 9.75827
48.87539986237231 9.73589
48.90004713292306 9.69888
48.92450572200832 9.6829
48.94896668628025 9.65335
48.97343002754588 9.638760000000001
48.99808689542115 9.637319999999999
49.02255501470614 9.60732
49.04702551642794 9.60464
49.0714984023988 9.58303
49.096164896893235 9.5509
49.120642575466796 9.56985
49.145122643748394 9.52566
49.16960510355558 9.47893
49.19428125404938 9.47259
49.2187685210852 9.44873
49.243258185121555 9.463389999999999
49.26794160167084 9.41037
49.2924360839405 9.37618
49.31693296869764 9.362680000000001
49.34143225776915 9.35425
49.36612538195438 9.356530000000001
49.39062950396021 9.36294
49.41513603578346 9.33642
49.4396449792564 9.29092
49.46434784069503 9.28738
49.488861631846454 9.25272
49.513377840166804 9.25902
49.537896467493745 9.21175
49.56260909589029 9.23578
49.587132585683285 9.23473
49.611658500018365 9.23259
49.636186840738596 9.184389999999999
49.66090926588511 9.14963
49.685442483902584 9.13256
49.70997813385706 9.10668
49.734516217597076 9.0907
49.75924846937352 9.0756
49.7837914452858 9.07145
49.80833686055187 9.051160000000001
49.83288471702571 9.01645
49.85762682540054 9.02455
49.882179588965734 8.967319999999999
49.9067347993235 8.9807
49.93129245833333 8.97428
49.95604445336378 8.955210000000001
49.98060703442832 8.911480000000001
50.005172069746266 8.88663
50.02993150438364 8.8417
50.05450147301533 8.88307
50.07907390151433 8.85923
50.10364879174981 8.85217
50.12841816587289 8.842310000000001
50.1529980044635 8.820969999999999
50.17758031042124 8.79721
50.20216508562089 8.76427
50.22694442953363 8.740739999999999
50.25153416817468 8.74265
50.27612638170508 8.72874
50.300721072005196 8.67128
50.325510416102105 8.67635
50.350110084975064 8.656939999999999
50.37471223628208 8.65755
50.39931687190919 8.62862
50.424116246675766 8.60718
50.44872587605249 8.59934
50.47333799543065 8.59861
50.49795260670191 8.613669999999999
50.52276204271512 8.54504
50.54738166295838 8.53824
50.57200378079314 8.51805
50.596628398116835 8.507
50.62144792604559 8.48884
50.646077567609396 8.461319999999999
50.670709714377715 8.45692
50.69553683636198 8.46065
50.72017401885922 8.40901
50.7448137122895 8.42108
50.76945591856022 8.39725
50.79429318636823 8.37202
50.818940443716784 8.359589999999999
50.84359021965163 8.34366
50.868242516085964 8.32901
50.893089960641895 8.298210000000001
50.917747323549435 8.272039999999999
50.94240721271973 8.27325
50.96706963007175 8.22086
50.99192728239342 8.26478
51.01659478166073 8.218010000000001
51.04126481489051 8.21317
51.06593738400761 8.2094
51.090805275207074 8.191239999999999
51.11548294172845 8.13278
51.14016314993547 8.141739999999999
51.164845901758845 8.12645
51.18972406304274 8.09169
51.21441192780656 8.09464
51.23910234200271 8.0735
51.2637953075678 8.04101
51.288683770237945 8.0371
51.31338186432707 8.01591
51.33808251561888 8.00567
51.362978729967345 8.00489
51.387684521509755 7.97317
51.41239287610203 7.9567
51.437103795691165 7.94831
51.46201036644977 7.927910000000001
51.486726441956634 7.89815
51.51144508832545 7.91114
51.536166307509156 7.88732
51.56108326624387 7.85515
51.58580965706056 7.8308
51.61053862657523 7.79965
51.635270176746864 7.77725
51.66019755512065 7.75501
51.68493429268881 7.7358899999999995
51.70967361681515 7.754589999999999
51.73441552946465 7.7403
51.759353359237934 7.739339999999999
51.7841004750961 7.7206600000000005
51.80885018539685 7.716710000000001
51.833602492111254 7.68518
51.8585508051424 7.664289999999999
51.883308330926425 7.657660000000001
51.90806845906181 7.62835
51.932831191525715 7.61211
51.95779001977161 7.565980000000001
51.98255798721516 7.58818
52.00732856494335 7.5839
52.03229530577543 7.5533600000000005
52.057071130455945 7.5446100000000005
52.081849571391054 7.55638
52.106630630568695 7.53034
52.13160794279417 7.47405
52.15639426492067 7.46231
52.18118321127822 7.469110000000001
52.205974783860896 7.417510000000001
52.23096269971011 7.4288
52.255759551287994 7.390610000000001
52.280559035098186 7.35378
52.30536115314103 7.36343
52.33035970494467 7.375089999999999
52.35516711807904 7.3542
52.37997717147198 7.31238
52.40478986713005 7.30577
52.42979908731974 7.3301300000000005
52.454617094216 7.28855
52.47943774942214 7.2572600000000005
52.50426105495102 7.275530000000001
52.529280976059844 7.271610000000001
52.554109609024096 7.214119999999999
52.57894089837482 7.2340800000000005
52.60377484613117 7.214589999999999
52.62880550079408 7.20235
52.65364479223379 7.14757
52.67848674816189 7.1425399999999994
52.70352547971946 7.14248
52.72837279155837 7.12282
52.753222773982785 7.0622300000000005
52.778075429022984 7.09479
52.80312495150885 7.0597
52.827982978797436 7.0315
52.85284368481815 7.05525
52.87770707160767 7.029739999999999
52.90276741793998 7.01452
52.92763619336701 7.015560000000001
52.952507655698504 6.99764
52.977381806977576 6.97432
53.00245301017842 6.9347199999999996
53.02733256653592 6.919969999999999
53.052214817996074 6.91949
53.077099766608484 6.930689999999999
53.102181859804446 6.90643
53.127072229988265 6.86975
53.15196530349892 6.86977
53.17686108239249 6.866619999999999
53.20195409881522 6.8509199999999995
53.22685531582556 6.824739999999999
53.25175924441303 6.8087
53.27666588664027 6.807689999999999
53.30176985962693 6.78119
53.3266819565689 6.770989999999999
53.35159677336455 6.72892
53.376514312083096 6.72779
53.40162927507703 6.75305
53.42655228516116 6.74535
53.45147802340193 6.679069999999999
53.47660125628886 6.68625
53.50153247842639 6.7030199999999995
53.52646643496923 6.625089999999999
53.55140312799818 6.67045
53.576537409691696 6.6748199999999995
53.60147960336152 6.60847
53.626424539786164 6.59103
53.65137222105307 6.54788
53.67651758529126 6.54701
53.70147078399681 6.5338199999999995
53.72642673383343 6.54241
53.75138543689533 6.493530000000001
53.776541917524526 6.47484
53.801506154876755 6.48417
53.826473151763246 6.478280000000001
53.851442910284916 6.43654
53.87661054126026 6.4579
53.9015858509782 6.40996
53.92656392866066 6.4359
53.95154477641532 6.45486
53.976723591801296 6.42507
54.00171000771266 6.40051
54.02669920004598 6.35801
54.051691170915745 6.339580000000001
54.076881204886796 6.3274099999999995
54.101878760928514 6.321969999999999
54.12687910187696 6.28199
54.152077577768296 6.2676099999999995
54.1770835166946 6.24191
54.20209224691339 6.23848
54.22710377055121 6.25331
54.25231352511594 6.20315
54.27733066384342 6.18927
54.30235060239643 6.18886
54.32737334290836 6.18352
54.35259441062629 6.1010599999999995
54.377622783395324 6.1047199999999995
54.40265396455061 6.1409199999999995
54.42768795623251 6.08229
54.45292037169559 6.02801
54.477960012857906 6.0114
54.50300247099511 6.0221
54.52804774825457 6.01168
54.55329154616743 5.97952
54.57834249018678 5.9217
54.6033962597977 5.94912
54.6284528571545 5.86837
54.653708072335164 5.86334
54.67877035378786 5.82069
54.70383546947698 5.8214
54.72890342156389 5.85102
54.7541700889442 5.8172
54.77924374251975 5.79401
54.8043202390049 5.74822
54.82959552413022 5.7434
54.8546777351945 5.72542
54.87976279569621 5.74256
54.90485070780914 5.7266900000000005
54.930137506558005 5.68133
54.95523115074295 5.64591
54.98032765308844 5.63194
55.005427015775496 5.61192
55.03072536339621 5.60424
55.05583047570572 5.53714
55.080938454927676 5.56771
55.10604930325027 5.56271
55.131359235107396 5.5307900000000005
55.15647585066083 5.45866
55.181595341907496 5.4230599999999995
55.20671771104285 5.404669999999999
55.232039262617704 5.4051
55.25716741665048 5.38804
55.28229845518636 5.36017
55.30743238042802 5.27462
55.33276558731939 5.28325
55.357905315183636 5.21844
55.383047936390035 5.18577
55.40819345314859 5.16978
55.433538351073295 5.180619999999999
55.458689688238415 5.20869
55.483843927614096 5.12788
55.509197623043605 5.1238
55.53435769621134 5.051080000000001
55.55952067826466 5.0569
55.5846865714265 5.05273
55.61005202069737 5.02762
55.63522376553902 5.0233300000000005
55.66039842818645 4.983630000000001
55.68557601087004 4.98694
55.7109532500271 4.93476
55.73613670233794 4.996580000000001
