TT I
1.2716486653135266 6.72663
1.2939594142134223 6.44613
1.3162702121660406 5.84128
1.3385810600174564 5.99086
1.3608919586137629 6.19148
1.383202908801069 5.96587
1.405513911425503 4.945930000000001
1.4278249673332093 6.22433
1.4501343378461518 5.82346
1.4724455028545926 5.16978
1.4947567236847858 5.2575199999999995
1.517068001182951 4.9351400000000005
1.5393793361953272 5.3105199999999995
1.5616907295681737 5.26543
1.5840021821477681 5.77334
1.60631369478041 5.087269999999999
1.6286252683124185 4.08202
1.6509369035901333 3.9364800000000004
1.6732468618895553 4.76546
1.695558623192809 4.28531
1.7178704487808514 4.696219999999999
1.7401823395001077 4.30701
1.7625012545597203 4.35195
1.7848028405262486 4.3082199999999995
1.8071218901122095 4.17783
1.8294236121921872 3.58445
1.8517427996910911 4.12182
1.8740620574440425 4.42793
1.8963639900671978 4.4134400000000005
1.9186833908139995 4.79179
1.9409854680117449 4.27347
1.9633050151394713 3.96699
1.9856246367570705 3.87698
2.0079269371922672 3.91796
2.03024671027244 3.92571
2.0525491637446027 3.8192199999999996
2.074869091674931 4.091480000000001
2.097171701569106 4.24965
2.1194917877373847 4.20735
2.141811954326636 4.65468
2.164114805233074 3.9903699999999995
2.186435135143035 3.76519
2.208738150935709 4.59861
2.231058647554722 6.096
2.2533792288321184 6.3665
2.275682498336085 5.2028
2.298003251406138 5.15433
2.3203066942619714 5.471080000000001
2.3426276225136022 6.01674
2.3649486396617507 5.61965
2.387252348930071 5.62681
2.4095735463442893 5.24069
2.4318774374315884 5.44055
2.4541988185014043 6.22574
2.476502894794693 6.4412199999999995
2.498824462909887 6.99458
2.521146125856138 6.9805399999999995
2.5434504863470337 7.43619
2.5657723414244717 7.7797
2.588076895590662 8.461689999999999
2.610398946189713 8.662289999999999
2.6327210958598384 8.0428
2.6550259469304716 7.385089999999999
2.6773482972090137 7.861839999999999
2.6996533504259 8.33398
2.7219759047039602 8.78454
2.744298562293959 7.9227300000000005
2.7666039251246595 7.6804
2.7889267918020164 8.54266
2.8112323652516555 8.15141
2.833555444408179 8.73422
2.8558786311183852 8.20187
2.8781845268938557 9.45725
2.9005079311721484 9.14248
2.9228140460410397 8.93701
2.9451376712799635 9.18089
2.967444008632326 9.826
2.9897678582247247 9.57516
3.0120918213106695 10.1288
3.0343984987899373 10.8622
3.0567226913198637 10.3049
3.079029599759726 10.9774
3.101354025127254 11.4417
3.123678568232338 12.6881
3.145985829517914 12.6182
3.16831061055229 12.955
3.1906181112775593 14.1712
3.212943133635653 14.618
3.2352682779763207 14.6642
3.2575761442691227 14.8747
3.2799015350264273 14.9143
3.302209649240067 15.311
3.3245352898092655 15.7259
3.3468436553365257 16.6805
3.369169549113219 16.7049
3.3914955708171384 17.665
3.413804319727358 17.9094
3.4361305997334863 18.169
3.4584396084414553 18.5144
3.4807661501462652 18.9789
3.503092824025881 19.7142
3.5254022288463154 19.8431
3.5477291695206588 20.3607
3.5700388426251948 20.6773
3.5923660534916446 21.4736
3.6146934007816114 22.0951
3.637003482731501 27.2858
3.6593311053109985 29.9064
3.681641464033634 26.1159
3.7039693653009733 23.4286
3.726297407241705 23.7241
3.7486081875460804 24.1228
3.7709365132734978 24.6722
3.793247578841633 25.2079
3.8155761917550093 25.6398
3.8378875459837216 25.5145
3.8602164494827234 26.247
3.882545499606844 26.6234
3.9048572932539183 27.1958
3.9271866390645718 27.5844
3.9494987298666713 28.488000000000003
3.971828374764527 28.5951
3.9941581705403255 28.8723
4.016470713506008 29.2195
4.038800813471445 30.2779
4.061113662089144 30.8436
4.0834440696459176 31.7206
4.105774632334751 31.7374
4.128087945865126 32.3865
4.150418821249301 33.5705
4.172732448931298 34.2827
4.195063640413578 34.5965
4.2173775856475215 34.9838
4.239709096631102 37.4199
4.262040768704612 51.2261
4.284355196706267 63.3618
4.306687193387355 56.0216
4.329001947444346 43.9029
4.35133427213731 40.5844
4.373666762177566 40.3551
4.395982011761091 40.9985
4.418314834921175 41.8668
4.44063041906622 43.4395
4.4629635787515625 45.2828
4.4852969080429785 46.216
4.5076130004776225 46.3746
4.529946671403969 46.7694
4.552263106909177 47.4786
4.574597122877047 48.5205
4.596931312711224 49.6589
4.619248269273446 50.5521
4.6415828092605835 52.1219
4.663900117405352 52.7227
4.686235010953232 54.1839
4.708552674085913 55.2369
4.730887924602802 56.5772
4.753223354952695 57.8998
4.775541557023902 59.6369
4.797877349456786 60.799
4.820195915032126 62.8327
4.842532072957498 64.5341
4.864868414979744 66.3587
4.88718753227192 68.2086
4.909524244902505 69.8523
4.931843734218147 71.7255
4.954180820867835 74.1365
4.976518095879839 77.2051
4.998838149695359 79.9357
5.021175803844231 82.8657
5.043496238205739 85.9202
5.065834274903528 89.3449
5.088172504230693 94.235
5.1104935158799565 98.4699
5.132832132875765 105.65799999999999
5.155153533596801 118.48100000000001
5.1774925416746225 137.584
5.199814334878411 232.55200000000002
5.2221537374521505 822.2460000000001
5.244493338631803 2566.3
5.266815727034316 7321.98
5.289155727832427 13932.9
5.311478517248165 9848.81
5.333818921080011 3281.96
5.356159527788849 644.665
5.3784829252032536 198.581
5.400823940070432 141.651
5.423147747031976 122.84
5.445489173474152 113.73200000000001
5.467830807066149 107.822
5.490155234831516 104.07799999999999
5.512497285125229 101.42
5.534822130975162 99.6436
5.557164601388673 97.8232
5.579489868738879 94.9596
5.601832762690846 93.6103
5.6241758697774475 92.1183
5.646501775867269 91.6425
5.668845311622074 90.8609
5.691171647754637 90.1298
5.713515615597765 89.0592
5.735859800852677 88.4047
5.758186788542988 87.1629
5.780531411018185 87.3266
5.802858837297399 87.2178
5.825203900414495 86.5193
5.8475491852224 86.9129
5.869877275883075 87.7724
5.892223006467101 88.1795
5.914551544266608 89.6164
5.936897724049891 91.514
5.959244129804903 95.3108
5.981573344815301 107.061
6.0039202049061 164.99200000000002
6.026249875609095 396.634
6.04859719346037 896.092
6.070927323278297 2060.57
6.093275102315365 4513.34
6.115623113320588 5494.94
6.137953938319995 3525.2
6.160302415650845 1069.66
6.182633708324452 240.08
6.2049826554078376 109.133
6.227331838745022 87.2241
6.249663839443684 79.7824
6.27201349767565 75.9313
6.294345974611799 74.1891
6.316696111167083 73.1858
6.339046488263839 71.8413
6.361379686074702 69.1054
6.383730546639482 66.7587
6.406064229255215 65.0593
6.428415576718203 64.5866
6.450749747566656 63.6679
6.47310158535871 62.8856
6.495453669698332 62.3156
6.517788579421056 61.643
6.540141159237969 60.321000000000005
6.562476565766648 59.9642
6.5848296444934045 59.0822
6.607182974060425 58.5541
6.6295191323281015 58.3034
6.651872965955752 57.7523
6.6742096296068985 58.836000000000006
6.6965639707294615 62.9815
6.71891856698715 64.1097
6.741255995248479 59.9822
6.763611104154477 56.5339
6.785949046381137 55.3966
6.808304671371482 54.6789
6.8306605557940046 54.923
6.852999275508618 54.1677
6.875355681171544 53.8125
6.897694923437771 53.3588
6.92005185377892 53.3326
6.9423916220322655 53.3289
6.964749080490181 52.4249
6.987106804399774 52.4445
7.009447368180821 52.9105
7.031805625367033 52.1889
7.054146723727803 52.3545
7.076505517631004 52.254
7.098864581288365 52.2947
7.121206488070854 51.8993
7.143566093607822 51.5891
7.165908543567245 51.7159
7.188268694426048 51.6408
7.2106291193438095 51.2576
7.232972390625943 51.2164
7.255333366030969 51.903
7.277677189091925 55.7802
7.300038718428332 61.989
7.322400526130865 61.2318
7.344745183422596 55.6256
7.367107550224791 52.1166
7.389452767901992 51.7021
7.411815697249891 51.7023
7.434161478756298 51.3541
7.456524974096713 51.4689
7.478888753837185 51.5393
7.501235387657368 52.6393
7.523599738562711 57.7402
7.545946944825532 65.6165
7.568311870344528 68.2986
7.5906770845765665 62.4831
7.613025156078678 55.756
7.635390950099687 53.5211
7.657739602662809 52.7234
7.680105979923558 52.8199
7.702472650212829 53.0616
7.724822180948224 53.4479
7.747189439655568 53.4239
7.769539560075357 53.4191
7.791907410653562 53.9843
7.81425812420825 53.81399999999999
7.836626570110925 53.7916
7.858995315087906 54.6847
7.881346924933401 54.998999999999995
7.903716270417482 55.5756
7.926068482028405 55.9435
7.948438431475253 56.1801
7.9708086843180235 57.3381
7.993161805171116 57.9409
8.015532667162402 58.1
8.037886398416653 59.1717
8.060257873014221 59.3719
8.082629655331942 59.8164
8.104984308787587 60.2842
8.127356708900503 61.0145
8.149711981398308 62.2796
8.172085002766314 63.8171
8.194458336181368 64.2079
8.216814543847752 65.0202
8.23918850371002 66.1543
8.26154533906492 66.9368
8.283919928836452 68.429
8.306277395339652 69.4232
8.328652618483376 70.9538
8.351028159736202 72.4297
8.373386579575245 74.3001
8.395762759396959 75.9793
8.418121819038275 78.3427
8.440498640894003 81.8562
8.462875785192262 86.8382
8.485235811156207 94.7729
8.507613602688501 129.914
8.529974277114228 233.933
8.552352719347912 384.51599999999996
8.574731488360351 629.217
8.59709314210385 1117.38
8.619472567021075 1874.32
8.64183487789147 2337.08
8.664214962183097 2015.37
8.686577933647762 1118.7
8.708958680784317 417.019
8.731339760774953 170.55200000000002
8.753703729764451 108.787
8.77608547780821 94.9222
8.798450116065078 91.18
8.820832535634787 88.5754
8.843215292401656 87.2454
8.865580941199045 85.7947
8.887964374703538 84.4889
8.910330701447199 84.2
8.932714815164482 83.3625
8.955099270424924 82.5577
8.977466620733543 82.0263
8.999851761421976 81.4056
9.022219798361645 80.4054
9.04460562795561 80.7499
9.066991803441677 80.2758
9.089360876979615 80.0264
9.111747746589993 79.404
9.13411751544971 79.196
9.156505082664324 79.1625
9.178875550323522 79.6658
9.20126381862328 81.1116
9.223652438908596 88.9788
9.246023961427412 102.635
9.26841328802173 106.49799999999999
9.290785518039224 97.9886
9.313175554425882 86.9466
9.335565947154315 81.0593
9.357939245086508 80.1723
9.380330352834827 80.2204
9.40270436697103 79.9383
9.425096193225055 80.3514
9.447488380180165 80.5999
9.469863475295412 80.8191
9.492256385987508 81.2143
9.514632206018318 81.5761
9.537025843935714 82.0145
9.559402392368193 82.8148
9.581796761000229 84.0307
9.604191496441521 83.885
9.626569144158516 84.859
9.648964615551032 85.8948
9.671343000390081 86.62299999999999
9.693739211225699 87.7335
9.716135793237463 87.8121
9.738515290448102 88.6156
9.760912617143402 89.8817
9.783292860202891 90.5596
9.805690935076182 92.2951
9.828089385495742 92.986
9.850470754023561 94.5985
9.872869957865444 96.5482
9.89525208097539 99.1135
9.917652041736662 103.323
9.940052382417589 107.115
9.962435644102392 115.684
9.984836746950979 147.876
10.007220771957746 229.778
10.029622640473708 353.222
10.052007432299963 526.898
10.074410069984072 782.46
10.096813093716005 1209.4
10.119199042482517 1770.04
10.141602840636468 2113.39
10.163989564971628 1719.41
10.186394141051062 998.6060000000001
10.208799107559706 438.291
10.231187001965623 196.102
10.253592751657669 124.05799999999999
10.275981430388155 107.74
10.298387966769793 103.652
10.320794897965431 102.235
10.343184759907361 101.272
10.36559248305461 99.8691
10.387983138083852 98.0959
10.410391656691655 99.4311
10.432800574501677 108.705
10.455192425893369 131.157
10.47760214443012 163.954
10.499994797678786 206.69099999999997
10.522405320453982 277.449
10.54479877906917 392.18199999999996
10.567210109595656 514.486
10.5896218454736 595.4590000000001
10.612016518879773 571.281
10.634429067781074 402.227
10.656824555333241 236.79
10.679237920773568 142.767
10.701651695961992 103.176
10.724048411481384 91.8289
10.746463008485165 85.76799999999999
10.768860546937125 82.5498
10.791275969274796 80.2375
10.81369180576079 79.0603
10.836090585366925 77.9728
10.858507252467449 76.6074
10.88090686379991 76.0308
10.903324365036394 74.9105
10.925724811614439 74.0121
10.948143150509463 73.6855
10.970561909719066 72.8152
10.992963615930844 71.9023
11.015383218085756 71.3276
11.037785768347074 70.2687
11.06020621697282 69.6969
11.082627090322113 69.1552
11.105030913430326 68.4529
11.12745263854165 68.1342
11.149857314510728 67.2335
11.172279894912576 68.0399
11.194702904450653 67.6716
11.217108866490921 66.6807
11.239532736615194 65.9598
11.26193956033512 65.4135
11.284364294577085 65.1555
11.306789462371718 64.4515
11.329197585398376 63.993
11.351623622610898 63.9968
11.37403261614354 63.2494
11.396459526308487 63.2609
11.418869393879497 62.6657
11.441297180532617 62.3461
11.463725406927658 62.3196
11.486136592353875 61.7756
11.508565700543707 61.6328
11.530977768845315 61.8531
11.553407762368774 61.4097
11.575838200059769 61.6198
11.598251599479612 61.3245
11.620682927815501 60.8601
11.64309721895548 60.9626
11.665529441478206 60.5103
11.687962112597958 60.2185
11.710377748130886 60.0413
11.732811318753434 60.1745
11.755227854859067 60.0109
11.777662328529495 59.8961
11.800079768750786 59.898999999999994
11.822515149015453 60.1306
11.844950984084935 60.5192
11.867369787303163 60.1462
11.889806534289491 60.3987
11.912226250487029 61.6748
11.934663912939751 64.3912
11.9571020346363 66.602
11.979523127133968 66.9093
12.001962169624331 65.4016
12.024384183972964 63.6423
12.046824150809913 64.4763
12.069264581333726 70.0299
12.091687985297767 77.9328
12.11412934550045 87.363
12.136553680195208 100.749
12.158995973632788 122.193
12.181438735204349 148.917
12.20386447284199 181.018
12.226308172985636 200.90599999999998
12.24873485024193 208.678
12.271179492516982 177.933
12.293607112949127 132.463
12.316052700916226 95.6705
12.338498763250042 73.7415
12.360927805303868 64.5546
12.383374818673879 62.4131
12.405804812803074 61.6111
12.428252780773262 61.4743
12.45070122756722 61.488
12.473132656675375 61.3654
12.49558206341869 61.7006
12.518014453510101 61.5897
12.540464823770117 61.693999999999996
12.562915677315177 61.9403
12.58534951575545 62.2582
12.607801338171472 61.9462
12.630236146511358 62.5584
12.652688941369085 63.8455
12.675124723177234 64.5171
12.697578494048786 64.6858
12.720032754458185 64.4161
12.742470003354093 64.5209
12.764925245138771 64.8379
12.787363476431278 65.1249
12.809819703166806 65.5989
12.83227642391173 66.1116
12.854716135692716 66.6755
12.877173846755147 67.8512
12.899614549869717 68.2317
12.9220732548287 69.0019
12.94453245827299 69.2936
12.966974655289818 70.4062
12.989434858002571 71.0739
13.011878055298721 71.8286
13.034339260862497 73.1772
13.056800969391883 74.347
13.079245674017244 76.755
13.101708390774869 78.4182
13.12415410463411 82.5535
13.146617833206086 93.027
13.169064559883248 109.00299999999999
13.191529303857127 127.92
13.213994557076367 151.219
13.236442809902437 184.345
13.258909083908291 233.18400000000003
13.28135835851934 296.62
13.30382565690295 373.496
13.326293469022952 441.811
13.348744283242008 448.41
13.371213125129904 376.94599999999997
13.39366497011003 277.043
13.416134845360597 181.208
13.438605238843131 125.854
13.46105863690397 102.417
13.483530069144786 99.3857
13.505984506951902 107.887
13.528456981549432 122.098
13.550929978879088 138.04
13.573385983253365 159.476
13.595860028340867 192.237
13.618317081455832 239.52700000000002
13.64079217790333 301.469
13.663250283359057 360.971
13.685726434770173 388.48400000000004
13.708203115221277 362.041
13.730662806148091 285.66200000000003
13.75314054697177 202.615
13.775601299246777 136.626
13.798080104050406 99.3636
13.820559442405358 84.21700000000001
13.843021793671388 79.7418
13.865502201420897 77.9457
13.887965623051947 77.2341
13.910447103807167 75.9877
13.932929122629764 74.969
13.955394156785959 74.737
13.977877254034569 73.8606
14.000343367582113 72.7932
14.022827546871707 72.2935
14.045294743423524 71.3965
14.06778000837062 70.9097
14.090265817715476 71.3026
14.112734645763819 71.4587
14.13522154619454 72.8971
14.157691466286913 74.2459
14.180179461423874 74.5189
14.202668005486178 72.64699999999999
14.22513957064374 70.3565
14.247629214846473 69.0419
14.270101881097517 68.1602
14.29259262906496 67.6721
14.315083930490205 67.8994
14.337558255389705 67.5417
14.360050666019726 67.3666
14.382526101071944 67.2722
14.405019624534942 66.8532
14.427513705993134 66.6263
14.449990813291825 66.8816
14.47248601302899 66.4372
14.49496423954951 66.7422
14.517460561197822 66.8493
14.539939910570322 66.1997
14.562437357763558 66.7343
14.58493536931253 67.3024
14.607416409993311 66.923
14.62991555254159 67.3659
14.652397725157423 67.6329
14.674898002342799 67.7262
14.697398848433282 67.7697
14.719882725991326 68.35
14.74238471217934 68.7359
14.764869730765593 70.9649
14.787372860692983 74.8002
14.809876564079925 81.6704
14.83236330125751 89.8172
14.854868153850365 99.0033
14.877356041159485 111.794
14.899862046604186 128.014
14.922351087688757 151.07299999999998
14.944858249632887 180.981
14.967365991421232 211.122
14.989856770231246 230.13400000000001
15.012365673994204 227.888
15.03485761569738 199.516
15.05736768508665 157.466
15.07987833888692 119.934
15.102372032001655 93.1382
15.124883856909658 77.0661
15.14737872204565 71.2145
15.169891721717274 69.0795
15.192405310371893 67.9728
15.214901940621196 67.5797
15.237416709527137 66.7222
15.259914520936249 66.6127
15.282430473753607 66.007
15.304947020131227 65.4586
15.327446610371178 65.0703
15.349964346154254 64.7168
15.372465126703139 64.749
15.394984055556009 64.5566
15.417486030076159 64.2881
15.44000615566487 63.8579
15.462526881230803 63.8357
15.485030653812652 63.7987
15.507552581617434 63.5074
15.530057557334603 63.5963
15.55258069104857 63.9611
15.575104429329837 64.0559
15.597611216864632 63.7612
15.620136166564563 63.8094
15.6426441664095 64.2139
15.665170331202765 65.4751
15.687697105158826 69.0749
15.710206930593545 74.608
15.732734925158933 80.6002
15.755245972089478 87.5078
15.77777519094324 96.3205
15.800287463046663 107.40899999999999
15.822817909869592 124.565
15.84534897229804 145.268
15.867863089299354 169.976
15.890395385222186 191.55700000000002
15.912910736597423 202.328
15.935444269699861 195.702
15.957978423016485 167.614
15.980495633101265 133.28799999999998
16.003031029129367 103.23200000000001
16.02554948280019 80.5988
16.048086125229432 68.9228
16.070623392487107 64.4776
16.09314371869582 62.5594
16.11568223789321 60.9025
16.13820381691126 59.9182
16.160743591742527 58.9359
16.183283996022084 58.5605
16.205807461423195 57.7148
16.228349126881973 57.2938
16.25087385432698 57.1155
16.27341678466365 56.4946
16.29594277784926 56.1977
16.31848697676433 55.756
16.341031811604868 55.5073
16.36355971058487 55.3351
16.3861058195587 55.2089
16.40863499352978 54.751000000000005
16.431182380342005 54.474
16.453730407713202 54.2245
16.476261501364792 54.1191
16.498810812136167 53.5789
16.52134319004079 53.8072
16.54389378792203 53.5829
16.566445031001553 53.4625
16.588979342490088 53.297
16.61153187824822 53.2785
16.634067483263312 53.1723
16.656621315414416 53.1955
16.679175797408888 52.6621
16.701713349928728 52.836999999999996
16.72426913389191 53.038000000000004
16.74680798922351 53.1033
16.76936507887444 52.8009
16.791905240734874 52.9143
16.814463639794468 52.9381
16.837022695210294 52.9404
16.859564824093756 53.1856
16.882125194503903 53.4224
16.904668639217885 53.5246
16.927230328348003 53.7861
16.949792678493612 54.3173
16.972338104193863 54.0849
16.994901778652235 53.942
17.017448529496576 54.0801
17.040013531998152 54.2096
17.06257920018044 54.2823
17.0851279459922 55.2334
17.107694947817667 56.3339
17.130245028099072 57.3998
17.15281336730298 58.846000000000004
17.17536478578733 60.5788
17.19793446610687 62.5781
17.220504818648422 65.4514
17.243058251703697 68.5369
17.265629950971032 72.9959
17.288184731571736 77.8954
17.310757781306908 82.7612
17.33333150794385 83.7977
17.355888317140174 83.3985
17.37846339986244 79.27
17.401021565958885 72.0371
17.42359800851343 65.9479
17.44617513265564 61.5977
17.468735341390783 59.218
17.491261035594565 57.6399
17.51396340099364 57.3674
17.536490463869136 57.4469
17.559018209820174 57.5088
17.58154663977963 57.5281
17.604251766089718 57.7353
17.626781572227713 58.0158
17.64931206518155 58.1825
17.671843245885103 58.3854
17.69455114821572 58.5688
17.717083712612634 58.9291
17.739616967569667 59.5773
17.762150914021706 59.9782
17.78486160749854 60.431999999999995
17.807396945166804 60.8828
17.829932977143503 61.2963
17.85246970436452 62.1951
17.875183204129467 63.9029
17.897721330097664 66.8318
17.920260154126645 70.312
17.942799677153296 74.107
17.9655159983646 78.2507
17.988056927677544 83.0181
18.010598558807683 89.5658
18.033140892692916 98.6573
18.05586005052525 109.648
18.07840379824407 121.971
18.10094825154059 133.38299999999998
18.12366954819864 142.894
18.146215420998306 144.597
18.16876200220057 137.56
18.191309292745153 123.499
18.214033452627167 108.29
18.236582170236648 95.7555
18.259131600016456 88.5125
18.281681742907335 86.57
18.304408781233683 89.6213
18.32696035875955 94.8331
18.349512652227624 99.9198
18.372065662579683 105.529
18.394795594587553 107.52600000000001
18.41735004715306 104.476
18.43990521943684 97.9398
18.46246111238171 88.3703
18.485193953325208 78.3126
18.507751296070428 70.4924
18.530309362314178 65.5921
18.552868153000343 62.9598
18.57560391815056 61.4516
18.59816416623245 60.9733
18.620725141597372 60.2353
18.643286845190268 59.6798
18.666025549835414 59.3189
18.688588718427933 58.4845
18.711152618092243 58.4881
18.73389353884365 57.9913
18.75645890921984 57.5308
18.77902501351406 57.1842
18.801591852673102 57.2208
18.824335739722738 56.8005
18.846904057212626 56.6226
18.8694731124168 56.3821
18.89204290628315 56.3174
18.914789774966803 56.0888
18.937361054791623 55.9292
18.959933076131318 55.6246
18.982505839934877 55.5085
19.00525570560582 55.5547
19.027829963004184 55.0893
19.05040496572238 55.2844
19.072980714710468 55.3633
19.095733592739563 55.2664
19.11831084296757 55.731
19.140888842324735 56.2096
19.16346759176222 56.7334
19.18622349753803 57.4553
19.208803755869358 58.4453
19.231384767143577 59.5529
19.253966532312948 61.1833
19.276725481241822 63.2585
19.29930876296784 65.9992
19.3218928014549 69.1989
19.34465404436217 72.0967
19.36723960516257 74.8606
19.389825925592426 76.0937
19.412413006605938 75.0866
19.43517731967805 72.0441
19.457765930683355 67.7877
19.48035530514408 63.2376
19.50294544401556 59.1953
19.525712842708348 56.2543
19.54830451925909 54.3669
19.570896963095727 53.3053
19.593490175174704 52.8763
19.616260674962184 52.7496
19.638855432416964 52.3079
19.661450960992624 52.4417
19.68404726164677 52.3581
19.706820878021247 51.8702
19.729418731756834 52.3753
19.752017360452857 51.9834
19.77461676506804 52.0305
19.797393513540218 52.1601
19.819994478951667 52.3767
19.84259622316767 53.032
19.8651987471481 53.5013
19.887978643247177 54.0408
19.91058273574792 54.4523
19.933187610901943 55.3878
19.955969879466828 56.4776
19.97857632894404 57.7962
20.00118356396599 59.3441
20.023791585494575 61.4149
20.046577028914875 64.2927
20.069186632506966 66.8518
20.091797025500632 69.4568
20.114408208858933 70.9014
20.137196842715273 70.8592
20.159809615886765 69.2252
20.18242318232135 66.7364
20.20503754298326 64.3161
20.227829382875154 62.5582
20.250445341109344 61.8475
20.27306209647285 62.4125
20.29567964993108 63.6005
20.31847471147704 64.8164
20.34109387027612 65.6989
20.363713830075454 65.2778
20.386334591841646 64.2121
20.409132890679302 61.5597
20.431755265564437 58.2833
20.454378445325528 55.3037
20.477002430930366 52.8781
20.499803982716553 51.13399999999999
20.522429589228004 50.1806
20.54505600449589 49.4608
20.567683229489194 49.3919
20.590488049900088 49.1784
20.61311690359731 49.0445
20.63574656993626 48.905
20.658553853717297 48.593
20.681185154618298 48.4915
20.703817271080066 48.4146
20.72645020407368 48.0684
20.749260783967177 48.3978
20.771895359337133 48.3946
20.794530754161617 48.1741
20.817166969412938 47.9722
20.83998086114876 48.1942
20.86261872660049 47.8462
20.885257415405402 47.5526
20.90789692853701 47.5458
20.930714147864748 47.3661
20.953355319030678 47.3581
20.97599731745334 47.4007
20.99864014410749 47.4801
21.021460706796564 47.5615
21.044105199328826 47.7738
21.06675052302631 47.9754
21.089396678865015 48.1987
21.112220600704806 48.4531
21.134868430275347 48.5575
21.15751709492456 48.9459
21.180166595629693 49.3666
21.202993892429635 49.8745
21.22564507473034 50.2231
21.24829709602816 50.5798
21.27112693608965 50.6875
21.293780644891275 50.7045
21.316435195634053 49.8051
21.339090589297417 49.0788
21.361923832041875 48.7515
21.384580921090404 48.1214
21.407238856007325 47.6426
21.429897637773326 47.4545
21.45273429906592 47.4808
21.475394784108598 47.4732
21.498056118951983 47.4042
21.520718304578022 47.6422
21.543558400304388 47.5998
21.566222297108816 47.7514
21.58888704765135 47.7671
21.61155265291521 48.0812
21.63439619898156 48.6664
21.657063523335786 49.1051
21.67973170537063 49.8297
21.7024007460706 50.3063
21.72524775840385 51.3447
21.747918526116475 52.129
21.770590155457388 53.1763
21.79326264741238 54.5454
21.816113141960237 56.4032
21.838787368860547 58.3698
21.861462461341976 60.883
21.884315579735777 63.3235
21.90699241312273 64.7419
21.92967011506078 65.5893
21.95234868653799 65.3477
21.9752053151131 64.1912
21.997885635446785 62.225
22.020566828293532 60.1295
22.04324889464272 57.8547
22.066109049404666 56.4918
22.088792872571794 55.7826
22.111477572219204 55.8961
22.1341631493376 56.2096
22.157026846313123 56.0834
22.179714188221507 55.5658
22.202402410582668 54.3406
22.22509151438863 52.6499
22.24795876962584 51.1604
22.270649646204486 50.0407
22.293341407213727 49.2044
22.316034053646906 48.5202
22.338904883215342 48.1567
22.36159931041458 48.0146
22.38429462602756 47.8962
22.40699083104897 47.6242
22.429865251039757 47.6566
22.452563244831367 47.7413
22.47526213102522 47.7732
22.49813925616515 47.7244
22.520839937143307 47.5881
22.543541513520587 47.6075
22.56624398629403 47.492
22.589124730075895 47.5457
22.611829005656723 47.6251
22.63453418063466 47.6225
22.657240256008077 47.8311
22.680124634582935 48.1043
22.70283252079775 48.5074
22.725541310413075 48.9123
22.74825100442868 49.0548
22.771139033969575 49.8209
22.79385054687155 50.1991
22.81656296718292 50.7031
22.83927629590484 51.5732
22.862167992606945 52.4541
22.88488314827121 53.4041
22.907599215359284 54.626000000000005
22.93031619487366 55.9359
22.953211574954405 57.0486
22.975930389478226 57.9619
22.998650119445763 57.9871
23.02137076586092 57.4828
23.044269845560063 56.4086
23.06699233506288 54.6754
23.089715744034912 52.8494
23.112617610931565 51.0228
23.135342869061212 49.7157
23.158069049684816 48.6481
23.1807961538087 48.1023
23.20370174880544 48.0002
23.226430710184808 47.9295
23.249160598093425 47.931999999999995
23.271891413539002 47.8105
23.294800752937697 48.1194
23.31753343374794 48.4658
23.340267045128353 48.6817
23.36300158808808 49.1119
23.38591468821339 49.4658
23.408651104658304 49.9804
23.431388455719986 50.5879
23.454126742409 51.3433
23.4770436196085 52.3192
23.499783787914662 53.6079
23.522524894889884 54.7333
23.54526694154616 55.9853
23.56818761219047 57.3677
23.59093154860734 58.2141
23.613676427751283 58.675
23.636422250635754 58.1427
23.659346731118656 56.4939
23.68209445191868 54.5373
23.704843119509587 52.0919
23.72759273490623 50.0246
23.750521041644767 48.2703
23.77327256312355 46.9388
23.796025035462787 46.0582
23.818956224555475 45.3967
23.841710609113413 45.2925
23.86446594758979 44.9556
23.887222241002014 44.9006
23.910157285144578 44.5382
23.932915498962537 44.4143
23.955674670778713 44.1753
23.978434801611975 44.2555
24.001373717286125 43.9771
24.024135776723917 43.845
24.046898798245582 43.6985
24.06966278287146 43.503
24.092605586582614 43.3282
24.115371508023642 43.158
24.1381383956401 43.0789
24.16090625045381 43.0846
24.183852958731244 42.9374
24.206622758582608 42.9431
24.229393528706886 42.7882
24.252165270127392 42.9001
24.27511589952438 42.6167
24.297889594216997 42.4883
24.32066426328598 42.4226
24.34343990775613 42.4635
24.36639447485003 42.3679
24.38917208083877 42.31100000000001
24.41195066531332 42.2582
24.43490819850244 42.2432
24.457688750692377 42.225
24.48047028445616 41.9803
24.503252800821233 42.3015
24.526214300784112 42.3664
24.548998793132213 42.2957
24.57178427117417 42.1848
24.59457073593893 42.153999999999996
24.617536219319863 42.2268
24.64032466834748 42.1526
24.663114107195035 42.0102
24.685904536893013 41.7949
24.708874020360852 41.669
24.731666442613744 41.7029
24.754459858818787 41.5806
24.777254270007962 41.497
24.80022777025625 41.3936
24.82302418230472 41.3883
24.845821592443674 41.3842
24.86862000170663 41.4845
24.891597535453727 41.4721
24.914397953892728 41.6844
24.93719937456671 41.5337
24.96000179851076 41.7039
24.98298338249997 41.7822
25.00578782394922 42.1431
25.028593271784167 42.3267
25.05157790644186 42.6682
25.07438537804115 42.7822
25.097193859145293 43.0888
25.120003350792075 43.4188
25.142992065061257 43.8479
25.165803588823465 44.1006
25.18861612625217 44.3805
25.211429678386736 44.4682
25.234422489079968 44.555
25.257238081693636 44.5574
25.280054692141732 44.7257
25.3028723214652 44.6033
25.325869245420463 44.7643
25.348688923599397 44.8137
25.371509623787006 44.8888
25.394331347025812 44.4345
25.41733240110666 43.823
25.440156181590016 43.268
25.46298098826268 42.7247
25.48580682216873 42.1428
25.50881202326435 41.5069
25.53163992281684 40.9965
25.55446885274561 40.6017
25.577298814096377 40.3421
25.600308179121807 40.2799
25.623140214533745 40.3167
25.64597328451537 40.1497
25.66898578564376 39.7526
25.691820936010206 39.9769
25.714657124097695 39.7815
25.737494350954734 39.7267
25.760511045684957 39.6261
25.783350361364224 39.7112
25.806190718969255 39.7699
25.82903211955018 39.9591
25.852053024868923 40.0869
25.874896522722523 40.095
25.897741066713106 39.897
25.920586657892454 40.1684
25.943611790812668 40.23
25.966459487728237 40.4347
25.989308234998564 40.3783
26.01215803367705 40.8178
26.03518741123814 40.9619
26.05803932412957 41.1312
26.080892291600094 41.1619
26.10374631470478 41.1641
26.12677995397268 41.3619
26.14963609978026 41.4838
26.172493304397875 41.083
26.19535156888223 40.8513
26.218389486949604 40.4594
26.241249882640123 40.1729
26.26411134137826 39.7639
26.28715248187403 39.7255
26.31001607820869 39.5642
26.3328807407756 39.3328
26.35574647063438 39.598
26.37879191991473 39.6762
26.401659795896734 39.6125
26.424528742360263 39.8638
26.447398760366614 39.8513
26.470448535598294 40.0031
26.49332070826805 40.1825
26.516193955675355 40.5676
26.53906827888316 40.8109
26.562122397260108 41.004
26.584998883685063 41.3848
26.607876449110325 41.7889
26.63075509460056 41.982
26.65381357334404 42.05
26.67669439061878 42.1898
26.699576291163382 41.9688
26.722459276044212 41.7917
26.745522132402975 41.5454
26.768407297649354 41.2672
26.791293550442003 40.9503
26.814180891848974 40.7475
26.837248143099337 40.285
26.860137673466657 40.1968
26.88302829566349 39.8866
26.90592001075963 39.8999
26.92899167420566 39.6113
26.951885586870763 39.2175
26.974780595655517 39.0331
26.99785558178161 38.7955
27.020752794605112 38.5774
27.043651106772522 38.4509
27.06655051935668 38.434
27.089629948036183 38.2527
27.112531573292053 38.1809
27.135434302194138 38.2954
27.158338135817015 38.0299
27.181422024430987 38.0378
27.204328079372566 37.9942
27.22723524226965 37.9794
27.250143514198573 38.0255
27.273231880156334 38.1081
27.296142382065014 37.9316
27.319053996245536 38.0506
27.341966723775965 37.9775
27.365059584515222 37.9223
27.38797455070062 38.0046
27.410890633481237 37.8904
27.433807833936918 37.8536
27.456905206923906 38.0448
27.47982465472398 38.1123
27.502745223449743 38.2149
27.525666914182825 38.236999999999995
27.548768816912457 38.2876
27.571692763693633 38.1402
27.59461783573812 38.0086
27.617723149491244 37.8896
27.640650484125285 37.881
27.66357894728264 37.7355
27.686508540048052 37.6827
27.709618414237887 37.5057
27.732550278321757 37.3764
27.755483275279115 37.3206
27.778417406196485 37.4499
27.801531858397514 37.5036
27.824468269376716 37.5029
27.847405817586786 37.407
27.870344504116094 37.5548
27.893463551932008 37.6924
27.916404527281053 37.873000000000005
27.93934664422563 38.0321
27.962289903855886 38.1324
27.98541356491974 38.3471
28.00835912214229 38.4857
28.03130582533231 38.7688
28.054253675581805 38.9851
28.077381967556104 38.9986
28.100332124185126 38.9417
28.123283431160893 38.8911
28.146235889577238 38.7832
28.169368830154156 38.6544
28.192323603752033 38.408
28.215279532083304 37.982
28.238415973016764 37.9097
28.261374223145094 37.7614
28.284333631303806 37.4018
28.307294198589954 37.181
28.330435319167677 37.0046
28.353398217078915 36.7009
28.376362277420153 36.3694
28.39932750129032 36.135999999999996
28.422473319286713 36.0973
28.44544088262495 36.0422
28.468409612800283 35.8534
28.491379510913497 35.5128
28.51453004413313 35.5101
28.53750229057244 35.4593
28.56047570826344 35.3369
28.583450298308804 35.5003
28.606605564586562 35.1946
28.629582511831156 35.2992
28.65256063474956 35.2038
28.675539934446338 35.2838
28.698699951647605 35.1029
28.72168161743193 34.9771
28.74466446331978 35.0118
28.767648490417624 34.9001
28.790813276438353 34.9712
28.813799678527303 35.0415
28.836787265157085 35.0859
28.859955641890075 35.0902
28.882945610203045 34.9969
28.905936766392035 34.931999999999995
28.928929111566863 34.8681
28.952102288520145 34.9131
28.975097024308607 34.7825
28.998092952423807 34.5465
29.021090073977508 34.5736
29.04426806913204 34.5028
29.067267590245258 34.2331
29.090268308143695 34.1312
29.11327022394099 34.1015
29.13645305530891 34.0785
29.159457379627167 33.898
29.18246290519685 33.9322
29.20546963313352 33.7994
29.22865731875826 33.826
29.25166646419296 33.9155
29.27467681535305 33.6525
29.29768837335608 33.6716
29.320880931312562 33.8065
29.34389491580634 33.8012
29.366910110507334 33.8521
29.38992651653503 33.8321
29.41312396492981 33.8914
29.436142806456754 33.7479
29.45916286268059 33.6765
29.48236399319994 33.5832
29.50538649169417 33.5654
29.528410208259935 33.3915
29.55143514402014 33.1249
29.574641196749695 32.9073
29.597668583816574 32.8253
29.6206971934585 32.6719
29.64372702680042 32.7077
29.666938019934474 32.7731
29.689970313635285 32.6134
29.713003834422636 32.4978
29.73603858342347 32.4867
29.759254535188578 32.3034
29.78229175361658 32.2696
29.80533020365064 32.2576
29.82836988641968 32.3472
29.85159081507472 32.3131
29.874632976355343 32.1588
29.89767637376955 32.2071
29.920721008448314 32.1823
29.9439469322847 32.1106
29.96699405457564 32.1266
29.9900424175358 32.1932
30.013092022298157 32.1263
30.03632295963995 32.0533
30.059375061131373 32.1076
30.08242840783577 32.0464
30.105483000888153 32.0423
30.128718970092244 31.9564
30.151776069006917 32.0208
30.17483441768648 32.0829
30.198074175317235 31.9766
30.221135036724256 32.0994
30.24419715131772 31.897
30.267260520236203 31.8572
30.290505341942243 31.8909
30.313571232750228 32.0437
30.336638381310948 31.8949
30.35970678876503 31.7807
30.38295669299435 31.8089
30.40602763151657 31.8941
30.429099832366074 31.697
30.452173296685572 31.7512
30.47542830191959 31.6399
30.498504306502497 31.6167
30.521581577995562 31.7656
30.544660117543582 31.7735
30.56792024229725 31.7884
30.59100133132069 31.7751
30.614083691845494 31.8253
30.637167325018545 31.9445
30.660432587840603 32.0569
30.683518779717886 31.9433
30.70660624769615 32.0812
30.729694992924372 31.9336
30.75296541239743 31.9223
30.77605672557558 31.9457
30.799149319462742 31.9152
30.8224236211637 31.7107
30.845518789950724 31.6974
30.868615242910597 31.6267
30.891712981195973 31.4475
30.91499247215866 31.2488
30.938092794619365 31.2719
30.96119440587579 31.1406
30.984297307082752 31.1052
31.00758200598383 30.9677
31.030687500658694 30.8666
31.053794288760695 30.8156
31.076902371446767 30.8218
31.100192296997445 30.7881
31.12330298246119 30.7993
31.14641496599209 30.6335
31.169528248749216 30.6846
31.19282341969534 30.5823
31.215939314557186 30.5844
31.239056512134788 30.5664
31.262175013589378 30.5677
31.28547544871168 30.4504
31.30859657161541 30.526999999999997
31.331719001892175 30.5215
31.35484274070538 30.5304
31.378148458819545 30.6419
31.401274828443725 30.6583
31.424402510106933 30.6329
31.447712205419993 30.7216
31.470842524931633 30.4875
31.493974159989783 30.4642
31.51710711176168 30.428
31.54042212308802 30.5609
31.563557722100917 30.5723
31.586694641341655 30.4466
31.609832881979628 30.3441
31.63315322823208 30.1674
31.656294125521327 30.1362
31.679436347728515 30.0606
31.70257989602529 29.9515
31.725905596152327 29.8092
31.74905181052835 29.8706
31.772199354521323 29.8934
31.79534822930507 29.866
31.818679302290967 29.888
31.84183085259981 29.8183
31.864983737233473 29.8826
31.88813795736804 29.973000000000003
31.911474422233013 29.7893
31.934631327356435 29.8292
31.9577895715215 29.7983
31.980949155906522 29.8594
32.004291031706956 29.7998
32.027453310562606 29.6337
32.05061693318573 29.6037
32.07396288236386 29.5556
32.09712920658542 29.5869
32.12029687812702 29.4102
32.14346589817093 29.2813
32.166817291729984 29.2626
32.18998902288583 29.2226
32.21316210610336 29.1015
32.23633654256711 28.8895
32.259693399663725 28.9667
32.282870556771144 28.8537
32.30604907069099 28.8662
32.329228942610065 28.8049
32.35259128243769 28.5785
32.375773884550505 28.5415
32.398957848235646 28.5301
32.422143174682176 28.4839
32.445511016471215 28.3503
32.468699082679954 28.4089
32.49188851523011 28.3494
32.51507931531304 28.2667
32.538452678331 28.2299
32.56164622776311 28.2169
32.58484114831493 28.1157
32.60803744118015 28.183000000000003
32.631416344731896 28.1281
32.654615396551876 28.0735
32.67781582427913 28.0465
32.701198898634416 28.0167
32.72440209253756 28.0428
32.747606665947124 27.94
32.77081262006088 27.7234
32.79420126883317 27.6977
32.81740999876112 27.8127
32.840620112999424 27.6875
32.86383161274818 27.6887
32.88722585534586 27.7092
32.91044014056596 27.7939
32.933655814909734 27.6693
32.95687287957963 27.63
32.98027273544904 27.5741
33.00349259526636 27.4793
33.026713849030116 27.5575
33.04993649794511 27.5183
33.073341986570746 27.4391
33.09656744032826 27.4588
33.11979429286444 27.4632
33.14302254538647 27.4514
33.166433686291185 27.4812
33.18966475336992 27.4409
33.212897224069096 27.3654
33.23613109959831 27.3929
33.259547912343415 27.2597
33.2827846121627 27.3813
33.306022720453775 27.1884
33.32926223842861 27.1585
33.352684742614166 27.1942
33.37592709463173 27.0818
33.399170859982064 27.0878
33.422597648419426 26.9663
33.44584425514446 26.8527
33.46909227885668 26.8136
33.4923417207723 26.6779
33.51577423505344 26.6953
33.539026528130385 26.6225
33.56228024307245 26.5507
33.585535381098246 26.4378
33.60897364093058 26.4754
33.63223163992385 26.4636
33.6554910656699 26.3669
33.678751919389796 26.4045
33.702195944520106 26.2806
33.72545966903325 26.3098
33.74872482519663 26.1384
33.771991414233746 26.2769
33.79544122444841 26.2009
33.81871069412428 26.0271
33.84198160035767 26.055999999999997
33.86525394437455 26.0848
33.88870955949969 26.0653
33.911984794020626 26.0073
33.93526147001624 25.988000000000003
33.958539588715006 25.9932
33.98200102861669 25.8289
34.0052820477047 25.7679
34.02856451319451 25.763
34.05203033759056 25.7497
34.07531571090147 25.6799
34.09860253431845 25.6493
34.121890809074316 25.6438
34.145362493118924 25.6084
34.16865368561615 25.5763
34.191946333164054 25.4828
34.21524043699793 25.613000000000003
34.23871800066799 25.4731
34.26201503218366 25.3125
34.28531352370466 25.2854
34.30861347646881 25.3179
34.33209693978188 25.2899
34.3553998301885 25.2853
34.378704185565205 25.1635
34.402010007152356 25.061999999999998
34.42549939016683 25.1358
34.44880815937748 24.9868
34.472118398533134 24.9276
34.49543010887669 24.9426
34.51892543169198 24.8882
34.54224009966052 24.8768
34.56555624255917 24.7984
34.58887386163339 24.7351
34.61237514439016 24.7082
34.6356957311114 24.7038
34.65901779775809 24.7236
34.68252356662995 24.5933
34.705848608458616 24.5782
34.72917513396849 24.5686
34.75250314440949 24.5086
34.77601490857862 24.5152
34.799345904259795 24.3847
34.82267838863559 24.4647
34.846012362958525 24.2742
34.869530142679984 24.3288
34.89286711232212 24.3145
34.91620557568269 24.3733
34.93954553401677 24.2458
34.9630693495876 24.1689
34.986412313340814 24.1988
35.00975677584668 24.237
35.033102738362956 24.1768
35.05663261012228 24.1506
35.0799815881786 24.131999999999998
35.10333207003229 24.0958
35.12668405694369 24.0121
35.150220005273056 23.9849
35.17357501786656 23.9937
35.19693153931268 23.9378
35.220289570874385 23.8283
35.24383161619786 23.9228
35.267192683604904 23.9401
35.290555264930376 23.8796
35.314101899412165 23.7626
35.33746752422433 23.7782
35.36083466676374 23.7927
35.38420332829803 23.7863
35.407756095629054 23.7615
35.43112781085063 23.7746
35.45450104888391 23.6868
35.477875810999194 23.7119
35.50143473172161 23.6428
35.52481255774625 23.658
35.54819191167777 23.5225
35.57157279478914 23.5194
35.595137889488406 23.5308
35.61852184675279 23.4778
35.641907337029984 23.4128
35.665294361595684 23.3119
35.68886565090076 23.3065
35.7122557598848 23.3045
35.73564740699838 23.3256
35.759040593519934 23.2256
35.78261809810353 23.1689
35.80601437933051 23.0431
35.829412203814705 23.0786
35.85281157283719 23.0142
35.876395313415884 22.9787
35.8997977874528 22.971999999999998
35.92320180988546 22.9207
35.946790244133936 22.9271
35.97019737933222 22.9032
35.993606066789866 22.8558
36.01701630779276 22.8184
36.04061101440684 22.7948
36.06402437852291 22.746
36.08743930005611 22.7751
36.1108557802951 22.6689
36.13445678011326 22.6415
36.15787639383515 22.6299
36.18129757014299 22.6267
36.20472031032821 22.5046
36.22832762423364 22.4978
36.25175350829375 22.469
36.275180960119776 22.4118
36.298609981005924 22.409000000000002
36.32222362992669 22.4876
36.34565580510207 22.4483
36.36908955323448 22.3953
36.39252487562093 22.2292
36.416144880530226 22.2306
36.43958336764275 22.224
36.463023432914625 22.1523
36.486465077645676 22.2048
36.51009145956204 22.2213
36.53353627947859 22.2017
36.55698268276811 22.1209
36.58043067073321 22.0498
36.60406345072071 21.9379
36.62751462435344 21.958000000000002
36.65096738658405 21.9739
36.67460498210655 21.9615
36.69806093788647 21.9305
36.72151848619297 21.8525
36.744977628333636 21.9075
36.76862165890998 21.6641
36.79208400512205 21.7139
36.81554794910557 21.6828
36.83901349217101 21.6885
36.862663978991606 21.5679
36.88613273667352 21.5851
36.90960309738324 21.5587
36.933075062434064 21.4541
36.95673202673572 21.4675
36.98020721697122 21.4453
37.003684015502365 21.3621
37.027162423645365 21.3245
37.050825886711465 21.2987
37.07430753063053 21.2732
37.09779078812467 21.1959
37.121275660513014 21.2278
37.144945643673694 21.1649
37.16843376245278 21.1719
37.19192350009803 21.2063
37.215414857931435 21.1196
37.239091382563885 21.0041
37.262585997426164 20.9963
37.28608223645736 21.0426
37.309763684451696 21.0038
37.33326318851098 20.9824
37.356764320726555 20.8861
37.380267082425526 20.9217
37.40395510942588 20.8565
37.42746114683234 20.8545
37.45096881771841 20.7828
37.474478123414166 20.791999999999998
37.49817275092816 20.7646
37.52168534303452 20.6895
37.54519957395567 20.6074
37.568715445024665 20.6093
37.592416694607714 20.5828
37.61593586281424 20.6
37.63945667518264 20.6065
37.66297913304891 20.504
37.68668702630454 20.5429
37.710212792059274 20.4713
37.733740207334854 20.3411
37.757269273470364 20.3084
37.780983832050374 20.343
37.80451621684926 20.3065
37.82805025654007 20.3067
37.851585952464795 20.258
37.8753071980695 20.1336
37.89884622345676 20.1068
37.92238690911902 20.0984
37.94611318753442 20.018
37.969657210779765 20.0294
37.99320289834801 20.0485
38.016750251586465 19.9728
38.04048325513017 19.9208
38.06403395679343 19.9064
38.087586328183946 19.8904
38.11114037065203 19.8731
38.13488012115898 19.9034
38.1584375229181 19.7123
38.181996599821 19.7397
38.205557353221124 19.7526
38.229303872575656 19.699
38.2528679961576 19.726
38.27643380031219 19.6393
38.30000128639589 19.6196
38.32375459653193 19.554000000000002
38.34732546371299 19.5977
38.37089801690786 19.5189
38.39447225747609 19.4619
38.418232380377425 19.4673
38.441810012983396 19.4607
38.46538933705673 19.3836
38.488970353960084 19.3271
38.51273731166058 19.3342
38.536321731567014 19.2302
38.55990784840681 19.246
38.58367995004091 19.255
38.60726947812959 19.1605
38.63086070726198 19.1879
38.654453638806274 19.1778
38.678232613930824 19.1081
38.70182896773327 19.0704
38.72542702806741 19.0713
38.7490267963045 19.0286
38.77281266709232 18.9779
38.79641586862214 18.9902
38.8200207821842 18.8672
38.843627409152944 18.8824
38.86742019782782 18.8618
38.891030269149255 18.8351
38.914642058016156 18.8423
38.938255565806124 18.7738
38.96205529464307 18.722
38.98567225787121 18.7699
39.00929094417078 18.7123
39.03291135492255 18.6963
39.05671804624804 18.6241
39.080341923549106 18.5909
39.103967529460334 18.5258
39.127594865365744 18.4742
39.15140854155791 18.5467
39.17503935514948 18.5098
39.19867190290282 18.4282
39.22249083587951 18.453
39.24612686969409 18.4183
39.269764641845306 18.415
39.293404153722804 18.3184
39.317230110864074 18.2147
39.34087311998506 18.2488
39.36451787301696 18.2302
39.388164371352595 18.1474
39.41199737518003 18.1333
39.43564738196752 18.1186
39.45929913825317 18.1051
39.48295264543308 18.0934
39.506792718520884 18.0736
39.530449745387216 18.0693
39.55410852735203 17.9796
39.57776906581474 18.0242
39.60161623079 17.9585
39.625280300200025 17.9154
39.64894613032202 17.8945
39.67261372255866 17.9015
39.6964680021016 17.9081
39.72013913657293 17.8502
39.74381203738292 17.81
39.76748670593756 17.7353
39.79134812278169 17.711
39.81502634488497 17.6908
39.83870633896685 17.704
39.862388106436654 17.7017
39.88625668336918 17.6029
39.90994201572829 17.6073
39.933629125719285 17.5954
39.957503091207826 17.5149
39.9811937746168 17.593
40.00488623990914 17.453
40.02858048850006 17.455
40.05246165409549 17.4584
40.076159487492085 17.383
40.099859108448875 17.4043
40.123560518384345 17.3747
40.1474489070226 17.3869
40.171153913178564 17.2696
40.194860712584955 17.2472
40.2185693066637 17.2717
40.242464941335314 17.1792
40.26617714307655 17.1739
40.289891143772046 17.144000000000002
40.3136069448471 17.1439
40.33750984859743 17.0824
40.3612292688043 17.1278
40.3849504936829 17.0655
40.40867352466194 17.0697
40.43258372059144 17.0383
40.45631038219906 17.0018
40.48003885420956 16.9355
40.503769138055105 16.9075
40.52768664931955 16.8796
40.55142057531802 16.8293
40.57515631746428 16.8109
40.599079334038514 16.8249
40.62281872700477 16.7673
40.64655994043941 16.7305
40.67030297578061 16.7589
40.69423334835778 16.7048
40.71798004609188 16.6872
40.74172857006355 16.6228
40.76547892171441 16.6258
40.7894166736039 16.6136
40.813170699248566 16.5154
40.83692655691388 16.4659
40.86068424804498 16.5325
40.884629402612525 16.5034
40.908390779366385 16.5391
40.932153993938 16.4747
40.95591904777605 16.4473
40.979871628443995 16.4334
41.003640379561936 16.3995
41.02741097430883 16.3129
41.05118341413683 16.3276
41.075143444384416 16.2492
41.098919593177826 16.2767
41.1226975914255 16.2185
41.14647744058318 16.223
41.170444943946755 16.1294
41.19422851378379 16.1534
41.218013938914645 16.0486
41.24198706625173 16.0639
41.26577622087193 16.0195
41.289567235177785 16.026
41.31336011063129 15.9757
41.337340752422875 15.9707
41.361137369129835 15.9653
41.38493585138705 15.9491
41.40873620066004 15.92
41.43272438060107 15.912
41.45652848292052 15.8357
41.48033445666918 15.7638
41.50414230331616 15.7859
41.528138045159764 15.7231
41.551949656675205 15.7138
41.575763145513235 15.6896
41.59957851314666 15.6863
41.62358184070442 15.6899
41.64740098505737 15.6582
41.6712220126409 15.6131
41.69504492493139 15.5804
41.71905586207357 15.5624
41.74288256296395 15.5087
41.766711153007456 15.4656
41.79054163368412 15.4587
41.814560204340054 15.4619
41.838394485526365 15.4525
41.86223066180303 15.4547
41.88625497706819 15.3947
41.910094962812 15.3646
41.93393684811168 15.3192
41.95778063445365 15.277000000000001
41.981812625263366 15.2735
42.00566023303407 15.2484
42.029509746323676 15.2188
42.05336116662236 15.212
42.077400857069705 15.1477
42.10125611078846 15.1619
42.12511327600405 15.0944
42.14897235421036 15.0507
42.173019768448455 15.044
42.19688269209613 15.0247
42.22074753323349 15.0315
42.24461429335818 14.9956
42.268669455600495 15.0037
42.292540073217886 14.9471
42.31641261433284 14.9079
42.34028708044675 14.8662
42.36435001496739 14.8636
42.38822835065557 14.9076
42.41210861586426 14.8331
42.4359908120986 14.85
42.46006154323262 14.7563
42.48394762115317 14.7375
42.507835634632315 14.7635
42.531912233047436 14.6772
42.55580413732265 14.6141
42.579697981698 14.6401
42.60359376768525 14.6434
42.62767820545945 14.6018
42.65157789440821 14.5617
42.67547952952185 14.5592
42.699383112316 14.5878
42.72347541395347 14.5082
42.74738291190531 14.4117
42.771292362102166 14.4769
42.795203766063516 14.4848
42.819303956130405 14.41
42.843219287476536 14.3504
42.86713657716324 14.3353
42.89105582671383 14.272
42.91516392983864 14.3294
42.939087119032166 14.3154
42.963012272677304 14.2592
42.98693939230129 14.204
43.01105543317513 14.1592
43.034986504731386 14.177
43.05891954686589 14.2176
43.08285456110972 14.139000000000001
43.10697856448665 14.1617
43.130917542983475 14.038
43.15485849820081 14.0325
43.17880143167367 14.0309
43.20293342237094 13.9755
43.226880332449 13.9487
43.25082922540554 13.952
43.27496722682525 13.9486
43.29892010567796 13.9376
43.32287497204102 13.905999999999999
43.34683182745632 13.8078
43.370977859791836 13.7981
43.39493871351105 13.807
43.41890156092628 13.784
43.44286640358341 13.7767
43.46702049182749 13.7277
43.49098934522816 13.7162
43.51496019852649 13.6881
43.5389330532723 13.6546
43.56309522248204 13.6914
43.58707210044314 13.6665
43.61105098451946 13.6249
43.63503187626491 13.5641
43.659202151562134 13.5221
43.68318707902681 13.5254
43.70717401884041 13.5094
43.731162972560874 13.482000000000001
43.75534137913236 13.4817
43.779334381108384 13.4522
43.803329401683186 13.4074
43.82732644241872 13.4169
43.8515130055166 13.3226
43.87551410707659 13.3119
43.89951723350145 13.3272
43.923709934595614 13.2642
43.94771713129917 13.2744
43.97172635758096 13.2847
43.99573761501002 13.2518
44.0199385169922 13.2382
44.04395385732619 13.1768
44.067971233533086 13.1366
44.09199064718605 13.1458
44.11619977548961 13.0793
44.14022328470671 13.0462
44.16424883610785 13.1492
44.18827643127035 13.0606
44.21249381139513 13.0166
44.236525514814076 12.9359
44.26055926674478 12.9603
44.28459506876863 13.0356
44.3088207262813 12.9643
44.33286064928722 12.9531
44.35690262714919 12.9047
44.38094666145278 12.860999999999999
44.4051806219871 12.9101
44.42922879003185 12.8366
44.45327901929361 12.8643
44.477331311362136 12.7808
44.501573600619416 12.7797
44.525630039221795 12.7087
44.54968854541895 12.7204
44.573937102200176 12.6957
44.5979997645541 12.6477
44.622064499300315 12.6128
44.64613130803592 12.6095
44.67038823869318 12.6088
44.69445921643748 12.5992
44.718532272981385 12.5608
44.742607409926194 12.5761
44.76687274034801 12.5184
44.79095205918753 12.5016
44.81503346325094 12.5105
44.839116954143876 12.44
44.86339071028742 12.4314
44.88747839599524 12.4002
44.91156817336837 12.3929
44.93566004401666 12.3702
44.959942251908146 12.3508
44.984038330325966 12.3584
45.00813650686762 12.2752
45.03223678314731 12.2905
45.05652746888232 12.2375
45.08063196592069 12.2107
45.104738567558705 12.1825
45.128847275414856 12.175
45.15314646515866 12.1446
45.17725940679741 12.1289
45.20137445952892 12.1115
45.22568004865265 12.1021
45.24979934496396 12.0789
45.27392075725247 12.0377
45.29804428714431 12.0334
45.322358426247604 12.0057
45.346486212804315 11.9871
45.370616121861914 11.9933
45.39474815505086 11.943
45.41907087049246 11.915999999999999
45.4432071734666 11.845
45.46734560548283 11.8803
45.49148616817604 11.8727
45.51581748638564 11.8431
45.5399623320197 11.8461
45.56410931325473 11.8054
45.58825843173002 11.8425
45.61259837920865 11.7665
45.636751793816 11.7151
45.66090735060093 11.7038
45.68506505120716 11.6941
45.7094136545275 11.6714
45.73357566449271 11.6442
45.75773982322992 11.6119
45.78190613238733 11.658
45.806263418194064 11.6099
45.83043404997326 11.6294
45.85460683713677 11.5668
45.87897065658495 11.5336
45.90314777634752 11.4927
45.92732705646868 11.4993
45.9515084986045 11.4949
45.97588104735473 11.453
46.00006683541565 11.4365
46.02425479047904 11.4074
46.04844491420549 11.3613
46.0728262191024 11.3482
46.09702070211635 11.3496
46.12121735879483 11.2984
46.14541619080294 11.3101
46.169806278764455 11.2644
46.194009483459034 11.2735
46.21821486849841 11.2281
46.24242243555223 11.18
46.266821333570014 11.1555
46.29103328674601 11.1717
46.31524742696538 11.19
46.33946375590237 11.126
46.36387149104216 11.1574
46.38809221957392 11.0995
46.41231514186606 11.1225
46.436540259597464 11.0945
46.460956858999374 11.0624
46.48518638983522 11.0821
46.509418121166966 11.0296
46.533652054678114 10.9745
46.55807754555709 10.9731
46.58231590571962 10.9712
46.60655647313217 10.923
46.630988654873654 10.902999999999999
46.655233659129024 10.8809
46.67948087571551 10.8545
46.70373030632484 10.8388
46.72817142736393 10.8417
46.752425308428684 10.7945
46.77668140861147 10.7689
46.80093972960865 10.7334
46.82538981736788 10.722999999999999
46.849652602470904 10.7021
46.87391761349769 10.7043
46.8981848521493 10.7083
46.9226439341274 10.6497
46.946915650573224 10.6528
46.97118959976749 10.6303
46.99546578341598 10.5961
47.019933887188216 10.5782
47.04421456235744 10.5986
47.06849747711879 10.581
47.09278263318286 10.5238
47.11725978640143 10.484000000000002
47.14154944775105 10.4573
47.165841355555656 10.452
47.1901355115306 10.4251
47.214621741924994 10.4191
47.23892041698887 10.4216
47.26322134538975 10.3754
47.28771440635075 10.3447
47.31201986422527 10.3727
47.33632758061436 10.3193
47.360637557241866 10.2818
47.38513974410611 10.3026
47.40945426407847 10.265999999999998
47.43377104948137 10.2231
47.45809010204344 10.2567
47.48260144275502 10.2434
47.506925052572285 10.193
47.53125093475548 10.1689
47.55557909103813 10.1486
47.58009961361992 10.124
47.60443234110732 10.1054
47.62876734791564 10.1166
47.65310463578333 10.0736
47.6776343683373 10.0845
47.7019762413987 10.0434
47.72632040075572 10.016
47.75066684815169 10.0289
47.77520581885936 9.996889999999999
47.799556865477655 9.94765
47.823910205386 9.96283
47.84826584033272 9.92031
47.87281407745551 9.91663
47.89717432569297 9.88998
47.92153687423484 9.89541
47.94609208429692 9.89409
47.97045925671401 9.834439999999999
47.99482873471275 9.78943
48.01920052005013 9.8116
48.04376504619224 9.75642
48.068141469543484 9.80134
48.09252020552573 9.78222
48.11690125590099 9.74554
48.1414751266064 9.71505
48.16586082917454 9.725610000000001
48.19024885144316 9.688360000000001
48.2146391951793 9.68712
48.239222439012764 9.67095
48.26361744916137 9.62925
48.28801478610016 9.60867
48.31241445160131 9.58165
48.337007097209366 9.58201
48.36141144338331 9.596160000000001
48.38581812345755 9.56682
48.41022713920929 9.53619
48.434829215320704 9.5172
48.45924292604658 9.49221
48.48365897780325 9.516589999999999
48.50807737237308 9.45068
48.532688907799276 9.410969999999999
48.55711201168574 9.45407
48.581537463754074 9.422139999999999
48.60615611725119 9.434289999999999
48.63058628942721 9.39135
48.65501881516546 9.36689
48.6794536962573 9.331710000000001
48.70408185970339 9.29895
48.72852147531801 9.296619999999999
48.75296345168211 9.21809
48.77740779059232 9.25292
48.80204549302823 9.23798
48.82649458091802 9.24607
48.85094603676547 9.2124
48.87539986237231 9.189110000000001
48.90004713292306 9.198839999999999
48.92450572200832 9.16195
48.94896668628025 9.13505
48.97343002754588 9.135710000000001
48.99808689542115 9.13069
49.02255501470614 9.11393
49.04702551642794 9.11936
49.0714984023988 9.09989
49.096164896893235 9.04642
49.120642575466796 9.03434
49.145122643748394 9.0193
49.16960510355558 8.99262
49.19428125404938 8.97066
49.2187685210852 8.9694
49.243258185121555 8.93394
49.26794160167084 8.923739999999999
49.2924360839405 8.9437
49.31693296869764 8.88642
49.34143225776915 8.88437
49.36612538195438 8.85495
49.39062950396021 8.84352
49.41513603578346 8.82634
49.4396449792564 8.8144
49.46434784069503 8.78846
49.488861631846454 8.774560000000001
49.513377840166804 8.77786
49.537896467493745 8.76634
49.56260909589029 8.67239
49.587132585683285 8.69957
49.611658500018365 8.687330000000001
49.636186840738596 8.70429
49.66090926588511 8.669139999999999
49.685442483902584 8.649510000000001
49.70997813385706 8.60524
49.734516217597076 8.63515
49.75924846937352 8.58915
49.7837914452858 8.5816
49.80833686055187 8.576989999999999
49.83288471702571 8.51935
49.85762682540054 8.507610000000001
49.882179588965734 8.521469999999999
49.9067347993235 8.487160000000001
49.93129245833333 8.482439999999999
49.95604445336378 8.46143
49.98060703442832 8.44212
50.005172069746266 8.469489999999999
50.02993150438364 8.41581
50.05450147301533 8.40569
50.07907390151433 8.38381
50.10364879174981 8.36525
50.12841816587289 8.337539999999999
50.1529980044635 8.31846
50.17758031042124 8.31832
50.20216508562089 8.30407
50.22694442953363 8.28512
50.25153416817468 8.27213
50.27612638170508 8.26506
50.300721072005196 8.22873
50.325510416102105 8.23977
50.350110084975064 8.224210000000001
50.37471223628208 8.18097
50.39931687190919 8.172189999999999
50.424116246675766 8.169319999999999
50.44872587605249 8.13237
50.47333799543065 8.14147
50.49795260670191 8.12217
50.52276204271512 8.083739999999999
50.54738166295838 8.0936
50.57200378079314 8.067739999999999
50.596628398116835 8.02603
50.62144792604559 8.05606
50.646077567609396 8.03166
50.670709714377715 8.00993
50.69553683636198 7.9705
50.72017401885922 7.9899
50.7448137122895 7.97728
50.76945591856022 7.945
50.79429318636823 7.91551
50.818940443716784 7.92
50.84359021965163 7.90522
50.868242516085964 7.86982
50.893089960641895 7.86786
50.917747323549435 7.8239
50.94240721271973 7.84422
50.96706963007175 7.7884199999999995
50.99192728239342 7.84502
51.01659478166073 7.8003800000000005
51.04126481489051 7.77427
51.06593738400761 7.7804199999999994
51.090805275207074 7.74108
51.11548294172845 7.74706
51.14016314993547 7.704330000000001
51.164845901758845 7.69335
51.18972406304274 7.679819999999999
51.21441192780656 7.66833
51.23910234200271 7.67285
51.2637953075678 7.63508
51.288683770237945 7.59095
51.31338186432707 7.580839999999999
51.33808251561888 7.57025
51.362978729967345 7.57844
51.387684521509755 7.563339999999999
51.41239287610203 7.55997
51.437103795691165 7.530930000000001
51.46201036644977 7.48556
51.486726441956634 7.5104
51.51144508832545 7.51748
51.536166307509156 7.47307
51.56108326624387 7.440410000000001
51.58580965706056 7.4412899999999995
51.61053862657523 7.43135
51.635270176746864 7.3898600000000005
51.66019755512065 7.416510000000001
51.68493429268881 7.403810000000001
51.70967361681515 7.3859
51.73441552946465 7.33528
51.759353359237934 7.37247
51.7841004750961 7.2967
51.80885018539685 7.26341
51.833602492111254 7.28947
51.8585508051424 7.2612
51.883308330926425 7.2434899999999995
51.90806845906181 7.24983
51.932831191525715 7.21858
51.95779001977161 7.18399
51.98255798721516 7.175210000000001
52.00732856494335 7.166910000000001
52.03229530577543 7.12432
52.057071130455945 7.11865
52.081849571391054 7.1266300000000005
52.106630630568695 7.12114
52.13160794279417 7.05427
52.15639426492067 7.07453
52.18118321127822 7.08666
52.205974783860896 7.05888
52.23096269971011 7.019369999999999
52.255759551287994 7.03337
52.280559035098186 6.992389999999999
52.30536115314103 6.971660000000001
52.33035970494467 6.97669
52.35516711807904 6.98239
52.37997717147198 6.94685
52.40478986713005 6.92236
52.42979908731974 6.94342
52.454617094216 6.887589999999999
52.47943774942214 6.87297
52.50426105495102 6.899380000000001
52.529280976059844 6.85525
52.554109609024096 6.840839999999999
52.57894089837482 6.8310699999999995
52.60377484613117 6.810010000000001
52.62880550079408 6.80081
52.65364479223379 6.77077
52.67848674816189 6.75475
52.70352547971946 6.733060000000001
52.72837279155837 6.7565800000000005
52.753222773982785 6.744
52.778075429022984 6.72394
52.80312495150885 6.69382
52.827982978797436 6.70092
52.85284368481815 6.645560000000001
52.87770707160767 6.6177600000000005
52.90276741793998 6.64933
52.92763619336701 6.61999
52.952507655698504 6.61298
52.977381806977576 6.62215
53.00245301017842 6.5778
53.02733256653592 6.6022300000000005
53.052214817996074 6.56573
53.077099766608484 6.54058
53.102181859804446 6.51777
53.127072229988265 6.55349
53.15196530349892 6.51751
53.17686108239249 6.49301
53.20195409881522 6.491709999999999
53.22685531582556 6.47147
53.25175924441303 6.47719
53.27666588664027 6.4668
53.30176985962693 6.4147
53.3266819565689 6.4002
53.35159677336455 6.41605
53.376514312083096 6.39037
53.40162927507703 6.38167
53.42655228516116 6.34112
53.45147802340193 6.33514
53.47660125628886 6.36233
53.50153247842639 6.321969999999999
53.52646643496923 6.31145
53.55140312799818 6.27303
53.576537409691696 6.2895900000000005
53.60147960336152 6.24539
53.626424539786164 6.241969999999999
53.65137222105307 6.20745
53.67651758529126 6.24527
53.70147078399681 6.19296
53.72642673383343 6.18135
53.75138543689533 6.19838
53.776541917524526 6.15949
53.801506154876755 6.15067
53.826473151763246 6.15373
53.851442910284916 6.12293
53.87661054126026 6.12282
53.9015858509782 6.07165
53.92656392866066 6.08398
53.95154477641532 6.0841
53.976723591801296 6.03646
54.00171000771266 6.0587800000000005
54.02669920004598 6.04964
54.051691170915745 6.00235
54.076881204886796 6.04129
54.101878760928514 6.0281
54.12687910187696 5.97855
54.152077577768296 5.9766900000000005
54.1770835166946 5.96739
54.20209224691339 5.9617
54.22710377055121 5.9333800000000005
54.25231352511594 5.94423
54.27733066384342 5.9056
54.30235060239643 5.86715
54.32737334290836 5.85565
54.35259441062629 5.81583
54.377622783395324 5.83764
54.40265396455061 5.79205
54.42768795623251 5.79005
54.45292037169559 5.7377199999999995
54.477960012857906 5.78945
54.50300247099511 5.77883
54.52804774825457 5.7527099999999995
54.55329154616743 5.74301
54.57834249018678 5.74581
54.6033962597977 5.64289
54.6284528571545 5.67859
54.653708072335164 5.6828199999999995
54.67877035378786 5.5889
54.70383546947698 5.60024
54.72890342156389 5.582319999999999
54.7541700889442 5.56332
54.77924374251975 5.571969999999999
54.8043202390049 5.5418400000000005
54.82959552413022 5.47544
54.8546777351945 5.46349
54.87976279569621 5.43492
54.90485070780914 5.52139
54.930137506558005 5.4793400000000005
54.95523115074295 5.4253
54.98032765308844 5.37576
55.005427015775496 5.38066
55.03072536339621 5.33919
55.05583047570572 5.31344
55.080938454927676 5.33721
55.10604930325027 5.33501
55.131359235107396 5.29681
55.15647585066083 5.27986
55.181595341907496 5.21941
55.20671771104285 5.20172
55.232039262617704 5.1814800000000005
55.25716741665048 5.12745
55.28229845518636 5.16674
55.30743238042802 5.13163
55.33276558731939 5.12501
55.357905315183636 5.066319999999999
55.383047936390035 5.04354
55.40819345314859 5.03726
55.433538351073295 5.03749
55.458689688238415 5.01156
55.483843927614096 4.94311
55.509197623043605 4.99921
55.53435769621134 4.92556
55.55952067826466 4.88157
55.5846865714265 4.87107
55.61005202069737 4.87194
55.63522376553902 4.86426
55.66039842818645 4.79075
55.68557601087004 4.82627
55.7109532500271 4.7099400000000005
55.73613670233794 4.790430000000001
