TT I
1.2716486653135266 7.27827
1.2939594142134223 7.1916199999999995
1.3162702121660406 7.185639999999999
1.3385810600174564 6.81929
1.3608919586137629 6.61603
1.383202908801069 6.38354
1.405513911425503 6.23865
1.4278249673332093 6.373530000000001
1.4501343378461518 6.593780000000001
1.4724455028545926 5.87332
1.4947567236847858 6.85802
1.517068001182951 6.1116
1.5393793361953272 5.6508400000000005
1.5616907295681737 6.18278
1.5840021821477681 5.4131599999999995
1.60631369478041 4.75536
1.6286252683124185 4.78161
1.6509369035901333 5.02487
1.6732468618895553 5.40512
1.695558623192809 4.9169599999999996
1.7178704487808514 4.51854
1.7401823395001077 4.77175
1.7625012545597203 4.7935
1.7848028405262486 4.817880000000001
1.8071218901122095 4.40214
1.8294236121921872 4.37084
1.8517427996910911 4.545730000000001
1.8740620574440425 4.81683
1.8963639900671978 5.05215
1.9186833908139995 5.0645
1.9409854680117449 5.28886
1.9633050151394713 5.145919999999999
1.9856246367570705 4.8219199999999995
2.0079269371922672 4.4566
2.03024671027244 4.3981900000000005
2.0525491637446027 4.78305
2.074869091674931 4.3647599999999995
2.097171701569106 4.30299
2.1194917877373847 4.93872
2.141811954326636 4.99355
2.164114805233074 4.92178
2.186435135143035 6.03444
2.208738150935709 15.2386
2.231058647554722 32.5613
2.2533792288321184 25.628
2.275682498336085 10.9364
2.298003251406138 5.74785
2.3203066942619714 5.45429
2.3426276225136022 4.80396
2.3649486396617507 5.6336699999999995
2.387252348930071 6.42076
2.4095735463442893 6.0235
2.4318774374315884 5.43939
2.4541988185014043 6.1972
2.476502894794693 6.74909
2.498824462909887 6.95305
2.521146125856138 6.48854
2.5434504863470337 7.39208
2.5657723414244717 7.4751
2.588076895590662 7.16136
2.610398946189713 7.99993
2.6327210958598384 7.46437
2.6550259469304716 7.62367
2.6773482972090137 7.3941
2.6996533504259 7.810969999999999
2.7219759047039602 8.317860000000001
2.744298562293959 8.12536
2.7666039251246595 7.904669999999999
2.7889267918020164 7.342960000000001
2.8112323652516555 8.18928
2.833555444408179 8.15574
2.8558786311183852 7.68664
2.8781845268938557 8.57266
2.9005079311721484 9.3707
2.9228140460410397 8.958160000000001
2.9451376712799635 8.9324
2.967444008632326 9.331719999999999
2.9897678582247247 9.94341
3.0120918213106695 9.93665
3.0343984987899373 10.3702
3.0567226913198637 10.8083
3.079029599759726 11.7164
3.101354025127254 11.9231
3.123678568232338 12.4944
3.145985829517914 12.8188
3.16831061055229 13.860999999999999
3.1906181112775593 14.2685
3.212943133635653 14.8419
3.2352682779763207 14.6769
3.2575761442691227 14.9528
3.2799015350264273 15.5246
3.302209649240067 16.6531
3.3245352898092655 16.811
3.3468436553365257 17.2569
3.369169549113219 17.6038
3.3914955708171384 18.6444
3.413804319727358 19.2827
3.4361305997334863 18.8883
3.4584396084414553 19.4974
3.4807661501462652 20.3019
3.503092824025881 21.0117
3.5254022288463154 21.2356
3.5477291695206588 22.0015
3.5700388426251948 22.5741
3.5923660534916446 24.4863
3.6146934007816114 42.0491
3.637003482731501 101.87200000000001
3.6593311053109985 116.583
3.681641464033634 64.2263
3.7039693653009733 32.0887
3.726297407241705 26.8652
3.7486081875460804 25.9117
3.7709365132734978 26.423000000000002
3.793247578841633 26.935
3.8155761917550093 26.9961
3.8378875459837216 27.2187
3.8602164494827234 27.7877
3.882545499606844 28.7905
3.9048572932539183 28.9523
3.9271866390645718 29.2844
3.9494987298666713 30.0625
3.971828374764527 30.8095
3.9941581705403255 30.9262
4.016470713506008 31.6359
4.038800813471445 32.4924
4.061113662089144 32.9313
4.0834440696459176 33.8174
4.105774632334751 34.3058
4.128087945865126 34.9906
4.150418821249301 35.7925
4.172732448931298 37.3734
4.195063640413578 39.3377
4.2173775856475215 44.2582
4.239709096631102 80.8765
4.262040768704612 274.406
4.284355196706267 378.718
4.306687193387355 242.38
4.329001947444346 90.1827
4.35133427213731 49.339
4.373666762177566 45.0418
4.395982011761091 44.8707
4.418314834921175 46.0013
4.44063041906622 55.3796
4.4629635787515625 68.7464
4.4852969080429785 68.5169
4.5076130004776225 55.6099
4.529946671403969 50.3074
4.552263106909177 50.2335
4.574597122877047 51.5221
4.596931312711224 52.5203
4.619248269273446 53.1368
4.6415828092605835 54.1778
4.663900117405352 55.0093
4.686235010953232 56.8566
4.708552674085913 58.2865
4.730887924602802 59.5891
4.753223354952695 61.1659
4.775541557023902 62.0608
4.797877349456786 63.6763
4.820195915032126 65.72399999999999
4.842532072957498 67.2242
4.864868414979744 69.2499
4.88718753227192 71.4333
4.909524244902505 73.5388
4.931843734218147 75.2213
4.954180820867835 77.7861
4.976518095879839 80.1797
4.998838149695359 83.1157
5.021175803844231 86.3949
5.043496238205739 90.0858
5.065834274903528 93.9118
5.088172504230693 98.8249
5.1104935158799565 105.556
5.132832132875765 129.312
5.155153533596801 179.67
5.1774925416746225 214.08900000000003
5.199814334878411 342.473
5.2221537374521505 943.564
5.244493338631803 2735.62
5.266815727034316 7340.43
5.289155727832427 12486.6
5.311478517248165 8940.98
5.333818921080011 2998.02
5.356159527788849 602.635
5.3784829252032536 194.476
5.400823940070432 147.45
5.423147747031976 130.531
5.445489173474152 120.464
5.467830807066149 114.302
5.490155234831516 109.786
5.512497285125229 106.694
5.534822130975162 104.853
5.557164601388673 102.391
5.579489868738879 99.7142
5.601832762690846 98.8999
5.6241758697774475 98.0677
5.646501775867269 97.0727
5.668845311622074 95.2868
5.691171647754637 94.4368
5.713515615597765 93.6352
5.735859800852677 92.1432
5.758186788542988 91.689
5.780531411018185 91.2907
5.802858837297399 91.2099
5.825203900414495 91.4224
5.8475491852224 91.3519
5.869877275883075 91.8744
5.892223006467101 92.4524
5.914551544266608 93.3681
5.936897724049891 96.2883
5.959244129804903 101.17299999999999
5.981573344815301 116.609
6.0039202049061 197.05
6.026249875609095 428.30400000000003
6.04859719346037 952.628
6.070927323278297 2109.58
6.093275102315365 4407.79
6.115623113320588 5307.97
6.137953938319995 3533.93
6.160302415650845 1121.72
6.182633708324452 261.092
6.2049826554078376 119.00299999999999
6.227331838745022 94.9762
6.249663839443684 86.698
6.27201349767565 84.0403
6.294345974611799 91.6649
6.316696111167083 106.64299999999999
6.339046488263839 99.7897
6.361379686074702 82.0751
6.383730546639482 72.9016
6.406064229255215 69.3727
6.428415576718203 68.7251
6.450749747566656 67.7064
6.47310158535871 66.6997
6.495453669698332 66.0681
6.517788579421056 65.3413
6.540141159237969 64.2579
6.562476565766648 63.8676
6.5848296444934045 63.3181
6.607182974060425 62.9977
6.6295191323281015 63.2776
6.651872965955752 67.352
6.6742096296068985 98.4406
6.6965639707294615 154.688
6.71891856698715 155.796
6.741255995248479 102.102
6.763611104154477 69.9131
6.785949046381137 61.4513
6.808304671371482 59.0837
6.8306605557940046 58.897
6.852999275508618 57.953
6.875355681171544 57.448
6.897694923437771 57.0554
6.92005185377892 56.9422
6.9423916220322655 56.906000000000006
6.964749080490181 55.9658
6.987106804399774 56.1055
7.009447368180821 55.8955
7.031805625367033 55.8952
7.054146723727803 56.3506
7.076505517631004 55.9736
7.098864581288365 55.4876
7.121206488070854 55.6561
7.143566093607822 55.2823
7.165908543567245 55.4083
7.188268694426048 55.5185
7.2106291193438095 55.9654
7.232972390625943 57.6997
7.255333366030969 72.4512
7.277677189091925 137.431
7.300038718428332 197.61700000000002
7.322400526130865 165.72
7.344745183422596 97.4409
7.367107550224791 64.1223
7.389452767901992 57.3995
7.411815697249891 56.2872
7.434161478756298 54.9384
7.456524974096713 55.0029
7.478888753837185 54.7427
7.501235387657368 55.01
7.523599738562711 55.1738
7.545946944825532 55.1054
7.568311870344528 55.5432
7.5906770845765665 55.7949
7.613025156078678 57.5636
7.635390950099687 59.0463
7.657739602662809 58.1575
7.680105979923558 56.903
7.702472650212829 56.5864
7.724822180948224 56.1228
7.747189439655568 56.4917
7.769539560075357 56.3876
7.791907410653562 56.8933
7.81425812420825 56.6404
7.836626570110925 57.0688
7.858995315087906 58.0375
7.881346924933401 58.2437
7.903716270417482 58.7648
7.926068482028405 59.0175
7.948438431475253 59.5266
7.9708086843180235 60.2234
7.993161805171116 60.8066
8.015532667162402 61.028999999999996
8.037886398416653 62.1581
8.060257873014221 62.4364
8.082629655331942 63.074
8.104984308787587 64.1015
8.127356708900503 67.6789
8.149711981398308 74.3709
8.172085002766314 77.0866
8.194458336181368 73.2532
8.216814543847752 70.0813
8.23918850371002 69.5826
8.26154533906492 70.5493
8.283919928836452 71.8612
8.306277395339652 72.5192
8.328652618483376 74.1069
8.351028159736202 75.8696
8.373386579575245 78.3859
8.395762759396959 80.4604
8.418121819038275 85.5871
8.440498640894003 100.435
8.462875785192262 116.514
8.485235811156207 125.603
8.507613602688501 158.157
8.529974277114228 238.025
8.552352719347912 370.478
8.574731488360351 626.073
8.59709314210385 1135.34
8.619472567021075 1780.7
8.64183487789147 2188.66
8.664214962183097 1873.36
8.686577933647762 1022.6
8.708958680784317 398.129
8.731339760774953 173.487
8.753703729764451 114.366
8.77608547780821 100.471
8.798450116065078 96.3247
8.820832535634787 93.1088
8.843215292401656 91.4671
8.865580941199045 89.9232
8.887964374703538 88.8952
8.910330701447199 90.4913
8.932714815164482 93.4053
8.955099270424924 92.8851
8.977466620733543 89.1923
8.999851761421976 85.6588
9.022219798361645 83.9303
9.04460562795561 83.2338
9.066991803441677 83.3543
9.089360876979615 83.1408
9.111747746589993 82.757
9.13411751544971 82.0929
9.156505082664324 81.9084
9.178875550323522 82.4294
9.20126381862328 82.7082
9.223652438908596 83.2026
9.246023961427412 82.9737
9.26841328802173 82.4121
9.290785518039224 81.9874
9.313175554425882 82.5011
9.335565947154315 82.7619
9.357939245086508 82.7355
9.380330352834827 82.9054
9.40270436697103 83.1484
9.425096193225055 82.9912
9.447488380180165 84.0488
9.469863475295412 84.3809
9.492256385987508 84.9022
9.514632206018318 85.213
9.537025843935714 85.7226
9.559402392368193 86.4065
9.581796761000229 87.561
9.604191496441521 88.4848
9.626569144158516 92.4151
9.648964615551032 97.6559
9.671343000390081 100.09200000000001
9.693739211225699 97.1575
9.716135793237463 94.148
9.738515290448102 93.2315
9.760912617143402 94.0018
9.783292860202891 95.2468
9.805690935076182 96.1161
9.828089385495742 97.458
9.850470754023561 100.027
9.872869957865444 108.866
9.89525208097539 126.374
9.917652041736662 141.02100000000002
9.940052382417589 139.232
9.962435644102392 140.333
9.984836746950979 170.282
10.007220771957746 230.34599999999998
10.029622640473708 328.61300000000006
10.052007432299963 499.381
10.074410069984072 784.3539999999999
10.096813093716005 1217.0
10.119199042482517 1709.68
10.141602840636468 1933.98
10.163989564971628 1642.68
10.186394141051062 964.41
10.208799107559706 430.036
10.231187001965623 201.195
10.253592751657669 129.975
10.275981430388155 114.905
10.298387966769793 114.98
10.320794897965431 118.37700000000001
10.343184759907361 117.044
10.36559248305461 110.29299999999999
10.387983138083852 105.281
10.410391656691655 106.55
10.432800574501677 116.27
10.455192425893369 131.775
10.47760214443012 156.238
10.499994797678786 197.653
10.522405320453982 271.13
10.54479877906917 383.68
10.567210109595656 501.144
10.5896218454736 578.93
10.612016518879773 515.188
10.634429067781074 362.352
10.656824555333241 215.613
10.679237920773568 133.111
10.701651695961992 98.9282
10.724048411481384 90.0336
10.746463008485165 87.2457
10.768860546937125 85.5602
10.791275969274796 83.7376
10.81369180576079 82.2984
10.836090585366925 81.4607
10.858507252467449 80.2497
10.88090686379991 79.3458
10.903324365036394 78.9198
10.925724811614439 79.2212
10.948143150509463 80.2946
10.970561909719066 79.6461
10.992963615930844 77.5759
11.015383218085756 75.1866
11.037785768347074 73.4673
11.06020621697282 73.119
11.082627090322113 72.7107
11.105030913430326 72.1307
11.12745263854165 72.9651
11.149857314510728 77.3732
11.172279894912576 84.8762
11.194702904450653 86.0855
11.217108866490921 81.0778
11.239532736615194 75.4973
11.26193956033512 72.9658
11.284364294577085 70.9214
11.306789462371718 68.7968
11.329197585398376 67.4525
11.351623622610898 67.2983
11.37403261614354 66.653
11.396459526308487 66.358
11.418869393879497 65.7804
11.441297180532617 65.6097
11.463725406927658 65.4097
11.486136592353875 65.2265
11.508565700543707 65.8175
11.530977768845315 68.1786
11.553407762368774 69.334
11.575838200059769 68.5969
11.598251599479612 66.1892
11.620682927815501 64.4854
11.64309721895548 63.7471
11.665529441478206 63.7299
11.687962112597958 63.1154
11.710377748130886 63.3947
11.732811318753434 63.0423
11.755227854859067 63.2906
11.777662328529495 63.4163
11.800079768750786 62.9992
11.822515149015453 62.781000000000006
11.844950984084935 62.9559
11.867369787303163 62.5805
11.889806534289491 62.5777
11.912226250487029 62.8591
11.934663912939751 63.2478
11.9571020346363 63.2574
11.979523127133968 63.2018
12.001962169624331 63.8676
12.024384183972964 64.4639
12.046824150809913 67.3371
12.069264581333726 72.2019
12.091687985297767 78.0618
12.11412934550045 87.6843
12.136553680195208 101.581
12.158995973632788 122.266
12.181438735204349 148.893
12.20386447284199 179.388
12.226308172985636 204.092
12.24873485024193 204.56099999999998
12.271179492516982 172.27
12.293607112949127 133.89
12.316052700916226 100.82
12.338498763250042 82.1761
12.360927805303868 71.9838
12.383374818673879 67.1561
12.405804812803074 65.1641
12.428252780773262 64.7063
12.45070122756722 64.8441
12.473132656675375 64.3832
12.49558206341869 64.5109
12.518014453510101 64.5898
12.540464823770117 64.6664
12.562915677315177 64.9513
12.58534951575545 65.9966
12.607801338171472 68.2324
12.630236146511358 74.3638
12.652688941369085 80.2984
12.675124723177234 80.8034
12.697578494048786 76.3002
12.720032754458185 70.5223
12.742470003354093 68.5198
12.764925245138771 68.0704
12.787363476431278 68.3278
12.809819703166806 68.7278
12.83227642391173 69.3016
12.854716135692716 69.7541
12.877173846755147 70.6553
12.899614549869717 71.0648
12.9220732548287 71.8584
12.94453245827299 72.4771
12.966974655289818 72.9124
12.989434858002571 74.1464
13.011878055298721 74.7766
13.034339260862497 75.5798
13.056800969391883 77.0276
13.079245674017244 78.9263
13.101708390774869 80.6778
13.12415410463411 87.0913
13.146617833206086 98.0743
13.169064559883248 110.29700000000001
13.191529303857127 124.09700000000001
13.213994557076367 145.516
13.236442809902437 179.81599999999997
13.258909083908291 232.72299999999998
13.28135835851934 293.834
13.30382565690295 361.26599999999996
13.326293469022952 413.36300000000006
13.348744283242008 428.772
13.371213125129904 370.02
13.39366497011003 274.901
13.416134845360597 184.044
13.438605238843131 127.87299999999999
13.46105863690397 106.786
13.483530069144786 104.723
13.505984506951902 109.59
13.528456981549432 118.76299999999999
13.550929978879088 133.237
13.573385983253365 155.468
13.595860028340867 192.322
13.618317081455832 242.421
13.64079217790333 293.79200000000003
13.663250283359057 345.53
13.685726434770173 373.29400000000004
13.708203115221277 343.094
13.730662806148091 272.181
13.75314054697177 196.66299999999998
13.775601299246777 134.09799999999998
13.798080104050406 100.443
13.820559442405358 86.2812
13.843021793671388 82.1015
13.865502201420897 80.5769
13.887965623051947 79.9809
13.910447103807167 78.9019
13.932929122629764 77.36399999999999
13.955394156785959 77.1603
13.977877254034569 76.0393
14.000343367582113 75.1427
14.022827546871707 74.6114
14.045294743423524 73.7028
14.06778000837062 73.1792
14.090265817715476 73.1167
14.112734645763819 72.9914
14.13522154619454 72.7445
14.157691466286913 72.8347
14.180179461423874 72.65100000000001
14.202668005486178 71.7836
14.22513957064374 71.116
14.247629214846473 70.6781
14.270101881097517 70.6228
14.29259262906496 70.8054
14.315083930490205 71.8342
14.337558255389705 72.4094
14.360050666019726 72.0851
14.382526101071944 70.4576
14.405019624534942 69.4669
14.427513705993134 68.967
14.449990813291825 68.975
14.47248601302899 68.5998
14.49496423954951 68.9311
14.517460561197822 69.2307
14.539939910570322 68.6032
14.562437357763558 69.1856
14.58493536931253 70.6153
14.607416409993311 71.3957
14.62991555254159 72.4352
14.652397725157423 72.0158
14.674898002342799 71.3263
14.697398848433282 70.5964
14.719882725991326 70.9834
14.74238471217934 71.6549
14.764869730765593 74.9323
14.787372860692983 77.8723
14.809876564079925 82.3722
14.83236330125751 87.8873
14.854868153850365 95.9584
14.877356041159485 108.63
14.899862046604186 126.079
14.922351087688757 151.12
14.944858249632887 177.99599999999998
14.967365991421232 202.979
14.989856770231246 219.886
15.012365673994204 218.291
15.03485761569738 190.34900000000002
15.05736768508665 154.408
15.07987833888692 119.27799999999999
15.102372032001655 93.3221
15.124883856909658 78.1209
15.14737872204565 72.9406
15.169891721717274 70.8595
15.192405310371893 70.8887
15.214901940621196 71.4546
15.237416709527137 71.5565
15.259914520936249 71.8998
15.282430473753607 70.7215
15.304947020131227 69.4451
15.327446610371178 68.419
15.349964346154254 67.4711
15.372465126703139 66.9789
15.394984055556009 66.5615
15.417486030076159 66.553
15.44000615566487 66.2354
15.462526881230803 66.2637
15.485030653812652 66.6058
15.507552581617434 66.6199
15.530057557334603 66.7066
15.55258069104857 66.5063
15.575104429329837 66.4342
15.597611216864632 65.8054
15.620136166564563 65.9224
15.6426441664095 66.507
15.665170331202765 68.4345
15.687697105158826 71.4953
15.710206930593545 75.1123
15.732734925158933 78.955
15.755245972089478 84.9905
15.77777519094324 93.6746
15.800287463046663 106.348
15.822817909869592 123.975
15.84534897229804 143.937
15.867863089299354 165.743
15.890395385222186 183.636
15.912910736597423 193.423
15.935444269699861 185.30200000000002
15.957978423016485 159.533
15.980495633101265 129.446
16.003031029129367 100.24700000000001
16.02554948280019 79.4618
16.048086125229432 69.2339
16.070623392487107 66.4332
16.09314371869582 65.4458
16.11568223789321 64.5722
16.13820381691126 63.4647
16.160743591742527 62.0777
16.183283996022084 60.8771
16.205807461423195 59.7848
16.228349126881973 59.2603
16.25087385432698 59.283
16.27341678466365 58.6495
16.29594277784926 58.6997
16.31848697676433 59.0967
16.341031811604868 59.6659
16.36355971058487 60.1312
16.3861058195587 59.6465
16.40863499352978 58.2035
16.431182380342005 57.1541
16.453730407713202 56.5705
16.476261501364792 56.253
16.498810812136167 55.8036
16.52134319004079 55.9491
16.54389378792203 55.7148
16.566445031001553 55.5864
16.588979342490088 55.3054
16.61153187824822 55.2044
16.634067483263312 55.0059
16.656621315414416 55.0355
16.679175797408888 54.645
16.701713349928728 54.9083
16.72426913389191 54.9806
16.74680798922351 55.1838
16.76936507887444 55.2093
16.791905240734874 55.1957
16.814463639794468 55.0195
16.837022695210294 55.1882
16.859564824093756 55.555
16.882125194503903 56.3123
16.904668639217885 57.091
16.927230328348003 57.3797
16.949792678493612 57.5479
16.972338104193863 56.7413
16.994901778652235 56.0339
17.017448529496576 55.7895
17.040013531998152 56.0436
17.06257920018044 56.3301
17.0851279459922 57.0599
17.107694947817667 57.8513
17.130245028099072 58.6474
17.15281336730298 60.0353
17.17536478578733 61.6138
17.19793446610687 63.7997
17.220504818648422 66.5337
17.243058251703697 69.7344
17.265629950971032 73.9306
17.288184731571736 78.5637
17.310757781306908 82.4513
17.33333150794385 83.8713
17.355888317140174 82.8878
17.37846339986244 78.203
17.401021565958885 72.2879
17.42359800851343 66.9387
17.44617513265564 62.8006
17.468735341390783 60.6478
17.491261035594565 59.5578
17.51396340099364 59.2028
17.536490463869136 59.3506
17.559018209820174 59.3648
17.58154663977963 59.4838
17.604251766089718 59.5828
17.626781572227713 59.8006
17.64931206518155 59.9622
17.671843245885103 60.5533
17.69455114821572 60.8828
17.717083712612634 61.2643
17.739616967569667 61.2374
17.762150914021706 61.356
17.78486160749854 61.3768
17.807396945166804 62.0716
17.829932977143503 62.7896
17.85246970436452 63.983000000000004
17.875183204129467 65.9096
17.897721330097664 67.7912
17.920260154126645 70.2887
17.942799677153296 73.301
17.9655159983646 76.6085
17.988056927677544 81.7886
18.010598558807683 88.8082
18.033140892692916 98.49
18.05586005052525 108.735
18.07840379824407 120.126
18.10094825154059 131.618
18.12366954819864 138.746
18.146215420998306 140.69299999999998
18.16876200220057 132.274
18.191309292745153 119.25399999999999
18.214033452627167 105.111
18.236582170236648 93.57600000000001
18.259131600016456 87.1405
18.281681742907335 86.6584
18.304408781233683 90.1487
18.32696035875955 94.866
18.349512652227624 99.9132
18.372065662579683 103.994
18.394795594587553 105.19
18.41735004715306 103.665
18.43990521943684 97.9127
18.46246111238171 89.1068
18.485193953325208 79.2792
18.507751296070428 71.4656
18.530309362314178 66.6265
18.552868153000343 64.1465
18.57560391815056 62.534
18.59816416623245 62.019
18.620725141597372 61.4501
18.643286845190268 61.0974
18.666025549835414 60.622
18.688588718427933 60.1107
18.711152618092243 60.0885
18.73389353884365 59.7628
18.75645890921984 59.1154
18.77902501351406 59.0138
18.801591852673102 58.9822
18.824335739722738 58.2625
18.846904057212626 58.2242
18.8694731124168 57.9451
18.89204290628315 57.9937
18.914789774966803 57.7483
18.937361054791623 57.4946
18.959933076131318 57.1956
18.982505839934877 57.0958
19.00525570560582 57.2988
19.027829963004184 57.2526
19.05040496572238 57.1836
19.072980714710468 57.1055
19.095733592739563 57.2501
19.11831084296757 57.5347
19.140888842324735 58.0634
19.16346759176222 58.3751
19.18622349753803 58.7813
19.208803755869358 59.6951
19.231384767143577 60.6921
19.253966532312948 62.2758
19.276725481241822 64.1395
19.29930876296784 66.4792
19.3218928014549 69.5652
19.34465404436217 72.7566
19.36723960516257 75.4591
19.389825925592426 76.709
19.412413006605938 75.786
19.43517731967805 72.7416
19.457765930683355 68.5444
19.48035530514408 64.1717
19.50294544401556 60.3062
19.525712842708348 57.498000000000005
19.54830451925909 55.6342
19.570896963095727 54.4737
19.593490175174704 54.1589
19.616260674962184 54.2011
19.638855432416964 53.7129
19.661450960992624 53.9793
19.68404726164677 53.7399
19.706820878021247 53.6042
19.729418731756834 53.8477
19.752017360452857 53.4832
19.77461676506804 53.5513
19.797393513540218 53.6635
19.819994478951667 54.0352
19.84259622316767 54.4757
19.8651987471481 55.0351
19.887978643247177 55.2977
19.91058273574792 55.5929
19.933187610901943 56.3258
19.955969879466828 57.1609
19.97857632894404 58.5559
20.00118356396599 60.1481
20.023791585494575 62.1159
20.046577028914875 64.6201
20.069186632506966 67.0264
20.091797025500632 68.75
20.114408208858933 69.6898
20.137196842715273 69.5032
20.159809615886765 68.4322
20.18242318232135 65.9327
20.20503754298326 63.9316
20.227829382875154 62.5594
20.250445341109344 62.1788
20.27306209647285 62.8278
20.29567964993108 63.9014
20.31847471147704 64.842
20.34109387027612 65.7852
20.363713830075454 65.6568
20.386334591841646 64.6143
20.409132890679302 62.2449
20.431755265564437 59.1676
20.454378445325528 56.2599
20.477002430930366 54.1413
20.499803982716553 53.0375
20.522429589228004 52.0466
20.54505600449589 51.7102
20.567683229489194 51.3713
20.590488049900088 50.8096
20.61311690359731 50.4
20.63574656993626 50.2412
20.658553853717297 49.7672
20.681185154618298 49.7803
20.703817271080066 49.8111
20.72645020407368 49.3919
20.749260783967177 49.3832
20.771895359337133 49.3222
20.794530754161617 49.2475
20.817166969412938 49.0018
20.83998086114876 48.8868
20.86261872660049 48.9616
20.885257415405402 48.8008
20.90789692853701 48.7197
20.930714147864748 48.7082
20.953355319030678 48.7167
20.97599731745334 48.8656
20.99864014410749 48.7253
21.021460706796564 48.7713
21.044105199328826 48.9918
21.06675052302631 49.0921
21.089396678865015 49.1989
21.112220600704806 49.6677
21.134868430275347 50.0578
21.15751709492456 50.1254
21.180166595629693 50.4619
21.202993892429635 50.9116
21.22564507473034 51.3941
21.24829709602816 51.5601
21.27112693608965 51.5887
21.293780644891275 51.4568
21.316435195634053 50.7249
21.339090589297417 50.0775
21.361923832041875 49.9129
21.384580921090404 49.2012
21.407238856007325 48.7818
21.429897637773326 48.7489
21.45273429906592 48.6104
21.475394784108598 48.3883
21.498056118951983 48.4177
21.520718304578022 48.5956
21.543558400304388 48.8793
21.566222297108816 48.9498
21.58888704765135 48.9992
21.61155265291521 49.2611
21.63439619898156 49.7676
21.657063523335786 49.8674
21.67973170537063 50.3401
21.7024007460706 50.9092
21.72524775840385 51.5656
21.747918526116475 52.5564
21.770590155457388 53.839
21.79326264741238 55.3018
21.816113141960237 56.9144
21.838787368860547 58.7451
21.861462461341976 60.4277
21.884315579735777 62.3847
21.90699241312273 63.8828
21.92967011506078 64.5817
21.95234868653799 64.6475
21.9752053151131 63.4193
21.997885635446785 61.8962
22.020566828293532 60.0245
22.04324889464272 58.2324
22.066109049404666 56.8836
22.088792872571794 56.3031
22.111477572219204 56.0984
22.1341631493376 56.1948
22.157026846313123 56.1024
22.179714188221507 55.6338
22.202402410582668 54.5706
22.22509151438863 53.0959
22.24795876962584 51.7691
22.270649646204486 50.8501
22.293341407213727 50.2349
22.316034053646906 49.6379
22.338904883215342 49.3418
22.36159931041458 49.3995
22.38429462602756 49.1529
22.40699083104897 49.0808
22.429865251039757 49.0432
22.452563244831367 49.23
22.47526213102522 49.0346
22.49813925616515 49.0527
22.520839937143307 48.6619
22.543541513520587 48.8416
22.56624398629403 48.7105
22.589124730075895 48.536
22.611829005656723 48.7253
22.63453418063466 48.7644
22.657240256008077 48.8024
22.680124634582935 49.144
22.70283252079775 49.3909
22.725541310413075 49.7279
22.74825100442868 50.0106
22.771139033969575 50.2224
22.79385054687155 50.32899999999999
22.81656296718292 51.0148
22.83927629590484 51.9245
22.862167992606945 52.7796
22.88488314827121 54.013999999999996
22.907599215359284 55.0077
22.93031619487366 55.958
22.953211574954405 56.9146
22.975930389478226 57.9161
22.998650119445763 58.4118
23.02137076586092 57.763000000000005
23.044269845560063 56.6663
23.06699233506288 55.1226
23.089715744034912 53.2346
23.112617610931565 51.6663
23.135342869061212 50.3352
23.158069049684816 49.5086
23.1807961538087 49.0798
23.20370174880544 49.0366
23.226430710184808 49.0473
23.249160598093425 48.8958
23.271891413539002 48.9052
23.294800752937697 49.1627
23.31753343374794 49.0697
23.340267045128353 49.1435
23.36300158808808 49.5332
23.38591468821339 49.9312
23.408651104658304 50.2478
23.431388455719986 50.8554
23.454126742409 51.5916
23.4770436196085 52.5803
23.499783787914662 53.7803
23.522524894889884 54.6978
23.54526694154616 55.8631
23.56818761219047 56.8929
23.59093154860734 57.4929
23.613676427751283 58.0748
23.636422250635754 57.5028
23.659346731118656 56.1145
23.68209445191868 54.2823
23.704843119509587 52.1279
23.72759273490623 50.1533
23.750521041644767 48.6829
23.77327256312355 47.5831
23.796025035462787 47.0127
23.818956224555475 46.3829
23.841710609113413 46.3801
23.86446594758979 45.993
23.887222241002014 45.7068
23.910157285144578 45.2472
23.932915498962537 45.2695
23.955674670778713 45.2078
23.978434801611975 45.1703
24.001373717286125 44.9062
24.024135776723917 44.8388
24.046898798245582 44.6189
24.06966278287146 44.6536
24.092605586582614 44.4365
24.115371508023642 44.1862
24.1381383956401 44.1941
24.16090625045381 44.1969
24.183852958731244 44.1654
24.206622758582608 44.0495
24.229393528706886 43.7823
24.252165270127392 43.813
24.27511589952438 43.6636
24.297889594216997 43.6047
24.32066426328598 43.4825
24.34343990775613 43.5522
24.36639447485003 43.4973
24.38917208083877 43.4371
24.41195066531332 43.3272
24.43490819850244 43.2656
24.457688750692377 43.0158
24.48047028445616 43.0647
24.503252800821233 43.2697
24.526214300784112 43.3453
24.548998793132213 43.2518
24.57178427117417 43.1326
24.59457073593893 42.9819
24.617536219319863 42.9866
24.64032466834748 43.0757
24.663114107195035 42.9819
24.685904536893013 42.6867
24.708874020360852 42.7865
24.731666442613744 42.6193
24.754459858818787 42.493
24.777254270007962 42.4203
24.80022777025625 42.3263
24.82302418230472 42.4298
24.845821592443674 42.3602
24.86862000170663 42.3443
24.891597535453727 42.0677
24.914397953892728 42.4037
24.93719937456671 42.3304
24.96000179851076 42.3216
24.98298338249997 42.6646
25.00578782394922 42.8436
25.028593271784167 42.8645
25.05157790644186 43.312
25.07438537804115 43.2964
25.097193859145293 43.5575
25.120003350792075 43.8548
25.142992065061257 44.2331
25.165803588823465 44.3794
25.18861612625217 44.6085
25.211429678386736 44.718999999999994
25.234422489079968 44.7752
25.257238081693636 44.9691
25.280054692141732 45.0793
25.3028723214652 44.878
25.325869245420463 45.0231
25.348688923599397 45.0411
25.371509623787006 45.0145
25.394331347025812 44.8392
25.41733240110666 44.4907
25.440156181590016 43.8733
25.46298098826268 43.3008
25.48580682216873 42.6726
25.50881202326435 42.1793
25.53163992281684 41.7977
25.55446885274561 41.5489
25.577298814096377 41.1765
25.600308179121807 41.038999999999994
25.623140214533745 41.0794
25.64597328451537 40.8852
25.66898578564376 40.5998
25.691820936010206 40.6317
25.714657124097695 40.7225
25.737494350954734 40.6362
25.760511045684957 40.562
25.783350361364224 40.6414
25.806190718969255 40.6579
25.82903211955018 40.6801
25.852053024868923 40.8428
25.874896522722523 40.8473
25.897741066713106 40.7707
25.920586657892454 40.8224
25.943611790812668 41.0523
25.966459487728237 41.1011
25.989308234998564 41.0982
26.01215803367705 41.4747
26.03518741123814 41.5532
26.05803932412957 41.6617
26.080892291600094 41.5806
26.10374631470478 41.6243
26.12677995397268 41.9307
26.14963609978026 41.7441
26.172493304397875 41.5213
26.19535156888223 41.2665
26.218389486949604 41.0465
26.241249882640123 40.7822
26.26411134137826 40.5373
26.28715248187403 40.4985
26.31001607820869 40.2114
26.3328807407756 40.1228
26.35574647063438 40.314
26.37879191991473 40.1816
26.401659795896734 40.101
26.424528742360263 40.4266
26.447398760366614 40.5186
26.470448535598294 40.6372
26.49332070826805 40.7556
26.516193955675355 41.1934
26.53906827888316 41.4297
26.562122397260108 41.4572
26.584998883685063 41.7136
26.607876449110325 41.9107
26.63075509460056 42.1037
26.65381357334404 42.2327
26.67669439061878 42.3042
26.699576291163382 42.0838
26.722459276044212 42.0743
26.745522132402975 41.8914
26.768407297649354 41.6546
26.791293550442003 41.2927
26.814180891848974 40.9221
26.837248143099337 40.715
26.860137673466657 40.6224
26.88302829566349 40.2324
26.90592001075963 40.1658
26.92899167420566 40.1101
26.951885586870763 39.7513
26.974780595655517 39.5235
26.99785558178161 39.4405
27.020752794605112 39.2343
27.043651106772522 39.0315
27.06655051935668 39.0211
27.089629948036183 38.9146
27.112531573292053 38.8367
27.135434302194138 38.946999999999996
27.158338135817015 38.8392
27.181422024430987 38.7215
27.204328079372566 38.5255
27.22723524226965 38.6408
27.250143514198573 38.8909
27.273231880156334 38.7839
27.296142382065014 38.4941
27.319053996245536 38.472
27.341966723775965 38.544000000000004
27.365059584515222 38.7308
27.38797455070062 38.6608
27.410890633481237 38.6365
27.433807833936918 38.5848
27.456905206923906 38.5712
27.47982465472398 38.565
27.502745223449743 38.7038
27.525666914182825 38.7114
27.548768816912457 38.6396
27.571692763693633 38.6474
27.59461783573812 38.5146
27.617723149491244 38.3956
27.640650484125285 38.3829
27.66357894728264 38.1649
27.686508540048052 38.0645
27.709618414237887 38.1274
27.732550278321757 37.9808
27.755483275279115 38.0095
27.778417406196485 38.0676
27.801531858397514 38.0194
27.824468269376716 37.9934
27.847405817586786 37.9334
27.870344504116094 38.0509
27.893463551932008 38.177
27.916404527281053 38.4744
27.93934664422563 38.6569
27.962289903855886 38.4822
27.98541356491974 38.7192
28.00835912214229 38.8833
28.03130582533231 39.1308
28.054253675581805 39.2526
28.077381967556104 39.1997
28.100332124185126 39.2195
28.123283431160893 39.0967
28.146235889577238 39.0726
28.169368830154156 38.7506
28.192323603752033 38.5968
28.215279532083304 38.2931
28.238415973016764 38.0194
28.261374223145094 37.9472
28.284333631303806 37.7915
28.307294198589954 37.5948
28.330435319167677 37.455
28.353398217078915 37.1582
28.376362277420153 36.8703
28.39932750129032 36.8374
28.422473319286713 36.6694
28.44544088262495 36.6231
28.468409612800283 36.3255
28.491379510913497 36.1428
28.51453004413313 36.2041
28.53750229057244 36.1428
28.56047570826344 35.9836
28.583450298308804 36.126
28.606605564586562 35.8467
28.629582511831156 35.8607
28.65256063474956 35.7187
28.675539934446338 35.7681
28.698699951647605 35.8451
28.72168161743193 35.7984
28.74466446331978 35.6571
28.767648490417624 35.6139
28.790813276438353 35.6686
28.813799678527303 35.5383
28.836787265157085 35.5563
28.859955641890075 35.5792
28.882945610203045 35.6415
28.905936766392035 35.332
28.928929111566863 35.3865
28.952102288520145 35.38
28.975097024308607 35.1776
28.998092952423807 35.2157
29.021090073977508 35.2047
29.04426806913204 35.0494
29.067267590245258 34.8463
29.090268308143695 34.8093
29.11327022394099 34.6753
29.13645305530891 34.5947
29.159457379627167 34.6616
29.18246290519685 34.4651
29.20546963313352 34.4703
29.22865731875826 34.6606
29.25166646419296 34.5444
29.27467681535305 34.3803
29.29768837335608 34.3813
29.320880931312562 34.4721
29.34389491580634 34.3167
29.366910110507334 34.3594
29.38992651653503 34.3888
29.41312396492981 34.3874
29.436142806456754 34.306999999999995
29.45916286268059 34.2311
29.48236399319994 34.198
29.50538649169417 33.9815
29.528410208259935 34.0115
29.55143514402014 33.7167
29.574641196749695 33.5797
29.597668583816574 33.4883
29.6206971934585 33.327
29.64372702680042 33.3284
29.666938019934474 33.2741
29.689970313635285 33.2278
29.713003834422636 33.1345
29.73603858342347 33.1463
29.759254535188578 33.0638
29.78229175361658 32.977
29.80533020365064 33.0653
29.82836988641968 32.9367
29.85159081507472 32.9103
29.874632976355343 32.8193
29.89767637376955 32.8472
29.920721008448314 32.6928
29.9439469322847 32.8366
29.96699405457564 32.7064
29.9900424175358 32.66
30.013092022298157 32.5685
30.03632295963995 32.6461
30.059375061131373 32.75
30.08242840783577 32.7886
30.105483000888153 32.6044
30.128718970092244 32.6074
30.151776069006917 32.6016
30.17483441768648 32.654
30.198074175317235 32.5631
30.221135036724256 32.6124
30.24419715131772 32.561
30.267260520236203 32.4037
30.290505341942243 32.5028
30.313571232750228 32.5408
30.336638381310948 32.4588
30.35970678876503 32.4166
30.38295669299435 32.4358
30.40602763151657 32.2917
30.429099832366074 32.2752
30.452173296685572 32.2575
30.47542830191959 32.2397
30.498504306502497 32.1154
30.521581577995562 32.2354
30.544660117543582 32.3209
30.56792024229725 32.4342
30.59100133132069 32.3293
30.614083691845494 32.2897
30.637167325018545 32.3993
30.660432587840603 32.3724
30.683518779717886 32.3819
30.70660624769615 32.3726
30.729694992924372 32.3657
30.75296541239743 32.3185
30.77605672557558 32.2151
30.799149319462742 32.251
30.8224236211637 32.13
30.845518789950724 31.9996
30.868615242910597 31.929000000000002
30.891712981195973 31.8216
30.91499247215866 31.7362
30.938092794619365 31.675
30.96119440587579 31.7169
30.984297307082752 31.575
31.00758200598383 31.4815
31.030687500658694 31.4364
31.053794288760695 31.346999999999998
31.076902371446767 31.2225
31.100192296997445 31.3276
31.12330298246119 31.1968
31.14641496599209 31.141
31.169528248749216 31.1175
31.19282341969534 31.0408
31.215939314557186 31.0868
31.239056512134788 31.1477
31.262175013589378 31.0725
31.28547544871168 30.9502
31.30859657161541 30.8522
31.331719001892175 30.9553
31.35484274070538 31.1368
31.378148458819545 31.0613
31.401274828443725 31.0528
31.424402510106933 31.0627
31.447712205419993 31.0799
31.470842524931633 30.9043
31.493974159989783 30.9689
31.51710711176168 30.9777
31.54042212308802 30.9258
31.563557722100917 30.8783
31.586694641341655 30.8039
31.609832881979628 30.5695
31.63315322823208 30.5898
31.656294125521327 30.4932
31.679436347728515 30.5071
31.70257989602529 30.2859
31.725905596152327 30.2954
31.74905181052835 30.2609
31.772199354521323 30.2657
31.79534822930507 30.2888
31.818679302290967 30.2705
31.84183085259981 30.2926
31.864983737233473 30.2634
31.88813795736804 30.2548
31.911474422233013 30.1507
31.934631327356435 30.2146
31.9577895715215 30.2349
31.980949155906522 30.1905
32.004291031706956 30.1358
32.027453310562606 30.0494
32.05061693318573 29.9146
32.07396288236386 29.8581
32.09712920658542 29.7759
32.12029687812702 29.7458
32.14346589817093 29.6454
32.166817291729984 29.6148
32.18998902288583 29.6597
32.21316210610336 29.546
32.23633654256711 29.4123
32.259693399663725 29.4454
32.282870556771144 29.3418
32.30604907069099 29.3456
32.329228942610065 29.2544
32.35259128243769 29.1249
32.375773884550505 29.0997
32.398957848235646 29.1312
32.422143174682176 29.1002
32.445511016471215 28.9057
32.468699082679954 28.8996
32.49188851523011 28.8198
32.51507931531304 28.809
32.538452678331 28.7908
32.56164622776311 28.6813
32.58484114831493 28.5653
32.60803744118015 28.6577
32.631416344731896 28.6802
32.654615396551876 28.5651
32.67781582427913 28.5847
32.701198898634416 28.4408
32.72440209253756 28.4686
32.747606665947124 28.3759
32.77081262006088 28.2053
32.79420126883317 28.2271
32.81740999876112 28.3031
32.840620112999424 28.1962
32.86383161274818 28.0531
32.88722585534586 28.1791
32.91044014056596 28.2191
32.933655814909734 28.1967
32.95687287957963 28.159000000000002
32.98027273544904 28.0507
33.00349259526636 27.9339
33.026713849030116 28.0694
33.04993649794511 27.9988
33.073341986570746 27.9612
33.09656744032826 27.8587
33.11979429286444 27.9939
33.14302254538647 27.9148
33.166433686291185 27.903000000000002
33.18966475336992 27.8074
33.212897224069096 27.6949
33.23613109959831 27.6779
33.259547912343415 27.719
33.2827846121627 27.6865
33.306022720453775 27.6378
33.32926223842861 27.5055
33.352684742614166 27.5409
33.37592709463173 27.5303
33.399170859982064 27.4725
33.422597648419426 27.3543
33.44584425514446 27.3119
33.46909227885668 27.2742
33.4923417207723 27.188000000000002
33.51577423505344 27.2047
33.539026528130385 27.0895
33.56228024307245 27.0153
33.585535381098246 26.9349
33.60897364093058 26.8893
33.63223163992385 26.9091
33.6554910656699 26.7822
33.678751919389796 26.8731
33.702195944520106 26.717
33.72545966903325 26.7474
33.74872482519663 26.5932
33.771991414233746 26.5636
33.79544122444841 26.4852
33.81871069412428 26.5025
33.84198160035767 26.5365
33.86525394437455 26.4919
33.88870955949969 26.5529
33.911984794020626 26.3844
33.93526147001624 26.3179
33.958539588715006 26.3552
33.98200102861669 26.2033
34.0052820477047 26.1601
34.02856451319451 26.2215
34.05203033759056 26.12
34.07531571090147 26.1388
34.09860253431845 26.0546
34.121890809074316 26.0231
34.145362493118924 26.0006
34.16865368561615 25.9994
34.191946333164054 25.8892
34.21524043699793 25.8506
34.23871800066799 25.8201
34.26201503218366 25.7241
34.28531352370466 25.7807
34.30861347646881 25.7236
34.33209693978188 25.7391
34.3553998301885 25.6575
34.378704185565205 25.5962
34.402010007152356 25.5142
34.42549939016683 25.4816
34.44880815937748 25.3807
34.472118398533134 25.2749
34.49543010887669 25.3077
34.51892543169198 25.2873
34.54224009966052 25.2386
34.56555624255917 25.3443
34.58887386163339 25.1602
34.61237514439016 25.1251
34.6356957311114 25.0972
34.65901779775809 25.0404
34.68252356662995 25.0091
34.705848608458616 25.0305
34.72917513396849 25.0031
34.75250314440949 24.9068
34.77601490857862 24.8173
34.799345904259795 24.7682
34.82267838863559 24.8023
34.846012362958525 24.8055
34.869530142679984 24.8394
34.89286711232212 24.7496
34.91620557568269 24.7291
34.93954553401677 24.6898
34.9630693495876 24.5325
34.986412313340814 24.5975
35.00975677584668 24.6143
35.033102738362956 24.5367
35.05663261012228 24.4603
35.0799815881786 24.4281
35.10333207003229 24.3935
35.12668405694369 24.4169
35.150220005273056 24.3607
35.17357501786656 24.2925
35.19693153931268 24.2858
35.220289570874385 24.3049
35.24383161619786 24.2685
35.267192683604904 24.2068
35.290555264930376 24.1885
35.314101899412165 24.1423
35.33746752422433 24.1446
35.36083466676374 24.0975
35.38420332829803 24.073
35.407756095629054 24.1616
35.43112781085063 24.0645
35.45450104888391 24.1128
35.477875810999194 24.0957
35.50143473172161 23.9461
35.52481255774625 24.0052
35.54819191167777 23.987
35.57157279478914 23.9192
35.595137889488406 23.8986
35.61852184675279 23.8343
35.641907337029984 23.7373
35.665294361595684 23.6885
35.68886565090076 23.7215
35.7122557598848 23.6819
35.73564740699838 23.6441
35.759040593519934 23.5027
35.78261809810353 23.5137
35.80601437933051 23.4825
35.829412203814705 23.448
35.85281157283719 23.384
35.876395313415884 23.3358
35.8997977874528 23.2854
35.92320180988546 23.2842
35.946790244133936 23.2146
35.97019737933222 23.226999999999997
35.993606066789866 23.1935
36.01701630779276 23.1753
36.04061101440684 23.1224
36.06402437852291 23.0927
36.08743930005611 23.1774
36.1108557802951 23.0546
36.13445678011326 23.0215
36.15787639383515 22.9811
36.18129757014299 22.9728
36.20472031032821 22.9778
36.22832762423364 22.7664
36.25175350829375 22.8104
36.275180960119776 22.7607
36.298609981005924 22.7648
36.32222362992669 22.7857
36.34565580510207 22.6876
36.36908955323448 22.6558
36.39252487562093 22.5648
36.416144880530226 22.4947
36.43958336764275 22.4697
36.463023432914625 22.5578
36.486465077645676 22.4017
36.51009145956204 22.4847
36.53353627947859 22.4776
36.55698268276811 22.4886
36.58043067073321 22.4436
36.60406345072071 22.3316
36.62751462435344 22.3063
36.65096738658405 22.2818
36.67460498210655 22.2015
36.69806093788647 22.1701
36.72151848619297 22.1601
36.744977628333636 22.1584
36.76862165890998 22.0763
36.79208400512205 22.0873
36.81554794910557 22.0108
36.83901349217101 21.9905
36.862663978991606 21.9438
36.88613273667352 21.9176
36.90960309738324 21.9676
36.933075062434064 21.8568
36.95673202673572 21.8286
36.98020721697122 21.7778
37.003684015502365 21.7648
37.027162423645365 21.6848
37.050825886711465 21.7246
37.07430753063053 21.6219
37.09779078812467 21.6206
37.121275660513014 21.5878
37.144945643673694 21.5001
37.16843376245278 21.4963
37.19192350009803 21.5297
37.215414857931435 21.5257
37.239091382563885 21.3955
37.262585997426164 21.4406
37.28608223645736 21.3156
37.309763684451696 21.2789
37.33326318851098 21.2306
37.356764320726555 21.2869
37.380267082425526 21.2482
37.40395510942588 21.1659
37.42746114683234 21.1085
37.45096881771841 21.1588
37.474478123414166 21.1427
37.49817275092816 21.0128
37.52168534303452 21.0557
37.54519957395567 20.9556
37.568715445024665 20.9794
37.592416694607714 20.9429
37.61593586281424 20.9317
37.63945667518264 20.9915
37.66297913304891 20.8468
37.68668702630454 20.7714
37.710212792059274 20.7315
37.733740207334854 20.675
37.757269273470364 20.5409
37.780983832050374 20.6108
37.80451621684926 20.6472
37.82805025654007 20.576999999999998
37.851585952464795 20.5798
37.8753071980695 20.504
37.89884622345676 20.4447
37.92238690911902 20.4124
37.94611318753442 20.3762
37.969657210779765 20.3614
37.99320289834801 20.3415
38.016750251586465 20.3636
38.04048325513017 20.3558
38.06403395679343 20.2776
38.087586328183946 20.2134
38.11114037065203 20.1676
38.13488012115898 20.1818
38.1584375229181 20.1355
38.181996599821 19.9986
38.205557353221124 20.0846
38.229303872575656 20.0223
38.2528679961576 19.9681
38.27643380031219 19.9839
38.30000128639589 19.9193
38.32375459653193 19.9523
38.34732546371299 19.9845
38.37089801690786 19.8323
38.39447225747609 19.8374
38.418232380377425 19.8103
38.441810012983396 19.7163
38.46538933705673 19.7299
38.488970353960084 19.7706
38.51273731166058 19.7126
38.536321731567014 19.6185
38.55990784840681 19.6076
38.58367995004091 19.5506
38.60726947812959 19.4768
38.63086070726198 19.4911
38.654453638806274 19.4907
38.678232613930824 19.4857
38.70182896773327 19.3482
38.72542702806741 19.3585
38.7490267963045 19.2745
38.77281266709232 19.3066
38.79641586862214 19.2461
38.8200207821842 19.2077
38.843627409152944 19.249000000000002
38.86742019782782 19.2049
38.891030269149255 19.1395
38.914642058016156 19.1917
38.938255565806124 19.0539
38.96205529464307 19.0164
38.98567225787121 19.0712
39.00929094417078 18.9981
39.03291135492255 19.0272
39.05671804624804 18.9313
39.080341923549106 18.9157
39.103967529460334 18.8741
39.127594865365744 18.8637
39.15140854155791 18.8512
39.17503935514948 18.854
39.19867190290282 18.8132
39.22249083587951 18.7618
39.24612686969409 18.7616
39.269764641845306 18.7453
39.293404153722804 18.6888
39.317230110864074 18.6466
39.34087311998506 18.5422
39.36451787301696 18.5847
39.388164371352595 18.4947
39.41199737518003 18.477
39.43564738196752 18.4897
39.45929913825317 18.4356
39.48295264543308 18.4362
39.506792718520884 18.3965
39.530449745387216 18.3738
39.55410852735203 18.2668
39.57776906581474 18.3311
39.60161623079 18.2551
39.625280300200025 18.2674
39.64894613032202 18.1489
39.67261372255866 18.0975
39.6964680021016 18.1565
39.72013913657293 18.2112
39.74381203738292 18.1593
39.76748670593756 18.099
39.79134812278169 18.0374
39.81502634488497 18.0231
39.83870633896685 17.9581
39.862388106436654 17.9558
39.88625668336918 17.9121
39.90994201572829 17.9637
39.933629125719285 17.8507
39.957503091207826 17.8361
39.9811937746168 17.8462
40.00488623990914 17.8055
40.02858048850006 17.7518
40.05246165409549 17.6989
40.076159487492085 17.617
40.099859108448875 17.636
40.123560518384345 17.6684
40.1474489070226 17.6326
40.171153913178564 17.5996
40.194860712584955 17.5833
40.2185693066637 17.5728
40.242464941335314 17.4832
40.26617714307655 17.5436
40.289891143772046 17.4756
40.3136069448471 17.3852
40.33750984859743 17.4048
40.3612292688043 17.3594
40.3849504936829 17.2933
40.40867352466194 17.3476
40.43258372059144 17.3015
40.45631038219906 17.2367
40.48003885420956 17.1682
40.503769138055105 17.1294
40.52768664931955 17.2066
40.55142057531802 17.2199
40.57515631746428 17.1557
40.599079334038514 17.0456
40.62281872700477 17.0282
40.64655994043941 17.0461
40.67030297578061 17.0207
40.69423334835778 17.0024
40.71798004609188 16.9796
40.74172857006355 16.9363
40.76547892171441 16.8819
40.7894166736039 16.8436
40.813170699248566 16.8597
40.83692655691388 16.8242
40.86068424804498 16.8112
40.884629402612525 16.7629
40.908390779366385 16.8107
40.932153993938 16.7335
40.95591904777605 16.7115
40.979871628443995 16.7225
41.003640379561936 16.691
41.02741097430883 16.6197
41.05118341413683 16.5893
41.075143444384416 16.5557
41.098919593177826 16.5306
41.1226975914255 16.4969
41.14647744058318 16.488
41.170444943946755 16.5098
41.19422851378379 16.4009
41.218013938914645 16.3672
41.24198706625173 16.3944
41.26577622087193 16.3561
41.289567235177785 16.3162
41.31336011063129 16.3401
41.337340752422875 16.2883
41.361137369129835 16.2393
41.38493585138705 16.1945
41.40873620066004 16.1661
41.43272438060107 16.1301
41.45652848292052 16.0779
41.48033445666918 16.0479
41.50414230331616 16.0532
41.528138045159764 16.0502
41.551949656675205 16.0284
41.575763145513235 15.966
41.59957851314666 15.9774
41.62358184070442 15.9212
41.64740098505737 15.8336
41.6712220126409 15.8696
41.69504492493139 15.8487
41.71905586207357 15.8052
41.74288256296395 15.7831
41.766711153007456 15.8291
41.79054163368412 15.7437
41.814560204340054 15.7565
41.838394485526365 15.7275
41.86223066180303 15.7022
41.88625497706819 15.6091
41.910094962812 15.6403
41.93393684811168 15.607999999999999
41.95778063445365 15.5693
41.981812625263366 15.5152
42.00566023303407 15.439
42.029509746323676 15.4457
42.05336116662236 15.4889
42.077400857069705 15.4506
42.10125611078846 15.3641
42.12511327600405 15.3736
42.14897235421036 15.3317
42.173019768448455 15.2916
42.19688269209613 15.265999999999998
42.22074753323349 15.2637
42.24461429335818 15.2754
42.268669455600495 15.2327
42.292540073217886 15.2106
42.31641261433284 15.203
42.34028708044675 15.1079
42.36435001496739 15.1129
42.38822835065557 15.1283
42.41210861586426 15.106
42.4359908120986 15.0245
42.46006154323262 14.9874
42.48394762115317 15.0285
42.507835634632315 15.0053
42.531912233047436 14.9322
42.55580413732265 14.9312
42.579697981698 14.9587
42.60359376768525 14.8706
42.62767820545945 14.8008
42.65157789440821 14.8123
42.67547952952185 14.7749
42.699383112316 14.7849
42.72347541395347 14.7552
42.74738291190531 14.7315
42.771292362102166 14.6633
42.795203766063516 14.6339
42.819303956130405 14.6457
42.843219287476536 14.6111
42.86713657716324 14.5872
42.89105582671383 14.5872
42.91516392983864 14.5431
42.939087119032166 14.5494
42.963012272677304 14.5535
42.98693939230129 14.469000000000001
43.01105543317513 14.4263
43.034986504731386 14.4358
43.05891954686589 14.368
43.08285456110972 14.347999999999999
43.10697856448665 14.3366
43.130917542983475 14.2925
43.15485849820081 14.3046
43.17880143167367 14.2196
43.20293342237094 14.1994
43.226880332449 14.1717
43.25082922540554 14.2142
43.27496722682525 14.1743
43.29892010567796 14.1455
43.32287497204102 14.119000000000002
43.34683182745632 14.1079
43.370977859791836 14.0852
43.39493871351105 14.0437
43.41890156092628 14.0426
43.44286640358341 14.0274
43.46702049182749 13.959000000000001
43.49098934522816 13.9613
43.51496019852649 13.940999999999999
43.5389330532723 13.8809
43.56309522248204 13.8893
43.58707210044314 13.8254
43.61105098451946 13.759
43.63503187626491 13.7918
43.659202151562134 13.7498
43.68318707902681 13.7524
43.70717401884041 13.6758
43.731162972560874 13.6893
43.75534137913236 13.6826
43.779334381108384 13.6874
43.803329401683186 13.636
43.82732644241872 13.571
43.8515130055166 13.6162
43.87551410707659 13.5889
43.89951723350145 13.5958
43.923709934595614 13.5494
43.94771713129917 13.5433
43.97172635758096 13.5102
43.99573761501002 13.4739
44.0199385169922 13.4315
44.04395385732619 13.4512
44.067971233533086 13.4202
44.09199064718605 13.42
44.11619977548961 13.3235
44.14022328470671 13.2946
44.16424883610785 13.3065
44.18827643127035 13.3191
44.21249381139513 13.3032
44.236525514814076 13.2234
44.26055926674478 13.1754
44.28459506876863 13.1978
44.3088207262813 13.16
44.33286064928722 13.1366
44.35690262714919 13.1375
44.38094666145278 13.0323
44.4051806219871 13.0772
44.42922879003185 13.0447
44.45327901929361 13.0367
44.477331311362136 13.0037
44.501573600619416 12.9705
44.525630039221795 12.9587
44.54968854541895 12.9355
44.573937102200176 12.9076
44.5979997645541 12.8877
44.622064499300315 12.8877
44.64613130803592 12.8529
44.67038823869318 12.802999999999999
44.69445921643748 12.7688
44.718532272981385 12.7676
44.742607409926194 12.7613
44.76687274034801 12.6927
44.79095205918753 12.6687
44.81503346325094 12.6687
44.839116954143876 12.7026
44.86339071028742 12.6582
44.88747839599524 12.6026
44.91156817336837 12.6073
44.93566004401666 12.5843
44.959942251908146 12.5439
44.984038330325966 12.5431
45.00813650686762 12.4861
45.03223678314731 12.4096
45.05652746888232 12.4623
45.08063196592069 12.4078
45.104738567558705 12.3986
45.128847275414856 12.3919
45.15314646515866 12.335
45.17725940679741 12.3588
45.20137445952892 12.3408
45.22568004865265 12.3079
45.24979934496396 12.2974
45.27392075725247 12.2691
45.29804428714431 12.2663
45.322358426247604 12.2429
45.346486212804315 12.1834
45.370616121861914 12.202
45.39474815505086 12.1252
45.41907087049246 12.1017
45.4432071734666 12.0591
45.46734560548283 12.1088
45.49148616817604 12.0962
45.51581748638564 12.0506
45.5399623320197 12.0094
45.56410931325473 12.001
45.58825843173002 12.015999999999998
45.61259837920865 11.9839
45.636751793816 11.956
45.66090735060093 11.9062
45.68506505120716 11.8878
45.7094136545275 11.821
45.73357566449271 11.8129
45.75773982322992 11.8053
45.78190613238733 11.8038
45.806263418194064 11.7407
45.83043404997326 11.7581
45.85460683713677 11.7459
45.87897065658495 11.7396
45.90314777634752 11.6653
45.92732705646868 11.6579
45.9515084986045 11.6857
45.97588104735473 11.683
46.00006683541565 11.5831
46.02425479047904 11.597000000000001
46.04844491420549 11.5761
46.0728262191024 11.5843
46.09702070211635 11.5931
46.12121735879483 11.5722
46.14541619080294 11.522
46.169806278764455 11.4976
46.194009483459034 11.4933
46.21821486849841 11.4615
46.24242243555223 11.3872
46.266821333570014 11.402999999999999
46.29103328674601 11.3757
46.31524742696538 11.3751
46.33946375590237 11.3473
46.36387149104216 11.3202
46.38809221957392 11.2587
46.41231514186606 11.287
46.436540259597464 11.2625
46.460956858999374 11.2496
46.48518638983522 11.2185
46.509418121166966 11.2089
46.533652054678114 11.1778
46.55807754555709 11.145999999999999
46.58231590571962 11.1585
46.60655647313217 11.0791
46.630988654873654 11.0808
46.655233659129024 11.0673
46.67948087571551 11.0647
46.70373030632484 11.0007
46.72817142736393 11.0062
46.752425308428684 10.9863
46.77668140861147 10.9765
46.80093972960865 10.932
46.82538981736788 10.9379
46.849652602470904 10.8959
46.87391761349769 10.8621
46.8981848521493 10.873
46.9226439341274 10.8327
46.946915650573224 10.7563
46.97118959976749 10.7896
46.99546578341598 10.788
47.019933887188216 10.7759
47.04421456235744 10.7333
47.06849747711879 10.7345
47.09278263318286 10.7155
47.11725978640143 10.7092
47.14154944775105 10.6534
47.165841355555656 10.6294
47.1901355115306 10.5969
47.214621741924994 10.6072
47.23892041698887 10.6175
47.26322134538975 10.5688
47.28771440635075 10.5656
47.31201986422527 10.5625
47.33632758061436 10.5158
47.360637557241866 10.4776
47.38513974410611 10.4495
47.40945426407847 10.4588
47.43377104948137 10.415999999999999
47.45809010204344 10.4109
47.48260144275502 10.3769
47.506925052572285 10.3572
47.53125093475548 10.3343
47.55557909103813 10.3201
47.58009961361992 10.3172
47.60443234110732 10.3182
47.62876734791564 10.2752
47.65310463578333 10.2511
47.6776343683373 10.238999999999999
47.7019762413987 10.1795
47.72632040075572 10.1945
47.75066684815169 10.1837
47.77520581885936 10.2052
47.799556865477655 10.1317
47.823910205386 10.1464
47.84826584033272 10.1004
47.87281407745551 10.0689
47.89717432569297 10.0893
47.92153687423484 10.0729
47.94609208429692 10.052999999999999
47.97045925671401 10.0432
47.99482873471275 9.98451
48.01920052005013 9.983189999999999
48.04376504619224 9.948139999999999
48.068141469543484 9.94121
48.09252020552573 9.94229
48.11690125590099 9.92191
48.1414751266064 9.88959
48.16586082917454 9.87421
48.19024885144316 9.8381
48.2146391951793 9.86317
48.239222439012764 9.82857
48.26361744916137 9.814060000000001
48.28801478610016 9.79215
48.31241445160131 9.76534
48.337007097209366 9.74473
48.36141144338331 9.76464
48.38581812345755 9.751719999999999
48.41022713920929 9.73142
48.434829215320704 9.697519999999999
48.45924292604658 9.67874
48.48365897780325 9.65783
48.50807737237308 9.636280000000001
48.532688907799276 9.61525
48.55711201168574 9.59097
48.581537463754074 9.6085
48.60615611725119 9.5805
48.63058628942721 9.54932
48.65501881516546 9.51305
48.6794536962573 9.49455
48.70408185970339 9.50062
48.72852147531801 9.45202
48.75296345168211 9.43864
48.77740779059232 9.416839999999999
48.80204549302823 9.459060000000001
48.82649458091802 9.412
48.85094603676547 9.39902
48.87539986237231 9.3596
48.90004713292306 9.358460000000001
48.92450572200832 9.328339999999999
48.94896668628025 9.29386
48.97343002754588 9.318810000000001
48.99808689542115 9.2951
49.02255501470614 9.28242
49.04702551642794 9.224839999999999
49.0714984023988 9.20182
49.096164896893235 9.22177
49.120642575466796 9.17698
49.145122643748394 9.15685
49.16960510355558 9.12327
49.19428125404938 9.12726
49.2187685210852 9.138060000000001
49.243258185121555 9.090860000000001
49.26794160167084 9.08428
49.2924360839405 9.03937
49.31693296869764 9.03758
49.34143225776915 9.07352
49.36612538195438 9.05517
49.39062950396021 9.0054
49.41513603578346 8.93598
49.4396449792564 8.94643
49.46434784069503 8.97345
49.488861631846454 8.9414
49.513377840166804 8.920060000000001
49.537896467493745 8.8935
49.56260909589029 8.853760000000001
49.587132585683285 8.86815
49.611658500018365 8.83923
49.636186840738596 8.79378
49.66090926588511 8.80482
49.685442483902584 8.78256
49.70997813385706 8.73874
49.734516217597076 8.78637
49.75924846937352 8.736939999999999
49.7837914452858 8.72392
49.80833686055187 8.68609
49.83288471702571 8.72523
49.85762682540054 8.69007
49.882179588965734 8.62015
49.9067347993235 8.60845
49.93129245833333 8.64279
49.95604445336378 8.63022
49.98060703442832 8.59623
50.005172069746266 8.54608
50.02993150438364 8.56777
50.05450147301533 8.551110000000001
50.07907390151433 8.533760000000001
50.10364879174981 8.51039
50.12841816587289 8.48945
50.1529980044635 8.48049
50.17758031042124 8.44239
50.20216508562089 8.449580000000001
50.22694442953363 8.43783
50.25153416817468 8.430769999999999
50.27612638170508 8.377939999999999
50.300721072005196 8.349039999999999
50.325510416102105 8.36688
50.350110084975064 8.317910000000001
50.37471223628208 8.336110000000001
50.39931687190919 8.34719
50.424116246675766 8.27618
50.44872587605249 8.288730000000001
50.47333799543065 8.27586
50.49795260670191 8.21322
50.52276204271512 8.19312
50.54738166295838 8.23798
50.57200378079314 8.22648
50.596628398116835 8.15048
50.62144792604559 8.128060000000001
50.646077567609396 8.169130000000001
50.670709714377715 8.17757
50.69553683636198 8.152289999999999
50.72017401885922 8.11762
50.7448137122895 8.08554
50.76945591856022 8.09367
50.79429318636823 8.0434
50.818940443716784 8.04732
50.84359021965163 7.9759199999999995
50.868242516085964 7.952030000000001
50.893089960641895 7.95529
50.917747323549435 7.9686
50.94240721271973 7.92437
50.96706963007175 7.919910000000001
50.99192728239342 7.9288300000000005
51.01659478166073 7.94009
51.04126481489051 7.89191
51.06593738400761 7.8886199999999995
51.090805275207074 7.886839999999999
51.11548294172845 7.84735
51.14016314993547 7.8517
51.164845901758845 7.85347
51.18972406304274 7.78062
51.21441192780656 7.78132
51.23910234200271 7.79355
51.2637953075678 7.72767
51.288683770237945 7.73838
51.31338186432707 7.7351
51.33808251561888 7.718189999999999
51.362978729967345 7.70758
51.387684521509755 7.65747
51.41239287610203 7.68047
51.437103795691165 7.6674
51.46201036644977 7.6393
51.486726441956634 7.618060000000001
51.51144508832545 7.607819999999999
51.536166307509156 7.60549
51.56108326624387 7.5887
51.58580965706056 7.577719999999999
51.61053862657523 7.54104
51.635270176746864 7.52769
51.66019755512065 7.512569999999999
51.68493429268881 7.50425
51.70967361681515 7.49005
51.73441552946465 7.4686699999999995
51.759353359237934 7.50356
51.7841004750961 7.44592
51.80885018539685 7.41741
51.833602492111254 7.419239999999999
51.8585508051424 7.37863
51.883308330926425 7.371239999999999
51.90806845906181 7.35658
51.932831191525715 7.34333
51.95779001977161 7.2705
51.98255798721516 7.318630000000001
52.00732856494335 7.274830000000001
52.03229530577543 7.272589999999999
52.057071130455945 7.21252
52.081849571391054 7.23084
52.106630630568695 7.22324
52.13160794279417 7.177639999999999
52.15639426492067 7.20235
52.18118321127822 7.2203800000000005
52.205974783860896 7.19273
52.23096269971011 7.16931
52.255759551287994 7.14589
52.280559035098186 7.12657
52.30536115314103 7.09957
52.33035970494467 7.10394
52.35516711807904 7.102410000000001
52.37997717147198 7.0412300000000005
52.40478986713005 7.08362
52.42979908731974 7.088419999999999
52.454617094216 7.0553
52.47943774942214 6.9974
52.50426105495102 6.985869999999999
52.529280976059844 6.9771
52.554109609024096 6.966639999999999
52.57894089837482 6.954439999999999
52.60377484613117 6.929139999999999
52.62880550079408 6.945689999999999
52.65364479223379 6.9239
52.67848674816189 6.932869999999999
52.70352547971946 6.8968
52.72837279155837 6.932939999999999
52.753222773982785 6.88801
52.778075429022984 6.842860000000001
52.80312495150885 6.8292399999999995
52.827982978797436 6.81383
52.85284368481815 6.760789999999999
52.87770707160767 6.784260000000001
52.90276741793998 6.7758899999999995
52.92763619336701 6.76541
52.952507655698504 6.729439999999999
52.977381806977576 6.72934
53.00245301017842 6.72987
53.02733256653592 6.69861
53.052214817996074 6.6905
53.077099766608484 6.65412
53.102181859804446 6.67948
53.127072229988265 6.65028
53.15196530349892 6.63235
53.17686108239249 6.602930000000001
53.20195409881522 6.629169999999999
53.22685531582556 6.62361
53.25175924441303 6.553889999999999
53.27666588664027 6.54029
53.30176985962693 6.553939999999999
53.3266819565689 6.52979
53.35159677336455 6.519080000000001
53.376514312083096 6.49726
53.40162927507703 6.48859
53.42655228516116 6.46879
53.45147802340193 6.43725
53.47660125628886 6.45247
53.50153247842639 6.43343
53.52646643496923 6.43962
53.55140312799818 6.4515400000000005
53.576537409691696 6.4336400000000005
53.60147960336152 6.38692
53.626424539786164 6.37951
53.65137222105307 6.339519999999999
53.67651758529126 6.324319999999999
53.70147078399681 6.28545
53.72642673383343 6.2755
53.75138543689533 6.27519
53.776541917524526 6.31037
53.801506154876755 6.23882
53.826473151763246 6.21368
53.851442910284916 6.17762
53.87661054126026 6.23231
53.9015858509782 6.21093
53.92656392866066 6.20844
53.95154477641532 6.22976
53.976723591801296 6.18465
54.00171000771266 6.16372
54.02669920004598 6.16792
54.051691170915745 6.13125
54.076881204886796 6.09588
54.101878760928514 6.09703
54.12687910187696 6.06654
54.152077577768296 6.1067800000000005
54.1770835166946 6.051
54.20209224691339 6.01885
54.22710377055121 6.059080000000001
54.25231352511594 6.00281
54.27733066384342 6.01065
54.30235060239643 6.01396
54.32737334290836 5.995419999999999
54.35259441062629 5.92583
54.377622783395324 5.92627
54.40265396455061 5.91253
54.42768795623251 5.9446900000000005
54.45292037169559 5.9013800000000005
54.477960012857906 5.896380000000001
54.50300247099511 5.87132
54.52804774825457 5.8573
54.55329154616743 5.81454
54.57834249018678 5.83671
54.6033962597977 5.77453
54.6284528571545 5.74049
54.653708072335164 5.68536
54.67877035378786 5.71917
54.70383546947698 5.6695
54.72890342156389 5.67086
54.7541700889442 5.60345
54.77924374251975 5.61342
54.8043202390049 5.61811
54.82959552413022 5.60495
54.8546777351945 5.584219999999999
54.87976279569621 5.5509900000000005
54.90485070780914 5.600619999999999
54.930137506558005 5.5229
54.95523115074295 5.52701
54.98032765308844 5.47415
55.005427015775496 5.4589
55.03072536339621 5.47272
55.05583047570572 5.413069999999999
55.080938454927676 5.43332
55.10604930325027 5.37437
55.131359235107396 5.3907
55.15647585066083 5.37352
55.181595341907496 5.28254
55.20671771104285 5.265630000000001
55.232039262617704 5.241969999999999
55.25716741665048 5.25214
55.28229845518636 5.27666
55.30743238042802 5.19963
55.33276558731939 5.23614
55.357905315183636 5.12821
55.383047936390035 5.10257
55.40819345314859 5.08796
55.433538351073295 5.09355
55.458689688238415 5.0879
55.483843927614096 5.0294
55.509197623043605 5.05871
55.53435769621134 4.98517
55.55952067826466 4.94511
55.5846865714265 4.94066
55.61005202069737 4.96622
55.63522376553902 4.91965
55.66039842818645 4.84811
55.68557601087004 4.8727599999999995
55.7109532500271 4.86205
55.73613670233794 4.8644
