TT I
1.2716486653135266 32.7432
1.2939594142134223 32.582
1.3162702121660406 31.1577
1.3385810600174564 30.5567
1.3608919586137629 30.3999
1.383202908801069 29.714000000000002
1.405513911425503 27.9343
1.4278249673332093 28.6518
1.4501343378461518 27.2717
1.4724455028545926 27.0522
1.4947567236847858 26.7777
1.517068001182951 26.4756
1.5393793361953272 26.0203
1.5616907295681737 24.8338
1.5840021821477681 24.6517
1.60631369478041 23.5041
1.6286252683124185 23.8101
1.6509369035901333 23.6964
1.6732468618895553 23.3057
1.695558623192809 22.4024
1.7178704487808514 22.4628
1.7401823395001077 22.7128
1.7625012545597203 22.5301
1.7848028405262486 21.8781
1.8071218901122095 21.726
1.8294236121921872 21.3719
1.8517427996910911 21.3789
1.8740620574440425 21.4923
1.8963639900671978 21.7016
1.9186833908139995 21.4817
1.9409854680117449 21.7081
1.9633050151394713 21.9878
1.9856246367570705 21.5328
2.0079269371922672 21.4674
2.03024671027244 21.3226
2.0525491637446027 21.0436
2.074869091674931 20.8319
2.097171701569106 21.537
2.1194917877373847 21.5894
2.141811954326636 21.3908
2.164114805233074 21.6351
2.186435135143035 22.2559
2.208738150935709 22.6125
2.231058647554722 22.198
2.2533792288321184 22.8413
2.275682498336085 23.0095
2.298003251406138 23.2265
2.3203066942619714 23.1598
2.3426276225136022 22.3128
2.3649486396617507 22.1274
2.387252348930071 22.3119
2.4095735463442893 21.9476
2.4318774374315884 22.2215
2.4541988185014043 22.221999999999998
2.476502894794693 22.5528
2.498824462909887 22.7604
2.521146125856138 22.7591
2.5434504863470337 23.0414
2.5657723414244717 23.9363
2.588076895590662 24.1549
2.610398946189713 24.7834
2.6327210958598384 24.6212
2.6550259469304716 25.4469
2.6773482972090137 26.211
2.6996533504259 26.3221
2.7219759047039602 27.3358
2.744298562293959 28.2783
2.7666039251246595 30.2258
2.7889267918020164 31.173000000000002
2.8112323652516555 32.0445
2.833555444408179 33.098
2.8558786311183852 35.2645
2.8781845268938557 36.9527
2.9005079311721484 39.169000000000004
2.9228140460410397 41.3606
2.9451376712799635 44.2403
2.967444008632326 47.6828
2.9897678582247247 51.1465
3.0120918213106695 55.9056
3.0343984987899373 59.5349
3.0567226913198637 64.1529
3.079029599759726 68.5529
3.101354025127254 72.9005
3.123678568232338 75.9345
3.145985829517914 78.1507
3.16831061055229 78.4185
3.1906181112775593 76.9236
3.212943133635653 74.4028
3.2352682779763207 69.5698
3.2575761442691227 64.528
3.2799015350264273 58.4145
3.302209649240067 53.2645
3.3245352898092655 48.775
3.3468436553365257 44.4445
3.369169549113219 41.4835
3.3914955708171384 38.5193
3.413804319727358 35.5455
3.4361305997334863 33.6298
3.4584396084414553 32.4008
3.4807661501462652 31.8613
3.503092824025881 31.1506
3.5254022288463154 29.7081
3.5477291695206588 29.3045
3.5700388426251948 29.3403
3.5923660534916446 29.2037
3.6146934007816114 29.7885
3.637003482731501 30.4358
3.6593311053109985 30.3564
3.681641464033634 30.338
3.7039693653009733 30.1278
3.726297407241705 29.4086
3.7486081875460804 28.4714
3.7709365132734978 28.0484
3.793247578841633 27.756999999999998
3.8155761917550093 27.3447
3.8378875459837216 26.9818
3.8602164494827234 26.9223
3.882545499606844 27.4258
3.9048572932539183 27.9274
3.9271866390645718 27.4887
3.9494987298666713 27.4506
3.971828374764527 28.0167
3.9941581705403255 28.3367
4.016470713506008 28.6498
4.038800813471445 29.0242
4.061113662089144 29.3491
4.0834440696459176 29.9785
4.105774632334751 30.8598
4.128087945865126 31.368000000000002
4.150418821249301 32.1892
4.172732448931298 34.4173
4.195063640413578 36.5831
4.2173775856475215 39.0403
4.239709096631102 41.7716
4.262040768704612 45.1276
4.284355196706267 47.7779
4.306687193387355 48.2102
4.329001947444346 48.5428
4.35133427213731 46.3676
4.373666762177566 43.9426
4.395982011761091 41.9492
4.418314834921175 41.0359
4.44063041906622 40.062
4.4629635787515625 40.4455
4.4852969080429785 40.2621
4.5076130004776225 40.7718
4.529946671403969 40.471
4.552263106909177 39.6506
4.574597122877047 39.8713
4.596931312711224 40.5414
4.619248269273446 40.9214
4.6415828092605835 41.4065
4.663900117405352 41.3627
4.686235010953232 42.6778
4.708552674085913 43.6874
4.730887924602802 44.6856
4.753223354952695 45.5251
4.775541557023902 47.3039
4.797877349456786 48.9322
4.820195915032126 51.1175
4.842532072957498 52.7115
4.864868414979744 54.8358
4.88718753227192 57.5834
4.909524244902505 60.4801
4.931843734218147 64.2726
4.954180820867835 68.6212
4.976518095879839 73.242
4.998838149695359 79.7008
5.021175803844231 90.4707
5.043496238205739 101.76700000000001
5.065834274903528 113.126
5.088172504230693 124.412
5.1104935158799565 136.901
5.132832132875765 156.94
5.155153533596801 183.9
5.1774925416746225 224.56099999999998
5.199814334878411 297.80400000000003
5.2221537374521505 442.272
5.244493338631803 665.0930000000001
5.266815727034316 954.216
5.289155727832427 1444.98
5.311478517248165 2494.55
5.333818921080011 3796.27
5.356159527788849 4481.62
5.3784829252032536 3485.79
5.400823940070432 1997.03
5.423147747031976 949.212
5.445489173474152 500.626
5.467830807066149 330.795
5.490155234831516 251.817
5.512497285125229 203.574
5.534822130975162 174.37099999999998
5.557164601388673 153.334
5.579489868738879 136.767
5.601832762690846 125.941
5.6241758697774475 118.884
5.646501775867269 114.139
5.668845311622074 110.40100000000001
5.691171647754637 108.508
5.713515615597765 104.666
5.735859800852677 101.88799999999999
5.758186788542988 98.8643
5.780531411018185 98.5695
5.802858837297399 98.3096
5.825203900414495 99.6001
5.8475491852224 101.428
5.869877275883075 104.73
5.892223006467101 109.965
5.914551544266608 115.71799999999999
5.936897724049891 124.38600000000001
5.959244129804903 136.94899999999998
5.981573344815301 156.863
6.0039202049061 188.613
6.026249875609095 238.99400000000003
6.04859719346037 311.164
6.070927323278297 402.356
6.093275102315365 529.643
6.115623113320588 693.81
6.137953938319995 961.237
6.160302415650845 1243.88
6.182633708324452 1224.53
6.2049826554078376 940.952
6.227331838745022 592.582
6.249663839443684 368.416
6.27201349767565 251.667
6.294345974611799 186.22099999999998
6.316696111167083 142.111
6.339046488263839 115.25
6.361379686074702 97.4636
6.383730546639482 85.7119
6.406064229255215 76.1609
6.428415576718203 70.4747
6.450749747566656 65.4642
6.47310158535871 61.3979
6.495453669698332 57.9571
6.517788579421056 54.9608
6.540141159237969 53.1069
6.562476565766648 51.0231
6.5848296444934045 49.6027
6.607182974060425 48.7541
6.6295191323281015 48.0857
6.651872965955752 47.501000000000005
6.6742096296068985 47.7023
6.6965639707294615 47.4879
6.71891856698715 47.5034
6.741255995248479 46.7698
6.763611104154477 46.0274
6.785949046381137 44.8323
6.808304671371482 43.7385
6.8306605557940046 42.7537
6.852999275508618 41.8944
6.875355681171544 41.4587
6.897694923437771 41.2232
6.92005185377892 40.6921
6.9423916220322655 40.3032
6.964749080490181 39.4643
6.987106804399774 39.4911
7.009447368180821 39.8598
7.031805625367033 39.5996
7.054146723727803 39.6359
7.076505517631004 39.7034
7.098864581288365 39.8516
7.121206488070854 40.205999999999996
7.143566093607822 40.467
7.165908543567245 40.8714
7.188268694426048 41.2994
7.2106291193438095 41.5049
7.232972390625943 42.0233
7.255333366030969 43.25899999999999
7.277677189091925 45.3619
7.300038718428332 47.9578
7.322400526130865 48.6461
7.344745183422596 47.9988
7.367107550224791 45.8728
7.389452767901992 43.6205
7.411815697249891 41.9149
7.434161478756298 40.9202
7.456524974096713 40.9369
7.478888753837185 41.6206
7.501235387657368 44.641000000000005
7.523599738562711 52.8397
7.545946944825532 80.8838
7.568311870344528 137.299
7.5906770845765665 193.138
7.613025156078678 177.395
7.635390950099687 113.35
7.657739602662809 68.196
7.680105979923558 49.5193
7.702472650212829 43.385
7.724822180948224 40.6867
7.747189439655568 39.2386
7.769539560075357 38.2923
7.791907410653562 38.0859
7.81425812420825 37.6303
7.836626570110925 37.492
7.858995315087906 37.5043
7.881346924933401 37.2963
7.903716270417482 37.7198
7.926068482028405 37.5744
7.948438431475253 37.9682
7.9708086843180235 38.07
7.993161805171116 38.4621
8.015532667162402 38.5559
8.037886398416653 39.0175
8.060257873014221 39.414
8.082629655331942 39.8319
8.104984308787587 40.2277
8.127356708900503 40.6634
8.149711981398308 41.3556
8.172085002766314 42.0532
8.194458336181368 42.8499
8.216814543847752 43.625
8.23918850371002 44.4905
8.26154533906492 44.863
8.283919928836452 46.1285
8.306277395339652 47.1511
8.328652618483376 48.2785
8.351028159736202 50.326
8.373386579575245 52.2846
8.395762759396959 54.2728
8.418121819038275 57.0296
8.440498640894003 60.341
8.462875785192262 65.1593
8.485235811156207 71.3388
8.507613602688501 80.0579
8.529974277114228 95.04700000000001
8.552352719347912 115.304
8.574731488360351 145.438
8.59709314210385 178.69299999999998
8.619472567021075 208.87099999999998
8.64183487789147 248.543
8.664214962183097 336.86300000000006
8.686577933647762 497.462
8.708958680784317 687.11
8.731339760774953 785.9580000000001
8.753703729764451 689.4119999999999
8.77608547780821 473.14300000000003
8.798450116065078 303.248
8.820832535634787 200.77900000000002
8.843215292401656 144.053
8.865580941199045 113.934
8.887964374703538 97.2647
8.910330701447199 87.6524
8.932714815164482 80.8838
8.955099270424924 75.71
8.977466620733543 72.2139
8.999851761421976 69.09100000000001
9.022219798361645 66.8093
9.04460562795561 65.1847
9.066991803441677 63.9138
9.089360876979615 63.0986
9.111747746589993 62.6227
9.13411751544971 62.2401
9.156505082664324 63.062
9.178875550323522 64.9057
9.20126381862328 69.0593
9.223652438908596 79.1277
9.246023961427412 112.505
9.26841328802173 198.535
9.290785518039224 300.77099999999996
9.313175554425882 328.184
9.335565947154315 238.84599999999998
9.357939245086508 139.64700000000002
9.380330352834827 89.85600000000001
9.40270436697103 70.5986
9.425096193225055 63.2137
9.447488380180165 59.8398
9.469863475295412 58.0147
9.492256385987508 56.8005
9.514632206018318 55.53
9.537025843935714 54.8506
9.559402392368193 54.5464
9.581796761000229 54.7347
9.604191496441521 54.5309
9.626569144158516 55.0658
9.648964615551032 55.2063
9.671343000390081 55.52
9.693739211225699 56.028999999999996
9.716135793237463 56.2749
9.738515290448102 56.391999999999996
9.760912617143402 57.3748
9.783292860202891 57.8282
9.805690935076182 58.6544
9.828089385495742 59.4989
9.850470754023561 61.4453
9.872869957865444 63.111999999999995
9.89525208097539 65.637
9.917652041736662 68.6073
9.940052382417589 71.4002
9.962435644102392 76.6123
9.984836746950979 83.3473
10.007220771957746 93.5484
10.029622640473708 110.568
10.052007432299963 134.80700000000002
10.074410069984072 158.64700000000002
10.096813093716005 180.127
10.119199042482517 199.794
10.141602840636468 234.12099999999998
10.163989564971628 304.71299999999997
10.186394141051062 444.44
10.208799107559706 628.591
10.231187001965623 762.1210000000001
10.253592751657669 742.8610000000001
10.275981430388155 562.779
10.298387966769793 370.599
10.320794897965431 249.141
10.343184759907361 175.55599999999998
10.36559248305461 132.898
10.387983138083852 109.15899999999999
10.410391656691655 95.6883
10.432800574501677 87.4716
10.455192425893369 83.3023
10.47760214443012 83.2307
10.499994797678786 85.7896
10.522405320453982 90.0823
10.54479877906917 93.7967
10.567210109595656 95.9406
10.5896218454736 100.829
10.612016518879773 116.02600000000001
10.634429067781074 146.864
10.656824555333241 197.195
10.679237920773568 254.417
10.701651695961992 284.52299999999997
10.724048411481384 271.058
10.746463008485165 228.305
10.768860546937125 172.658
10.791275969274796 116.48299999999999
10.81369180576079 83.1063
10.836090585366925 66.7194
10.858507252467449 58.8536
10.88090686379991 54.5344
10.903324365036394 51.8958
10.925724811614439 49.7354
10.948143150509463 48.6112
10.970561909719066 47.1398
10.992963615930844 46.3405
11.015383218085756 45.3648
11.037785768347074 44.8806
11.06020621697282 44.2879
11.082627090322113 43.8035
11.105030913430326 43.3533
11.12745263854165 42.8432
11.149857314510728 42.5896
11.172279894912576 42.6853
11.194702904450653 42.0675
11.217108866490921 41.6679
11.239532736615194 41.4395
11.26193956033512 41.4068
11.284364294577085 40.9137
11.306789462371718 40.4694
11.329197585398376 40.3674
11.351623622610898 40.1077
11.37403261614354 39.4418
11.396459526308487 39.3153
11.418869393879497 39.0388
11.441297180532617 38.7684
11.463725406927658 38.6099
11.486136592353875 38.1157
11.508565700543707 37.9426
11.530977768845315 38.1441
11.553407762368774 37.8458
11.575838200059769 38.1265
11.598251599479612 38.0035
11.620682927815501 37.8938
11.64309721895548 37.9105
11.665529441478206 37.64
11.687962112597958 37.5089
11.710377748130886 37.5462
11.732811318753434 37.7161
11.755227854859067 37.6524
11.777662328529495 37.8247
11.800079768750786 38.0457
11.822515149015453 37.9989
11.844950984084935 38.641
11.867369787303163 38.9371
11.889806534289491 39.7273
11.912226250487029 41.4529
11.934663912939751 45.1943
11.9571020346363 55.5281
11.979523127133968 77.5199
12.001962169624331 103.546
12.024384183972964 114.56
12.046824150809913 100.62799999999999
12.069264581333726 74.6796
12.091687985297767 56.9317
12.11412934550045 49.7451
12.136553680195208 47.8437
12.158995973632788 48.3223
12.181438735204349 48.956
12.20386447284199 49.6145
12.226308172985636 51.5192
12.24873485024193 55.2856
12.271179492516982 60.7345
12.293607112949127 69.133
12.316052700916226 79.9874
12.338498763250042 90.0115
12.360927805303868 91.9567
12.383374818673879 85.5292
12.405804812803074 73.81
12.428252780773262 62.5721
12.45070122756722 54.4503
12.473132656675375 49.4933
12.49558206341869 46.3332
12.518014453510101 43.9819
12.540464823770117 42.4112
12.562915677315177 41.2858
12.58534951575545 40.6062
12.607801338171472 39.9602
12.630236146511358 39.8035
12.652688941369085 39.7369
12.675124723177234 39.8658
12.697578494048786 40.0602
12.720032754458185 39.7011
12.742470003354093 39.601
12.764925245138771 39.469
12.787363476431278 39.2049
12.809819703166806 39.1853
12.83227642391173 39.1832
12.854716135692716 39.4479
12.877173846755147 40.1489
12.899614549869717 40.005
12.9220732548287 40.2834
12.94453245827299 40.476
12.966974655289818 41.0321
12.989434858002571 41.3427
13.011878055298721 41.6695
13.034339260862497 42.4937
13.056800969391883 43.31100000000001
13.079245674017244 45.0621
13.101708390774869 47.1805
13.12415410463411 52.5768
13.146617833206086 59.9587
13.169064559883248 65.2471
13.191529303857127 66.8246
13.213994557076367 66.2049
13.236442809902437 65.765
13.258909083908291 67.8892
13.28135835851934 69.7171
13.30382565690295 71.8076
13.326293469022952 75.1074
13.348744283242008 81.7171
13.371213125129904 94.2879
13.39366497011003 114.285
13.416134845360597 144.203
13.438605238843131 179.71900000000002
13.46105863690397 204.993
13.483530069144786 204.03
13.505984506951902 176.83900000000003
13.528456981549432 141.84799999999998
13.550929978879088 114.23200000000001
13.573385983253365 97.9964
13.595860028340867 89.465
13.618317081455832 84.6011
13.64079217790333 80.8115
13.663250283359057 79.5938
13.685726434770173 81.2171
13.708203115221277 87.9715
13.730662806148091 100.775
13.75314054697177 121.77
13.775601299246777 153.02100000000002
13.798080104050406 184.459
13.820559442405358 195.49
13.843021793671388 178.417
13.865502201420897 142.662
13.887965623051947 108.08
13.910447103807167 83.8723
13.932929122629764 69.3462
13.955394156785959 61.7172
13.977877254034569 56.2551
14.000343367582113 52.695
14.022827546871707 50.5527
14.045294743423524 48.8191
14.06778000837062 47.8688
14.090265817715476 47.5203
14.112734645763819 47.8943
14.13522154619454 49.3758
14.157691466286913 55.7975
14.180179461423874 70.5546
14.202668005486178 89.76700000000001
14.22513957064374 102.59100000000001
14.247629214846473 100.93
14.270101881097517 82.9514
14.29259262906496 63.1447
14.315083930490205 51.6992
14.337558255389705 46.5304
14.360050666019726 43.9806
14.382526101071944 42.6152
14.405019624534942 41.6697
14.427513705993134 41.3567
14.449990813291825 40.9229
14.47248601302899 40.5748
14.49496423954951 40.3694
14.517460561197822 40.0061
14.539939910570322 39.7227
14.562437357763558 39.6397
14.58493536931253 39.8255
14.607416409993311 39.8939
14.62991555254159 39.8117
14.652397725157423 39.9009
14.674898002342799 40.0301
14.697398848433282 40.1789
14.719882725991326 40.4518
14.74238471217934 40.4988
14.764869730765593 40.6762
14.787372860692983 40.8757
14.809876564079925 42.0159
14.83236330125751 43.0413
14.854868153850365 44.7558
14.877356041159485 46.5809
14.899862046604186 48.4636
14.922351087688757 50.0694
14.944858249632887 51.0605
14.967365991421232 51.7088
14.989856770231246 53.2456
15.012365673994204 56.354
15.03485761569738 61.4223
15.05736768508665 69.4959
15.07987833888692 81.2517
15.102372032001655 97.6896
15.124883856909658 112.169
15.14737872204565 118.506
15.169891721717274 112.02600000000001
15.192405310371893 99.037
15.214901940621196 83.2362
15.237416709527137 69.3046
15.259914520936249 59.4515
15.282430473753607 52.8558
15.304947020131227 48.2558
15.327446610371178 45.6301
15.349964346154254 44.1478
15.372465126703139 42.8709
15.394984055556009 41.9654
15.417486030076159 41.3868
15.44000615566487 40.7378
15.462526881230803 40.3482
15.485030653812652 40.2219
15.507552581617434 39.7763
15.530057557334603 39.9707
15.55258069104857 39.751999999999995
15.575104429329837 39.7682
15.597611216864632 39.4668
15.620136166564563 39.5475
15.6426441664095 39.4546
15.665170331202765 39.635
15.687697105158826 40.0566
15.710206930593545 40.5734
15.732734925158933 41.2382
15.755245972089478 42.5462
15.77777519094324 44.0415
15.800287463046663 45.7804
15.822817909869592 47.3072
15.84534897229804 47.8716
15.867863089299354 48.7552
15.890395385222186 49.5675
15.912910736597423 51.0221
15.935444269699861 54.5652
15.957978423016485 59.8455
15.980495633101265 67.1149
16.003031029129367 78.4848
16.02554948280019 93.6927
16.048086125229432 107.345
16.070623392487107 114.07799999999999
16.09314371869582 112.598
16.11568223789321 104.029
16.13820381691126 92.7248
16.160743591742527 80.9258
16.183283996022084 68.5016
16.205807461423195 56.9227
16.228349126881973 48.9212
16.25087385432698 44.3596
16.27341678466365 41.2926
16.29594277784926 39.6883
16.31848697676433 38.3091
16.341031811604868 37.4111
16.36355971058487 36.9245
16.3861058195587 36.2538
16.40863499352978 35.7177
16.431182380342005 35.1508
16.453730407713202 34.8309
16.476261501364792 34.4197
16.498810812136167 34.0369
16.52134319004079 33.9929
16.54389378792203 33.7855
16.566445031001553 33.6461
16.588979342490088 33.5263
16.61153187824822 33.3327
16.634067483263312 33.173
16.656621315414416 33.133
16.679175797408888 32.9282
16.701713349928728 32.7299
16.72426913389191 32.8495
16.74680798922351 32.9955
16.76936507887444 32.9399
16.791905240734874 32.687
16.814463639794468 32.6317
16.837022695210294 32.952
16.859564824093756 32.9489
16.882125194503903 32.9874
16.904668639217885 33.3656
16.927230328348003 33.7312
16.949792678493612 35.1773
16.972338104193863 38.0303
16.994901778652235 40.6711
17.017448529496576 42.5859
17.040013531998152 42.8674
17.06257920018044 40.6512
17.0851279459922 37.6798
17.107694947817667 35.6529
17.130245028099072 34.4711
17.15281336730298 34.2792
17.17536478578733 34.2818
17.19793446610687 34.4635
17.220504818648422 34.9134
17.243058251703697 34.8437
17.265629950971032 35.0985
17.288184731571736 35.3807
17.310757781306908 35.5409
17.33333150794385 35.772
17.355888317140174 36.4475
17.37846339986244 37.3773
17.401021565958885 38.9384
17.42359800851343 41.1827
17.44617513265564 43.9383
17.468735341390783 47.0512
17.491261035594565 49.2969
17.51396340099364 49.3322
17.536490463869136 47.5466
17.559018209820174 44.5704
17.58154663977963 41.5075
17.604251766089718 39.1325
17.626781572227713 37.6079
17.64931206518155 36.7624
17.671843245885103 36.4594
17.69455114821572 36.1931
17.717083712612634 36.0461
17.739616967569667 36.2044
17.762150914021706 36.6502
17.78486160749854 37.6273
17.807396945166804 39.8192
17.829932977143503 42.3464
17.85246970436452 44.0952
17.875183204129467 44.5559
17.897721330097664 43.4772
17.920260154126645 41.7638
17.942799677153296 40.6198
17.9655159983646 40.3557
17.988056927677544 40.884
18.010598558807683 41.7743
18.033140892692916 42.7128
18.05586005052525 43.1091
18.07840379824407 43.4168
18.10094825154059 43.8635
18.12366954819864 44.661
18.146215420998306 45.9967
18.16876200220057 48.3653
18.191309292745153 51.8617
18.214033452627167 57.7347
18.236582170236648 65.3798
18.259131600016456 75.72399999999999
18.281681742907335 85.0445
18.304408781233683 90.7348
18.32696035875955 89.5328
18.349512652227624 81.9002
18.372065662579683 72.0513
18.394795594587553 62.8951
18.41735004715306 57.0789
18.43990521943684 54.2773
18.46246111238171 53.5456
18.485193953325208 55.1928
18.507751296070428 58.673
18.530309362314178 63.216
18.552868153000343 66.8452
18.57560391815056 68.1296
18.59816416623245 66.7658
18.620725141597372 62.9448
18.643286845190268 57.9215
18.666025549835414 53.3725
18.688588718427933 49.1235
18.711152618092243 45.3247
18.73389353884365 42.1185
18.75645890921984 39.7642
18.77902501351406 38.3298
18.801591852673102 37.6924
18.824335739722738 36.9874
18.846904057212626 36.6247
18.8694731124168 36.0829
18.89204290628315 35.9044
18.914789774966803 35.7112
18.937361054791623 35.3792
18.959933076131318 35.0625
18.982505839934877 35.067
19.00525570560582 34.8581
19.027829963004184 34.6403
19.05040496572238 34.7142
19.072980714710468 34.5273
19.095733592739563 34.4808
19.11831084296757 34.3065
19.140888842324735 34.4865
19.16346759176222 34.4821
19.18622349753803 34.5471
19.208803755869358 34.9552
19.231384767143577 35.1618
19.253966532312948 35.566
19.276725481241822 35.97
19.29930876296784 36.218
19.3218928014549 36.8775
19.34465404436217 38.4819
19.36723960516257 41.367
19.389825925592426 45.0432
19.412413006605938 48.2373
19.43517731967805 50.3879
19.457765930683355 49.6942
19.48035530514408 47.2497
19.50294544401556 45.4116
19.525712842708348 44.9248
19.54830451925909 45.7408
19.570896963095727 46.2461
19.593490175174704 46.0395
19.616260674962184 44.7312
19.638855432416964 42.20399999999999
19.661450960992624 39.8059
19.68404726164677 37.6016
19.706820878021247 36.1442
19.729418731756834 35.2696
19.752017360452857 34.3665
19.77461676506804 33.9304
19.797393513540218 33.3872
19.819994478951667 33.0872
19.84259622316767 33.0779
19.8651987471481 32.8245
19.887978643247177 32.6521
19.91058273574792 32.7735
19.933187610901943 32.741
19.955969879466828 32.9545
19.97857632894404 33.1011
20.00118356396599 33.0435
20.023791585494575 33.0465
20.046577028914875 33.3886
20.069186632506966 33.2487
20.091797025500632 33.3265
20.114408208858933 33.6497
20.137196842715273 34.0399
20.159809615886765 34.6663
20.18242318232135 35.3601
20.20503754298326 36.5858
20.227829382875154 38.2159
20.250445341109344 40.1265
20.27306209647285 42.2982
20.29567964993108 43.9763
20.31847471147704 44.2214
20.34109387027612 43.6593
20.363713830075454 41.8446
20.386334591841646 40.0478
20.409132890679302 38.6199
20.431755265564437 38.0346
20.454378445325528 38.1187
20.477002430930366 39.0267
20.499803982716553 40.2205
20.522429589228004 41.5034
20.54505600449589 41.9206
20.567683229489194 41.5344
20.590488049900088 39.9887
20.61311690359731 37.9523
20.63574656993626 35.9855
20.658553853717297 34.2191
20.681185154618298 33.1933
20.703817271080066 32.6053
20.72645020407368 31.7555
20.749260783967177 31.6428
20.771895359337133 31.6633
20.794530754161617 31.9321
20.817166969412938 32.7877
20.83998086114876 33.8826
20.86261872660049 34.9228
20.885257415405402 35.63
20.90789692853701 35.1207
20.930714147864748 33.8809
20.953355319030678 32.4539
20.97599731745334 31.3129
20.99864014410749 30.4327
21.021460706796564 29.9792
21.044105199328826 29.941999999999997
21.06675052302631 29.8035
21.089396678865015 29.714000000000002
21.112220600704806 29.7602
21.134868430275347 29.7874
21.15751709492456 29.6587
21.180166595629693 29.7353
21.202993892429635 29.6319
21.22564507473034 29.6013
21.24829709602816 29.6194
21.27112693608965 29.6193
21.293780644891275 29.7052
21.316435195634053 29.7964
21.339090589297417 29.838
21.361923832041875 30.1264
21.384580921090404 30.4569
21.407238856007325 30.831999999999997
21.429897637773326 31.4079
21.45273429906592 32.0307
21.475394784108598 32.2162
21.498056118951983 32.2426
21.520718304578022 32.2193
21.543558400304388 31.923000000000002
21.566222297108816 31.7033
21.58888704765135 31.2578
21.61155265291521 30.8742
21.63439619898156 30.5923
21.657063523335786 30.218000000000004
21.67973170537063 30.1589
21.7024007460706 30.1318
21.72524775840385 30.3053
21.747918526116475 30.6172
21.770590155457388 30.7859
21.79326264741238 30.9099
21.816113141960237 31.0723
21.838787368860547 31.2625
21.861462461341976 31.3347
21.884315579735777 31.6153
21.90699241312273 31.7117
21.92967011506078 31.8925
21.95234868653799 32.3308
21.9752053151131 33.06
21.997885635446785 33.9382
22.020566828293532 35.0089
22.04324889464272 36.356
22.066109049404666 38.0711
22.088792872571794 40.0267
22.111477572219204 42.1242
22.1341631493376 43.4401
22.157026846313123 43.7007
22.179714188221507 43.2688
22.202402410582668 42.5935
22.22509151438863 41.5797
22.24795876962584 40.6195
22.270649646204486 39.8773
22.293341407213727 39.2698
22.316034053646906 38.4437
22.338904883215342 37.8787
22.36159931041458 37.5702
22.38429462602756 36.6662
22.40699083104897 35.4311
22.429865251039757 34.3922
22.452563244831367 33.3931
22.47526213102522 32.5609
22.49813925616515 31.8495
22.520839937143307 31.3884
22.543541513520587 31.1706
22.56624398629403 30.7013
22.589124730075895 30.4962
22.611829005656723 30.5495
22.63453418063466 30.336
22.657240256008077 30.3917
22.680124634582935 30.408
22.70283252079775 30.328000000000003
22.725541310413075 30.416
22.74825100442868 30.5087
22.771139033969575 30.7278
22.79385054687155 30.6563
22.81656296718292 30.9984
22.83927629590484 31.561999999999998
22.862167992606945 32.1459
22.88488314827121 32.4874
22.907599215359284 32.6032
22.93031619487366 32.4525
22.953211574954405 32.2985
22.975930389478226 31.8923
22.998650119445763 31.6918
23.02137076586092 31.6301
23.044269845560063 31.8708
23.06699233506288 32.3688
23.089715744034912 32.9802
23.112617610931565 33.7771
23.135342869061212 34.9246
23.158069049684816 36.4361
23.1807961538087 37.9168
23.20370174880544 38.9959
23.226430710184808 38.9949
23.249160598093425 38.2133
23.271891413539002 36.8777
23.294800752937697 35.3043
23.31753343374794 33.9591
23.340267045128353 32.7997
23.36300158808808 32.4316
23.38591468821339 32.1694
23.408651104658304 31.9744
23.431388455719986 31.9602
23.454126742409 32.5631
23.4770436196085 33.3144
23.499783787914662 34.1791
23.522524894889884 34.5552
23.54526694154616 34.5912
23.56818761219047 34.506
23.59093154860734 33.6887
23.613676427751283 33.0337
23.636422250635754 32.5277
23.659346731118656 32.5088
23.68209445191868 32.644
23.704843119509587 33.2545
23.72759273490623 34.078
23.750521041644767 35.4009
23.77327256312355 36.6875
23.796025035462787 38.4597
23.818956224555475 39.414
23.841710609113413 39.7197
23.86446594758979 39.0622
23.887222241002014 37.6469
23.910157285144578 35.6686
23.932915498962537 34.0418
23.955674670778713 32.4905
23.978434801611975 31.4051
24.001373717286125 30.5678
24.024135776723917 30.1123
24.046898798245582 29.6994
24.06966278287146 29.5461
24.092605586582614 29.4155
24.115371508023642 29.4152
24.1381383956401 29.3422
24.16090625045381 29.2929
24.183852958731244 29.1675
24.206622758582608 28.916
24.229393528706886 28.3198
24.252165270127392 28.1794
24.27511589952438 28.0337
24.297889594216997 27.7818
24.32066426328598 27.6164
24.34343990775613 27.594
24.36639447485003 27.4679
24.38917208083877 27.4085
24.41195066531332 27.2365
24.43490819850244 27.3186
24.457688750692377 27.101999999999997
24.48047028445616 26.927
24.503252800821233 27.1145
24.526214300784112 27.1152
24.548998793132213 27.0195
24.57178427117417 26.8638
24.59457073593893 27.0176
24.617536219319863 26.932
24.64032466834748 27.1022
24.663114107195035 27.1887
24.685904536893013 27.4738
24.708874020360852 27.8112
24.731666442613744 28.1588
24.754459858818787 28.557
24.777254270007962 28.6471
24.80022777025625 28.2862
24.82302418230472 27.9547
24.845821592443674 27.6261
24.86862000170663 27.3007
24.891597535453727 26.9984
24.914397953892728 27.0614
24.93719937456671 26.7355
24.96000179851076 26.6696
24.98298338249997 26.8004
25.00578782394922 26.7011
25.028593271784167 26.5254
25.05157790644186 26.6685
25.07438537804115 26.589000000000002
25.097193859145293 26.5692
25.120003350792075 26.406
25.142992065061257 26.6213
25.165803588823465 26.7644
25.18861612625217 26.7546
25.211429678386736 26.7947
25.234422489079968 27.0126
25.257238081693636 27.0748
25.280054692141732 27.506999999999998
25.3028723214652 27.794
25.325869245420463 28.1358
25.348688923599397 28.5507
25.371509623787006 28.7881
25.394331347025812 28.9829
25.41733240110666 29.2173
25.440156181590016 29.1524
25.46298098826268 29.0558
25.48580682216873 29.0326
25.50881202326435 28.8907
25.53163992281684 29.0266
25.55446885274561 29.4692
25.577298814096377 29.7379
25.600308179121807 30.033
25.623140214533745 30.22
25.64597328451537 29.8245
25.66898578564376 29.1065
25.691820936010206 28.4854
25.714657124097695 27.9236
25.737494350954734 27.4911
25.760511045684957 26.9901
25.783350361364224 26.7264
25.806190718969255 26.592
25.82903211955018 26.5699
25.852053024868923 26.4649
25.874896522722523 26.6271
25.897741066713106 26.7811
25.920586657892454 26.9442
25.943611790812668 26.9718
25.966459487728237 26.8822
25.989308234998564 26.55
26.01215803367705 26.340999999999998
26.03518741123814 26.2143
26.05803932412957 25.9962
26.080892291600094 25.6862
26.10374631470478 25.7042
26.12677995397268 25.7492
26.14963609978026 25.8577
26.172493304397875 25.8292
26.19535156888223 25.9733
26.218389486949604 26.0207
26.241249882640123 26.1665
26.26411134137826 26.4222
26.28715248187403 26.7375
26.31001607820869 26.9477
26.3328807407756 27.186
26.35574647063438 27.6225
26.37879191991473 27.6085
26.401659795896734 27.3917
26.424528742360263 27.2253
26.447398760366614 26.9253
26.470448535598294 26.7229
26.49332070826805 26.4897
26.516193955675355 26.3845
26.53906827888316 26.2348
26.562122397260108 25.953000000000003
26.584998883685063 26.0086
26.607876449110325 25.9137
26.63075509460056 25.8494
26.65381357334404 25.7958
26.67669439061878 25.8068
26.699576291163382 25.9654
26.722459276044212 26.0891
26.745522132402975 26.1373
26.768407297649354 26.3376
26.791293550442003 26.5294
26.814180891848974 26.8037
26.837248143099337 27.0281
26.860137673466657 27.6225
26.88302829566349 28.0522
26.90592001075963 28.4557
26.92899167420566 28.6766
26.951885586870763 28.6738
26.974780595655517 28.5673
26.99785558178161 28.6243
27.020752794605112 28.5203
27.043651106772522 28.3644
27.06655051935668 28.3285
27.089629948036183 28.1326
27.112531573292053 27.7762
27.135434302194138 27.4062
27.158338135817015 26.7405
27.181422024430987 26.3538
27.204328079372566 26.0146
27.22723524226965 25.7536
27.250143514198573 25.4283
27.273231880156334 25.4028
27.296142382065014 25.0749
27.319053996245536 25.0629
27.341966723775965 25.0715
27.365059584515222 25.087
27.38797455070062 24.9522
27.410890633481237 24.8767
27.433807833936918 24.7334
27.456905206923906 24.7135
27.47982465472398 24.8147
27.502745223449743 24.7303
27.525666914182825 24.8657
27.548768816912457 24.9088
27.571692763693633 24.9522
27.59461783573812 24.8265
27.617723149491244 24.8252
27.640650484125285 24.9283
27.66357894728264 24.8332
27.686508540048052 25.0298
27.709618414237887 24.9008
27.732550278321757 24.8438
27.755483275279115 25.0807
27.778417406196485 25.2138
27.801531858397514 25.1119
27.824468269376716 25.3033
27.847405817586786 25.1378
27.870344504116094 25.0066
27.893463551932008 25.061999999999998
27.916404527281053 24.941
27.93934664422563 24.8341
27.962289903855886 24.6869
27.98541356491974 24.7195
28.00835912214229 24.7222
28.03130582533231 24.873
28.054253675581805 25.0188
28.077381967556104 25.1604
28.100332124185126 25.4018
28.123283431160893 25.5545
28.146235889577238 25.6892
28.169368830154156 25.7359
28.192323603752033 25.6009
28.215279532083304 25.511999999999997
28.238415973016764 25.4697
28.261374223145094 25.6959
28.284333631303806 25.9757
28.307294198589954 26.3729
28.330435319167677 26.4762
28.353398217078915 26.5369
28.376362277420153 26.4756
28.39932750129032 26.3749
28.422473319286713 26.2203
28.44544088262495 26.0503
28.468409612800283 25.8302
28.491379510913497 25.6387
28.51453004413313 25.5084
28.53750229057244 25.3206
28.56047570826344 25.1275
28.583450298308804 25.0015
28.606605564586562 24.7434
28.629582511831156 24.6923
28.65256063474956 24.434
28.675539934446338 24.2471
28.698699951647605 24.1159
28.72168161743193 23.8047
28.74466446331978 23.5921
28.767648490417624 23.5108
28.790813276438353 23.3607
28.813799678527303 23.2913
28.836787265157085 23.185
28.859955641890075 23.0996
28.882945610203045 23.0909
28.905936766392035 22.9467
28.928929111566863 22.951
28.952102288520145 22.8988
28.975097024308607 22.7824
28.998092952423807 22.72
29.021090073977508 22.7811
29.04426806913204 22.7492
29.067267590245258 22.6448
29.090268308143695 22.826999999999998
29.11327022394099 22.9017
29.13645305530891 22.91
29.159457379627167 22.9499
29.18246290519685 23.0805
29.20546963313352 23.1342
29.22865731875826 23.0886
29.25166646419296 22.908
29.27467681535305 22.6701
29.29768837335608 22.5871
29.320880931312562 22.5086
29.34389491580634 22.3636
29.366910110507334 22.2612
29.38992651653503 22.2276
29.41312396492981 22.2034
29.436142806456754 22.16
29.45916286268059 22.0478
29.48236399319994 22.0826
29.50538649169417 22.026999999999997
29.528410208259935 21.9765
29.55143514402014 21.9168
29.574641196749695 21.9704
29.597668583816574 22.1026
29.6206971934585 22.2161
29.64372702680042 22.2551
29.666938019934474 22.2653
29.689970313635285 22.331999999999997
29.713003834422636 22.2653
29.73603858342347 22.1769
29.759254535188578 22.1465
29.78229175361658 22.0427
29.80533020365064 21.8851
29.82836988641968 21.8294
29.85159081507472 21.7393
29.874632976355343 21.5148
29.89767637376955 21.5717
29.920721008448314 21.3799
29.9439469322847 21.3404
29.96699405457564 21.3563
29.9900424175358 21.3088
30.013092022298157 21.2765
30.03632295963995 21.2711
30.059375061131373 21.2804
30.08242840783577 21.2576
30.105483000888153 21.3805
30.128718970092244 21.4703
30.151776069006917 21.5655
30.17483441768648 21.5493
30.198074175317235 21.5524
30.221135036724256 21.465
30.24419715131772 21.3986
30.267260520236203 21.2171
30.290505341942243 21.1194
30.313571232750228 21.0277
30.336638381310948 21.0959
30.35970678876503 21.0425
30.38295669299435 21.0993
30.40602763151657 21.0305
30.429099832366074 21.1086
30.452173296685572 21.1625
30.47542830191959 21.1327
30.498504306502497 21.2195
30.521581577995562 21.1587
30.544660117543582 21.2876
30.56792024229725 21.2954
30.59100133132069 21.092
30.614083691845494 21.0659
30.637167325018545 21.0025
30.660432587840603 21.0077
30.683518779717886 21.0322
30.70660624769615 20.905
30.729694992924372 20.8776
30.75296541239743 20.9007
30.77605672557558 20.8851
30.799149319462742 20.9941
30.8224236211637 20.8986
30.845518789950724 20.925
30.868615242910597 21.0179
30.891712981195973 21.0145
30.91499247215866 21.2086
30.938092794619365 21.41
30.96119440587579 21.4344
30.984297307082752 21.5939
31.00758200598383 21.6106
31.030687500658694 21.6544
31.053794288760695 21.6607
31.076902371446767 21.6046
31.100192296997445 21.6603
31.12330298246119 21.545
31.14641496599209 21.4962
31.169528248749216 21.4634
31.19282341969534 21.4129
31.215939314557186 21.238000000000003
31.239056512134788 21.1307
31.262175013589378 20.9905
31.28547544871168 20.845
31.30859657161541 20.6812
31.331719001892175 20.6923
31.35484274070538 20.6406
31.378148458819545 20.5036
31.401274828443725 20.4503
31.424402510106933 20.4655
31.447712205419993 20.4974
31.470842524931633 20.3727
31.493974159989783 20.3049
31.51710711176168 20.269000000000002
31.54042212308802 20.3831
31.563557722100917 20.361
31.586694641341655 20.3452
31.609832881979628 20.3753
31.63315322823208 20.4542
31.656294125521327 20.5293
31.679436347728515 20.5355
31.70257989602529 20.5827
31.725905596152327 20.5422
31.74905181052835 20.5076
31.772199354521323 20.7132
31.79534822930507 20.779
31.818679302290967 20.7295
31.84183085259981 20.6944
31.864983737233473 20.5853
31.88813795736804 20.5149
31.911474422233013 20.3536
31.934631327356435 20.2654
31.9577895715215 20.1432
31.980949155906522 20.1602
32.004291031706956 20.0928
32.027453310562606 20.0105
32.05061693318573 20.0315
32.07396288236386 20.0818
32.09712920658542 20.0593
32.12029687812702 20.0357
32.14346589817093 20.0387
32.166817291729984 20.1908
32.18998902288583 20.1817
32.21316210610336 20.1088
32.23633654256711 20.1539
32.259693399663725 20.2632
32.282870556771144 20.2262
32.30604907069099 20.1913
32.329228942610065 20.1475
32.35259128243769 20.0207
32.375773884550505 19.8915
32.398957848235646 19.8758
32.422143174682176 19.7958
32.445511016471215 19.7258
32.468699082679954 19.6388
32.49188851523011 19.5717
32.51507931531304 19.4959
32.538452678331 19.4855
32.56164622776311 19.3662
32.58484114831493 19.2914
32.60803744118015 19.2495
32.631416344731896 19.1713
32.654615396551876 19.098
32.67781582427913 19.0813
32.701198898634416 19.0453
32.72440209253756 19.0091
32.747606665947124 18.912
32.77081262006088 18.8317
32.79420126883317 18.8058
32.81740999876112 18.8309
32.840620112999424 18.7743
32.86383161274818 18.761
32.88722585534586 18.7454
32.91044014056596 18.7924
32.933655814909734 18.7731
32.95687287957963 18.8223
32.98027273544904 18.7542
33.00349259526636 18.7931
33.026713849030116 18.8318
33.04993649794511 18.7738
33.073341986570746 18.8147
33.09656744032826 18.8411
33.11979429286444 18.6832
33.14302254538647 18.6781
33.166433686291185 18.5477
33.18966475336992 18.4516
33.212897224069096 18.4598
33.23613109959831 18.4607
33.259547912343415 18.3902
33.2827846121627 18.4277
33.306022720453775 18.37
33.32926223842861 18.3536
33.352684742614166 18.3699
33.37592709463173 18.3632
33.399170859982064 18.4395
33.422597648419426 18.4076
33.44584425514446 18.4437
33.46909227885668 18.4431
33.4923417207723 18.4338
33.51577423505344 18.5568
33.539026528130385 18.5459
33.56228024307245 18.4913
33.585535381098246 18.43
33.60897364093058 18.4717
33.63223163992385 18.4224
33.6554910656699 18.3609
33.678751919389796 18.292
33.702195944520106 18.2624
33.72545966903325 18.1969
33.74872482519663 18.1235
33.771991414233746 18.0735
33.79544122444841 17.9045
33.81871069412428 17.8313
33.84198160035767 17.7842
33.86525394437455 17.7375
33.88870955949969 17.7165
33.911984794020626 17.7311
33.93526147001624 17.6989
33.958539588715006 17.6599
33.98200102861669 17.6577
34.0052820477047 17.5966
34.02856451319451 17.5367
34.05203033759056 17.5768
34.07531571090147 17.5933
34.09860253431845 17.5366
34.121890809074316 17.5222
34.145362493118924 17.5291
34.16865368561615 17.4503
34.191946333164054 17.487000000000002
34.21524043699793 17.4922
34.23871800066799 17.4381
34.26201503218366 17.3499
34.28531352370466 17.3616
34.30861347646881 17.226
34.33209693978188 17.2659
34.3553998301885 17.1842
34.378704185565205 17.1202
34.402010007152356 17.0188
34.42549939016683 17.076
34.44880815937748 17.0615
34.472118398533134 17.0723
34.49543010887669 17.0216
34.51892543169198 16.9408
34.54224009966052 16.9342
34.56555624255917 17.0218
34.58887386163339 16.965999999999998
34.61237514439016 16.8694
34.6356957311114 16.8939
34.65901779775809 16.8489
34.68252356662995 16.8953
34.705848608458616 16.8958
34.72917513396849 16.797
34.75250314440949 16.7988
34.77601490857862 16.81
34.799345904259795 16.679000000000002
34.82267838863559 16.6641
34.846012362958525 16.6633
34.869530142679984 16.648
34.89286711232212 16.5494
34.91620557568269 16.5184
34.93954553401677 16.5178
34.9630693495876 16.471
34.986412313340814 16.4614
35.00975677584668 16.3532
35.033102738362956 16.3632
35.05663261012228 16.3696
35.0799815881786 16.3836
35.10333207003229 16.3283
35.12668405694369 16.3401
35.150220005273056 16.3531
35.17357501786656 16.3212
35.19693153931268 16.3224
35.220289570874385 16.2994
35.24383161619786 16.28
35.267192683604904 16.2559
35.290555264930376 16.2008
35.314101899412165 16.2016
35.33746752422433 16.1836
35.36083466676374 16.2053
35.38420332829803 16.2281
35.407756095629054 16.2007
35.43112781085063 16.1621
35.45450104888391 16.0983
35.477875810999194 16.1367
35.50143473172161 16.0578
35.52481255774625 16.0431
35.54819191167777 16.051
35.57157279478914 16.0859
35.595137889488406 16.0481
35.61852184675279 16.0338
35.641907337029984 16.0821
35.665294361595684 16.1135
35.68886565090076 16.0634
35.7122557598848 16.1135
35.73564740699838 16.2163
35.759040593519934 16.1839
35.78261809810353 16.1535
35.80601437933051 16.1156
35.829412203814705 16.1015
35.85281157283719 16.1184
35.876395313415884 16.0168
35.8997977874528 15.994000000000002
35.92320180988546 16.0285
35.946790244133936 15.8767
35.97019737933222 15.8966
35.993606066789866 15.8132
36.01701630779276 15.7804
36.04061101440684 15.7492
36.06402437852291 15.6929
36.08743930005611 15.7128
36.1108557802951 15.6066
36.13445678011326 15.6659
36.15787639383515 15.6534
36.18129757014299 15.5651
36.20472031032821 15.4694
36.22832762423364 15.4667
36.25175350829375 15.5354
36.275180960119776 15.4249
36.298609981005924 15.5003
36.32222362992669 15.4949
36.34565580510207 15.4963
36.36908955323448 15.4079
36.39252487562093 15.343
36.416144880530226 15.3307
36.43958336764275 15.3604
36.463023432914625 15.3624
36.486465077645676 15.3454
36.51009145956204 15.3604
36.53353627947859 15.4023
36.55698268276811 15.3834
36.58043067073321 15.3559
36.60406345072071 15.2376
36.62751462435344 15.1995
36.65096738658405 15.1821
36.67460498210655 15.1298
36.69806093788647 15.1385
36.72151848619297 15.0694
36.744977628333636 15.0555
36.76862165890998 15.073
36.79208400512205 15.0379
36.81554794910557 15.0487
36.83901349217101 14.989
36.862663978991606 14.9266
36.88613273667352 14.9428
36.90960309738324 14.9794
36.933075062434064 14.9286
36.95673202673572 14.894
36.98020721697122 14.8994
37.003684015502365 14.8585
37.027162423645365 14.8205
37.050825886711465 14.8801
37.07430753063053 14.7722
37.09779078812467 14.7283
37.121275660513014 14.7759
37.144945643673694 14.6547
37.16843376245278 14.6655
37.19192350009803 14.685
37.215414857931435 14.6103
37.239091382563885 14.5801
37.262585997426164 14.51
37.28608223645736 14.5318
37.309763684451696 14.520999999999999
37.33326318851098 14.5146
37.356764320726555 14.4994
37.380267082425526 14.4662
37.40395510942588 14.377
37.42746114683234 14.3544
37.45096881771841 14.302999999999999
37.474478123414166 14.297
37.49817275092816 14.3137
37.52168534303452 14.2771
37.54519957395567 14.2083
37.568715445024665 14.28
37.592416694607714 14.2109
37.61593586281424 14.2289
37.63945667518264 14.2804
37.66297913304891 14.2557
37.68668702630454 14.1486
37.710212792059274 14.0802
37.733740207334854 14.089
37.757269273470364 14.0337
37.780983832050374 14.0416
37.80451621684926 14.0578
37.82805025654007 14.0333
37.851585952464795 13.9784
37.8753071980695 13.9986
37.89884622345676 13.9113
37.92238690911902 13.911
37.94611318753442 13.9254
37.969657210779765 13.897
37.99320289834801 13.8934
38.016750251586465 13.86
38.04048325513017 13.8161
38.06403395679343 13.7921
38.087586328183946 13.7287
38.11114037065203 13.7373
38.13488012115898 13.8064
38.1584375229181 13.7281
38.181996599821 13.687000000000001
38.205557353221124 13.6331
38.229303872575656 13.6336
38.2528679961576 13.6243
38.27643380031219 13.6008
38.30000128639589 13.5847
38.32375459653193 13.5631
38.34732546371299 13.5416
38.37089801690786 13.4277
38.39447225747609 13.4287
38.418232380377425 13.4297
38.441810012983396 13.445
38.46538933705673 13.4296
38.488970353960084 13.4154
38.51273731166058 13.3961
38.536321731567014 13.3167
38.55990784840681 13.3581
38.58367995004091 13.3485
38.60726947812959 13.2615
38.63086070726198 13.3105
38.654453638806274 13.3071
38.678232613930824 13.2881
38.70182896773327 13.1742
38.72542702806741 13.169
38.7490267963045 13.2091
38.77281266709232 13.1711
38.79641586862214 13.1867
38.8200207821842 13.1115
38.843627409152944 13.0969
38.86742019782782 13.0655
38.891030269149255 13.0753
38.914642058016156 13.0784
38.938255565806124 13.0339
38.96205529464307 13.0155
38.98567225787121 13.03
39.00929094417078 13.0384
39.03291135492255 13.0156
39.05671804624804 12.9443
39.080341923549106 12.8877
39.103967529460334 12.9699
39.127594865365744 12.9143
39.15140854155791 12.872
39.17503935514948 12.9339
39.19867190290282 12.8676
39.22249083587951 12.8561
39.24612686969409 12.8029
39.269764641845306 12.7709
39.293404153722804 12.706
39.317230110864074 12.6611
39.34087311998506 12.687999999999999
39.36451787301696 12.6839
39.388164371352595 12.6222
39.41199737518003 12.5867
39.43564738196752 12.5919
39.45929913825317 12.6454
39.48295264543308 12.5524
39.506792718520884 12.5078
39.530449745387216 12.4859
39.55410852735203 12.4994
39.57776906581474 12.5005
39.60161623079 12.5212
39.625280300200025 12.4825
39.64894613032202 12.4541
39.67261372255866 12.4448
39.6964680021016 12.404000000000002
39.72013913657293 12.4141
39.74381203738292 12.3477
39.76748670593756 12.3179
39.79134812278169 12.3637
39.81502634488497 12.3041
39.83870633896685 12.2867
39.862388106436654 12.2754
39.88625668336918 12.2385
39.90994201572829 12.1993
39.933629125719285 12.186
39.957503091207826 12.1859
39.9811937746168 12.2057
40.00488623990914 12.1778
40.02858048850006 12.140999999999998
40.05246165409549 12.1212
40.076159487492085 12.1047
40.099859108448875 12.1486
40.123560518384345 12.1266
40.1474489070226 12.0353
40.171153913178564 12.0357
40.194860712584955 12.0559
40.2185693066637 12.0703
40.242464941335314 12.033
40.26617714307655 12.0295
40.289891143772046 12.0044
40.3136069448471 11.9645
40.33750984859743 11.9633
40.3612292688043 11.8999
40.3849504936829 11.8916
40.40867352466194 11.8508
40.43258372059144 11.843
40.45631038219906 11.8794
40.48003885420956 11.8188
40.503769138055105 11.85
40.52768664931955 11.81
40.55142057531802 11.7878
40.57515631746428 11.7734
40.599079334038514 11.755
40.62281872700477 11.7473
40.64655994043941 11.7015
40.67030297578061 11.7344
40.69423334835778 11.7208
40.71798004609188 11.7069
40.74172857006355 11.6555
40.76547892171441 11.6551
40.7894166736039 11.6383
40.813170699248566 11.6311
40.83692655691388 11.6023
40.86068424804498 11.5978
40.884629402612525 11.526
40.908390779366385 11.5071
40.932153993938 11.5487
40.95591904777605 11.5157
40.979871628443995 11.5073
41.003640379561936 11.5046
41.02741097430883 11.4572
41.05118341413683 11.4522
41.075143444384416 11.4458
41.098919593177826 11.4214
41.1226975914255 11.4047
41.14647744058318 11.3897
41.170444943946755 11.3801
41.19422851378379 11.4102
41.218013938914645 11.3277
41.24198706625173 11.2443
41.26577622087193 11.2737
41.289567235177785 11.2506
41.31336011063129 11.2158
41.337340752422875 11.2243
41.361137369129835 11.2363
41.38493585138705 11.2182
41.40873620066004 11.1733
41.43272438060107 11.1944
41.45652848292052 11.1921
41.48033445666918 11.133
41.50414230331616 11.0609
41.528138045159764 11.0331
41.551949656675205 11.0793
41.575763145513235 11.0514
41.59957851314666 11.047
41.62358184070442 10.9896
41.64740098505737 10.9858
41.6712220126409 10.9501
41.69504492493139 10.9767
41.71905586207357 10.9349
41.74288256296395 10.9604
41.766711153007456 10.8792
41.79054163368412 10.8509
41.814560204340054 10.8729
41.838394485526365 10.9077
41.86223066180303 10.8223
41.88625497706819 10.7582
41.910094962812 10.8382
41.93393684811168 10.8073
41.95778063445365 10.7208
41.981812625263366 10.7289
42.00566023303407 10.7359
42.029509746323676 10.7111
42.05336116662236 10.6729
42.077400857069705 10.6873
42.10125611078846 10.7116
42.12511327600405 10.6357
42.14897235421036 10.6613
42.173019768448455 10.5976
42.19688269209613 10.5798
42.22074753323349 10.584000000000001
42.24461429335818 10.5971
42.268669455600495 10.5166
42.292540073217886 10.5301
42.31641261433284 10.5034
42.34028708044675 10.4949
42.36435001496739 10.4792
42.38822835065557 10.4815
42.41210861586426 10.4248
42.4359908120986 10.4536
42.46006154323262 10.3824
42.48394762115317 10.3735
42.507835634632315 10.3547
42.531912233047436 10.3248
42.55580413732265 10.329
42.579697981698 10.317
42.60359376768525 10.3164
42.62767820545945 10.2529
42.65157789440821 10.2526
42.67547952952185 10.2551
42.699383112316 10.2202
42.72347541395347 10.1793
42.74738291190531 10.1866
42.771292362102166 10.163
42.795203766063516 10.1514
42.819303956130405 10.1272
42.843219287476536 10.1218
42.86713657716324 10.1048
42.89105582671383 10.0992
42.91516392983864 10.0678
42.939087119032166 10.0031
42.963012272677304 10.0272
42.98693939230129 9.991010000000001
43.01105543317513 10.0001
43.034986504731386 9.91114
43.05891954686589 9.96009
43.08285456110972 9.95176
43.10697856448665 9.92378
43.130917542983475 9.86023
43.15485849820081 9.86133
43.17880143167367 9.87168
43.20293342237094 9.894730000000001
43.226880332449 9.85219
43.25082922540554 9.836739999999999
43.27496722682525 9.8312
43.29892010567796 9.78333
43.32287497204102 9.7889
43.34683182745632 9.74156
43.370977859791836 9.73807
43.39493871351105 9.71986
43.41890156092628 9.69355
43.44286640358341 9.72596
43.46702049182749 9.702910000000001
43.49098934522816 9.68636
43.51496019852649 9.66525
43.5389330532723 9.65201
43.56309522248204 9.602030000000001
43.58707210044314 9.63107
43.61105098451946 9.59323
43.63503187626491 9.57587
43.659202151562134 9.55436
43.68318707902681 9.55813
43.70717401884041 9.51623
43.731162972560874 9.50018
43.75534137913236 9.44437
43.779334381108384 9.49572
43.803329401683186 9.44031
43.82732644241872 9.43763
43.8515130055166 9.442960000000001
43.87551410707659 9.42457
43.89951723350145 9.40581
43.923709934595614 9.363010000000001
43.94771713129917 9.394919999999999
43.97172635758096 9.33053
43.99573761501002 9.3485
44.0199385169922 9.30816
44.04395385732619 9.287410000000001
44.067971233533086 9.31573
44.09199064718605 9.29176
44.11619977548961 9.29204
44.14022328470671 9.22751
44.16424883610785 9.2473
44.18827643127035 9.26517
44.21249381139513 9.2278
44.236525514814076 9.17731
44.26055926674478 9.16209
44.28459506876863 9.15594
44.3088207262813 9.120339999999999
44.33286064928722 9.11572
44.35690262714919 9.096060000000001
44.38094666145278 9.08366
44.4051806219871 9.101389999999999
44.42922879003185 9.08959
44.45327901929361 9.07055
44.477331311362136 9.08013
44.501573600619416 9.03121
44.525630039221795 9.01679
44.54968854541895 8.98505
44.573937102200176 8.9936
44.5979997645541 8.97889
44.622064499300315 8.9701
44.64613130803592 8.93561
44.67038823869318 8.97001
44.69445921643748 8.939789999999999
44.718532272981385 8.920819999999999
44.742607409926194 8.91028
44.76687274034801 8.897969999999999
44.79095205918753 8.82939
44.81503346325094 8.79285
44.839116954143876 8.80754
44.86339071028742 8.80981
44.88747839599524 8.7741
44.91156817336837 8.81379
44.93566004401666 8.80747
44.959942251908146 8.7369
44.984038330325966 8.76636
45.00813650686762 8.71526
45.03223678314731 8.70428
45.05652746888232 8.69101
45.08063196592069 8.681610000000001
45.104738567558705 8.61309
45.128847275414856 8.63621
45.15314646515866 8.62626
45.17725940679741 8.62031
45.20137445952892 8.60007
45.22568004865265 8.5835
45.24979934496396 8.57205
45.27392075725247 8.538260000000001
45.29804428714431 8.52638
45.322358426247604 8.52336
45.346486212804315 8.50883
45.370616121861914 8.487910000000001
45.39474815505086 8.52636
45.41907087049246 8.458089999999999
45.4432071734666 8.40643
45.46734560548283 8.42944
45.49148616817604 8.43325
45.51581748638564 8.41697
45.5399623320197 8.40076
45.56410931325473 8.38038
45.58825843173002 8.35968
45.61259837920865 8.35931
45.636751793816 8.3386
45.66090735060093 8.311860000000001
45.68506505120716 8.30995
45.7094136545275 8.2807
45.73357566449271 8.30964
45.75773982322992 8.28542
45.78190613238733 8.27672
45.806263418194064 8.27095
45.83043404997326 8.28246
45.85460683713677 8.19955
45.87897065658495 8.225430000000001
45.90314777634752 8.22765
45.92732705646868 8.224689999999999
45.9515084986045 8.16264
45.97588104735473 8.154910000000001
46.00006683541565 8.15692
46.02425479047904 8.10018
46.04844491420549 8.1102
46.0728262191024 8.08693
46.09702070211635 8.103860000000001
46.12121735879483 8.06488
46.14541619080294 8.0612
46.169806278764455 8.04802
46.194009483459034 8.02351
46.21821486849841 8.03083
46.24242243555223 7.99998
46.266821333570014 8.00053
46.29103328674601 7.948410000000001
46.31524742696538 7.95258
46.33946375590237 7.94728
46.36387149104216 7.9390600000000004
46.38809221957392 7.911569999999999
46.41231514186606 7.92444
46.436540259597464 7.866510000000001
46.460956858999374 7.86152
46.48518638983522 7.84203
46.509418121166966 7.8266800000000005
46.533652054678114 7.799639999999999
46.55807754555709 7.8437
46.58231590571962 7.83652
46.60655647313217 7.79369
46.630988654873654 7.788860000000001
46.655233659129024 7.75845
46.67948087571551 7.766139999999999
46.70373030632484 7.707269999999999
46.72817142736393 7.72404
46.752425308428684 7.72117
46.77668140861147 7.734789999999999
46.80093972960865 7.666110000000001
46.82538981736788 7.65211
46.849652602470904 7.64575
46.87391761349769 7.64432
46.8981848521493 7.6397
46.9226439341274 7.654089999999999
46.946915650573224 7.590160000000001
46.97118959976749 7.57255
46.99546578341598 7.536919999999999
47.019933887188216 7.56256
47.04421456235744 7.52577
47.06849747711879 7.53955
47.09278263318286 7.52508
47.11725978640143 7.505089999999999
47.14154944775105 7.47271
47.165841355555656 7.47946
47.1901355115306 7.465910000000001
47.214621741924994 7.44515
47.23892041698887 7.36221
47.26322134538975 7.39055
47.28771440635075 7.40868
47.31201986422527 7.4073899999999995
47.33632758061436 7.3696399999999995
47.360637557241866 7.3531699999999995
47.38513974410611 7.3430100000000005
47.40945426407847 7.3633
47.43377104948137 7.33367
47.45809010204344 7.318980000000001
47.48260144275502 7.31256
47.506925052572285 7.3052399999999995
47.53125093475548 7.285769999999999
47.55557909103813 7.27447
47.58009961361992 7.24985
47.60443234110732 7.211539999999999
47.62876734791564 7.21455
47.65310463578333 7.181589999999999
47.6776343683373 7.17162
47.7019762413987 7.17733
47.72632040075572 7.17862
47.75066684815169 7.14155
47.77520581885936 7.159330000000001
47.799556865477655 7.1071
47.823910205386 7.13802
47.84826584033272 7.11068
47.87281407745551 7.09766
47.89717432569297 7.11702
47.92153687423484 7.06802
47.94609208429692 7.090669999999999
47.97045925671401 7.04397
47.99482873471275 7.02234
48.01920052005013 7.02555
48.04376504619224 7.019480000000001
48.068141469543484 7.01807
48.09252020552573 6.986330000000001
48.11690125590099 6.982639999999999
48.1414751266064 6.95987
48.16586082917454 6.961939999999999
48.19024885144316 6.908939999999999
48.2146391951793 6.92325
48.239222439012764 6.942139999999999
48.26361744916137 6.8769800000000005
48.28801478610016 6.87529
48.31241445160131 6.86591
48.337007097209366 6.889530000000001
48.36141144338331 6.86257
48.38581812345755 6.8444899999999995
48.41022713920929 6.83743
48.434829215320704 6.80894
48.45924292604658 6.79369
48.48365897780325 6.821560000000001
48.50807737237308 6.8166199999999995
48.532688907799276 6.7897
48.55711201168574 6.7687100000000004
48.581537463754074 6.74258
48.60615611725119 6.74927
48.63058628942721 6.70682
48.65501881516546 6.7078
48.6794536962573 6.693919999999999
48.70408185970339 6.6687899999999996
48.72852147531801 6.67615
48.75296345168211 6.644080000000001
48.77740779059232 6.681719999999999
48.80204549302823 6.655130000000001
48.82649458091802 6.638889999999999
48.85094603676547 6.599139999999999
48.87539986237231 6.5597
48.90004713292306 6.59214
48.92450572200832 6.56579
48.94896668628025 6.5598399999999994
48.97343002754588 6.5506400000000005
48.99808689542115 6.52452
49.02255501470614 6.51048
49.04702551642794 6.5067699999999995
49.0714984023988 6.45571
49.096164896893235 6.4802
49.120642575466796 6.44395
49.145122643748394 6.485519999999999
49.16960510355558 6.46141
49.19428125404938 6.45606
49.2187685210852 6.4396
49.243258185121555 6.43701
49.26794160167084 6.42441
49.2924360839405 6.41995
49.31693296869764 6.39853
49.34143225776915 6.379
49.36612538195438 6.3525
49.39062950396021 6.376930000000001
49.41513603578346 6.3415
49.4396449792564 6.35116
49.46434784069503 6.35136
49.488861631846454 6.31606
49.513377840166804 6.32876
49.537896467493745 6.29012
49.56260909589029 6.25365
49.587132585683285 6.2643699999999995
49.611658500018365 6.25401
49.636186840738596 6.22191
49.66090926588511 6.2346
49.685442483902584 6.2363800000000005
49.70997813385706 6.2044
49.734516217597076 6.17978
49.75924846937352 6.19815
49.7837914452858 6.19509
49.80833686055187 6.17191
49.83288471702571 6.1257
49.85762682540054 6.14235
49.882179588965734 6.12869
49.9067347993235 6.141030000000001
49.93129245833333 6.15064
49.95604445336378 6.11635
49.98060703442832 6.10283
50.005172069746266 6.10224
50.02993150438364 6.08862
50.05450147301533 6.04511
50.07907390151433 6.03745
50.10364879174981 6.04368
50.12841816587289 6.019480000000001
50.1529980044635 6.00284
50.17758031042124 6.00131
50.20216508562089 5.98533
50.22694442953363 5.95153
50.25153416817468 5.96749
50.27612638170508 5.96256
50.300721072005196 5.93513
50.325510416102105 5.9391
50.350110084975064 5.92239
50.37471223628208 5.93848
50.39931687190919 5.91751
50.424116246675766 5.88724
50.44872587605249 5.90054
50.47333799543065 5.90942
50.49795260670191 5.862430000000001
50.52276204271512 5.84773
50.54738166295838 5.8387199999999995
50.57200378079314 5.812869999999999
50.596628398116835 5.83499
50.62144792604559 5.80494
50.646077567609396 5.78945
50.670709714377715 5.7758199999999995
50.69553683636198 5.76625
50.72017401885922 5.79241
50.7448137122895 5.74693
50.76945591856022 5.77501
50.79429318636823 5.71713
50.818940443716784 5.7542800000000005
50.84359021965163 5.7287099999999995
50.868242516085964 5.71661
50.893089960641895 5.71469
50.917747323549435 5.69554
50.94240721271973 5.65497
50.96706963007175 5.65374
50.99192728239342 5.66021
51.01659478166073 5.6683699999999995
51.04126481489051 5.61942
51.06593738400761 5.60116
51.090805275207074 5.59985
51.11548294172845 5.60661
51.14016314993547 5.5892
51.164845901758845 5.59679
51.18972406304274 5.61351
51.21441192780656 5.57907
51.23910234200271 5.54892
51.2637953075678 5.53383
51.288683770237945 5.52578
51.31338186432707 5.51297
51.33808251561888 5.51739
51.362978729967345 5.51379
51.387684521509755 5.49942
51.41239287610203 5.48923
51.437103795691165 5.4417800000000005
51.46201036644977 5.44983
51.486726441956634 5.435
51.51144508832545 5.4450199999999995
51.536166307509156 5.4286
51.56108326624387 5.37668
51.58580965706056 5.40113
51.61053862657523 5.416119999999999
51.635270176746864 5.38405
51.66019755512065 5.382630000000001
51.68493429268881 5.32629
51.70967361681515 5.3453800000000005
51.73441552946465 5.33076
51.759353359237934 5.327459999999999
51.7841004750961 5.30132
51.80885018539685 5.3101
51.833602492111254 5.27884
51.8585508051424 5.267440000000001
51.883308330926425 5.27635
51.90806845906181 5.24556
51.932831191525715 5.251519999999999
51.95779001977161 5.2268
51.98255798721516 5.179880000000001
52.00732856494335 5.19972
52.03229530577543 5.19759
52.057071130455945 5.19225
52.081849571391054 5.1712
52.106630630568695 5.170719999999999
52.13160794279417 5.166580000000001
52.15639426492067 5.15386
52.18118321127822 5.16772
52.205974783860896 5.16451
52.23096269971011 5.11702
52.255759551287994 5.12024
52.280559035098186 5.09814
52.30536115314103 5.06421
52.33035970494467 5.11296
52.35516711807904 5.05714
52.37997717147198 5.04522
52.40478986713005 5.07324
52.42979908731974 5.0669699999999995
52.454617094216 5.05511
52.47943774942214 5.0281400000000005
52.50426105495102 5.011369999999999
52.529280976059844 5.0096099999999995
52.554109609024096 4.99266
52.57894089837482 4.96554
52.60377484613117 4.97165
52.62880550079408 4.9848099999999995
52.65364479223379 4.9610199999999995
52.67848674816189 4.92111
52.70352547971946 4.94696
52.72837279155837 4.93524
52.753222773982785 4.92745
52.778075429022984 4.92516
52.80312495150885 4.93675
52.827982978797436 4.90229
52.85284368481815 4.90271
52.87770707160767 4.89668
52.90276741793998 4.845680000000001
52.92763619336701 4.84154
52.952507655698504 4.81623
52.977381806977576 4.82585
53.00245301017842 4.87062
53.02733256653592 4.8198300000000005
53.052214817996074 4.80455
53.077099766608484 4.79936
53.102181859804446 4.77831
53.127072229988265 4.8025400000000005
53.15196530349892 4.77269
53.17686108239249 4.77306
53.20195409881522 4.724880000000001
53.22685531582556 4.7223
53.25175924441303 4.7194199999999995
53.27666588664027 4.7203
53.30176985962693 4.67034
53.3266819565689 4.72282
53.35159677336455 4.69193
53.376514312083096 4.68034
53.40162927507703 4.6635800000000005
53.42655228516116 4.66925
53.45147802340193 4.64867
53.47660125628886 4.615069999999999
53.50153247842639 4.63088
53.52646643496923 4.60581
53.55140312799818 4.60305
53.576537409691696 4.60674
53.60147960336152 4.58374
53.626424539786164 4.54841
53.65137222105307 4.5617
53.67651758529126 4.59351
53.70147078399681 4.54608
53.72642673383343 4.54547
53.75138543689533 4.53533
53.776541917524526 4.52155
53.801506154876755 4.53493
53.826473151763246 4.49679
53.851442910284916 4.44356
53.87661054126026 4.45949
53.9015858509782 4.4863
53.92656392866066 4.49303
53.95154477641532 4.4519
53.976723591801296 4.46368
54.00171000771266 4.44709
54.02669920004598 4.40455
54.051691170915745 4.43069
54.076881204886796 4.37178
54.101878760928514 4.37766
54.12687910187696 4.32532
54.152077577768296 4.3407599999999995
54.1770835166946 4.317880000000001
54.20209224691339 4.324319999999999
54.22710377055121 4.30501
54.25231352511594 4.2813300000000005
54.27733066384342 4.2794099999999995
54.30235060239643 4.25395
54.32737334290836 4.26154
54.35259441062629 4.2203800000000005
54.377622783395324 4.22642
54.40265396455061 4.20308
54.42768795623251 4.181780000000001
54.45292037169559 4.16784
54.477960012857906 4.1809
54.50300247099511 4.1666
54.52804774825457 4.13324
54.55329154616743 4.11457
54.57834249018678 4.07966
54.6033962597977 4.096
54.6284528571545 4.07696
54.653708072335164 4.06834
54.67877035378786 4.06334
54.70383546947698 4.03226
54.72890342156389 4.0075199999999995
54.7541700889442 4.00725
54.77924374251975 4.0063
54.8043202390049 3.9666099999999997
54.82959552413022 3.9456800000000003
54.8546777351945 3.9211300000000002
54.87976279569621 3.93266
54.90485070780914 3.91594
54.930137506558005 3.9076800000000005
54.95523115074295 3.8910400000000003
54.98032765308844 3.8770599999999997
55.005427015775496 3.84735
55.03072536339621 3.8554800000000005
55.05583047570572 3.80634
55.080938454927676 3.78801
55.10604930325027 3.78229
55.131359235107396 3.76844
55.15647585066083 3.74983
55.181595341907496 3.7254699999999996
55.20671771104285 3.69867
55.232039262617704 3.70099
55.25716741665048 3.6244199999999998
55.28229845518636 3.68214
55.30743238042802 3.6524
55.33276558731939 3.64755
55.357905315183636 3.63576
55.383047936390035 3.5705
55.40819345314859 3.5655900000000003
55.433538351073295 3.5681199999999995
55.458689688238415 3.53229
55.483843927614096 3.4966800000000005
55.509197623043605 3.48715
55.53435769621134 3.5185800000000005
55.55952067826466 3.4493300000000002
55.5846865714265 3.47099
55.61005202069737 3.4756400000000003
55.63522376553902 3.4147300000000005
55.66039842818645 3.4158199999999996
55.68557601087004 3.4289099999999997
55.7109532500271 3.36102
55.73613670233794 3.43053
