TT I
1.2716486653135266 7.74171
1.2939594142134223 7.129060000000001
1.3162702121660406 6.84391
1.3385810600174564 6.36102
1.3608919586137629 6.56659
1.383202908801069 6.448180000000001
1.405513911425503 5.88328
1.4278249673332093 5.90738
1.4501343378461518 5.953930000000001
1.4724455028545926 6.08478
1.4947567236847858 5.53779
1.517068001182951 5.70909
1.5393793361953272 5.81135
1.5616907295681737 5.5942300000000005
1.5840021821477681 5.67479
1.60631369478041 5.69223
1.6286252683124185 5.49976
1.6509369035901333 4.7697
1.6732468618895553 5.0300199999999995
1.695558623192809 4.93792
1.7178704487808514 5.0091
1.7401823395001077 4.95099
1.7625012545597203 4.6426
1.7848028405262486 5.12191
1.8071218901122095 5.01622
1.8294236121921872 4.41867
1.8517427996910911 4.55527
1.8740620574440425 4.62752
1.8963639900671978 4.5972
1.9186833908139995 4.76965
1.9409854680117449 5.08298
1.9633050151394713 4.74455
1.9856246367570705 4.49027
2.0079269371922672 4.395969999999999
2.03024671027244 4.04764
2.0525491637446027 3.8356199999999996
2.074869091674931 4.40223
2.097171701569106 4.43952
2.1194917877373847 4.69471
2.141811954326636 4.87336
2.164114805233074 4.9586
2.186435135143035 6.08965
2.208738150935709 13.0165
2.231058647554722 26.963
2.2533792288321184 20.9757
2.275682498336085 9.60276
2.298003251406138 6.10426
2.3203066942619714 5.3168
2.3426276225136022 5.927219999999999
2.3649486396617507 5.33748
2.387252348930071 5.35248
2.4095735463442893 5.664630000000001
2.4318774374315884 5.03222
2.4541988185014043 5.8602
2.476502894794693 5.76168
2.498824462909887 6.54639
2.521146125856138 6.0262
2.5434504863470337 6.9051800000000005
2.5657723414244717 7.00632
2.588076895590662 7.5107800000000005
2.610398946189713 7.62323
2.6327210958598384 7.64337
2.6550259469304716 7.22598
2.6773482972090137 7.206580000000001
2.6996533504259 7.3075399999999995
2.7219759047039602 7.900060000000001
2.744298562293959 7.725339999999999
2.7666039251246595 7.2770399999999995
2.7889267918020164 7.74702
2.8112323652516555 7.554539999999999
2.833555444408179 8.27235
2.8558786311183852 7.99863
2.8781845268938557 8.15371
2.9005079311721484 8.53013
2.9228140460410397 8.869539999999999
2.9451376712799635 8.97288
2.967444008632326 9.32727
2.9897678582247247 9.62375
3.0120918213106695 10.199
3.0343984987899373 10.8141
3.0567226913198637 11.5276
3.079029599759726 11.9523
3.101354025127254 12.4721
3.123678568232338 12.4646
3.145985829517914 12.6346
3.16831061055229 13.2369
3.1906181112775593 14.2423
3.212943133635653 14.9713
3.2352682779763207 15.0688
3.2575761442691227 15.3623
3.2799015350264273 15.5242
3.302209649240067 16.5339
3.3245352898092655 17.0046
3.3468436553365257 17.5424
3.369169549113219 17.8371
3.3914955708171384 18.7248
3.413804319727358 18.9755
3.4361305997334863 19.429000000000002
3.4584396084414553 20.0175
3.4807661501462652 20.598000000000003
3.503092824025881 21.2921
3.5254022288463154 21.686999999999998
3.5477291695206588 22.1091
3.5700388426251948 22.5473
3.5923660534916446 23.6953
3.6146934007816114 37.7623
3.637003482731501 85.0158
3.6593311053109985 94.2857
3.681641464033634 54.5824
3.7039693653009733 30.4791
3.726297407241705 26.2842
3.7486081875460804 25.7498
3.7709365132734978 26.4867
3.793247578841633 26.9744
3.8155761917550093 26.9422
3.8378875459837216 27.3129
3.8602164494827234 27.7387
3.882545499606844 28.4456
3.9048572932539183 28.8724
3.9271866390645718 29.3693
3.9494987298666713 30.1346
3.971828374764527 30.3868
3.9941581705403255 31.3603
4.016470713506008 31.6979
4.038800813471445 32.506
4.061113662089144 32.8714
4.0834440696459176 33.5486
4.105774632334751 34.1486
4.128087945865126 35.0349
4.150418821249301 35.5868
4.172732448931298 37.0709
4.195063640413578 39.1553
4.2173775856475215 43.0889
4.239709096631102 73.9189
4.262040768704612 225.967
4.284355196706267 301.056
4.306687193387355 195.32299999999998
4.329001947444346 79.7576
4.35133427213731 48.6731
4.373666762177566 45.3047
4.395982011761091 44.858000000000004
4.418314834921175 45.9996
4.44063041906622 53.8212
4.4629635787515625 64.5684
4.4852969080429785 64.23899999999999
4.5076130004776225 54.6593
4.529946671403969 51.4366
4.552263106909177 51.286
4.574597122877047 51.8075
4.596931312711224 52.8872
4.619248269273446 54.4351
4.6415828092605835 55.2339
4.663900117405352 56.0997
4.686235010953232 57.425
4.708552674085913 58.6108
4.730887924602802 60.4192
4.753223354952695 61.5679
4.775541557023902 63.0613
4.797877349456786 64.7676
4.820195915032126 66.8833
4.842532072957498 68.4168
4.864868414979744 70.3375
4.88718753227192 72.5208
4.909524244902505 74.4496
4.931843734218147 76.0722
4.954180820867835 78.6644
4.976518095879839 82.4784
4.998838149695359 85.0578
5.021175803844231 88.3157
5.043496238205739 92.1362
5.065834274903528 96.8855
5.088172504230693 102.25299999999999
5.1104935158799565 109.505
5.132832132875765 131.995
5.155153533596801 173.94299999999998
5.1774925416746225 213.84799999999998
5.199814334878411 403.995
5.2221537374521505 1156.27
5.244493338631803 3098.07
5.266815727034316 7464.67
5.289155727832427 11875.1
5.311478517248165 8897.12
5.333818921080011 3211.8
5.356159527788849 660.813
5.3784829252032536 204.407
5.400823940070432 152.946
5.423147747031976 133.93
5.445489173474152 123.044
5.467830807066149 117.12
5.490155234831516 112.26100000000001
5.512497285125229 108.42299999999999
5.534822130975162 106.51100000000001
5.557164601388673 104.024
5.579489868738879 100.677
5.601832762690846 100.415
5.6241758697774475 99.7585
5.646501775867269 98.3306
5.668845311622074 96.9311
5.691171647754637 96.4842
5.713515615597765 95.2957
5.735859800852677 93.8667
5.758186788542988 93.5173
5.780531411018185 93.3275
5.802858837297399 92.7142
5.825203900414495 93.3035
5.8475491852224 93.9987
5.869877275883075 93.8363
5.892223006467101 95.243
5.914551544266608 96.8634
5.936897724049891 99.6557
5.959244129804903 105.73200000000001
5.981573344815301 126.944
6.0039202049061 227.953
6.026249875609095 505.846
6.04859719346037 1055.77
6.070927323278297 2262.06
6.093275102315365 4251.72
6.115623113320588 5287.82
6.137953938319995 3482.95
6.160302415650845 1218.68
6.182633708324452 292.754
6.2049826554078376 123.83200000000001
6.227331838745022 97.2158
6.249663839443684 88.2827
6.27201349767565 84.8574
6.294345974611799 89.7185
6.316696111167083 100.43299999999999
6.339046488263839 95.3899
6.361379686074702 80.8376
6.383730546639482 73.2719
6.406064229255215 69.9829
6.428415576718203 69.8089
6.450749747566656 68.2298
6.47310158535871 67.2116
6.495453669698332 66.3976
6.517788579421056 66.1376
6.540141159237969 65.0529
6.562476565766648 64.2336
6.5848296444934045 63.6828
6.607182974060425 63.2749
6.6295191323281015 63.4762
6.651872965955752 66.77600000000001
6.6742096296068985 91.8231
6.6965639707294615 135.885
6.71891856698715 135.292
6.741255995248479 93.5366
6.763611104154477 68.5768
6.785949046381137 60.9753
6.808304671371482 59.6359
6.8306605557940046 59.1261
6.852999275508618 58.1562
6.875355681171544 57.8566
6.897694923437771 57.4597
6.92005185377892 57.4409
6.9423916220322655 57.1853
6.964749080490181 56.2747
6.987106804399774 56.6284
7.009447368180821 56.59
7.031805625367033 56.0507
7.054146723727803 56.1178
7.076505517631004 56.0103
7.098864581288365 56.2226
7.121206488070854 55.684
7.143566093607822 55.5511
7.165908543567245 56.1766
7.188268694426048 55.8287
7.2106291193438095 56.1679
7.232972390625943 57.6884
7.255333366030969 69.5246
7.277677189091925 120.40100000000001
7.300038718428332 164.11599999999999
7.322400526130865 139.278
7.344745183422596 88.0488
7.367107550224791 62.3771
7.389452767901992 57.1422
7.411815697249891 56.0922
7.434161478756298 55.2452
7.456524974096713 55.2779
7.478888753837185 54.919
7.501235387657368 55.1336
7.523599738562711 55.5353
7.545946944825532 55.5004
7.568311870344528 55.6705
7.5906770845765665 56.3044
7.613025156078678 57.6392
7.635390950099687 58.5806
7.657739602662809 57.4934
7.680105979923558 56.6263
7.702472650212829 56.7621
7.724822180948224 56.5825
7.747189439655568 57.1241
7.769539560075357 57.0544
7.791907410653562 57.0211
7.81425812420825 57.3876
7.836626570110925 57.5408
7.858995315087906 58.3036
7.881346924933401 58.4705
7.903716270417482 59.0773
7.926068482028405 59.2637
7.948438431475253 60.1773
7.9708086843180235 60.5517
7.993161805171116 61.3168
8.015532667162402 61.9162
8.037886398416653 62.555
8.060257873014221 63.1679
8.082629655331942 63.6866
8.104984308787587 64.7877
8.127356708900503 68.1461
8.149711981398308 73.6167
8.172085002766314 75.7019
8.194458336181368 72.9136
8.216814543847752 70.4772
8.23918850371002 70.3731
8.26154533906492 71.033
8.283919928836452 72.5302
8.306277395339652 73.7027
8.328652618483376 75.1509
8.351028159736202 77.0946
8.373386579575245 79.5063
8.395762759396959 81.4108
8.418121819038275 86.4891
8.440498640894003 99.5405
8.462875785192262 113.476
8.485235811156207 127.54299999999999
8.507613602688501 174.35
8.529974277114228 272.558
8.552352719347912 416.00699999999995
8.574731488360351 691.3589999999999
8.59709314210385 1201.17
8.619472567021075 1788.28
8.64183487789147 2130.32
8.664214962183097 1849.57
8.686577933647762 1060.08
8.708958680784317 421.84
8.731339760774953 183.018
8.753703729764451 117.32600000000001
8.77608547780821 102.125
8.798450116065078 97.3815
8.820832535634787 94.4976
8.843215292401656 92.9362
8.865580941199045 91.0677
8.887964374703538 89.7577
8.910330701447199 90.8717
8.932714815164482 93.1761
8.955099270424924 92.2189
8.977466620733543 88.9429
8.999851761421976 86.6417
9.022219798361645 84.9877
9.04460562795561 84.8137
9.066991803441677 84.4405
9.089360876979615 84.3611
9.111747746589993 84.1705
9.13411751544971 83.3924
9.156505082664324 83.5057
9.178875550323522 83.4753
9.20126381862328 83.48700000000001
9.223652438908596 83.7414
9.246023961427412 83.8552
9.26841328802173 83.1199
9.290785518039224 83.2721
9.313175554425882 83.8765
9.335565947154315 83.882
9.357939245086508 83.8337
9.380330352834827 83.8897
9.40270436697103 84.2966
9.425096193225055 84.304
9.447488380180165 85.1715
9.469863475295412 85.399
9.492256385987508 85.7047
9.514632206018318 86.4547
9.537025843935714 86.8461
9.559402392368193 87.4864
9.581796761000229 88.4541
9.604191496441521 89.7695
9.626569144158516 93.0101
9.648964615551032 97.6393
9.671343000390081 99.021
9.693739211225699 97.2764
9.716135793237463 94.8065
9.738515290448102 94.4057
9.760912617143402 94.9847
9.783292860202891 96.5186
9.805690935076182 98.1181
9.828089385495742 98.8466
9.850470754023561 101.27
9.872869957865444 109.334
9.89525208097539 123.445
9.917652041736662 135.96200000000002
9.940052382417589 136.368
9.962435644102392 145.541
9.984836746950979 186.80200000000002
10.007220771957746 256.92900000000003
10.029622640473708 367.486
10.052007432299963 551.325
10.074410069984072 832.96
10.096813093716005 1249.94
10.119199042482517 1658.1
10.141602840636468 1881.42
10.163989564971628 1660.39
10.186394141051062 1006.94
10.208799107559706 454.67699999999996
10.231187001965623 217.426
10.253592751657669 136.196
10.275981430388155 117.264
10.298387966769793 115.19200000000001
10.320794897965431 117.06299999999999
10.343184759907361 115.865
10.36559248305461 109.89299999999999
10.387983138083852 106.334
10.410391656691655 109.92299999999999
10.432800574501677 121.70100000000001
10.455192425893369 139.769
10.47760214443012 166.808
10.499994797678786 210.262
10.522405320453982 290.719
10.54479877906917 401.76199999999994
10.567210109595656 507.92
10.5896218454736 567.378
10.612016518879773 501.01099999999997
10.634429067781074 374.909
10.656824555333241 227.35
10.679237920773568 134.33100000000002
10.701651695961992 100.333
10.724048411481384 91.72399999999999
10.746463008485165 88.0665
10.768860546937125 86.2619
10.791275969274796 84.1889
10.81369180576079 83.0597
10.836090585366925 82.1424
10.858507252467449 81.1697
10.88090686379991 80.0721
10.903324365036394 79.5615
10.925724811614439 79.4682
10.948143150509463 80.6337
10.970561909719066 79.7518
10.992963615930844 77.9271
11.015383218085756 75.67
11.037785768347074 74.2888
11.06020621697282 73.6713
11.082627090322113 73.2584
11.105030913430326 72.8744
11.12745263854165 73.3682
11.149857314510728 76.4746
11.172279894912576 82.0385
11.194702904450653 82.9589
11.217108866490921 79.0421
11.239532736615194 74.8018
11.26193956033512 73.0325
11.284364294577085 71.3114
11.306789462371718 69.5172
11.329197585398376 68.2102
11.351623622610898 68.1461
11.37403261614354 67.075
11.396459526308487 67.1061
11.418869393879497 66.4821
11.441297180532617 66.0527
11.463725406927658 65.7061
11.486136592353875 65.6644
11.508565700543707 66.2353
11.530977768845315 68.0096
11.553407762368774 68.7104
11.575838200059769 68.3181
11.598251599479612 66.3643
11.620682927815501 64.8138
11.64309721895548 64.577
11.665529441478206 64.1783
11.687962112597958 63.7854
11.710377748130886 64.0695
11.732811318753434 63.6501
11.755227854859067 63.924
11.777662328529495 63.7404
11.800079768750786 63.4911
11.822515149015453 63.4884
11.844950984084935 63.7722
11.867369787303163 63.2683
11.889806534289491 63.1478
11.912226250487029 63.5446
11.934663912939751 63.6615
11.9571020346363 63.7327
11.979523127133968 63.9418
12.001962169624331 64.468
12.024384183972964 65.5197
12.046824150809913 69.0491
12.069264581333726 74.6607
12.091687985297767 81.5318
12.11412934550045 90.9944
12.136553680195208 106.385
12.158995973632788 128.129
12.181438735204349 154.33700000000002
12.20386447284199 180.67700000000002
12.226308172985636 197.755
12.24873485024193 200.63299999999998
12.271179492516982 169.977
12.293607112949127 132.43
12.316052700916226 101.853
12.338498763250042 81.3414
12.360927805303868 71.5964
12.383374818673879 67.3015
12.405804812803074 65.4118
12.428252780773262 65.2133
12.45070122756722 65.0556
12.473132656675375 64.8378
12.49558206341869 65.2933
12.518014453510101 65.4197
12.540464823770117 65.5165
12.562915677315177 65.7277
12.58534951575545 66.0379
12.607801338171472 68.4085
12.630236146511358 73.5454
12.652688941369085 78.07600000000001
12.675124723177234 78.3506
12.697578494048786 74.7947
12.720032754458185 70.6611
12.742470003354093 68.7677
12.764925245138771 68.7961
12.787363476431278 68.9771
12.809819703166806 69.2794
12.83227642391173 69.9724
12.854716135692716 70.6418
12.877173846755147 71.5939
12.899614549869717 71.979
12.9220732548287 72.9777
12.94453245827299 73.17
12.966974655289818 74.0156
12.989434858002571 75.0171
13.011878055298721 75.8938
13.034339260862497 76.7502
13.056800969391883 77.8519
13.079245674017244 80.0961
13.101708390774869 82.4316
13.12415410463411 90.352
13.146617833206086 102.915
13.169064559883248 115.462
13.191529303857127 131.126
13.213994557076367 153.567
13.236442809902437 190.11700000000002
13.258909083908291 242.144
13.28135835851934 298.217
13.30382565690295 357.01599999999996
13.326293469022952 407.69
13.348744283242008 414.05300000000005
13.371213125129904 365.099
13.39366497011003 279.038
13.416134845360597 188.521
13.438605238843131 132.57399999999998
13.46105863690397 110.368
13.483530069144786 109.023
13.505984506951902 114.57
13.528456981549432 124.76
13.550929978879088 140.07
13.573385983253365 163.406
13.595860028340867 199.67700000000002
13.618317081455832 246.78599999999997
13.64079217790333 290.836
13.663250283359057 332.514
13.685726434770173 356.746
13.708203115221277 338.06300000000005
13.730662806148091 272.132
13.75314054697177 200.292
13.775601299246777 140.717
13.798080104050406 102.885
13.820559442405358 87.844
13.843021793671388 83.2821
13.865502201420897 81.6006
13.887965623051947 80.8689
13.910447103807167 79.8242
13.932929122629764 78.3859
13.955394156785959 77.788
13.977877254034569 76.92
14.000343367582113 76.1641
14.022827546871707 75.3873
14.045294743423524 74.8249
14.06778000837062 74.03
14.090265817715476 73.8827
14.112734645763819 73.7213
14.13522154619454 73.3934
14.157691466286913 73.5595
14.180179461423874 73.0963
14.202668005486178 72.1522
14.22513957064374 71.8056
14.247629214846473 71.4405
14.270101881097517 71.2698
14.29259262906496 71.4466
14.315083930490205 72.0935
14.337558255389705 72.4403
14.360050666019726 72.2025
14.382526101071944 71.1513
14.405019624534942 70.3392
14.427513705993134 69.8923
14.449990813291825 69.8372
14.47248601302899 69.6952
14.49496423954951 69.7979
14.517460561197822 69.9019
14.539939910570322 69.4826
14.562437357763558 70.0467
14.58493536931253 70.9477
14.607416409993311 71.9461
14.62991555254159 72.8122
14.652397725157423 72.7407
14.674898002342799 71.915
14.697398848433282 71.324
14.719882725991326 72.1184
14.74238471217934 73.1662
14.764869730765593 76.3532
14.787372860692983 80.4831
14.809876564079925 85.29299999999999
14.83236330125751 91.0654
14.854868153850365 99.9615
14.877356041159485 113.605
14.899862046604186 131.945
14.922351087688757 154.232
14.944858249632887 181.013
14.967365991421232 200.97
14.989856770231246 214.308
15.012365673994204 213.57
15.03485761569738 193.44
15.05736768508665 157.591
15.07987833888692 121.536
15.102372032001655 96.2294
15.124883856909658 79.9143
15.14737872204565 74.0179
15.169891721717274 71.699
15.192405310371893 71.548
15.214901940621196 71.8423
15.237416709527137 71.8522
15.259914520936249 72.1125
15.282430473753607 71.1609
15.304947020131227 70.0429
15.327446610371178 69.0392
15.349964346154254 68.3512
15.372465126703139 67.999
15.394984055556009 67.5036
15.417486030076159 67.3482
15.44000615566487 66.8919
15.462526881230803 67.0159
15.485030653812652 67.1299
15.507552581617434 67.0223
15.530057557334603 67.3053
15.55258069104857 66.9691
15.575104429329837 67.0721
15.597611216864632 66.6765
15.620136166564563 66.8747
15.6426441664095 67.7418
15.665170331202765 70.3954
15.687697105158826 73.7405
15.710206930593545 77.5089
15.732734925158933 82.0286
15.755245972089478 88.3433
15.77777519094324 97.5795
15.800287463046663 110.311
15.822817909869592 128.203
15.84534897229804 146.752
15.867863089299354 167.34799999999998
15.890395385222186 181.226
15.912910736597423 189.178
15.935444269699861 180.997
15.957978423016485 159.505
15.980495633101265 129.23
16.003031029129367 103.102
16.02554948280019 81.2513
16.048086125229432 70.344
16.070623392487107 66.4472
16.09314371869582 65.2734
16.11568223789321 64.567
16.13820381691126 63.4991
16.160743591742527 62.3687
16.183283996022084 61.548
16.205807461423195 60.5148
16.228349126881973 59.8929
16.25087385432698 59.9258
16.27341678466365 59.2184
16.29594277784926 59.102
16.31848697676433 59.4669
16.341031811604868 59.643
16.36355971058487 60.0148
16.3861058195587 59.6701
16.40863499352978 58.3772
16.431182380342005 57.5388
16.453730407713202 57.2004
16.476261501364792 56.6238
16.498810812136167 56.458999999999996
16.52134319004079 56.4733
16.54389378792203 56.3872
16.566445031001553 56.2241
16.588979342490088 55.8674
16.61153187824822 55.8725
16.634067483263312 55.7596
16.656621315414416 55.748999999999995
16.679175797408888 55.3902
16.701713349928728 55.4188
16.72426913389191 55.6009
16.74680798922351 55.6582
16.76936507887444 55.6835
16.791905240734874 55.5758
16.814463639794468 55.5869
16.837022695210294 55.588
16.859564824093756 55.9105
16.882125194503903 56.66
16.904668639217885 57.205
16.927230328348003 57.64
16.949792678493612 57.7247
16.972338104193863 57.1427
16.994901778652235 56.4914
17.017448529496576 56.4111
17.040013531998152 56.6104
17.06257920018044 57.1862
17.0851279459922 58.0342
17.107694947817667 58.9973
17.130245028099072 59.6933
17.15281336730298 61.1137
17.17536478578733 62.8702
17.19793446610687 64.9887
17.220504818648422 67.78
17.243058251703697 70.6479
17.265629950971032 74.6581
17.288184731571736 78.2773
17.310757781306908 81.2536
17.33333150794385 83.0534
17.355888317140174 82.306
17.37846339986244 78.5603
17.401021565958885 72.5853
17.42359800851343 67.4429
17.44617513265564 63.6673
17.468735341390783 61.196999999999996
17.491261035594565 60.152
17.51396340099364 59.9758
17.536490463869136 60.0328
17.559018209820174 60.0027
17.58154663977963 60.0882
17.604251766089718 60.1499
17.626781572227713 60.5233
17.64931206518155 60.8417
17.671843245885103 61.1613
17.69455114821572 61.5251
17.717083712612634 61.593999999999994
17.739616967569667 61.8345
17.762150914021706 61.9566
17.78486160749854 62.2087
17.807396945166804 62.7327
17.829932977143503 63.7326
17.85246970436452 65.543
17.875183204129467 67.4995
17.897721330097664 69.6949
17.920260154126645 72.072
17.942799677153296 75.631
17.9655159983646 79.2112
17.988056927677544 84.1001
18.010598558807683 91.7565
18.033140892692916 100.73200000000001
18.05586005052525 110.664
18.07840379824407 120.396
18.10094825154059 129.894
18.12366954819864 136.705
18.146215420998306 138.132
18.16876200220057 132.833
18.191309292745153 120.89399999999999
18.214033452627167 107.66
18.236582170236648 95.429
18.259131600016456 89.5079
18.281681742907335 88.4509
18.304408781233683 91.7887
18.32696035875955 95.895
18.349512652227624 99.7165
18.372065662579683 104.26
18.394795594587553 105.306
18.41735004715306 103.815
18.43990521943684 98.6086
18.46246111238171 90.0653
18.485193953325208 80.6243
18.507751296070428 72.9183
18.530309362314178 67.8406
18.552868153000343 64.7423
18.57560391815056 63.1483
18.59816416623245 62.685
18.620725141597372 62.1649
18.643286845190268 61.7813
18.666025549835414 61.3775
18.688588718427933 60.7288
18.711152618092243 60.655
18.73389353884365 60.4175
18.75645890921984 59.787
18.77902501351406 59.5864
18.801591852673102 59.5096
18.824335739722738 58.7419
18.846904057212626 58.8598
18.8694731124168 58.4192
18.89204290628315 58.4923
18.914789774966803 58.4403
18.937361054791623 58.0035
18.959933076131318 57.9328
18.982505839934877 58.0592
19.00525570560582 57.8333
19.027829963004184 57.5377
19.05040496572238 57.7675
19.072980714710468 57.8542
19.095733592739563 57.9871
19.11831084296757 58.4443
19.140888842324735 58.8168
19.16346759176222 59.291000000000004
19.18622349753803 59.684
19.208803755869358 60.5381
19.231384767143577 61.6695
19.253966532312948 63.1524
19.276725481241822 65.1475
19.29930876296784 67.3338
19.3218928014549 70.0097
19.34465404436217 72.8553
19.36723960516257 75.2348
19.389825925592426 76.0924
19.412413006605938 75.6887
19.43517731967805 73.1107
19.457765930683355 69.3887
19.48035530514408 64.9337
19.50294544401556 61.1306
19.525712842708348 57.9133
19.54830451925909 56.2372
19.570896963095727 55.0501
19.593490175174704 54.5698
19.616260674962184 54.6801
19.638855432416964 54.3111
19.661450960992624 54.5593
19.68404726164677 54.2882
19.706820878021247 54.0402
19.729418731756834 54.3489
19.752017360452857 54.2285
19.77461676506804 54.3257
19.797393513540218 54.2813
19.819994478951667 54.6156
19.84259622316767 55.1796
19.8651987471481 55.8139
19.887978643247177 56.0056
19.91058273574792 56.3789
19.933187610901943 57.2356
19.955969879466828 58.2023
19.97857632894404 59.667
20.00118356396599 61.1133
20.023791585494575 63.111999999999995
20.046577028914875 65.3749
20.069186632506966 67.4956
20.091797025500632 69.0654
20.114408208858933 69.9929
20.137196842715273 70.345
20.159809615886765 69.3294
20.18242318232135 67.178
20.20503754298326 65.2794
20.227829382875154 63.8389
20.250445341109344 63.4629
20.27306209647285 63.4097
20.29567964993108 64.2458
20.31847471147704 65.0905
20.34109387027612 65.8266
20.363713830075454 65.6203
20.386334591841646 64.8654
20.409132890679302 62.8582
20.431755265564437 59.8039
20.454378445325528 57.0959
20.477002430930366 54.7712
20.499803982716553 53.4798
20.522429589228004 52.4727
20.54505600449589 51.769
20.567683229489194 51.6168
20.590488049900088 51.2307
20.61311690359731 51.1249
20.63574656993626 50.8914
20.658553853717297 50.4157
20.681185154618298 50.424
20.703817271080066 50.281000000000006
20.72645020407368 49.9654
20.749260783967177 49.9498
20.771895359337133 49.8338
20.794530754161617 49.6745
20.817166969412938 49.4899
20.83998086114876 49.4446
20.86261872660049 49.3455
20.885257415405402 49.2335
20.90789692853701 49.2815
20.930714147864748 49.3811
20.953355319030678 49.3927
20.97599731745334 49.4844
20.99864014410749 49.2853
21.021460706796564 49.328
21.044105199328826 49.5834
21.06675052302631 49.6743
21.089396678865015 49.8963
21.112220600704806 50.1368
21.134868430275347 50.4836
21.15751709492456 50.8832
21.180166595629693 51.1261
21.202993892429635 51.5139
21.22564507473034 51.7001
21.24829709602816 51.8851
21.27112693608965 51.9245
21.293780644891275 52.2002
21.316435195634053 51.6438
21.339090589297417 50.9995
21.361923832041875 50.5937
21.384580921090404 49.6036
21.407238856007325 49.2279
21.429897637773326 49.301
21.45273429906592 49.1451
21.475394784108598 49.1039
21.498056118951983 49.0335
21.520718304578022 49.4013
21.543558400304388 49.2355
21.566222297108816 49.4152
21.58888704765135 49.6807
21.61155265291521 49.8614
21.63439619898156 50.4987
21.657063523335786 50.7217
21.67973170537063 51.2636
21.7024007460706 51.7215
21.72524775840385 52.413999999999994
21.747918526116475 53.2752
21.770590155457388 54.6426
21.79326264741238 56.2271
21.816113141960237 58.0275
21.838787368860547 59.4776
21.861462461341976 61.379
21.884315579735777 62.8663
21.90699241312273 64.1919
21.92967011506078 64.8594
21.95234868653799 64.7289
21.9752053151131 64.2265
21.997885635446785 62.7228
22.020566828293532 60.792
22.04324889464272 59.0416
22.066109049404666 57.5117
22.088792872571794 56.6567
22.111477572219204 56.5338
22.1341631493376 56.5341
22.157026846313123 56.3664
22.179714188221507 55.982
22.202402410582668 55.2239
22.22509151438863 54.0424
22.24795876962584 52.376999999999995
22.270649646204486 51.4958
22.293341407213727 50.8374
22.316034053646906 50.2964
22.338904883215342 49.8837
22.36159931041458 49.8843
22.38429462602756 49.8113
22.40699083104897 49.6178
22.429865251039757 49.6836
22.452563244831367 49.669
22.47526213102522 49.6795
22.49813925616515 49.652
22.520839937143307 49.2562
22.543541513520587 49.25899999999999
22.56624398629403 49.1953
22.589124730075895 49.1913
22.611829005656723 49.3899
22.63453418063466 49.2628
22.657240256008077 49.4598
22.680124634582935 49.6348
22.70283252079775 49.8521
22.725541310413075 50.2722
22.74825100442868 50.5005
22.771139033969575 50.9893
22.79385054687155 51.36
22.81656296718292 52.0005
22.83927629590484 52.6767
22.862167992606945 53.6531
22.88488314827121 54.7069
22.907599215359284 55.4484
22.93031619487366 56.3483
22.953211574954405 57.1511
22.975930389478226 57.9232
22.998650119445763 58.2702
23.02137076586092 57.9767
23.044269845560063 57.0875
23.06699233506288 55.576
23.089715744034912 53.7682
23.112617610931565 52.1886
23.135342869061212 50.8937
23.158069049684816 50.1015
23.1807961538087 49.6195
23.20370174880544 49.4935
23.226430710184808 49.4234
23.249160598093425 49.5109
23.271891413539002 49.6262
23.294800752937697 49.6986
23.31753343374794 49.8105
23.340267045128353 50.0112
23.36300158808808 50.1352
23.38591468821339 50.4818
23.408651104658304 50.9176
23.431388455719986 51.6086
23.454126742409 52.4064
23.4770436196085 53.3661
23.499783787914662 54.368
23.522524894889884 55.2335
23.54526694154616 56.2178
23.56818761219047 57.0208
23.59093154860734 57.5559
23.613676427751283 58.1085
23.636422250635754 57.5486
23.659346731118656 56.3748
23.68209445191868 54.7572
23.704843119509587 52.6899
23.72759273490623 50.7689
23.750521041644767 49.3759
23.77327256312355 48.1814
23.796025035462787 47.34
23.818956224555475 46.8003
23.841710609113413 46.7271
23.86446594758979 46.5369
23.887222241002014 46.1653
23.910157285144578 45.8843
23.932915498962537 45.7806
23.955674670778713 45.6619
23.978434801611975 45.4577
24.001373717286125 45.4048
24.024135776723917 45.1892
24.046898798245582 45.0761
24.06966278287146 45.193999999999996
24.092605586582614 44.8935
24.115371508023642 44.7726
24.1381383956401 44.7739
24.16090625045381 44.6403
24.183852958731244 44.6019
24.206622758582608 44.3901
24.229393528706886 44.2355
24.252165270127392 44.3953
24.27511589952438 44.2057
24.297889594216997 44.0254
24.32066426328598 43.928000000000004
24.34343990775613 43.9446
24.36639447485003 43.7718
24.38917208083877 43.641999999999996
24.41195066531332 43.6082
24.43490819850244 43.5868
24.457688750692377 43.5058
24.48047028445616 43.4594
24.503252800821233 43.49100000000001
24.526214300784112 43.7599
24.548998793132213 43.772
24.57178427117417 43.5642
24.59457073593893 43.5201
24.617536219319863 43.4904
24.64032466834748 43.4437
24.663114107195035 43.5184
24.685904536893013 43.0112
24.708874020360852 43.0282
24.731666442613744 43.1978
24.754459858818787 43.075
24.777254270007962 43.0471
24.80022777025625 42.8386
24.82302418230472 42.8468
24.845821592443674 42.8022
24.86862000170663 42.7083
24.891597535453727 42.6614
24.914397953892728 42.9701
24.93719937456671 42.885
24.96000179851076 43.0583
24.98298338249997 43.3027
25.00578782394922 43.403
25.028593271784167 43.5669
25.05157790644186 43.8809
25.07438537804115 43.9269
25.097193859145293 44.0098
25.120003350792075 44.3002
25.142992065061257 44.5999
25.165803588823465 44.9156
25.18861612625217 45.1523
25.211429678386736 45.1732
25.234422489079968 45.4391
25.257238081693636 45.5048
25.280054692141732 45.5928
25.3028723214652 45.4426
25.325869245420463 45.5289
25.348688923599397 45.4033
25.371509623787006 45.4249
25.394331347025812 45.2142
25.41733240110666 44.7716
25.440156181590016 44.32899999999999
25.46298098826268 43.8115
25.48580682216873 43.181000000000004
25.50881202326435 42.7525
25.53163992281684 42.1838
25.55446885274561 41.8075
25.577298814096377 41.4785
25.600308179121807 41.3685
25.623140214533745 41.5038
25.64597328451537 41.4256
25.66898578564376 41.1717
25.691820936010206 41.0837
25.714657124097695 40.9606
25.737494350954734 41.1172
25.760511045684957 40.9927
25.783350361364224 41.0319
25.806190718969255 41.1421
25.82903211955018 41.1409
25.852053024868923 41.1166
25.874896522722523 41.3025
25.897741066713106 41.1854
25.920586657892454 41.2837
25.943611790812668 41.4216
25.966459487728237 41.4462
25.989308234998564 41.3877
26.01215803367705 41.9501
26.03518741123814 42.0497
26.05803932412957 42.0617
26.080892291600094 42.0003
26.10374631470478 42.1057
26.12677995397268 42.2453
26.14963609978026 42.1116
26.172493304397875 41.9424
26.19535156888223 41.8184
26.218389486949604 41.5055
26.241249882640123 41.1869
26.26411134137826 40.8681
26.28715248187403 41.0479
26.31001607820869 40.8236
26.3328807407756 40.5199
26.35574647063438 40.7563
26.37879191991473 40.7026
26.401659795896734 40.766999999999996
26.424528742360263 40.8036
26.447398760366614 41.037
26.470448535598294 41.0632
26.49332070826805 41.2409
26.516193955675355 41.5728
26.53906827888316 41.8435
26.562122397260108 41.7982
26.584998883685063 42.1358
26.607876449110325 42.3745
26.63075509460056 42.4329
26.65381357334404 42.7153
26.67669439061878 42.652
26.699576291163382 42.6291
26.722459276044212 42.7256
26.745522132402975 42.4156
26.768407297649354 42.1332
26.791293550442003 41.77
26.814180891848974 41.4456
26.837248143099337 41.071000000000005
26.860137673466657 41.0859
26.88302829566349 40.7374
26.90592001075963 40.5001
26.92899167420566 40.3771
26.951885586870763 40.0922
26.974780595655517 39.9022
26.99785558178161 39.7491
27.020752794605112 39.4893
27.043651106772522 39.4323
27.06655051935668 39.4898
27.089629948036183 39.3284
27.112531573292053 39.2423
27.135434302194138 39.3153
27.158338135817015 39.0763
27.181422024430987 39.1901
27.204328079372566 38.9971
27.22723524226965 39.1596
27.250143514198573 39.0687
27.273231880156334 39.0959
27.296142382065014 39.0799
27.319053996245536 38.8835
27.341966723775965 38.9741
27.365059584515222 39.0435
27.38797455070062 38.9937
27.410890633481237 38.8802
27.433807833936918 38.8876
27.456905206923906 39.0242
27.47982465472398 39.1262
27.502745223449743 38.9977
27.525666914182825 39.1759
27.548768816912457 38.9905
27.571692763693633 38.9527
27.59461783573812 38.8906
27.617723149491244 38.8088
27.640650484125285 38.7034
27.66357894728264 38.6119
27.686508540048052 38.6735
27.709618414237887 38.6016
27.732550278321757 38.442
27.755483275279115 38.3784
27.778417406196485 38.3997
27.801531858397514 38.5182
27.824468269376716 38.4496
27.847405817586786 38.4567
27.870344504116094 38.5314
27.893463551932008 38.643
27.916404527281053 38.835
27.93934664422563 38.7915
27.962289903855886 38.8761
27.98541356491974 39.0427
28.00835912214229 39.1089
28.03130582533231 39.3578
28.054253675581805 39.4885
28.077381967556104 39.4595
28.100332124185126 39.4412
28.123283431160893 39.3753
28.146235889577238 39.3235
28.169368830154156 39.2939
28.192323603752033 39.113
28.215279532083304 38.774
28.238415973016764 38.5173
28.261374223145094 38.3097
28.284333631303806 38.2296
28.307294198589954 38.1109
28.330435319167677 37.6658
28.353398217078915 37.3561
28.376362277420153 37.2515
28.39932750129032 37.1891
28.422473319286713 36.9782
28.44544088262495 36.8843
28.468409612800283 36.8262
28.491379510913497 36.5007
28.51453004413313 36.4694
28.53750229057244 36.4741
28.56047570826344 36.4348
28.583450298308804 36.365
28.606605564586562 36.1976
28.629582511831156 36.2709
28.65256063474956 36.1398
28.675539934446338 36.1673
28.698699951647605 36.2109
28.72168161743193 36.0426
28.74466446331978 35.9131
28.767648490417624 35.9737
28.790813276438353 35.9616
28.813799678527303 35.9023
28.836787265157085 35.8896
28.859955641890075 35.9585
28.882945610203045 35.8836
28.905936766392035 35.734
28.928929111566863 35.9032
28.952102288520145 35.8088
28.975097024308607 35.6213
28.998092952423807 35.5331
29.021090073977508 35.47
29.04426806913204 35.3555
29.067267590245258 35.1888
29.090268308143695 35.101
29.11327022394099 35.0408
29.13645305530891 34.9831
29.159457379627167 34.9575
29.18246290519685 34.8862
29.20546963313352 34.821
29.22865731875826 34.8398
29.25166646419296 34.7269
29.27467681535305 34.633
29.29768837335608 34.8317
29.320880931312562 34.7343
29.34389491580634 34.7337
29.366910110507334 34.711
29.38992651653503 34.8054
29.41312396492981 34.7507
29.436142806456754 34.6175
29.45916286268059 34.5709
29.48236399319994 34.5584
29.50538649169417 34.297
29.528410208259935 34.2703
29.55143514402014 34.1438
29.574641196749695 33.9728
29.597668583816574 33.8674
29.6206971934585 33.6927
29.64372702680042 33.6718
29.666938019934474 33.7048
29.689970313635285 33.54
29.713003834422636 33.5209
29.73603858342347 33.4247
29.759254535188578 33.3629
29.78229175361658 33.3298
29.80533020365064 33.4328
29.82836988641968 33.3557
29.85159081507472 33.3134
29.874632976355343 33.2293
29.89767637376955 33.2096
29.920721008448314 33.0219
29.9439469322847 33.0877
29.96699405457564 33.0286
29.9900424175358 33.0284
30.013092022298157 33.0655
30.03632295963995 33.006
30.059375061131373 32.9834
30.08242840783577 32.9454
30.105483000888153 32.8334
30.128718970092244 32.8726
30.151776069006917 32.8191
30.17483441768648 32.9315
30.198074175317235 32.7493
30.221135036724256 32.8298
30.24419715131772 32.8629
30.267260520236203 32.7756
30.290505341942243 32.8816
30.313571232750228 32.9394
30.336638381310948 32.788000000000004
30.35970678876503 32.733000000000004
30.38295669299435 32.6955
30.40602763151657 32.6236
30.429099832366074 32.5968
30.452173296685572 32.6002
30.47542830191959 32.5283
30.498504306502497 32.5112
30.521581577995562 32.5782
30.544660117543582 32.5834
30.56792024229725 32.6861
30.59100133132069 32.6222
30.614083691845494 32.5833
30.637167325018545 32.6081
30.660432587840603 32.8032
30.683518779717886 32.664
30.70660624769615 32.7316
30.729694992924372 32.5769
30.75296541239743 32.5417
30.77605672557558 32.5292
30.799149319462742 32.5326
30.8224236211637 32.4999
30.845518789950724 32.3093
30.868615242910597 32.3178
30.891712981195973 32.1305
30.91499247215866 32.0548
30.938092794619365 31.9633
30.96119440587579 31.9917
30.984297307082752 31.8201
31.00758200598383 31.649
31.030687500658694 31.732
31.053794288760695 31.6906
31.076902371446767 31.5771
31.100192296997445 31.5789
31.12330298246119 31.5257
31.14641496599209 31.4071
31.169528248749216 31.5403
31.19282341969534 31.3765
31.215939314557186 31.3725
31.239056512134788 31.3796
31.262175013589378 31.3848
31.28547544871168 31.2093
31.30859657161541 31.2332
31.331719001892175 31.3486
31.35484274070538 31.3673
31.378148458819545 31.373
31.401274828443725 31.3013
31.424402510106933 31.359
31.447712205419993 31.3572
31.470842524931633 31.266
31.493974159989783 31.2744
31.51710711176168 31.145
31.54042212308802 31.2324
31.563557722100917 31.2703
31.586694641341655 31.0992
31.609832881979628 30.9253
31.63315322823208 30.9135
31.656294125521327 30.8388
31.679436347728515 30.6956
31.70257989602529 30.6436
31.725905596152327 30.7334
31.74905181052835 30.6197
31.772199354521323 30.5619
31.79534822930507 30.5163
31.818679302290967 30.5789
31.84183085259981 30.5874
31.864983737233473 30.5185
31.88813795736804 30.6096
31.911474422233013 30.4988
31.934631327356435 30.5181
31.9577895715215 30.4647
31.980949155906522 30.3795
32.004291031706956 30.4623
32.027453310562606 30.403000000000002
32.05061693318573 30.2277
32.07396288236386 30.328000000000003
32.09712920658542 30.1952
32.12029687812702 30.0653
32.14346589817093 29.9527
32.166817291729984 29.905
32.18998902288583 29.8228
32.21316210610336 29.7024
32.23633654256711 29.7416
32.259693399663725 29.7176
32.282870556771144 29.6177
32.30604907069099 29.6263
32.329228942610065 29.5191
32.35259128243769 29.4289
32.375773884550505 29.4461
32.398957848235646 29.421999999999997
32.422143174682176 29.2635
32.445511016471215 29.2568
32.468699082679954 29.241
32.49188851523011 29.1247
32.51507931531304 28.9592
32.538452678331 29.0531
32.56164622776311 29.0326
32.58484114831493 28.9523
32.60803744118015 28.9973
32.631416344731896 28.8614
32.654615396551876 28.7767
32.67781582427913 28.8033
32.701198898634416 28.7068
32.72440209253756 28.6533
32.747606665947124 28.6132
32.77081262006088 28.4826
32.79420126883317 28.5159
32.81740999876112 28.5704
32.840620112999424 28.3995
32.86383161274818 28.4335
32.88722585534586 28.519000000000002
32.91044014056596 28.4509
32.933655814909734 28.4702
32.95687287957963 28.3249
32.98027273544904 28.2328
33.00349259526636 28.2379
33.026713849030116 28.3209
33.04993649794511 28.2835
33.073341986570746 28.3024
33.09656744032826 28.2411
33.11979429286444 28.1916
33.14302254538647 28.2161
33.166433686291185 28.105
33.18966475336992 28.1117
33.212897224069096 27.9737
33.23613109959831 27.982
33.259547912343415 28.0143
33.2827846121627 27.9269
33.306022720453775 27.8742
33.32926223842861 27.8228
33.352684742614166 27.9374
33.37592709463173 27.8061
33.399170859982064 27.6615
33.422597648419426 27.5517
33.44584425514446 27.4693
33.46909227885668 27.4777
33.4923417207723 27.4212
33.51577423505344 27.3815
33.539026528130385 27.3077
33.56228024307245 27.3334
33.585535381098246 27.1597
33.60897364093058 27.2256
33.63223163992385 27.148000000000003
33.6554910656699 27.0549
33.678751919389796 27.0853
33.702195944520106 26.9619
33.72545966903325 26.9735
33.74872482519663 26.9146
33.771991414233746 26.9272
33.79544122444841 26.8505
33.81871069412428 26.7631
33.84198160035767 26.7631
33.86525394437455 26.8623
33.88870955949969 26.7124
33.911984794020626 26.6614
33.93526147001624 26.6265
33.958539588715006 26.5705
33.98200102861669 26.5865
34.0052820477047 26.4085
34.02856451319451 26.4781
34.05203033759056 26.320999999999998
34.07531571090147 26.3188
34.09860253431845 26.2708
34.121890809074316 26.217
34.145362493118924 26.243000000000002
34.16865368561615 26.1912
34.191946333164054 26.1896
34.21524043699793 26.0924
34.23871800066799 26.0804
34.26201503218366 25.9385
34.28531352370466 26.0595
34.30861347646881 25.9342
34.33209693978188 25.9199
34.3553998301885 25.8813
34.378704185565205 25.8551
34.402010007152356 25.8013
34.42549939016683 25.8287
34.44880815937748 25.7108
34.472118398533134 25.6469
34.49543010887669 25.5613
34.51892543169198 25.5154
34.54224009966052 25.5522
34.56555624255917 25.4694
34.58887386163339 25.3717
34.61237514439016 25.3209
34.6356957311114 25.3068
34.65901779775809 25.3529
34.68252356662995 25.2451
34.705848608458616 25.2389
34.72917513396849 25.1503
34.75250314440949 25.1226
34.77601490857862 25.0303
34.799345904259795 24.9753
34.82267838863559 25.0747
34.846012362958525 25.0073
34.869530142679984 24.9909
34.89286711232212 24.9584
34.91620557568269 24.8778
34.93954553401677 24.8434
34.9630693495876 24.7985
34.986412313340814 24.82
35.00975677584668 24.8672
35.033102738362956 24.765
35.05663261012228 24.7082
35.0799815881786 24.671
35.10333207003229 24.5441
35.12668405694369 24.6523
35.150220005273056 24.5414
35.17357501786656 24.5945
35.19693153931268 24.526999999999997
35.220289570874385 24.5226
35.24383161619786 24.5435
35.267192683604904 24.5338
35.290555264930376 24.5381
35.314101899412165 24.389
35.33746752422433 24.3904
35.36083466676374 24.4218
35.38420332829803 24.3503
35.407756095629054 24.3219
35.43112781085063 24.3496
35.45450104888391 24.2158
35.477875810999194 24.271
35.50143473172161 24.1981
35.52481255774625 24.2317
35.54819191167777 24.1336
35.57157279478914 24.1136
35.595137889488406 24.0966
35.61852184675279 24.1022
35.641907337029984 23.9933
35.665294361595684 23.9203
35.68886565090076 23.8287
35.7122557598848 23.8948
35.73564740699838 23.8773
35.759040593519934 23.8581
35.78261809810353 23.8003
35.80601437933051 23.7112
35.829412203814705 23.7191
35.85281157283719 23.5614
35.876395313415884 23.6169
35.8997977874528 23.5147
35.92320180988546 23.5178
35.946790244133936 23.4569
35.97019737933222 23.525
35.993606066789866 23.4566
36.01701630779276 23.3853
36.04061101440684 23.2981
36.06402437852291 23.3407
36.08743930005611 23.2097
36.1108557802951 23.1374
36.13445678011326 23.178
36.15787639383515 23.2185
36.18129757014299 23.1811
36.20472031032821 23.1075
36.22832762423364 22.9866
36.25175350829375 23.0047
36.275180960119776 22.9194
36.298609981005924 23.0607
36.32222362992669 22.9754
36.34565580510207 22.8616
36.36908955323448 22.8897
36.39252487562093 22.7852
36.416144880530226 22.7421
36.43958336764275 22.7131
36.463023432914625 22.7508
36.486465077645676 22.7503
36.51009145956204 22.7625
36.53353627947859 22.7168
36.55698268276811 22.673000000000002
36.58043067073321 22.6042
36.60406345072071 22.5719
36.62751462435344 22.5555
36.65096738658405 22.4741
36.67460498210655 22.4145
36.69806093788647 22.4358
36.72151848619297 22.3115
36.744977628333636 22.3094
36.76862165890998 22.2696
36.79208400512205 22.2462
36.81554794910557 22.2817
36.83901349217101 22.2108
36.862663978991606 22.1446
36.88613273667352 22.0809
36.90960309738324 22.0788
36.933075062434064 22.0556
36.95673202673572 22.039
36.98020721697122 21.926
37.003684015502365 21.9522
37.027162423645365 21.9236
37.050825886711465 21.9355
37.07430753063053 21.7949
37.09779078812467 21.7724
37.121275660513014 21.8119
37.144945643673694 21.7507
37.16843376245278 21.6562
37.19192350009803 21.6736
37.215414857931435 21.6102
37.239091382563885 21.6086
37.262585997426164 21.5113
37.28608223645736 21.5402
37.309763684451696 21.479
37.33326318851098 21.4636
37.356764320726555 21.3922
37.380267082425526 21.4288
37.40395510942588 21.4401
37.42746114683234 21.3603
37.45096881771841 21.2564
37.474478123414166 21.3042
37.49817275092816 21.2179
37.52168534303452 21.1845
37.54519957395567 21.1172
37.568715445024665 21.1515
37.592416694607714 21.0718
37.61593586281424 21.1014
37.63945667518264 21.1193
37.66297913304891 21.0127
37.68668702630454 21.0563
37.710212792059274 20.9424
37.733740207334854 20.9907
37.757269273470364 20.9182
37.780983832050374 20.8349
37.80451621684926 20.7746
37.82805025654007 20.7558
37.851585952464795 20.7787
37.8753071980695 20.7109
37.89884622345676 20.7231
37.92238690911902 20.5777
37.94611318753442 20.5792
37.969657210779765 20.592
37.99320289834801 20.5874
38.016750251586465 20.4608
38.04048325513017 20.5065
38.06403395679343 20.4747
38.087586328183946 20.4052
38.11114037065203 20.4104
38.13488012115898 20.3868
38.1584375229181 20.2953
38.181996599821 20.2776
38.205557353221124 20.2118
38.229303872575656 20.2318
38.2528679961576 20.2037
38.27643380031219 20.1135
38.30000128639589 20.0886
38.32375459653193 20.1436
38.34732546371299 20.1166
38.37089801690786 20.0163
38.39447225747609 19.9596
38.418232380377425 19.9026
38.441810012983396 19.9313
38.46538933705673 19.8387
38.488970353960084 19.8741
38.51273731166058 19.8533
38.536321731567014 19.8345
38.55990784840681 19.8162
38.58367995004091 19.6934
38.60726947812959 19.6287
38.63086070726198 19.7031
38.654453638806274 19.7555
38.678232613930824 19.6432
38.70182896773327 19.5557
38.72542702806741 19.5273
38.7490267963045 19.4872
38.77281266709232 19.4806
38.79641586862214 19.4804
38.8200207821842 19.419
38.843627409152944 19.4366
38.86742019782782 19.379
38.891030269149255 19.3516
38.914642058016156 19.2804
38.938255565806124 19.2523
38.96205529464307 19.2202
38.98567225787121 19.2651
39.00929094417078 19.2028
39.03291135492255 19.1897
39.05671804624804 19.1299
39.080341923549106 19.0662
39.103967529460334 19.0721
39.127594865365744 18.9202
39.15140854155791 18.9392
39.17503935514948 18.9509
39.19867190290282 18.936
39.22249083587951 18.9367
39.24612686969409 18.9197
39.269764641845306 18.8844
39.293404153722804 18.8365
39.317230110864074 18.7666
39.34087311998506 18.717
39.36451787301696 18.7043
39.388164371352595 18.6928
39.41199737518003 18.6196
39.43564738196752 18.5704
39.45929913825317 18.5712
39.48295264543308 18.6178
39.506792718520884 18.5678
39.530449745387216 18.4954
39.55410852735203 18.4464
39.57776906581474 18.4599
39.60161623079 18.4662
39.625280300200025 18.4648
39.64894613032202 18.3334
39.67261372255866 18.374000000000002
39.6964680021016 18.3926
39.72013913657293 18.3131
39.74381203738292 18.2633
39.76748670593756 18.2831
39.79134812278169 18.284000000000002
39.81502634488497 18.2065
39.83870633896685 18.1655
39.862388106436654 18.0422
39.88625668336918 18.0867
39.90994201572829 18.1411
39.933629125719285 18.0583
39.957503091207826 17.9804
39.9811937746168 17.9977
40.00488623990914 17.9789
40.02858048850006 17.8781
40.05246165409549 17.8342
40.076159487492085 17.8691
40.099859108448875 17.8267
40.123560518384345 17.7643
40.1474489070226 17.703
40.171153913178564 17.6754
40.194860712584955 17.6481
40.2185693066637 17.6316
40.242464941335314 17.6229
40.26617714307655 17.6655
40.289891143772046 17.6369
40.3136069448471 17.562
40.33750984859743 17.522000000000002
40.3612292688043 17.5119
40.3849504936829 17.5077
40.40867352466194 17.5236
40.43258372059144 17.4197
40.45631038219906 17.3839
40.48003885420956 17.3485
40.503769138055105 17.2995
40.52768664931955 17.342
40.55142057531802 17.2885
40.57515631746428 17.2683
40.599079334038514 17.2033
40.62281872700477 17.1763
40.64655994043941 17.1716
40.67030297578061 17.1015
40.69423334835778 17.1161
40.71798004609188 17.1409
40.74172857006355 17.0766
40.76547892171441 17.0316
40.7894166736039 17.074
40.813170699248566 16.9812
40.83692655691388 16.9817
40.86068424804498 16.9995
40.884629402612525 16.9391
40.908390779366385 16.8951
40.932153993938 16.8737
40.95591904777605 16.8507
40.979871628443995 16.8975
41.003640379561936 16.8496
41.02741097430883 16.8041
41.05118341413683 16.7437
41.075143444384416 16.7171
41.098919593177826 16.7019
41.1226975914255 16.6314
41.14647744058318 16.5619
41.170444943946755 16.538
41.19422851378379 16.5433
41.218013938914645 16.5023
41.24198706625173 16.4467
41.26577622087193 16.4406
41.289567235177785 16.4333
41.31336011063129 16.428
41.337340752422875 16.4002
41.361137369129835 16.3623
41.38493585138705 16.3133
41.40873620066004 16.2924
41.43272438060107 16.3183
41.45652848292052 16.2202
41.48033445666918 16.1904
41.50414230331616 16.1731
41.528138045159764 16.1898
41.551949656675205 16.1549
41.575763145513235 16.1493
41.59957851314666 16.1115
41.62358184070442 16.0825
41.64740098505737 16.0316
41.6712220126409 16.0348
41.69504492493139 15.9794
41.71905586207357 15.9625
41.74288256296395 15.9241
41.766711153007456 15.8713
41.79054163368412 15.855
41.814560204340054 15.8812
41.838394485526365 15.8798
41.86223066180303 15.7812
41.88625497706819 15.7652
41.910094962812 15.6948
41.93393684811168 15.7241
41.95778063445365 15.7156
41.981812625263366 15.6632
42.00566023303407 15.6345
42.029509746323676 15.6021
42.05336116662236 15.6326
42.077400857069705 15.5962
42.10125611078846 15.5592
42.12511327600405 15.5246
42.14897235421036 15.4617
42.173019768448455 15.4441
42.19688269209613 15.444
42.22074753323349 15.4076
42.24461429335818 15.3912
42.268669455600495 15.3471
42.292540073217886 15.3499
42.31641261433284 15.2827
42.34028708044675 15.2715
42.36435001496739 15.2809
42.38822835065557 15.2558
42.41210861586426 15.1806
42.4359908120986 15.187000000000001
42.46006154323262 15.1313
42.48394762115317 15.1197
42.507835634632315 15.0921
42.531912233047436 15.0649
42.55580413732265 15.0788
42.579697981698 15.0283
42.60359376768525 14.9917
42.62767820545945 14.9621
42.65157789440821 14.9828
42.67547952952185 14.9379
42.699383112316 14.9282
42.72347541395347 14.8965
42.74738291190531 14.8245
42.771292362102166 14.8345
42.795203766063516 14.8367
42.819303956130405 14.7727
42.843219287476536 14.7317
42.86713657716324 14.6719
42.89105582671383 14.7054
42.91516392983864 14.6924
42.939087119032166 14.635
42.963012272677304 14.5753
42.98693939230129 14.5966
43.01105543317513 14.5774
43.034986504731386 14.6018
43.05891954686589 14.5124
43.08285456110972 14.5358
43.10697856448665 14.4903
43.130917542983475 14.4508
43.15485849820081 14.4004
43.17880143167367 14.367
43.20293342237094 14.3656
43.226880332449 14.3279
43.25082922540554 14.3312
43.27496722682525 14.2945
43.29892010567796 14.2317
43.32287497204102 14.2912
43.34683182745632 14.2554
43.370977859791836 14.1376
43.39493871351105 14.1246
43.41890156092628 14.1875
43.44286640358341 14.1095
43.46702049182749 14.1624
43.49098934522816 14.0839
43.51496019852649 14.0368
43.5389330532723 14.0244
43.56309522248204 13.9719
43.58707210044314 13.947000000000001
43.61105098451946 13.9538
43.63503187626491 13.9879
43.659202151562134 13.8821
43.68318707902681 13.8733
43.70717401884041 13.8614
43.731162972560874 13.7773
43.75534137913236 13.7736
43.779334381108384 13.7924
43.803329401683186 13.7237
43.82732644241872 13.7313
43.8515130055166 13.6972
43.87551410707659 13.6957
43.89951723350145 13.6743
43.923709934595614 13.6852
43.94771713129917 13.6584
43.97172635758096 13.5833
43.99573761501002 13.5718
44.0199385169922 13.5617
44.04395385732619 13.5427
44.067971233533086 13.5162
44.09199064718605 13.4831
44.11619977548961 13.4211
44.14022328470671 13.4049
44.16424883610785 13.447000000000001
44.18827643127035 13.4156
44.21249381139513 13.354000000000001
44.236525514814076 13.3782
44.26055926674478 13.3013
44.28459506876863 13.2908
44.3088207262813 13.2806
44.33286064928722 13.2493
44.35690262714919 13.1854
44.38094666145278 13.187999999999999
44.4051806219871 13.1886
44.42922879003185 13.1511
44.45327901929361 13.1496
44.477331311362136 13.0879
44.501573600619416 13.0625
44.525630039221795 13.05
44.54968854541895 13.0272
44.573937102200176 13.0119
44.5979997645541 12.9808
44.622064499300315 13.0119
44.64613130803592 12.9828
44.67038823869318 12.9558
44.69445921643748 12.9101
44.718532272981385 12.8529
44.742607409926194 12.8776
44.76687274034801 12.8485
44.79095205918753 12.782
44.81503346325094 12.7986
44.839116954143876 12.7673
44.86339071028742 12.7783
44.88747839599524 12.7015
44.91156817336837 12.6731
44.93566004401666 12.6925
44.959942251908146 12.65
44.984038330325966 12.6495
45.00813650686762 12.5811
45.03223678314731 12.6048
45.05652746888232 12.5394
45.08063196592069 12.5682
45.104738567558705 12.5742
45.128847275414856 12.4712
45.15314646515866 12.4109
45.17725940679741 12.4241
45.20137445952892 12.4207
45.22568004865265 12.3811
45.24979934496396 12.3786
45.27392075725247 12.4092
45.29804428714431 12.3769
45.322358426247604 12.3283
45.346486212804315 12.2885
45.370616121861914 12.3003
45.39474815505086 12.2689
45.41907087049246 12.1955
45.4432071734666 12.2141
45.46734560548283 12.1773
45.49148616817604 12.175
45.51581748638564 12.1637
45.5399623320197 12.1498
45.56410931325473 12.0618
45.58825843173002 12.0897
45.61259837920865 12.0781
45.636751793816 12.0785
45.66090735060093 11.9885
45.68506505120716 11.946
45.7094136545275 11.9549
45.73357566449271 11.94
45.75773982322992 11.9123
45.78190613238733 11.934000000000001
45.806263418194064 11.8578
45.83043404997326 11.857000000000001
45.85460683713677 11.8692
45.87897065658495 11.8337
45.90314777634752 11.7476
45.92732705646868 11.7903
45.9515084986045 11.7481
45.97588104735473 11.7212
46.00006683541565 11.7339
46.02425479047904 11.6777
46.04844491420549 11.6783
46.0728262191024 11.6468
46.09702070211635 11.6162
46.12121735879483 11.6603
46.14541619080294 11.6647
46.169806278764455 11.6302
46.194009483459034 11.5927
46.21821486849841 11.571
46.24242243555223 11.5468
46.266821333570014 11.5016
46.29103328674601 11.4743
46.31524742696538 11.4604
46.33946375590237 11.3929
46.36387149104216 11.4188
46.38809221957392 11.3744
46.41231514186606 11.3783
46.436540259597464 11.3503
46.460956858999374 11.3055
46.48518638983522 11.2776
46.509418121166966 11.2831
46.533652054678114 11.2349
46.55807754555709 11.219000000000001
46.58231590571962 11.212
46.60655647313217 11.210999999999999
46.630988654873654 11.1939
46.655233659129024 11.1353
46.67948087571551 11.1734
46.70373030632484 11.1233
46.72817142736393 11.1352
46.752425308428684 11.0802
46.77668140861147 11.0912
46.80093972960865 11.0371
46.82538981736788 11.0226
46.849652602470904 10.9853
46.87391761349769 10.9867
46.8981848521493 11.0001
46.9226439341274 10.939
46.946915650573224 10.8547
46.97118959976749 10.8826
46.99546578341598 10.8636
47.019933887188216 10.8763
47.04421456235744 10.8535
47.06849747711879 10.7826
47.09278263318286 10.7519
47.11725978640143 10.7293
47.14154944775105 10.7305
47.165841355555656 10.7474
47.1901355115306 10.7013
47.214621741924994 10.7452
47.23892041698887 10.7187
47.26322134538975 10.6968
47.28771440635075 10.6424
47.31201986422527 10.6591
47.33632758061436 10.5966
47.360637557241866 10.592
47.38513974410611 10.5505
47.40945426407847 10.515
47.43377104948137 10.5083
47.45809010204344 10.4937
47.48260144275502 10.4793
47.506925052572285 10.4546
47.53125093475548 10.4343
47.55557909103813 10.4304
47.58009961361992 10.3853
47.60443234110732 10.3525
47.62876734791564 10.3445
47.65310463578333 10.3436
47.6776343683373 10.3653
47.7019762413987 10.2915
47.72632040075572 10.3256
47.75066684815169 10.2588
47.77520581885936 10.2268
47.799556865477655 10.1925
47.823910205386 10.2379
47.84826584033272 10.1944
47.87281407745551 10.1732
47.89717432569297 10.155
47.92153687423484 10.1489
47.94609208429692 10.1411
47.97045925671401 10.0906
47.99482873471275 10.047
48.01920052005013 10.0481
48.04376504619224 10.0404
48.068141469543484 10.0694
48.09252020552573 10.0171
48.11690125590099 10.0253
48.1414751266064 9.98965
48.16586082917454 9.95585
48.19024885144316 9.9155
48.2146391951793 9.90034
48.239222439012764 9.91437
48.26361744916137 9.90921
48.28801478610016 9.86052
48.31241445160131 9.8656
48.337007097209366 9.82669
48.36141144338331 9.80663
48.38581812345755 9.795580000000001
48.41022713920929 9.78434
48.434829215320704 9.7734
48.45924292604658 9.75787
48.48365897780325 9.74978
48.50807737237308 9.71388
48.532688907799276 9.72604
48.55711201168574 9.6667
48.581537463754074 9.64495
48.60615611725119 9.66992
48.63058628942721 9.59795
48.65501881516546 9.56687
48.6794536962573 9.575280000000001
48.70408185970339 9.60598
48.72852147531801 9.57005
48.75296345168211 9.52321
48.77740779059232 9.534980000000001
48.80204549302823 9.570039999999999
48.82649458091802 9.50699
48.85094603676547 9.468860000000001
48.87539986237231 9.47863
48.90004713292306 9.45652
48.92450572200832 9.43574
48.94896668628025 9.384210000000001
48.97343002754588 9.36302
48.99808689542115 9.38211
49.02255501470614 9.36933
49.04702551642794 9.27966
49.0714984023988 9.26983
49.096164896893235 9.30023
49.120642575466796 9.27725
49.145122643748394 9.2553
49.16960510355558 9.228810000000001
49.19428125404938 9.184619999999999
49.2187685210852 9.16704
49.243258185121555 9.18422
49.26794160167084 9.19068
49.2924360839405 9.13972
49.31693296869764 9.121410000000001
49.34143225776915 9.09072
49.36612538195438 9.03603
49.39062950396021 9.09265
49.41513603578346 9.06503
49.4396449792564 9.05615
49.46434784069503 9.02098
49.488861631846454 8.98477
49.513377840166804 9.002460000000001
49.537896467493745 8.94835
49.56260909589029 8.93222
49.587132585683285 8.913089999999999
49.611658500018365 8.90662
49.636186840738596 8.88137
49.66090926588511 8.88166
49.685442483902584 8.87764
49.70997813385706 8.81945
49.734516217597076 8.816410000000001
49.75924846937352 8.829369999999999
49.7837914452858 8.779069999999999
49.80833686055187 8.77276
49.83288471702571 8.7678
49.85762682540054 8.79
49.882179588965734 8.74675
49.9067347993235 8.73303
49.93129245833333 8.73546
49.95604445336378 8.683860000000001
49.98060703442832 8.688310000000001
50.005172069746266 8.63402
50.02993150438364 8.64613
50.05450147301533 8.62
50.07907390151433 8.59796
50.10364879174981 8.55973
50.12841816587289 8.5791
50.1529980044635 8.56903
50.17758031042124 8.530560000000001
50.20216508562089 8.53182
50.22694442953363 8.513919999999999
50.25153416817468 8.47899
50.27612638170508 8.49634
50.300721072005196 8.44223
50.325510416102105 8.41353
50.350110084975064 8.43147
50.37471223628208 8.441180000000001
50.39931687190919 8.41131
50.424116246675766 8.37903
50.44872587605249 8.35674
50.47333799543065 8.34497
50.49795260670191 8.31104
50.52276204271512 8.2896
50.54738166295838 8.24442
50.57200378079314 8.26041
50.596628398116835 8.24284
50.62144792604559 8.289760000000001
50.646077567609396 8.23884
50.670709714377715 8.21872
50.69553683636198 8.19797
50.72017401885922 8.15269
50.7448137122895 8.1926
50.76945591856022 8.14413
50.79429318636823 8.12769
50.818940443716784 8.12827
50.84359021965163 8.104619999999999
50.868242516085964 8.09752
50.893089960641895 8.07136
50.917747323549435 8.03626
50.94240721271973 8.02111
50.96706963007175 8.00287
50.99192728239342 8.01141
51.01659478166073 8.001669999999999
51.04126481489051 7.9852300000000005
51.06593738400761 7.9901800000000005
51.090805275207074 7.94057
51.11548294172845 7.92162
51.14016314993547 7.9205
51.164845901758845 7.91025
51.18972406304274 7.86504
51.21441192780656 7.860869999999999
51.23910234200271 7.8729
51.2637953075678 7.812930000000001
51.288683770237945 7.785989999999999
51.31338186432707 7.77503
51.33808251561888 7.779839999999999
51.362978729967345 7.76622
51.387684521509755 7.73154
51.41239287610203 7.71698
51.437103795691165 7.704110000000001
51.46201036644977 7.6985600000000005
51.486726441956634 7.65883
51.51144508832545 7.67324
51.536166307509156 7.647539999999999
51.56108326624387 7.624060000000001
51.58580965706056 7.6581
51.61053862657523 7.57757
51.635270176746864 7.5693
51.66019755512065 7.556360000000001
51.68493429268881 7.573060000000001
51.70967361681515 7.56102
51.73441552946465 7.494389999999999
51.759353359237934 7.5353699999999995
51.7841004750961 7.51795
51.80885018539685 7.485930000000001
51.833602492111254 7.5085
51.8585508051424 7.462330000000001
51.883308330926425 7.43582
51.90806845906181 7.429189999999999
51.932831191525715 7.39518
51.95779001977161 7.34381
51.98255798721516 7.329960000000001
52.00732856494335 7.31332
52.03229530577543 7.34215
52.057071130455945 7.332439999999999
52.081849571391054 7.29165
52.106630630568695 7.28825
52.13160794279417 7.2519100000000005
52.15639426492067 7.30047
52.18118321127822 7.304860000000001
52.205974783860896 7.23022
52.23096269971011 7.2035
52.255759551287994 7.193239999999999
52.280559035098186 7.184819999999999
52.30536115314103 7.17974
52.33035970494467 7.163069999999999
52.35516711807904 7.1818800000000005
52.37997717147198 7.14257
52.40478986713005 7.12785
52.42979908731974 7.10416
52.454617094216 7.06605
52.47943774942214 7.06387
52.50426105495102 7.04104
52.529280976059844 7.067769999999999
52.554109609024096 7.0218
52.57894089837482 7.03016
52.60377484613117 6.997439999999999
52.62880550079408 6.97293
52.65364479223379 6.996389999999999
52.67848674816189 6.9325
52.70352547971946 6.91852
52.72837279155837 6.93715
52.753222773982785 6.89951
52.778075429022984 6.87103
52.80312495150885 6.86382
52.827982978797436 6.807519999999999
52.85284368481815 6.87109
52.87770707160767 6.8399600000000005
52.90276741793998 6.82366
52.92763619336701 6.83185
52.952507655698504 6.744619999999999
52.977381806977576 6.748139999999999
53.00245301017842 6.7754
53.02733256653592 6.78425
53.052214817996074 6.76242
53.077099766608484 6.7283
53.102181859804446 6.7213899999999995
53.127072229988265 6.7336
53.15196530349892 6.65908
53.17686108239249 6.6819
53.20195409881522 6.668410000000001
53.22685531582556 6.6649199999999995
53.25175924441303 6.6384
53.27666588664027 6.60226
53.30176985962693 6.60355
53.3266819565689 6.56342
53.35159677336455 6.555969999999999
53.376514312083096 6.54697
53.40162927507703 6.52664
53.42655228516116 6.53567
53.45147802340193 6.52757
53.47660125628886 6.494669999999999
53.50153247842639 6.4718
53.52646643496923 6.41873
53.55140312799818 6.4355199999999995
53.576537409691696 6.4294
53.60147960336152 6.4317
53.626424539786164 6.38875
53.65137222105307 6.39595
53.67651758529126 6.3789
53.70147078399681 6.38347
53.72642673383343 6.3434
53.75138543689533 6.34743
53.776541917524526 6.3381300000000005
53.801506154876755 6.33627
53.826473151763246 6.32092
53.851442910284916 6.24224
53.87661054126026 6.26465
53.9015858509782 6.24528
53.92656392866066 6.2630300000000005
53.95154477641532 6.26864
53.976723591801296 6.2283599999999995
54.00171000771266 6.21289
54.02669920004598 6.17687
54.051691170915745 6.19376
54.076881204886796 6.1957699999999996
54.101878760928514 6.18498
54.12687910187696 6.11154
54.152077577768296 6.11566
54.1770835166946 6.1249
54.20209224691339 6.13565
54.22710377055121 6.0763
54.25231352511594 6.06571
54.27733066384342 6.03925
54.30235060239643 6.03151
54.32737334290836 6.0042
54.35259441062629 5.98461
54.377622783395324 5.9709699999999994
54.40265396455061 5.96406
54.42768795623251 5.943230000000001
54.45292037169559 5.9112800000000005
54.477960012857906 5.9321
54.50300247099511 5.8484300000000005
54.52804774825457 5.87668
54.55329154616743 5.81274
54.57834249018678 5.834980000000001
54.6033962597977 5.80171
54.6284528571545 5.79415
54.653708072335164 5.7177
54.67877035378786 5.75355
54.70383546947698 5.72927
54.72890342156389 5.70926
54.7541700889442 5.6404
54.77924374251975 5.63456
54.8043202390049 5.684830000000001
54.82959552413022 5.64658
54.8546777351945 5.6244
54.87976279569621 5.5949
54.90485070780914 5.58858
54.930137506558005 5.577459999999999
54.95523115074295 5.62252
54.98032765308844 5.5153
55.005427015775496 5.4842699999999995
55.03072536339621 5.48468
55.05583047570572 5.46772
55.080938454927676 5.45688
55.10604930325027 5.38565
55.131359235107396 5.41412
55.15647585066083 5.35846
55.181595341907496 5.35799
55.20671771104285 5.34427
55.232039262617704 5.32344
55.25716741665048 5.2883
55.28229845518636 5.334630000000001
55.30743238042802 5.253369999999999
55.33276558731939 5.2174
55.357905315183636 5.19172
55.383047936390035 5.14721
55.40819345314859 5.1461
55.433538351073295 5.15545
55.458689688238415 5.12236
55.483843927614096 5.09504
55.509197623043605 5.073980000000001
55.53435769621134 5.0178
55.55952067826466 4.95675
55.5846865714265 4.984030000000001
55.61005202069737 4.93096
55.63522376553902 4.914569999999999
55.66039842818645 4.9179900000000005
55.68557601087004 4.86977
55.7109532500271 4.84994
55.73613670233794 4.90932
