TT I
1.2716486653135266 8.0792
1.2939594142134223 7.7004
1.3162702121660406 7.24613
1.3385810600174564 6.81768
1.3608919586137629 7.53677
1.383202908801069 6.76843
1.405513911425503 5.62969
1.4278249673332093 7.34112
1.4501343378461518 6.4554
1.4724455028545926 6.35551
1.4947567236847858 6.21531
1.517068001182951 6.593380000000001
1.5393793361953272 6.32034
1.5616907295681737 6.39412
1.5840021821477681 5.98831
1.60631369478041 5.30681
1.6286252683124185 5.48958
1.6509369035901333 5.54444
1.6732468618895553 5.59227
1.695558623192809 5.5433900000000005
1.7178704487808514 5.60619
1.7401823395001077 5.738180000000001
1.7625012545597203 5.57491
1.7848028405262486 5.14737
1.8071218901122095 5.1108
1.8294236121921872 4.93464
1.8517427996910911 5.032780000000001
1.8740620574440425 4.95709
1.8963639900671978 4.91146
1.9186833908139995 5.298830000000001
1.9409854680117449 5.06305
1.9633050151394713 5.27327
1.9856246367570705 4.58967
2.0079269371922672 4.96392
2.03024671027244 4.80103
2.0525491637446027 5.114730000000001
2.074869091674931 4.73824
2.097171701569106 4.6086599999999995
2.1194917877373847 4.64117
2.141811954326636 4.6436
2.164114805233074 4.35433
2.186435135143035 4.37206
2.208738150935709 4.41108
2.231058647554722 4.80883
2.2533792288321184 4.3306
2.275682498336085 4.35669
2.298003251406138 4.7927
2.3203066942619714 4.6791
2.3426276225136022 4.2217
2.3649486396617507 4.2016800000000005
2.387252348930071 4.0765199999999995
2.4095735463442893 4.28174
2.4318774374315884 4.70985
2.4541988185014043 4.81195
2.476502894794693 4.67145
2.498824462909887 4.89175
2.521146125856138 4.5887
2.5434504863470337 5.03061
2.5657723414244717 5.11221
2.588076895590662 5.45826
2.610398946189713 6.4023900000000005
2.6327210958598384 5.8440900000000005
2.6550259469304716 5.89612
2.6773482972090137 6.17919
2.6996533504259 6.1085
2.7219759047039602 6.74707
2.744298562293959 6.942310000000001
2.7666039251246595 6.53263
2.7889267918020164 6.6874899999999995
2.8112323652516555 6.6481
2.833555444408179 7.47772
2.8558786311183852 7.80437
2.8781845268938557 7.76633
2.9005079311721484 8.333169999999999
2.9228140460410397 8.5178
2.9451376712799635 9.08393
2.967444008632326 9.02858
2.9897678582247247 9.57765
3.0120918213106695 10.0949
3.0343984987899373 10.7165
3.0567226913198637 11.2983
3.079029599759726 11.505
3.101354025127254 12.1472
3.123678568232338 12.8016
3.145985829517914 12.8329
3.16831061055229 13.9008
3.1906181112775593 13.9898
3.212943133635653 14.9172
3.2352682779763207 14.5911
3.2575761442691227 15.7744
3.2799015350264273 16.3247
3.302209649240067 16.1425
3.3245352898092655 16.4219
3.3468436553365257 17.4319
3.369169549113219 17.842
3.3914955708171384 18.7146
3.413804319727358 19.0289
3.4361305997334863 18.8834
3.4584396084414553 19.9029
3.4807661501462652 20.1685
3.503092824025881 21.0968
3.5254022288463154 20.9281
3.5477291695206588 21.3925
3.5700388426251948 21.9518
3.5923660534916446 22.5598
3.6146934007816114 22.7041
3.637003482731501 23.0358
3.6593311053109985 23.5317
3.681641464033634 24.101999999999997
3.7039693653009733 24.5441
3.726297407241705 25.524
3.7486081875460804 25.4548
3.7709365132734978 26.0765
3.793247578841633 26.4736
3.8155761917550093 27.0403
3.8378875459837216 27.3614
3.8602164494827234 27.6076
3.882545499606844 28.3974
3.9048572932539183 29.4341
3.9271866390645718 29.4213
3.9494987298666713 30.0027
3.971828374764527 30.4897
3.9941581705403255 31.0798
4.016470713506008 31.5984
4.038800813471445 32.3613
4.061113662089144 32.7336
4.0834440696459176 33.9534
4.105774632334751 34.3376
4.128087945865126 34.9266
4.150418821249301 35.3804
4.172732448931298 36.6983
4.195063640413578 37.0679
4.2173775856475215 37.7339
4.239709096631102 38.582
4.262040768704612 38.9903
4.284355196706267 39.4821
4.306687193387355 40.8
4.329001947444346 42.0778
4.35133427213731 43.0393
4.373666762177566 43.7043
4.395982011761091 44.5627
4.418314834921175 45.427
4.44063041906622 46.4933
4.4629635787515625 47.5858
4.4852969080429785 48.6845
4.5076130004776225 50.333999999999996
4.529946671403969 52.4102
4.552263106909177 53.5774
4.574597122877047 54.001000000000005
4.596931312711224 54.8906
4.619248269273446 55.7055
4.6415828092605835 57.3297
4.663900117405352 58.086000000000006
4.686235010953232 59.9594
4.708552674085913 61.2296
4.730887924602802 62.7868
4.753223354952695 64.5872
4.775541557023902 66.507
4.797877349456786 68.1411
4.820195915032126 69.9237
4.842532072957498 71.6308
4.864868414979744 74.1953
4.88718753227192 76.7943
4.909524244902505 78.9838
4.931843734218147 81.4892
4.954180820867835 84.2537
4.976518095879839 88.1748
4.998838149695359 91.8788
5.021175803844231 96.286
5.043496238205739 100.87200000000001
5.065834274903528 107.264
5.088172504230693 114.544
5.1104935158799565 124.07
5.132832132875765 141.172
5.155153533596801 169.676
5.1774925416746225 286.189
5.199814334878411 884.092
5.2221537374521505 2187.69
5.244493338631803 3964.06
5.266815727034316 6705.9
5.289155727832427 10744.3
5.311478517248165 9394.28
5.333818921080011 4171.07
5.356159527788849 1006.27
5.3784829252032536 277.995
5.400823940070432 182.778
5.423147747031976 153.639
5.445489173474152 137.496
5.467830807066149 129.495
5.490155234831516 123.78299999999999
5.512497285125229 118.055
5.534822130975162 115.046
5.557164601388673 112.456
5.579489868738879 108.82700000000001
5.601832762690846 106.48100000000001
5.6241758697774475 104.977
5.646501775867269 104.454
5.668845311622074 103.883
5.691171647754637 102.686
5.713515615597765 101.639
5.735859800852677 101.37100000000001
5.758186788542988 100.51799999999999
5.780531411018185 101.619
5.802858837297399 101.381
5.825203900414495 102.10799999999999
5.8475491852224 103.882
5.869877275883075 104.553
5.892223006467101 106.814
5.914551544266608 110.031
5.936897724049891 117.70700000000001
5.959244129804903 133.282
5.981573344815301 197.785
6.0039202049061 447.173
6.026249875609095 892.904
6.04859719346037 1416.44
6.070927323278297 2209.9
6.093275102315365 3657.85
6.115623113320588 4683.47
6.137953938319995 3703.5
6.160302415650845 1446.51
6.182633708324452 368.923
6.2049826554078376 148.205
6.227331838745022 109.60799999999999
6.249663839443684 96.405
6.27201349767565 88.7829
6.294345974611799 84.3575
6.316696111167083 80.7205
6.339046488263839 78.6846
6.361379686074702 75.8603
6.383730546639482 74.4583
6.406064229255215 73.1516
6.428415576718203 72.4976
6.450749747566656 71.1983
6.47310158535871 69.5495
6.495453669698332 68.5057
6.517788579421056 67.6601
6.540141159237969 66.9345
6.562476565766648 65.8802
6.5848296444934045 65.1973
6.607182974060425 64.542
6.6295191323281015 63.9377
6.651872965955752 63.4668
6.6742096296068985 62.4864
6.6965639707294615 62.1117
6.71891856698715 61.4562
6.741255995248479 60.934
6.763611104154477 60.6885
6.785949046381137 60.393
6.808304671371482 60.0871
6.8306605557940046 60.2908
6.852999275508618 59.4771
6.875355681171544 58.9479
6.897694923437771 58.5763
6.92005185377892 58.7777
6.9423916220322655 58.4834
6.964749080490181 57.4479
6.987106804399774 57.3174
7.009447368180821 57.501999999999995
7.031805625367033 57.2226
7.054146723727803 57.0547
7.076505517631004 56.2332
7.098864581288365 56.3031
7.121206488070854 56.4088
7.143566093607822 56.1945
7.165908543567245 56.5311
7.188268694426048 56.5739
7.2106291193438095 56.0502
7.232972390625943 55.8714
7.255333366030969 55.9481
7.277677189091925 55.3033
7.300038718428332 55.8258
7.322400526130865 55.5163
7.344745183422596 55.6352
7.367107550224791 55.6321
7.389452767901992 56.0585
7.411815697249891 56.1428
7.434161478756298 55.4328
7.456524974096713 55.1805
7.478888753837185 55.4405
7.501235387657368 56.1138
7.523599738562711 55.9384
7.545946944825532 56.6629
7.568311870344528 56.7168
7.5906770845765665 56.7059
7.613025156078678 57.1533
7.635390950099687 57.6474
7.657739602662809 57.32899999999999
7.680105979923558 57.2939
7.702472650212829 57.8453
7.724822180948224 57.3979
7.747189439655568 58.0654
7.769539560075357 58.3395
7.791907410653562 58.7238
7.81425812420825 58.808
7.836626570110925 59.3977
7.858995315087906 60.2144
7.881346924933401 60.3586
7.903716270417482 60.788000000000004
7.926068482028405 61.239
7.948438431475253 61.7574
7.9708086843180235 62.266000000000005
7.993161805171116 63.2746
8.015532667162402 63.6124
8.037886398416653 64.5417
8.060257873014221 65.0808
8.082629655331942 66.1976
8.104984308787587 66.5664
8.127356708900503 67.7941
8.149711981398308 68.8007
8.172085002766314 70.0154
8.194458336181368 70.4738
8.216814543847752 71.7299
8.23918850371002 73.0353
8.26154533906492 74.3978
8.283919928836452 76.3433
8.306277395339652 77.4269
8.328652618483376 78.9763
8.351028159736202 81.7173
8.373386579575245 84.4562
8.395762759396959 87.005
8.418121819038275 90.3043
8.440498640894003 96.2467
8.462875785192262 110.51700000000001
8.485235811156207 163.57399999999998
8.507613602688501 290.72
8.529974277114228 450.282
8.552352719347912 583.96
8.574731488360351 755.8439999999999
8.59709314210385 1063.62
8.619472567021075 1538.76
8.64183487789147 1974.73
8.664214962183097 1907.21
8.686577933647762 1208.41
8.708958680784317 522.586
8.731339760774953 217.09400000000002
8.753703729764451 130.791
8.77608547780821 110.439
8.798450116065078 104.176
8.820832535634787 100.13
8.843215292401656 97.5459
8.865580941199045 95.9792
8.887964374703538 94.1964
8.910330701447199 93.3141
8.932714815164482 92.0545
8.955099270424924 90.618
8.977466620733543 89.9124
8.999851761421976 89.3594
9.022219798361645 88.3013
9.04460562795561 88.5252
9.066991803441677 87.9027
9.089360876979615 87.8616
9.111747746589993 87.2411
9.13411751544971 86.62
9.156505082664324 86.6533
9.178875550323522 86.4939
9.20126381862328 86.2356
9.223652438908596 86.3963
9.246023961427412 86.8118
9.26841328802173 87.0137
9.290785518039224 87.044
9.313175554425882 88.2536
9.335565947154315 88.1809
9.357939245086508 88.2611
9.380330352834827 88.3231
9.40270436697103 88.7173
9.425096193225055 88.073
9.447488380180165 88.7972
9.469863475295412 89.1416
9.492256385987508 89.5977
9.514632206018318 90.2938
9.537025843935714 90.5094
9.559402392368193 91.3554
9.581796761000229 93.0268
9.604191496441521 93.59200000000001
9.626569144158516 94.4641
9.648964615551032 95.0898
9.671343000390081 95.62799999999999
9.693739211225699 96.5139
9.716135793237463 97.6737
9.738515290448102 98.8958
9.760912617143402 100.344
9.783292860202891 102.02600000000001
9.805690935076182 103.38
9.828089385495742 104.54299999999999
9.850470754023561 106.619
9.872869957865444 109.19
9.89525208097539 112.51299999999999
9.917652041736662 118.59700000000001
9.940052382417589 136.564
9.962435644102392 200.808
9.984836746950979 303.671
10.007220771957746 416.13800000000003
10.029622640473708 516.715
10.052007432299963 633.5459999999999
10.074410069984072 802.53
10.096813093716005 1071.03
10.119199042482517 1447.65
10.141602840636468 1777.91
10.163989564971628 1693.76
10.186394141051062 1145.2
10.208799107559706 555.401
10.231187001965623 254.815
10.253592751657669 149.361
10.275981430388155 124.185
10.298387966769793 117.51700000000001
10.320794897965431 115.006
10.343184759907361 112.772
10.36559248305461 111.725
10.387983138083852 114.90700000000001
10.410391656691655 131.369
10.432800574501677 159.27100000000002
10.455192425893369 186.877
10.47760214443012 211.437
10.499994797678786 237.581
10.522405320453982 281.465
10.54479877906917 353.32599999999996
10.567210109595656 445.027
10.5896218454736 534.924
10.612016518879773 532.863
10.634429067781074 421.05699999999996
10.656824555333241 251.72
10.679237920773568 152.19899999999998
10.701651695961992 108.314
10.724048411481384 96.2586
10.746463008485165 92.1831
10.768860546937125 90.2847
10.791275969274796 87.9886
10.81369180576079 86.73899999999999
10.836090585366925 85.6424
10.858507252467449 84.2948
10.88090686379991 82.9285
10.903324365036394 82.2226
10.925724811614439 80.5888
10.948143150509463 80.545
10.970561909719066 79.51
10.992963615930844 78.6986
11.015383218085756 77.6097
11.037785768347074 76.4191
11.06020621697282 76.0168
11.082627090322113 75.4056
11.105030913430326 74.7447
11.12745263854165 74.0167
11.149857314510728 73.1213
11.172279894912576 73.207
11.194702904450653 72.2575
11.217108866490921 71.4892
11.239532736615194 71.1166
11.26193956033512 70.6633
11.284364294577085 70.6571
11.306789462371718 70.1143
11.329197585398376 69.8703
11.351623622610898 69.616
11.37403261614354 69.0635
11.396459526308487 68.95100000000001
11.418869393879497 68.6381
11.441297180532617 68.2183
11.463725406927658 67.6301
11.486136592353875 67.283
11.508565700543707 66.9832
11.530977768845315 67.1638
11.553407762368774 66.7953
11.575838200059769 66.7197
11.598251599479612 66.4685
11.620682927815501 66.362
11.64309721895548 66.4035
11.665529441478206 65.9812
11.687962112597958 65.7712
11.710377748130886 65.9098
11.732811318753434 65.4778
11.755227854859067 65.5425
11.777662328529495 65.4817
11.800079768750786 65.4483
11.822515149015453 65.1136
11.844950984084935 65.7597
11.867369787303163 65.1332
11.889806534289491 65.5227
11.912226250487029 66.0612
11.934663912939751 65.9756
11.9571020346363 66.2433
11.979523127133968 66.502
12.001962169624331 68.8532
12.024384183972964 72.4833
12.046824150809913 79.8064
12.069264581333726 87.9379
12.091687985297767 93.945
12.11412934550045 100.11399999999999
12.136553680195208 108.81
12.158995973632788 122.057
12.181438735204349 141.58
12.20386447284199 164.44099999999997
12.226308172985636 193.705
12.24873485024193 210.017
12.271179492516982 184.862
12.293607112949127 146.572
12.316052700916226 104.33
12.338498763250042 79.1566
12.360927805303868 70.0257
12.383374818673879 67.8183
12.405804812803074 67.0962
12.428252780773262 67.1343
12.45070122756722 67.3173
12.473132656675375 67.1909
12.49558206341869 67.471
12.518014453510101 67.3496
12.540464823770117 67.2236
12.562915677315177 67.565
12.58534951575545 67.8692
12.607801338171472 67.9542
12.630236146511358 68.5012
12.652688941369085 68.6649
12.675124723177234 68.7799
12.697578494048786 69.5344
12.720032754458185 69.6492
12.742470003354093 70.1856
12.764925245138771 70.7707
12.787363476431278 71.5412
12.809819703166806 71.8176
12.83227642391173 72.5205
12.854716135692716 73.1398
12.877173846755147 74.335
12.899614549869717 74.8213
12.9220732548287 76.0442
12.94453245827299 76.2814
12.966974655289818 77.5326
12.989434858002571 78.4975
13.011878055298721 79.2881
13.034339260862497 80.7299
13.056800969391883 82.656
13.079245674017244 86.4172
13.101708390774869 93.9801
13.12415410463411 110.89
13.146617833206086 131.153
13.169064559883248 147.35299999999998
13.191529303857127 160.066
13.213994557076367 174.06799999999998
13.236442809902437 196.77599999999998
13.258909083908291 228.75
13.28135835851934 268.931
13.30382565690295 322.32
13.326293469022952 385.791
13.348744283242008 422.416
13.371213125129904 395.849
13.39366497011003 312.573
13.416134845360597 213.074
13.438605238843131 150.56799999999998
13.46105863690397 130.026
13.483530069144786 133.681
13.505984506951902 143.226
13.528456981549432 153.209
13.550929978879088 161.589
13.573385983253365 174.429
13.595860028340867 196.949
13.618317081455832 225.946
13.64079217790333 263.526
13.663250283359057 309.825
13.685726434770173 355.569
13.708203115221277 357.92400000000004
13.730662806148091 310.755
13.75314054697177 229.958
13.775601299246777 157.192
13.798080104050406 111.53200000000001
13.820559442405358 92.8159
13.843021793671388 87.11
13.865502201420897 85.0425
13.887965623051947 84.0846
13.910447103807167 83.2166
13.932929122629764 81.4054
13.955394156785959 80.8215
13.977877254034569 79.9148
14.000343367582113 78.8529
14.022827546871707 78.3384
14.045294743423524 77.7028
14.06778000837062 76.8776
14.090265817715476 76.44800000000001
14.112734645763819 76.0004
14.13522154619454 75.2133
14.157691466286913 75.242
14.180179461423874 75.0698
14.202668005486178 74.7456
14.22513957064374 74.2417
14.247629214846473 73.6858
14.270101881097517 73.7045
14.29259262906496 73.3484
14.315083930490205 73.383
14.337558255389705 73.0741
14.360050666019726 73.0988
14.382526101071944 72.8305
14.405019624534942 72.4448
14.427513705993134 72.1536
14.449990813291825 72.6297
14.47248601302899 72.2043
14.49496423954951 72.4424
14.517460561197822 72.6157
14.539939910570322 72.199
14.562437357763558 72.4987
14.58493536931253 72.7292
14.607416409993311 72.7468
14.62991555254159 73.12100000000001
14.652397725157423 73.2959
14.674898002342799 73.9777
14.697398848433282 74.5167
14.719882725991326 76.6953
14.74238471217934 81.1264
14.764869730765593 89.1048
14.787372860692983 95.3196
14.809876564079925 101.522
14.83236330125751 106.40100000000001
14.854868153850365 111.34100000000001
14.877356041159485 119.512
14.899862046604186 130.66299999999998
14.922351087688757 145.245
14.944858249632887 164.157
14.967365991421232 186.935
14.989856770231246 209.861
15.012365673994204 221.898
15.03485761569738 206.59099999999998
15.05736768508665 171.07
15.07987833888692 131.761
15.102372032001655 101.507
15.124883856909658 83.3194
15.14737872204565 76.765
15.169891721717274 74.4782
15.192405310371893 74.0006
15.214901940621196 72.8849
15.237416709527137 72.358
15.259914520936249 72.0793
15.282430473753607 71.4538
15.304947020131227 70.7563
15.327446610371178 70.2655
15.349964346154254 70.0992
15.372465126703139 69.9092
15.394984055556009 69.7372
15.417486030076159 69.7391
15.44000615566487 69.3001
15.462526881230803 69.2193
15.485030653812652 69.2888
15.507552581617434 69.1661
15.530057557334603 69.3552
15.55258069104857 69.2804
15.575104429329837 69.7749
15.597611216864632 69.7826
15.620136166564563 71.0838
15.6426441664095 74.9878
15.665170331202765 80.8683
15.687697105158826 86.117
15.710206930593545 91.2856
15.732734925158933 94.3453
15.755245972089478 98.1049
15.77777519094324 103.15700000000001
15.800287463046663 111.064
15.822817909869592 122.147
15.84534897229804 135.57399999999998
15.867863089299354 152.855
15.890395385222186 172.429
15.912910736597423 189.43
15.935444269699861 193.021
15.957978423016485 175.47099999999998
15.980495633101265 144.529
16.003031029129367 111.512
16.02554948280019 86.05799999999999
16.048086125229432 72.9809
16.070623392487107 67.8263
16.09314371869582 65.965
16.11568223789321 64.6567
16.13820381691126 63.8435
16.160743591742527 63.6459
16.183283996022084 63.1924
16.205807461423195 62.1881
16.228349126881973 61.7019
16.25087385432698 61.6825
16.27341678466365 61.045
16.29594277784926 60.5264
16.31848697676433 60.1603
16.341031811604868 59.6992
16.36355971058487 59.6069
16.3861058195587 59.4025
16.40863499352978 58.7568
16.431182380342005 58.5141
16.453730407713202 58.3537
16.476261501364792 58.1588
16.498810812136167 58.0477
16.52134319004079 58.052
16.54389378792203 57.846000000000004
16.566445031001553 57.6296
16.588979342490088 57.5755
16.61153187824822 57.5572
16.634067483263312 57.537
16.656621315414416 57.2808
16.679175797408888 56.7196
16.701713349928728 57.0959
16.72426913389191 57.184
16.74680798922351 57.1106
16.76936507887444 57.0243
16.791905240734874 57.0478
16.814463639794468 56.9334
16.837022695210294 57.157
16.859564824093756 57.4377
16.882125194503903 57.4577
16.904668639217885 57.5163
16.927230328348003 57.2888
16.949792678493612 57.7541
16.972338104193863 57.751000000000005
16.994901778652235 57.9718
17.017448529496576 58.5512
17.040013531998152 59.3487
17.06257920018044 60.3386
17.0851279459922 61.7066
17.107694947817667 63.146
17.130245028099072 63.6376
17.15281336730298 64.5777
17.17536478578733 65.6884
17.19793446610687 66.9917
17.220504818648422 68.9376
17.243058251703697 70.9289
17.265629950971032 73.7599
17.288184731571736 77.368
17.310757781306908 82.15799999999999
17.33333150794385 85.3157
17.355888317140174 86.1559
17.37846339986244 82.8869
17.401021565958885 77.1897
17.42359800851343 70.7737
17.44617513265564 66.9341
17.468735341390783 64.1889
17.491261035594565 62.3513
17.51396340099364 61.7928
17.536490463869136 62.2063
17.559018209820174 62.0608
17.58154663977963 62.0883
17.604251766089718 62.5033
17.626781572227713 62.6562
17.64931206518155 62.6916
17.671843245885103 63.2216
17.69455114821572 63.0679
17.717083712612634 63.6196
17.739616967569667 63.9839
17.762150914021706 64.7622
17.78486160749854 65.0717
17.807396945166804 66.4526
17.829932977143503 68.8304
17.85246970436452 72.39399999999999
17.875183204129467 75.3679
17.897721330097664 78.0386
17.920260154126645 80.2912
17.942799677153296 82.594
17.9655159983646 84.8651
17.988056927677544 88.2636
18.010598558807683 93.2697
18.033140892692916 99.1745
18.05586005052525 106.191
18.07840379824407 115.413
18.10094825154059 127.455
18.12366954819864 138.876
18.146215420998306 146.852
18.16876200220057 145.054
18.191309292745153 134.22899999999998
18.214033452627167 118.575
18.236582170236648 103.48899999999999
18.259131600016456 93.7216
18.281681742907335 89.7753
18.304408781233683 90.1047
18.32696035875955 92.7996
18.349512652227624 97.1539
18.372065662579683 102.76100000000001
18.394795594587553 106.65700000000001
18.41735004715306 106.573
18.43990521943684 102.199
18.46246111238171 93.99700000000001
18.485193953325208 83.6048
18.507751296070428 75.2265
18.530309362314178 70.365
18.552868153000343 67.0799
18.57560391815056 65.4852
18.59816416623245 64.9958
18.620725141597372 64.4104
18.643286845190268 63.876000000000005
18.666025549835414 63.3295
18.688588718427933 62.6528
18.711152618092243 62.4419
18.73389353884365 62.2137
18.75645890921984 61.9181
18.77902501351406 61.5222
18.801591852673102 61.415
18.824335739722738 61.0706
18.846904057212626 61.0025
18.8694731124168 60.7253
18.89204290628315 60.5668
18.914789774966803 60.5077
18.937361054791623 60.1814
18.959933076131318 59.8367
18.982505839934877 59.8061
19.00525570560582 59.8624
19.027829963004184 59.6879
19.05040496572238 59.8972
19.072980714710468 60.3663
19.095733592739563 60.8691
19.11831084296757 61.2164
19.140888842324735 61.6743
19.16346759176222 62.053000000000004
19.18622349753803 62.3619
19.208803755869358 62.9523
19.231384767143577 63.6077
19.253966532312948 64.5955
19.276725481241822 65.8699
19.29930876296784 67.2978
19.3218928014549 69.1643
19.34465404436217 71.393
19.36723960516257 74.0501
19.389825925592426 76.2959
19.412413006605938 77.434
19.43517731967805 75.9223
19.457765930683355 72.7539
19.48035530514408 68.3908
19.50294544401556 63.8665
19.525712842708348 60.4252
19.54830451925909 58.4135
19.570896963095727 56.9401
19.593490175174704 56.6205
19.616260674962184 56.5289
19.638855432416964 56.0235
19.661450960992624 56.4868
19.68404726164677 56.2854
19.706820878021247 56.0088
19.729418731756834 56.0992
19.752017360452857 55.927
19.77461676506804 56.4717
19.797393513540218 56.9478
19.819994478951667 57.5052
19.84259622316767 58.1093
19.8651987471481 58.7565
19.887978643247177 58.7867
19.91058273574792 58.9887
19.933187610901943 59.4245
19.955969879466828 60.2202
19.97857632894404 61.1617
20.00118356396599 62.4379
20.023791585494575 64.0979
20.046577028914875 66.3893
20.069186632506966 68.5753
20.091797025500632 70.8015
20.114408208858933 72.6308
20.137196842715273 73.8317
20.159809615886765 73.2473
20.18242318232135 70.6163
20.20503754298326 67.9435
20.227829382875154 65.6762
20.250445341109344 64.2485
20.27306209647285 63.9118
20.29567964993108 64.4894
20.31847471147704 65.5249
20.34109387027612 67.0455
20.363713830075454 67.943
20.386334591841646 67.4229
20.409132890679302 65.2669
20.431755265564437 62.4897
20.454378445325528 59.373999999999995
20.477002430930366 56.7424
20.499803982716553 54.8363
20.522429589228004 53.5791
20.54505600449589 53.1532
20.567683229489194 52.9186
20.590488049900088 52.5685
20.61311690359731 52.489
20.63574656993626 52.3895
20.658553853717297 52.0581
20.681185154618298 51.9002
20.703817271080066 51.7714
20.72645020407368 51.5176
20.749260783967177 51.4327
20.771895359337133 51.393
20.794530754161617 51.2061
20.817166969412938 51.2889
20.83998086114876 51.2412
20.86261872660049 51.1136
20.885257415405402 51.0561
20.90789692853701 51.0228
20.930714147864748 51.0508
20.953355319030678 51.1787
20.97599731745334 51.4289
20.99864014410749 51.1486
21.021460706796564 51.192
21.044105199328826 51.3573
21.06675052302631 51.6158
21.089396678865015 51.5217
21.112220600704806 51.6392
21.134868430275347 51.8076
21.15751709492456 51.9432
21.180166595629693 52.1933
21.202993892429635 52.4467
21.22564507473034 52.8587
21.24829709602816 53.3725
21.27112693608965 53.6235
21.293780644891275 54.1053
21.316435195634053 53.6957
21.339090589297417 52.8929
21.361923832041875 52.4833
21.384580921090404 51.5651
21.407238856007325 50.9364
21.429897637773326 50.9211
21.45273429906592 50.8005
21.475394784108598 50.7765
21.498056118951983 50.6759
21.520718304578022 51.0958
21.543558400304388 51.4527
21.566222297108816 51.9256
21.58888704765135 52.1611
21.61155265291521 52.6782
21.63439619898156 53.2613
21.657063523335786 53.5259
21.67973170537063 53.9732
21.7024007460706 54.2445
21.72524775840385 54.6236
21.747918526116475 55.4179
21.770590155457388 56.4678
21.79326264741238 57.5744
21.816113141960237 58.655
21.838787368860547 60.2201
21.861462461341976 61.7195
21.884315579735777 63.4972
21.90699241312273 65.1504
21.92967011506078 66.6346
21.95234868653799 67.5355
21.9752053151131 66.9098
21.997885635446785 65.2902
22.020566828293532 63.1964
22.04324889464272 60.7006
22.066109049404666 58.7455
22.088792872571794 57.7989
22.111477572219204 57.5753
22.1341631493376 58.2052
22.157026846313123 58.4522
22.179714188221507 58.4054
22.202402410582668 57.5559
22.22509151438863 56.0828
22.24795876962584 54.5774
22.270649646204486 53.3182
22.293341407213727 52.5706
22.316034053646906 51.7696
22.338904883215342 51.3531
22.36159931041458 51.2006
22.38429462602756 51.095
22.40699083104897 50.9193
22.429865251039757 50.854
22.452563244831367 50.9233
22.47526213102522 50.8104
22.49813925616515 50.8285
22.520839937143307 50.8891
22.543541513520587 50.9745
22.56624398629403 50.7592
22.589124730075895 50.8371
22.611829005656723 51.2415
22.63453418063466 51.615
22.657240256008077 51.8974
22.680124634582935 52.1978
22.70283252079775 52.4209
22.725541310413075 52.8529
22.74825100442868 53.0083
22.771139033969575 53.1066
22.79385054687155 53.0678
22.81656296718292 53.5256
22.83927629590484 54.2518
22.862167992606945 54.788000000000004
22.88488314827121 55.4433
22.907599215359284 56.2242
22.93031619487366 57.2466
22.953211574954405 57.9793
22.975930389478226 59.1509
22.998650119445763 59.9759
23.02137076586092 59.9865
23.044269845560063 59.2459
23.06699233506288 58.0654
23.089715744034912 56.2877
23.112617610931565 54.4274
23.135342869061212 53.0083
23.158069049684816 52.1118
23.1807961538087 51.544
23.20370174880544 51.3772
23.226430710184808 51.5072
23.249160598093425 51.9144
23.271891413539002 52.0279
23.294800752937697 52.0775
23.31753343374794 52.3239
23.340267045128353 52.1122
23.36300158808808 52.534
23.38591468821339 52.512
23.408651104658304 52.6368
23.431388455719986 53.2476
23.454126742409 53.6646
23.4770436196085 54.0661
23.499783787914662 55.0481
23.522524894889884 55.5127
23.54526694154616 56.5176
23.56818761219047 57.7465
23.59093154860734 58.4909
23.613676427751283 59.651
23.636422250635754 59.653
23.659346731118656 58.8424
23.68209445191868 57.3592
23.704843119509587 55.0578
23.72759273490623 52.9162
23.750521041644767 51.3263
23.77327256312355 49.8895
23.796025035462787 49.0322
23.818956224555475 48.4413
23.841710609113413 48.2904
23.86446594758979 47.9361
23.887222241002014 47.7209
23.910157285144578 47.4385
23.932915498962537 47.4315
23.955674670778713 47.2924
23.978434801611975 47.0934
24.001373717286125 46.896
24.024135776723917 46.7295
24.046898798245582 46.4906
24.06966278287146 46.56399999999999
24.092605586582614 46.3685
24.115371508023642 46.18
24.1381383956401 46.1202
24.16090625045381 46.0475
24.183852958731244 45.973
24.206622758582608 45.8067
24.229393528706886 45.6289
24.252165270127392 45.6729
24.27511589952438 45.7177
24.297889594216997 45.4231
24.32066426328598 45.3287
24.34343990775613 45.2857
24.36639447485003 45.1202
24.38917208083877 45.1367
24.41195066531332 45.0658
24.43490819850244 45.083
24.457688750692377 44.9184
24.48047028445616 44.7502
24.503252800821233 44.9139
24.526214300784112 44.9456
24.548998793132213 44.9813
24.57178427117417 45.0123
24.59457073593893 44.9148
24.617536219319863 44.8976
24.64032466834748 44.8839
24.663114107195035 44.7859
24.685904536893013 44.5654
24.708874020360852 44.3902
24.731666442613744 44.4322
24.754459858818787 44.3534
24.777254270007962 44.3057
24.80022777025625 44.4374
24.82302418230472 44.2971
24.845821592443674 44.3058
24.86862000170663 44.3968
24.891597535453727 44.4661
24.914397953892728 44.5536
24.93719937456671 44.3716
24.96000179851076 44.4699
24.98298338249997 44.6375
25.00578782394922 44.9552
25.028593271784167 45.052
25.05157790644186 45.32
25.07438537804115 45.3302
25.097193859145293 45.3904
25.120003350792075 45.5149
25.142992065061257 45.8853
25.165803588823465 46.1917
25.18861612625217 46.4693
25.211429678386736 46.5628
25.234422489079968 46.6399
25.257238081693636 46.5713
25.280054692141732 46.4175
25.3028723214652 46.4958
25.325869245420463 46.5147
25.348688923599397 46.6205
25.371509623787006 46.7846
25.394331347025812 46.681999999999995
25.41733240110666 46.5157
25.440156181590016 45.9541
25.46298098826268 45.405
25.48580682216873 44.714
25.50881202326435 44.1541
25.53163992281684 43.5943
25.55446885274561 43.3496
25.577298814096377 42.8934
25.600308179121807 42.7461
25.623140214533745 42.7743
25.64597328451537 42.6359
25.66898578564376 42.4787
25.691820936010206 42.5439
25.714657124097695 42.5557
25.737494350954734 42.4845
25.760511045684957 42.3587
25.783350361364224 42.4717
25.806190718969255 42.5283
25.82903211955018 42.5779
25.852053024868923 42.5367
25.874896522722523 42.632
25.897741066713106 42.437
25.920586657892454 42.5272
25.943611790812668 42.7051
25.966459487728237 42.7571
25.989308234998564 42.7652
26.01215803367705 42.9492
26.03518741123814 43.0283
26.05803932412957 43.1641
26.080892291600094 43.2626
26.10374631470478 43.4039
26.12677995397268 43.6615
26.14963609978026 43.715
26.172493304397875 43.4981
26.19535156888223 43.3173
26.218389486949604 43.0298
26.241249882640123 42.7596
26.26411134137826 42.6134
26.28715248187403 42.3692
26.31001607820869 42.1166
26.3328807407756 42.0956
26.35574647063438 42.2213
26.37879191991473 42.1271
26.401659795896734 42.1398
26.424528742360263 42.3563
26.447398760366614 42.4008
26.470448535598294 42.3408
26.49332070826805 42.5641
26.516193955675355 42.6344
26.53906827888316 42.8139
26.562122397260108 43.0041
26.584998883685063 43.2243
26.607876449110325 43.5466
26.63075509460056 43.6109
26.65381357334404 43.9139
26.67669439061878 44.0348
26.699576291163382 44.0019
26.722459276044212 43.9677
26.745522132402975 43.6647
26.768407297649354 43.3003
26.791293550442003 42.9508
26.814180891848974 42.7555
26.837248143099337 42.3131
26.860137673466657 42.2582
26.88302829566349 42.0912
26.90592001075963 41.8517
26.92899167420566 41.8241
26.951885586870763 41.4543
26.974780595655517 41.3122
26.99785558178161 41.1091
27.020752794605112 40.9245
27.043651106772522 40.7039
27.06655051935668 40.6488
27.089629948036183 40.6682
27.112531573292053 40.6334
27.135434302194138 40.464
27.158338135817015 40.5198
27.181422024430987 40.4937
27.204328079372566 40.3637
27.22723524226965 40.411
27.250143514198573 40.5077
27.273231880156334 40.4259
27.296142382065014 40.2463
27.319053996245536 40.1349
27.341966723775965 40.2129
27.365059584515222 40.1731
27.38797455070062 40.1798
27.410890633481237 40.1299
27.433807833936918 40.2346
27.456905206923906 40.2719
27.47982465472398 40.2263
27.502745223449743 40.2794
27.525666914182825 40.4288
27.548768816912457 40.4103
27.571692763693633 40.3902
27.59461783573812 40.3564
27.617723149491244 40.1649
27.640650484125285 40.1426
27.66357894728264 40.1438
27.686508540048052 39.9991
27.709618414237887 39.8294
27.732550278321757 39.7119
27.755483275279115 39.6719
27.778417406196485 39.6712
27.801531858397514 39.6684
27.824468269376716 39.6721
27.847405817586786 39.5413
27.870344504116094 39.7095
27.893463551932008 39.7801
27.916404527281053 39.8899
27.93934664422563 40.0361
27.962289903855886 40.0723
27.98541356491974 40.2079
28.00835912214229 40.3343
28.03130582533231 40.5246
28.054253675581805 40.6863
28.077381967556104 40.6887
28.100332124185126 40.7245
28.123283431160893 40.6922
28.146235889577238 40.5248
28.169368830154156 40.4248
28.192323603752033 40.2623
28.215279532083304 39.9095
28.238415973016764 39.6343
28.261374223145094 39.6059
28.284333631303806 39.5103
28.307294198589954 39.4528
28.330435319167677 39.0316
28.353398217078915 38.744
28.376362277420153 38.5717
28.39932750129032 38.4156
28.422473319286713 38.096
28.44544088262495 38.0115
28.468409612800283 37.9389
28.491379510913497 37.6104
28.51453004413313 37.646
28.53750229057244 37.5156
28.56047570826344 37.510999999999996
28.583450298308804 37.5393
28.606605564586562 37.2493
28.629582511831156 37.3419
28.65256063474956 37.2292
28.675539934446338 37.3989
28.698699951647605 37.1105
28.72168161743193 36.9985
28.74466446331978 36.9969
28.767648490417624 37.068000000000005
28.790813276438353 36.9019
28.813799678527303 37.0153
28.836787265157085 37.0178
28.859955641890075 36.9452
28.882945610203045 36.955999999999996
28.905936766392035 36.8406
28.928929111566863 36.945
28.952102288520145 36.9508
28.975097024308607 36.7932
28.998092952423807 36.6717
29.021090073977508 36.4746
29.04426806913204 36.4633
29.067267590245258 36.29
29.090268308143695 36.1601
29.11327022394099 36.0891
29.13645305530891 35.9242
29.159457379627167 35.9798
29.18246290519685 35.9243
29.20546963313352 35.8325
29.22865731875826 35.8841
29.25166646419296 35.9261
29.27467681535305 35.7474
29.29768837335608 35.7159
29.320880931312562 35.6948
29.34389491580634 35.6501
29.366910110507334 35.5744
29.38992651653503 35.5304
29.41312396492981 35.7658
29.436142806456754 35.6994
29.45916286268059 35.5846
29.48236399319994 35.5291
29.50538649169417 35.3727
29.528410208259935 35.3137
29.55143514402014 35.1806
29.574641196749695 34.9489
29.597668583816574 34.8459
29.6206971934585 34.6922
29.64372702680042 34.736999999999995
29.666938019934474 34.5825
29.689970313635285 34.5238
29.713003834422636 34.4352
29.73603858342347 34.4318
29.759254535188578 34.2595
29.78229175361658 34.3797
29.80533020365064 34.4123
29.82836988641968 34.341
29.85159081507472 34.3018
29.874632976355343 34.3301
29.89767637376955 34.3531
29.920721008448314 34.1476
29.9439469322847 34.1905
29.96699405457564 34.0398
29.9900424175358 34.126
30.013092022298157 33.9607
30.03632295963995 33.9127
30.059375061131373 34.0381
30.08242840783577 34.0633
30.105483000888153 33.9833
30.128718970092244 33.9365
30.151776069006917 33.9082
30.17483441768648 33.9299
30.198074175317235 33.914
30.221135036724256 33.7772
30.24419715131772 33.7493
30.267260520236203 33.8072
30.290505341942243 33.8002
30.313571232750228 33.7887
30.336638381310948 33.8188
30.35970678876503 33.8028
30.38295669299435 33.7348
30.40602763151657 33.7358
30.429099832366074 33.6127
30.452173296685572 33.5242
30.47542830191959 33.5046
30.498504306502497 33.4881
30.521581577995562 33.5441
30.544660117543582 33.6405
30.56792024229725 33.6288
30.59100133132069 33.4954
30.614083691845494 33.5035
30.637167325018545 33.5378
30.660432587840603 33.5399
30.683518779717886 33.6021
30.70660624769615 33.593
30.729694992924372 33.6615
30.75296541239743 33.6842
30.77605672557558 33.6964
30.799149319462742 33.621
30.8224236211637 33.4229
30.845518789950724 33.5143
30.868615242910597 33.4601
30.891712981195973 33.2014
30.91499247215866 33.1398
30.938092794619365 33.1002
30.96119440587579 33.010999999999996
30.984297307082752 32.8496
31.00758200598383 32.8219
31.030687500658694 32.6516
31.053794288760695 32.614000000000004
31.076902371446767 32.5877
31.100192296997445 32.5998
31.12330298246119 32.4789
31.14641496599209 32.3342
31.169528248749216 32.3825
31.19282341969534 32.3618
31.215939314557186 32.4327
31.239056512134788 32.4487
31.262175013589378 32.42
31.28547544871168 32.323
31.30859657161541 32.1716
31.331719001892175 32.1654
31.35484274070538 32.2395
31.378148458819545 32.2877
31.401274828443725 32.2606
31.424402510106933 32.3112
31.447712205419993 32.3265
31.470842524931633 32.085
31.493974159989783 32.1732
31.51710711176168 32.1761
31.54042212308802 32.1511
31.563557722100917 32.2304
31.586694641341655 32.084
31.609832881979628 31.9752
31.63315322823208 31.9498
31.656294125521327 31.8006
31.679436347728515 31.7143
31.70257989602529 31.7116
31.725905596152327 31.61
31.74905181052835 31.5943
31.772199354521323 31.5392
31.79534822930507 31.480999999999998
31.818679302290967 31.5221
31.84183085259981 31.4652
31.864983737233473 31.4602
31.88813795736804 31.4264
31.911474422233013 31.3496
31.934631327356435 31.526
31.9577895715215 31.4277
31.980949155906522 31.4072
32.004291031706956 31.3317
32.027453310562606 31.2293
32.05061693318573 31.1741
32.07396288236386 31.1687
32.09712920658542 31.0867
32.12029687812702 30.9905
32.14346589817093 30.971999999999998
32.166817291729984 30.8809
32.18998902288583 30.7708
32.21316210610336 30.74
32.23633654256711 30.5783
32.259693399663725 30.5833
32.282870556771144 30.5522
32.30604907069099 30.551
32.329228942610065 30.4502
32.35259128243769 30.3657
32.375773884550505 30.2722
32.398957848235646 30.2379
32.422143174682176 30.2405
32.445511016471215 30.0789
32.468699082679954 30.0566
32.49188851523011 29.9349
32.51507931531304 29.9724
32.538452678331 29.9919
32.56164622776311 29.8585
32.58484114831493 29.7433
32.60803744118015 29.8954
32.631416344731896 29.8669
32.654615396551876 29.8558
32.67781582427913 29.863000000000003
32.701198898634416 29.7285
32.72440209253756 29.6896
32.747606665947124 29.5454
32.77081262006088 29.4297
32.79420126883317 29.5207
32.81740999876112 29.4562
32.840620112999424 29.3008
32.86383161274818 29.326
32.88722585534586 29.3667
32.91044014056596 29.3705
32.933655814909734 29.1932
32.95687287957963 29.335
32.98027273544904 29.2214
33.00349259526636 29.2366
33.026713849030116 29.1906
33.04993649794511 29.0818
33.073341986570746 29.0945
33.09656744032826 29.0415
33.11979429286444 29.0284
33.14302254538647 29.0759
33.166433686291185 29.0435
33.18966475336992 29.0289
33.212897224069096 28.9038
33.23613109959831 28.8986
33.259547912343415 28.9052
33.2827846121627 28.8645
33.306022720453775 28.674
33.32926223842861 28.6091
33.352684742614166 28.6867
33.37592709463173 28.6032
33.399170859982064 28.5653
33.422597648419426 28.4993
33.44584425514446 28.3819
33.46909227885668 28.3959
33.4923417207723 28.2792
33.51577423505344 28.2954
33.539026528130385 28.1465
33.56228024307245 28.1721
33.585535381098246 28.0144
33.60897364093058 27.9975
33.63223163992385 28.0066
33.6554910656699 27.8833
33.678751919389796 27.8545
33.702195944520106 27.7794
33.72545966903325 27.8501
33.74872482519663 27.6958
33.771991414233746 27.8009
33.79544122444841 27.6833
33.81871069412428 27.6664
33.84198160035767 27.5518
33.86525394437455 27.6097
33.88870955949969 27.5591
33.911984794020626 27.5391
33.93526147001624 27.5232
33.958539588715006 27.4408
33.98200102861669 27.3163
34.0052820477047 27.2654
34.02856451319451 27.2503
34.05203033759056 27.2141
34.07531571090147 27.1906
34.09860253431845 27.0943
34.121890809074316 27.0318
34.145362493118924 27.0709
34.16865368561615 26.9643
34.191946333164054 26.9904
34.21524043699793 26.9578
34.23871800066799 26.9031
34.26201503218366 26.8
34.28531352370466 26.783
34.30861347646881 26.6952
34.33209693978188 26.6449
34.3553998301885 26.6223
34.378704185565205 26.6656
34.402010007152356 26.6474
34.42549939016683 26.671999999999997
34.44880815937748 26.5127
34.472118398533134 26.4496
34.49543010887669 26.4698
34.51892543169198 26.3078
34.54224009966052 26.2743
34.56555624255917 26.3304
34.58887386163339 26.1779
34.61237514439016 26.1353
34.6356957311114 26.1222
34.65901779775809 26.0835
34.68252356662995 26.1627
34.705848608458616 26.124000000000002
34.72917513396849 26.0034
34.75250314440949 25.9399
34.77601490857862 25.8943
34.799345904259795 25.8323
34.82267838863559 25.8458
34.846012362958525 25.8073
34.869530142679984 25.7457
34.89286711232212 25.6798
34.91620557568269 25.6753
34.93954553401677 25.6609
34.9630693495876 25.5471
34.986412313340814 25.6072
35.00975677584668 25.5748
35.033102738362956 25.4809
35.05663261012228 25.4864
35.0799815881786 25.485
35.10333207003229 25.4247
35.12668405694369 25.4022
35.150220005273056 25.4323
35.17357501786656 25.3753
35.19693153931268 25.2838
35.220289570874385 25.2958
35.24383161619786 25.2581
35.267192683604904 25.2514
35.290555264930376 25.156
35.314101899412165 25.1207
35.33746752422433 25.0907
35.36083466676374 25.1667
35.38420332829803 25.0364
35.407756095629054 25.0961
35.43112781085063 25.0176
35.45450104888391 24.9654
35.477875810999194 25.0269
35.50143473172161 24.9306
35.52481255774625 24.8978
35.54819191167777 24.896
35.57157279478914 24.8478
35.595137889488406 24.8742
35.61852184675279 24.7882
35.641907337029984 24.7259
35.665294361595684 24.6697
35.68886565090076 24.601999999999997
35.7122557598848 24.6105
35.73564740699838 24.5654
35.759040593519934 24.5576
35.78261809810353 24.588
35.80601437933051 24.4861
35.829412203814705 24.3946
35.85281157283719 24.2852
35.876395313415884 24.3187
35.8997977874528 24.2604
35.92320180988546 24.2437
35.946790244133936 24.1495
35.97019737933222 24.166
35.993606066789866 24.1227
36.01701630779276 24.1127
36.04061101440684 24.0091
36.06402437852291 24.0376
36.08743930005611 24.0996
36.1108557802951 23.9852
36.13445678011326 23.9597
36.15787639383515 23.9094
36.18129757014299 23.8592
36.20472031032821 23.8301
36.22832762423364 23.7465
36.25175350829375 23.7603
36.275180960119776 23.7521
36.298609981005924 23.6576
36.32222362992669 23.6162
36.34565580510207 23.6677
36.36908955323448 23.6431
36.39252487562093 23.5141
36.416144880530226 23.458000000000002
36.43958336764275 23.453000000000003
36.463023432914625 23.4585
36.486465077645676 23.3126
36.51009145956204 23.4699
36.53353627947859 23.3657
36.55698268276811 23.4126
36.58043067073321 23.305999999999997
36.60406345072071 23.1958
36.62751462435344 23.2097
36.65096738658405 23.1945
36.67460498210655 23.1643
36.69806093788647 23.1577
36.72151848619297 23.1315
36.744977628333636 23.0456
36.76862165890998 22.9021
36.79208400512205 22.934
36.81554794910557 23.0433
36.83901349217101 22.9094
36.862663978991606 22.7726
36.88613273667352 22.8175
36.90960309738324 22.7524
36.933075062434064 22.7479
36.95673202673572 22.6798
36.98020721697122 22.6998
37.003684015502365 22.6384
37.027162423645365 22.5434
37.050825886711465 22.546
37.07430753063053 22.5371
37.09779078812467 22.4956
37.121275660513014 22.4944
37.144945643673694 22.344
37.16843376245278 22.3469
37.19192350009803 22.4093
37.215414857931435 22.348000000000003
37.239091382563885 22.2478
37.262585997426164 22.2077
37.28608223645736 22.2334
37.309763684451696 22.1701
37.33326318851098 22.1428
37.356764320726555 22.1616
37.380267082425526 22.0599
37.40395510942588 22.0432
37.42746114683234 22.0126
37.45096881771841 21.8933
37.474478123414166 21.949
37.49817275092816 21.8464
37.52168534303452 21.9238
37.54519957395567 21.8036
37.568715445024665 21.839000000000002
37.592416694607714 21.7982
37.61593586281424 21.7891
37.63945667518264 21.7823
37.66297913304891 21.6585
37.68668702630454 21.6451
37.710212792059274 21.566999999999997
37.733740207334854 21.6116
37.757269273470364 21.4886
37.780983832050374 21.4874
37.80451621684926 21.4637
37.82805025654007 21.4972
37.851585952464795 21.4581
37.8753071980695 21.3567
37.89884622345676 21.2508
37.92238690911902 21.2424
37.94611318753442 21.1712
37.969657210779765 21.2259
37.99320289834801 21.1586
38.016750251586465 21.1278
38.04048325513017 21.0829
38.06403395679343 21.0435
38.087586328183946 20.9642
38.11114037065203 21.0374
38.13488012115898 21.0117
38.1584375229181 20.8833
38.181996599821 20.8279
38.205557353221124 20.901
38.229303872575656 20.8375
38.2528679961576 20.79
38.27643380031219 20.8239
38.30000128639589 20.7015
38.32375459653193 20.6809
38.34732546371299 20.7293
38.37089801690786 20.5662
38.39447225747609 20.5781
38.418232380377425 20.563000000000002
38.441810012983396 20.5132
38.46538933705673 20.4949
38.488970353960084 20.5104
38.51273731166058 20.4095
38.536321731567014 20.3533
38.55990784840681 20.3776
38.58367995004091 20.3302
38.60726947812959 20.2238
38.63086070726198 20.2782
38.654453638806274 20.3041
38.678232613930824 20.2266
38.70182896773327 20.1577
38.72542702806741 20.1413
38.7490267963045 20.0697
38.77281266709232 20.0544
38.79641586862214 20.0653
38.8200207821842 19.9887
38.843627409152944 19.9674
38.86742019782782 19.9389
38.891030269149255 19.9114
38.914642058016156 19.8393
38.938255565806124 19.8948
38.96205529464307 19.8193
38.98567225787121 19.8095
39.00929094417078 19.7861
39.03291135492255 19.8428
39.05671804624804 19.7391
39.080341923549106 19.6464
39.103967529460334 19.5942
39.127594865365744 19.6003
39.15140854155791 19.5224
39.17503935514948 19.5373
39.19867190290282 19.5545
39.22249083587951 19.5491
39.24612686969409 19.4728
39.269764641845306 19.4278
39.293404153722804 19.3642
39.317230110864074 19.3442
39.34087311998506 19.2865
39.36451787301696 19.3402
39.388164371352595 19.2538
39.41199737518003 19.1837
39.43564738196752 19.1769
39.45929913825317 19.1686
39.48295264543308 19.1199
39.506792718520884 19.0587
39.530449745387216 19.1127
39.55410852735203 19.0495
39.57776906581474 19.0651
39.60161623079 18.9712
39.625280300200025 18.9456
39.64894613032202 18.8775
39.67261372255866 18.8774
39.6964680021016 18.8752
39.72013913657293 18.8726
39.74381203738292 18.8133
39.76748670593756 18.7955
39.79134812278169 18.7556
39.81502634488497 18.7278
39.83870633896685 18.6858
39.862388106436654 18.6863
39.88625668336918 18.5951
39.90994201572829 18.6007
39.933629125719285 18.581
39.957503091207826 18.5374
39.9811937746168 18.5785
40.00488623990914 18.4932
40.02858048850006 18.3951
40.05246165409549 18.4212
40.076159487492085 18.3339
40.099859108448875 18.3961
40.123560518384345 18.3662
40.1474489070226 18.3314
40.171153913178564 18.2527
40.194860712584955 18.2474
40.2185693066637 18.2256
40.242464941335314 18.1768
40.26617714307655 18.2017
40.289891143772046 18.1624
40.3136069448471 18.1251
40.33750984859743 18.1016
40.3612292688043 18.0419
40.3849504936829 17.9769
40.40867352466194 17.9826
40.43258372059144 17.9316
40.45631038219906 17.9032
40.48003885420956 17.8963
40.503769138055105 17.8455
40.52768664931955 17.8722
40.55142057531802 17.8884
40.57515631746428 17.8089
40.599079334038514 17.8033
40.62281872700477 17.793
40.64655994043941 17.7386
40.67030297578061 17.6754
40.69423334835778 17.6666
40.71798004609188 17.6234
40.74172857006355 17.5428
40.76547892171441 17.5953
40.7894166736039 17.5241
40.813170699248566 17.5489
40.83692655691388 17.5234
40.86068424804498 17.4669
40.884629402612525 17.426
40.908390779366385 17.4344
40.932153993938 17.4035
40.95591904777605 17.3441
40.979871628443995 17.3641
41.003640379561936 17.3551
41.02741097430883 17.2404
41.05118341413683 17.2503
41.075143444384416 17.1747
41.098919593177826 17.1835
41.1226975914255 17.1044
41.14647744058318 17.1408
41.170444943946755 17.0851
41.19422851378379 17.0966
41.218013938914645 17.0196
41.24198706625173 17.0207
41.26577622087193 17.0301
41.289567235177785 16.916
41.31336011063129 16.8963
41.337340752422875 16.8967
41.361137369129835 16.8439
41.38493585138705 16.8463
41.40873620066004 16.8086
41.43272438060107 16.7519
41.45652848292052 16.7333
41.48033445666918 16.7151
41.50414230331616 16.6948
41.528138045159764 16.7169
41.551949656675205 16.6376
41.575763145513235 16.6384
41.59957851314666 16.6149
41.62358184070442 16.5172
41.64740098505737 16.4965
41.6712220126409 16.4735
41.69504492493139 16.404
41.71905586207357 16.435
41.74288256296395 16.4343
41.766711153007456 16.4163
41.79054163368412 16.403
41.814560204340054 16.3593
41.838394485526365 16.3376
41.86223066180303 16.2847
41.88625497706819 16.29
41.910094962812 16.2376
41.93393684811168 16.2367
41.95778063445365 16.0831
41.981812625263366 16.0631
42.00566023303407 16.1158
42.029509746323676 16.0747
42.05336116662236 16.0954
42.077400857069705 16.0861
42.10125611078846 16.0299
42.12511327600405 15.9814
42.14897235421036 15.9227
42.173019768448455 15.9384
42.19688269209613 15.9022
42.22074753323349 15.9037
42.24461429335818 15.8629
42.268669455600495 15.8816
42.292540073217886 15.8028
42.31641261433284 15.8163
42.34028708044675 15.7701
42.36435001496739 15.7149
42.38822835065557 15.6754
42.41210861586426 15.6698
42.4359908120986 15.6764
42.46006154323262 15.5425
42.48394762115317 15.5562
42.507835634632315 15.618
42.531912233047436 15.5632
42.55580413732265 15.5196
42.579697981698 15.4659
42.60359376768525 15.4714
42.62767820545945 15.4379
42.65157789440821 15.4079
42.67547952952185 15.4057
42.699383112316 15.3831
42.72347541395347 15.2778
42.74738291190531 15.2854
42.771292362102166 15.2965
42.795203766063516 15.2784
42.819303956130405 15.2248
42.843219287476536 15.2257
42.86713657716324 15.1588
42.89105582671383 15.1193
42.91516392983864 15.1113
42.939087119032166 15.0862
42.963012272677304 15.0776
42.98693939230129 15.0334
43.01105543317513 15.0325
43.034986504731386 14.9731
43.05891954686589 14.9587
43.08285456110972 14.957
43.10697856448665 14.8369
43.130917542983475 14.833
43.15485849820081 14.8275
43.17880143167367 14.8018
43.20293342237094 14.7642
43.226880332449 14.7521
43.25082922540554 14.7694
43.27496722682525 14.7221
43.29892010567796 14.6781
43.32287497204102 14.7362
43.34683182745632 14.6431
43.370977859791836 14.6273
43.39493871351105 14.6584
43.41890156092628 14.6017
43.44286640358341 14.5232
43.46702049182749 14.5113
43.49098934522816 14.4752
43.51496019852649 14.4882
43.5389330532723 14.4392
43.56309522248204 14.3729
43.58707210044314 14.3259
43.61105098451946 14.2818
43.63503187626491 14.3261
43.659202151562134 14.3198
43.68318707902681 14.3036
43.70717401884041 14.2517
43.731162972560874 14.2345
43.75534137913236 14.2245
43.779334381108384 14.2024
43.803329401683186 14.204
43.82732644241872 14.1611
43.8515130055166 14.1174
43.87551410707659 14.0932
43.89951723350145 14.1622
43.923709934595614 14.0566
43.94771713129917 14.0504
43.97172635758096 14.0357
43.99573761501002 13.9825
44.0199385169922 13.9677
44.04395385732619 13.937000000000001
44.067971233533086 13.9137
44.09199064718605 13.9006
44.11619977548961 13.8527
44.14022328470671 13.8289
44.16424883610785 13.7919
44.18827643127035 13.804
44.21249381139513 13.8034
44.236525514814076 13.7663
44.26055926674478 13.7254
44.28459506876863 13.7117
44.3088207262813 13.6471
44.33286064928722 13.6673
44.35690262714919 13.6574
44.38094666145278 13.5789
44.4051806219871 13.5921
44.42922879003185 13.5544
44.45327901929361 13.5271
44.477331311362136 13.5278
44.501573600619416 13.4639
44.525630039221795 13.4053
44.54968854541895 13.4242
44.573937102200176 13.3915
44.5979997645541 13.4046
44.622064499300315 13.353
44.64613130803592 13.2965
44.67038823869318 13.3146
44.69445921643748 13.3028
44.718532272981385 13.2598
44.742607409926194 13.2181
44.76687274034801 13.2343
44.79095205918753 13.1976
44.81503346325094 13.1459
44.839116954143876 13.1478
44.86339071028742 13.116
44.88747839599524 13.0798
44.91156817336837 13.0679
44.93566004401666 12.998
44.959942251908146 13.0327
44.984038330325966 12.9848
45.00813650686762 12.9818
45.03223678314731 12.9388
45.05652746888232 12.9297
45.08063196592069 12.8989
45.104738567558705 12.8866
45.128847275414856 12.8403
45.15314646515866 12.8116
45.17725940679741 12.784
45.20137445952892 12.7674
45.22568004865265 12.7856
45.24979934496396 12.7826
45.27392075725247 12.7694
45.29804428714431 12.6954
45.322358426247604 12.7109
45.346486212804315 12.6796
45.370616121861914 12.6586
45.39474815505086 12.6382
45.41907087049246 12.619000000000002
45.4432071734666 12.5613
45.46734560548283 12.5396
45.49148616817604 12.5497
45.51581748638564 12.4976
45.5399623320197 12.4838
45.56410931325473 12.4429
45.58825843173002 12.4053
45.61259837920865 12.4217
45.636751793816 12.3829
45.66090735060093 12.3652
45.68506505120716 12.3504
45.7094136545275 12.3369
45.73357566449271 12.2564
45.75773982322992 12.288
45.78190613238733 12.2617
45.806263418194064 12.2351
45.83043404997326 12.2287
45.85460683713677 12.204
45.87897065658495 12.1649
45.90314777634752 12.1289
45.92732705646868 12.1586
45.9515084986045 12.1054
45.97588104735473 12.1228
46.00006683541565 12.0742
46.02425479047904 12.0445
46.04844491420549 12.0131
46.0728262191024 12.0067
46.09702070211635 11.9749
46.12121735879483 11.9615
46.14541619080294 11.9387
46.169806278764455 11.968
46.194009483459034 11.905
46.21821486849841 11.9032
46.24242243555223 11.8485
46.266821333570014 11.8208
46.29103328674601 11.7796
46.31524742696538 11.7993
46.33946375590237 11.7678
46.36387149104216 11.7392
46.38809221957392 11.6704
46.41231514186606 11.6968
46.436540259597464 11.6748
46.460956858999374 11.6692
46.48518638983522 11.7073
46.509418121166966 11.6098
46.533652054678114 11.6091
46.55807754555709 11.5616
46.58231590571962 11.5651
46.60655647313217 11.5414
46.630988654873654 11.4803
46.655233659129024 11.4532
46.67948087571551 11.4648
46.70373030632484 11.4414
46.72817142736393 11.4551
46.752425308428684 11.4307
46.77668140861147 11.3922
46.80093972960865 11.3426
46.82538981736788 11.3249
46.849652602470904 11.2745
46.87391761349769 11.2654
46.8981848521493 11.3043
46.9226439341274 11.29
46.946915650573224 11.199000000000002
46.97118959976749 11.1815
46.99546578341598 11.1436
47.019933887188216 11.1465
47.04421456235744 11.1458
47.06849747711879 11.1438
47.09278263318286 11.1443
47.11725978640143 11.0865
47.14154944775105 11.0478
47.165841355555656 11.011
47.1901355115306 11.0247
47.214621741924994 11.022
47.23892041698887 11.0053
47.26322134538975 10.972999999999999
47.28771440635075 10.9135
47.31201986422527 10.8796
47.33632758061436 10.9003
47.360637557241866 10.8621
47.38513974410611 10.8819
47.40945426407847 10.8005
47.43377104948137 10.7922
47.45809010204344 10.8194
47.48260144275502 10.8071
47.506925052572285 10.7523
47.53125093475548 10.7286
47.55557909103813 10.6814
47.58009961361992 10.6789
47.60443234110732 10.7054
47.62876734791564 10.6111
47.65310463578333 10.599
47.6776343683373 10.6467
47.7019762413987 10.6058
47.72632040075572 10.5487
47.75066684815169 10.5664
47.77520581885936 10.5356
47.799556865477655 10.5532
47.823910205386 10.5396
47.84826584033272 10.4889
47.87281407745551 10.4528
47.89717432569297 10.4444
47.92153687423484 10.4336
47.94609208429692 10.4243
47.97045925671401 10.4079
47.99482873471275 10.3568
48.01920052005013 10.3098
48.04376504619224 10.3354
48.068141469543484 10.3024
48.09252020552573 10.3186
48.11690125590099 10.2615
48.1414751266064 10.2829
48.16586082917454 10.2904
48.19024885144316 10.238999999999999
48.2146391951793 10.2022
48.239222439012764 10.221
48.26361744916137 10.193999999999999
48.28801478610016 10.1725
48.31241445160131 10.1482
48.337007097209366 10.0678
48.36141144338331 10.0922
48.38581812345755 10.0262
48.41022713920929 10.057
48.434829215320704 10.042
48.45924292604658 10.039
48.48365897780325 10.0136
48.50807737237308 10.0087
48.532688907799276 10.0048
48.55711201168574 9.9404
48.581537463754074 9.925989999999999
48.60615611725119 9.94475
48.63058628942721 9.917710000000001
48.65501881516546 9.8812
48.6794536962573 9.87013
48.70408185970339 9.8404
48.72852147531801 9.830680000000001
48.75296345168211 9.80306
48.77740779059232 9.77547
48.80204549302823 9.77103
48.82649458091802 9.75071
48.85094603676547 9.72461
48.87539986237231 9.70999
48.90004713292306 9.71768
48.92450572200832 9.70558
48.94896668628025 9.65756
48.97343002754588 9.65279
48.99808689542115 9.60747
49.02255501470614 9.62297
49.04702551642794 9.577869999999999
49.0714984023988 9.60211
49.096164896893235 9.51562
49.120642575466796 9.50352
49.145122643748394 9.536669999999999
49.16960510355558 9.47717
49.19428125404938 9.51677
49.2187685210852 9.49891
49.243258185121555 9.44546
49.26794160167084 9.44127
49.2924360839405 9.41562
49.31693296869764 9.39315
49.34143225776915 9.37589
49.36612538195438 9.30472
49.39062950396021 9.342030000000001
49.41513603578346 9.350019999999999
49.4396449792564 9.32424
49.46434784069503 9.31714
49.488861631846454 9.24273
49.513377840166804 9.21519
49.537896467493745 9.21641
49.56260909589029 9.19288
49.587132585683285 9.19635
49.611658500018365 9.18182
49.636186840738596 9.154869999999999
49.66090926588511 9.15285
49.685442483902584 9.13342
49.70997813385706 9.08196
49.734516217597076 9.08942
49.75924846937352 9.08564
49.7837914452858 9.11158
49.80833686055187 9.02108
49.83288471702571 8.97156
49.85762682540054 8.994069999999999
49.882179588965734 8.944239999999999
49.9067347993235 8.95681
49.93129245833333 8.95681
49.95604445336378 8.93815
49.98060703442832 8.91394
50.005172069746266 8.9089
50.02993150438364 8.89973
50.05450147301533 8.89628
50.07907390151433 8.85543
50.10364879174981 8.79238
50.12841816587289 8.82958
50.1529980044635 8.81055
50.17758031042124 8.786539999999999
50.20216508562089 8.78143
50.22694442953363 8.71894
50.25153416817468 8.74597
50.27612638170508 8.72658
50.300721072005196 8.66663
50.325510416102105 8.6849
50.350110084975064 8.65135
50.37471223628208 8.622489999999999
50.39931687190919 8.64927
50.424116246675766 8.642489999999999
50.44872587605249 8.59292
50.47333799543065 8.58493
50.49795260670191 8.563410000000001
50.52276204271512 8.51946
50.54738166295838 8.54197
50.57200378079314 8.5085
50.596628398116835 8.5111
50.62144792604559 8.47157
50.646077567609396 8.48172
50.670709714377715 8.41699
50.69553683636198 8.46287
50.72017401885922 8.40496
50.7448137122895 8.41005
50.76945591856022 8.3948
50.79429318636823 8.354389999999999
50.818940443716784 8.38208
50.84359021965163 8.3249
50.868242516085964 8.308110000000001
50.893089960641895 8.2962
50.917747323549435 8.28856
50.94240721271973 8.26153
50.96706963007175 8.24365
50.99192728239342 8.2338
51.01659478166073 8.24796
51.04126481489051 8.209660000000001
51.06593738400761 8.20838
51.090805275207074 8.1444
51.11548294172845 8.17033
51.14016314993547 8.14177
51.164845901758845 8.13066
51.18972406304274 8.12077
51.21441192780656 8.09866
51.23910234200271 8.064969999999999
51.2637953075678 8.03621
51.288683770237945 8.02944
51.31338186432707 8.01874
51.33808251561888 8.011619999999999
51.362978729967345 7.97767
51.387684521509755 7.955839999999999
51.41239287610203 7.95463
51.437103795691165 7.9368
51.46201036644977 7.906560000000001
51.486726441956634 7.910189999999999
51.51144508832545 7.9021
51.536166307509156 7.87265
51.56108326624387 7.82695
51.58580965706056 7.831119999999999
51.61053862657523 7.844339999999999
51.635270176746864 7.78092
51.66019755512065 7.7856
51.68493429268881 7.766539999999999
51.70967361681515 7.7401100000000005
51.73441552946465 7.72525
51.759353359237934 7.71223
51.7841004750961 7.69676
51.80885018539685 7.69652
51.833602492111254 7.66442
51.8585508051424 7.67212
51.883308330926425 7.6379
51.90806845906181 7.63565
51.932831191525715 7.615419999999999
51.95779001977161 7.61106
51.98255798721516 7.58855
52.00732856494335 7.55438
52.03229530577543 7.5517
52.057071130455945 7.50709
52.081849571391054 7.50448
52.106630630568695 7.4798800000000005
52.13160794279417 7.4701
52.15639426492067 7.47115
52.18118321127822 7.46305
52.205974783860896 7.4150100000000005
52.23096269971011 7.43443
52.255759551287994 7.40382
52.280559035098186 7.394310000000001
52.30536115314103 7.3773800000000005
52.33035970494467 7.403230000000001
52.35516711807904 7.37732
52.37997717147198 7.33961
52.40478986713005 7.352460000000001
52.42979908731974 7.25075
52.454617094216 7.29327
52.47943774942214 7.258039999999999
52.50426105495102 7.256139999999999
52.529280976059844 7.23975
52.554109609024096 7.2119
52.57894089837482 7.17225
52.60377484613117 7.21957
52.62880550079408 7.231160000000001
52.65364479223379 7.180510000000001
52.67848674816189 7.13363
52.70352547971946 7.114669999999999
52.72837279155837 7.12904
52.753222773982785 7.13253
52.778075429022984 7.134869999999999
52.80312495150885 7.08713
52.827982978797436 7.056260000000001
52.85284368481815 7.02573
52.87770707160767 7.048310000000001
52.90276741793998 7.041739999999999
52.92763619336701 7.002610000000001
52.952507655698504 6.99459
52.977381806977576 7.02325
53.00245301017842 6.9928
53.02733256653592 6.9745800000000004
53.052214817996074 6.9297
53.077099766608484 6.9271
53.102181859804446 6.89648
53.127072229988265 6.90717
53.15196530349892 6.91742
53.17686108239249 6.86199
53.20195409881522 6.86192
53.22685531582556 6.871230000000001
53.25175924441303 6.77238
53.27666588664027 6.793660000000001
53.30176985962693 6.7552
53.3266819565689 6.7992300000000006
53.35159677336455 6.74056
53.376514312083096 6.7492600000000005
53.40162927507703 6.75088
53.42655228516116 6.746919999999999
53.45147802340193 6.718660000000001
53.47660125628886 6.699789999999999
53.50153247842639 6.651560000000001
53.52646643496923 6.65037
53.55140312799818 6.63097
53.576537409691696 6.630210000000001
53.60147960336152 6.5955
53.626424539786164 6.58634
53.65137222105307 6.53881
53.67651758529126 6.56165
53.70147078399681 6.51834
53.72642673383343 6.52121
53.75138543689533 6.51615
53.776541917524526 6.50643
53.801506154876755 6.47449
53.826473151763246 6.47291
53.851442910284916 6.46267
53.87661054126026 6.462000000000001
53.9015858509782 6.42485
53.92656392866066 6.42509
53.95154477641532 6.41228
53.976723591801296 6.394480000000001
54.00171000771266 6.33617
54.02669920004598 6.37981
54.051691170915745 6.354369999999999
54.076881204886796 6.35365
54.101878760928514 6.3925
54.12687910187696 6.293130000000001
54.152077577768296 6.3154699999999995
54.1770835166946 6.30561
54.20209224691339 6.19484
54.22710377055121 6.23402
54.25231352511594 6.21654
54.27733066384342 6.21132
54.30235060239643 6.20331
54.32737334290836 6.17416
54.35259441062629 6.13628
54.377622783395324 6.14381
54.40265396455061 6.12038
54.42768795623251 6.10291
54.45292037169559 6.0593900000000005
54.477960012857906 6.06184
54.50300247099511 6.04213
54.52804774825457 6.04256
54.55329154616743 5.9333
54.57834249018678 5.9737599999999995
54.6033962597977 5.95214
54.6284528571545 5.915109999999999
54.653708072335164 5.89995
54.67877035378786 5.8888300000000005
54.70383546947698 5.79855
54.72890342156389 5.88893
54.7541700889442 5.83663
54.77924374251975 5.83057
54.8043202390049 5.81305
54.82959552413022 5.75811
54.8546777351945 5.71031
54.87976279569621 5.691269999999999
54.90485070780914 5.7045900000000005
54.930137506558005 5.6772599999999995
54.95523115074295 5.68066
54.98032765308844 5.61517
55.005427015775496 5.62669
55.03072536339621 5.64613
55.05583047570572 5.54887
55.080938454927676 5.59265
55.10604930325027 5.54425
55.131359235107396 5.53867
55.15647585066083 5.41824
55.181595341907496 5.44918
55.20671771104285 5.41403
55.232039262617704 5.426
55.25716741665048 5.3810199999999995
55.28229845518636 5.39634
55.30743238042802 5.33213
55.33276558731939 5.321969999999999
55.357905315183636 5.26852
55.383047936390035 5.24372
55.40819345314859 5.24627
55.433538351073295 5.20811
55.458689688238415 5.21125
55.483843927614096 5.178669999999999
55.509197623043605 5.17545
55.53435769621134 5.11709
55.55952067826466 5.09046
55.5846865714265 5.0490699999999995
55.61005202069737 5.02137
55.63522376553902 5.0385599999999995
55.66039842818645 4.9708
55.68557601087004 4.99864
55.7109532500271 4.95011
55.73613670233794 4.968719999999999
