TT I
1.2716486653135266 7.4038699999999995
1.2939594142134223 7.06855
1.3162702121660406 6.87673
1.3385810600174564 6.92126
1.3608919586137629 6.1487300000000005
1.383202908801069 6.36238
1.405513911425503 6.10772
1.4278249673332093 5.777909999999999
1.4501343378461518 5.2776
1.4724455028545926 5.3767
1.4947567236847858 5.77237
1.517068001182951 5.98486
1.5393793361953272 5.47314
1.5616907295681737 5.91826
1.5840021821477681 5.74714
1.60631369478041 5.238980000000001
1.6286252683124185 4.80335
1.6509369035901333 4.84889
1.6732468618895553 5.71163
1.695558623192809 5.16045
1.7178704487808514 5.5622300000000005
1.7401823395001077 4.79549
1.7625012545597203 4.55443
1.7848028405262486 4.510190000000001
1.8071218901122095 5.1694
1.8294236121921872 4.62823
1.8517427996910911 4.69399
1.8740620574440425 4.30697
1.8963639900671978 4.34759
1.9186833908139995 5.00991
1.9409854680117449 5.14065
1.9633050151394713 4.50858
1.9856246367570705 4.061030000000001
2.0079269371922672 4.47685
2.03024671027244 4.959980000000001
2.0525491637446027 4.33328
2.074869091674931 4.71577
2.097171701569106 5.00736
2.1194917877373847 4.9951
2.141811954326636 4.52965
2.164114805233074 4.43084
2.186435135143035 5.3103
2.208738150935709 11.6822
2.231058647554722 21.5669
2.2533792288321184 17.6015
2.275682498336085 9.36638
2.298003251406138 6.555560000000001
2.3203066942619714 5.58097
2.3426276225136022 5.75735
2.3649486396617507 5.6342
2.387252348930071 4.6169199999999995
2.4095735463442893 4.821269999999999
2.4318774374315884 5.75764
2.4541988185014043 5.9650300000000005
2.476502894794693 6.920730000000001
2.498824462909887 6.5778
2.521146125856138 6.5829
2.5434504863470337 5.91827
2.5657723414244717 6.756710000000001
2.588076895590662 7.50816
2.610398946189713 7.845260000000001
2.6327210958598384 7.69797
2.6550259469304716 7.397939999999999
2.6773482972090137 7.6556
2.6996533504259 7.68655
2.7219759047039602 8.05255
2.744298562293959 7.18058
2.7666039251246595 7.71046
2.7889267918020164 7.348269999999999
2.8112323652516555 7.74863
2.833555444408179 8.18023
2.8558786311183852 7.84116
2.8781845268938557 9.10544
2.9005079311721484 8.781789999999999
2.9228140460410397 9.08549
2.9451376712799635 8.68308
2.967444008632326 10.0205
2.9897678582247247 10.6153
3.0120918213106695 10.4608
3.0343984987899373 10.6113
3.0567226913198637 11.2448
3.079029599759726 11.3479
3.101354025127254 12.2554
3.123678568232338 12.2848
3.145985829517914 12.6124
3.16831061055229 13.503
3.1906181112775593 14.1338
3.212943133635653 14.7316
3.2352682779763207 15.0353
3.2575761442691227 15.3144
3.2799015350264273 16.2407
3.302209649240067 16.2353
3.3245352898092655 16.9575
3.3468436553365257 17.081
3.369169549113219 17.5294
3.3914955708171384 18.5407
3.413804319727358 19.1565
3.4361305997334863 19.0873
3.4584396084414553 19.5116
3.4807661501462652 20.1179
3.503092824025881 20.8852
3.5254022288463154 21.4663
3.5477291695206588 22.0227
3.5700388426251948 22.6935
3.5923660534916446 24.3796
3.6146934007816114 34.992
3.637003482731501 72.14
3.6593311053109985 78.3479
3.681641464033634 48.2893
3.7039693653009733 29.4375
3.726297407241705 26.2848
3.7486081875460804 25.7909
3.7709365132734978 26.0992
3.793247578841633 26.8058
3.8155761917550093 26.9393
3.8378875459837216 27.2959
3.8602164494827234 27.6849
3.882545499606844 28.2557
3.9048572932539183 29.0323
3.9271866390645718 29.6925
3.9494987298666713 30.5246
3.971828374764527 30.6208
3.9941581705403255 31.1182
4.016470713506008 31.988000000000003
4.038800813471445 32.79
4.061113662089144 33.3206
4.0834440696459176 34.1555
4.105774632334751 34.7954
4.128087945865126 34.8633
4.150418821249301 35.9614
4.172732448931298 37.5388
4.195063640413578 38.736
4.2173775856475215 42.651
4.239709096631102 68.0432
4.262040768704612 182.57299999999998
4.284355196706267 239.389
4.306687193387355 158.27100000000002
4.329001947444346 71.0538
4.35133427213731 47.6539
4.373666762177566 45.1959
4.395982011761091 44.7794
4.418314834921175 45.7691
4.44063041906622 51.8219
4.4629635787515625 60.4473
4.4852969080429785 59.9662
4.5076130004776225 53.7178
4.529946671403969 51.333
4.552263106909177 51.9985
4.574597122877047 52.5316
4.596931312711224 53.0617
4.619248269273446 54.0539
4.6415828092605835 55.516000000000005
4.663900117405352 56.1614
4.686235010953232 57.8591
4.708552674085913 58.7897
4.730887924602802 60.5031
4.753223354952695 62.0514
4.775541557023902 63.6093
4.797877349456786 65.2117
4.820195915032126 67.3053
4.842532072957498 68.8949
4.864868414979744 70.7814
4.88718753227192 73.0955
4.909524244902505 75.2466
4.931843734218147 76.8188
4.954180820867835 79.5389
4.976518095879839 82.5653
4.998838149695359 86.0031
5.021175803844231 89.3862
5.043496238205739 92.9273
5.065834274903528 97.5976
5.088172504230693 103.262
5.1104935158799565 110.439
5.132832132875765 131.878
5.155153533596801 169.63099999999997
5.1774925416746225 216.13099999999997
5.199814334878411 451.51800000000003
5.2221537374521505 1260.36
5.244493338631803 3282.69
5.266815727034316 7617.45
5.289155727832427 11772.0
5.311478517248165 8933.79
5.333818921080011 3161.79
5.356159527788849 643.5930000000001
5.3784829252032536 205.253
5.400823940070432 154.569
5.423147747031976 134.736
5.445489173474152 123.861
5.467830807066149 118.446
5.490155234831516 114.116
5.512497285125229 109.53200000000001
5.534822130975162 107.251
5.557164601388673 104.626
5.579489868738879 101.68299999999999
5.601832762690846 100.179
5.6241758697774475 99.8758
5.646501775867269 99.1639
5.668845311622074 97.6361
5.691171647754637 96.749
5.713515615597765 95.0152
5.735859800852677 94.535
5.758186788542988 94.1118
5.780531411018185 94.8278
5.802858837297399 94.2526
5.825203900414495 94.4966
5.8475491852224 95.0762
5.869877275883075 95.4175
5.892223006467101 96.1836
5.914551544266608 97.4958
5.936897724049891 101.47399999999999
5.959244129804903 107.927
5.981573344815301 135.561
6.0039202049061 252.785
6.026249875609095 550.139
6.04859719346037 1127.87
6.070927323278297 2335.52
6.093275102315365 4212.38
6.115623113320588 5312.64
6.137953938319995 3538.76
6.160302415650845 1207.8
6.182633708324452 298.329
6.2049826554078376 126.096
6.227331838745022 97.4048
6.249663839443684 88.5262
6.27201349767565 84.2728
6.294345974611799 88.21700000000001
6.316696111167083 95.8314
6.339046488263839 90.3611
6.361379686074702 79.1681
6.383730546639482 72.8816
6.406064229255215 70.4318
6.428415576718203 70.1278
6.450749747566656 68.5773
6.47310158535871 67.6207
6.495453669698332 66.73100000000001
6.517788579421056 66.0612
6.540141159237969 64.878
6.562476565766648 64.2411
6.5848296444934045 63.8723
6.607182974060425 63.6192
6.6295191323281015 63.6014
6.651872965955752 66.0515
6.6742096296068985 85.2131
6.6965639707294615 118.632
6.71891856698715 117.586
6.741255995248479 85.3656
6.763611104154477 66.0501
6.785949046381137 60.4867
6.808304671371482 59.1911
6.8306605557940046 59.136
6.852999275508618 58.4018
6.875355681171544 57.9135
6.897694923437771 57.713
6.92005185377892 57.7132
6.9423916220322655 57.0814
6.964749080490181 56.4155
6.987106804399774 56.5432
7.009447368180821 56.4085
7.031805625367033 56.3353
7.054146723727803 56.1496
7.076505517631004 56.168
7.098864581288365 56.2861
7.121206488070854 56.0997
7.143566093607822 55.6049
7.165908543567245 56.3064
7.188268694426048 56.0744
7.2106291193438095 55.8295
7.232972390625943 57.4315
7.255333366030969 67.5615
7.277677189091925 106.156
7.300038718428332 138.602
7.322400526130865 118.991
7.344745183422596 80.5035
7.367107550224791 60.7805
7.389452767901992 56.6859
7.411815697249891 55.9631
7.434161478756298 55.0896
7.456524974096713 55.0562
7.478888753837185 54.895
7.501235387657368 55.5251
7.523599738562711 55.5353
7.545946944825532 55.5849
7.568311870344528 55.8826
7.5906770845765665 56.1005
7.613025156078678 57.0894
7.635390950099687 58.1026
7.657739602662809 57.3907
7.680105979923558 57.0508
7.702472650212829 57.4225
7.724822180948224 56.8897
7.747189439655568 56.9686
7.769539560075357 56.8543
7.791907410653562 57.5072
7.81425812420825 57.1908
7.836626570110925 57.5559
7.858995315087906 58.6735
7.881346924933401 58.7624
7.903716270417482 59.3367
7.926068482028405 59.4378
7.948438431475253 60.2787
7.9708086843180235 60.7818
7.993161805171116 61.4693
8.015532667162402 61.803000000000004
8.037886398416653 62.6885
8.060257873014221 63.1924
8.082629655331942 63.8366
8.104984308787587 64.9279
8.127356708900503 67.8235
8.149711981398308 72.4571
8.172085002766314 74.0545
8.194458336181368 71.9571
8.216814543847752 70.3335
8.23918850371002 70.8765
8.26154533906492 71.4736
8.283919928836452 73.3424
8.306277395339652 74.2095
8.328652618483376 75.6441
8.351028159736202 77.6131
8.373386579575245 80.1814
8.395762759396959 81.7987
8.418121819038275 86.6714
8.440498640894003 98.1825
8.462875785192262 110.84
8.485235811156207 130.8
8.507613602688501 188.327
8.529974277114228 289.064
8.552352719347912 440.417
8.574731488360351 725.676
8.59709314210385 1222.12
8.619472567021075 1793.66
8.64183487789147 2093.06
8.664214962183097 1833.9
8.686577933647762 1065.2
8.708958680784317 431.07300000000004
8.731339760774953 183.825
8.753703729764451 117.376
8.77608547780821 102.37799999999999
8.798450116065078 97.9625
8.820832535634787 95.2343
8.843215292401656 93.6554
8.865580941199045 92.0189
8.887964374703538 90.4853
8.910330701447199 91.2015
8.932714815164482 92.8229
8.955099270424924 91.5419
8.977466620733543 88.8242
8.999851761421976 86.6792
9.022219798361645 85.2586
9.04460562795561 85.1406
9.066991803441677 84.6202
9.089360876979615 84.6481
9.111747746589993 84.4361
9.13411751544971 83.5895
9.156505082664324 83.4248
9.178875550323522 83.6343
9.20126381862328 83.618
9.223652438908596 83.7605
9.246023961427412 84.2138
9.26841328802173 83.6272
9.290785518039224 83.4632
9.313175554425882 84.2982
9.335565947154315 84.2691
9.357939245086508 84.7661
9.380330352834827 84.8839
9.40270436697103 85.1559
9.425096193225055 84.4366
9.447488380180165 85.8245
9.469863475295412 85.8964
9.492256385987508 85.831
9.514632206018318 86.9277
9.537025843935714 87.3076
9.559402392368193 87.9331
9.581796761000229 89.2775
9.604191496441521 90.1231
9.626569144158516 93.2032
9.648964615551032 96.2123
9.671343000390081 97.569
9.693739211225699 96.5757
9.716135793237463 95.0728
9.738515290448102 94.7985
9.760912617143402 95.9458
9.783292860202891 97.33
9.805690935076182 98.7793
9.828089385495742 99.6475
9.850470754023561 101.844
9.872869957865444 108.685
9.89525208097539 120.413
9.917652041736662 130.45600000000002
9.940052382417589 133.845
9.962435644102392 152.16
9.984836746950979 200.459
10.007220771957746 272.448
10.029622640473708 388.82
10.052007432299963 581.283
10.074410069984072 870.059
10.096813093716005 1266.62
10.119199042482517 1651.87
10.141602840636468 1880.09
10.163989564971628 1630.77
10.186394141051062 991.2739999999999
10.208799107559706 453.43800000000005
10.231187001965623 215.217
10.253592751657669 135.68
10.275981430388155 117.057
10.298387966769793 114.42
10.320794897965431 115.679
10.343184759907361 114.182
10.36559248305461 109.505
10.387983138083852 107.596
10.410391656691655 113.01700000000001
10.432800574501677 125.65100000000001
10.455192425893369 144.381
10.47760214443012 172.925
10.499994797678786 219.918
10.522405320453982 298.251
10.54479877906917 398.014
10.567210109595656 492.832
10.5896218454736 545.391
10.612016518879773 494.707
10.634429067781074 367.18
10.656824555333241 217.407
10.679237920773568 131.986
10.701651695961992 99.5198
10.724048411481384 91.4905
10.746463008485165 88.1648
10.768860546937125 86.568
10.791275969274796 84.6265
10.81369180576079 83.5424
10.836090585366925 82.5471
10.858507252467449 81.39399999999999
10.88090686379991 80.221
10.903324365036394 79.7226
10.925724811614439 79.52600000000001
10.948143150509463 80.4007
10.970561909719066 79.3945
10.992963615930844 77.51
11.015383218085756 75.8745
11.037785768347074 74.458
11.06020621697282 73.9636
11.082627090322113 73.5363
11.105030913430326 72.7897
11.12745263854165 73.4554
11.149857314510728 75.7627
11.172279894912576 80.0211
11.194702904450653 80.0001
11.217108866490921 77.0747
11.239532736615194 73.6436
11.26193956033512 72.1393
11.284364294577085 70.7751
11.306789462371718 69.3961
11.329197585398376 68.4044
11.351623622610898 68.1126
11.37403261614354 67.0951
11.396459526308487 66.9991
11.418869393879497 66.7488
11.441297180532617 66.2853
11.463725406927658 65.7187
11.486136592353875 65.7086
11.508565700543707 66.2111
11.530977768845315 67.6031
11.553407762368774 68.1781
11.575838200059769 67.6257
11.598251599479612 65.7248
11.620682927815501 64.7638
11.64309721895548 64.4338
11.665529441478206 64.2568
11.687962112597958 64.0933
11.710377748130886 63.9663
11.732811318753434 63.7985
11.755227854859067 63.8278
11.777662328529495 63.9299
11.800079768750786 63.7683
11.822515149015453 63.4494
11.844950984084935 63.7854
11.867369787303163 63.3404
11.889806534289491 63.3436
11.912226250487029 63.85
11.934663912939751 63.8158
11.9571020346363 63.8447
11.979523127133968 64.2001
12.001962169624331 65.113
12.024384183972964 66.8354
12.046824150809913 70.8569
12.069264581333726 76.3644
12.091687985297767 82.8237
12.11412934550045 92.8698
12.136553680195208 108.385
12.158995973632788 130.681
12.181438735204349 154.917
12.20386447284199 178.921
12.226308172985636 197.054
12.24873485024193 199.138
12.271179492516982 171.642
12.293607112949127 130.704
12.316052700916226 99.0736
12.338498763250042 79.2297
12.360927805303868 70.4058
12.383374818673879 66.8456
12.405804812803074 65.4686
12.428252780773262 65.4856
12.45070122756722 65.3476
12.473132656675375 65.4045
12.49558206341869 65.5674
12.518014453510101 65.517
12.540464823770117 65.7796
12.562915677315177 65.90100000000001
12.58534951575545 66.3967
12.607801338171472 67.8187
12.630236146511358 72.069
12.652688941369085 75.6785
12.675124723177234 75.8504
12.697578494048786 73.0338
12.720032754458185 70.0157
12.742470003354093 69.2657
12.764925245138771 68.9677
12.787363476431278 69.0073
12.809819703166806 69.5141
12.83227642391173 70.4481
12.854716135692716 71.1079
12.877173846755147 72.2361
12.899614549869717 72.16
12.9220732548287 73.4
12.94453245827299 73.7373
12.966974655289818 74.7169
12.989434858002571 75.4816
13.011878055298721 76.0736
13.034339260862497 77.1145
13.056800969391883 78.9825
13.079245674017244 80.8584
13.101708390774869 84.0911
13.12415410463411 93.3353
13.146617833206086 105.775
13.169064559883248 118.175
13.191529303857127 134.149
13.213994557076367 158.422
13.236442809902437 196.822
13.258909083908291 248.486
13.28135835851934 302.217
13.30382565690295 357.711
13.326293469022952 404.121
13.348744283242008 414.75699999999995
13.371213125129904 362.091
13.39366497011003 275.882
13.416134845360597 185.668
13.438605238843131 131.638
13.46105863690397 111.801
13.483530069144786 111.54700000000001
13.505984506951902 117.06200000000001
13.528456981549432 127.508
13.550929978879088 143.35399999999998
13.573385983253365 168.50900000000001
13.595860028340867 205.65
13.618317081455832 251.583
13.64079217790333 293.281
13.663250283359057 330.07099999999997
13.685726434770173 358.11199999999997
13.708203115221277 340.344
13.730662806148091 275.024
13.75314054697177 202.019
13.775601299246777 140.888
13.798080104050406 103.235
13.820559442405358 88.0663
13.843021793671388 83.5185
13.865502201420897 81.6051
13.887965623051947 81.1331
13.910447103807167 79.7703
13.932929122629764 78.3207
13.955394156785959 78.2227
13.977877254034569 77.29
14.000343367582113 76.3581
14.022827546871707 75.9645
14.045294743423524 75.1462
14.06778000837062 74.236
14.090265817715476 74.1176
14.112734645763819 73.9026
14.13522154619454 73.6359
14.157691466286913 73.3401
14.180179461423874 73.1678
14.202668005486178 72.6411
14.22513957064374 72.0041
14.247629214846473 71.4188
14.270101881097517 71.2043
14.29259262906496 71.3953
14.315083930490205 72.0057
14.337558255389705 72.0102
14.360050666019726 71.8193
14.382526101071944 71.1153
14.405019624534942 70.4622
14.427513705993134 69.7423
14.449990813291825 69.9357
14.47248601302899 70.112
14.49496423954951 70.1114
14.517460561197822 70.3183
14.539939910570322 69.9497
14.562437357763558 70.3552
14.58493536931253 70.9932
14.607416409993311 71.7983
14.62991555254159 72.3594
14.652397725157423 72.2279
14.674898002342799 72.0633
14.697398848433282 71.6412
14.719882725991326 72.6599
14.74238471217934 74.3112
14.764869730765593 78.0634
14.787372860692983 81.7774
14.809876564079925 86.9526
14.83236330125751 93.3236
14.854868153850365 102.58
14.877356041159485 116.62
14.899862046604186 134.751
14.922351087688757 157.09
14.944858249632887 180.62
14.967365991421232 198.899
14.989856770231246 213.14700000000002
15.012365673994204 212.608
15.03485761569738 191.002
15.05736768508665 157.216
15.07987833888692 123.20100000000001
15.102372032001655 96.4951
15.124883856909658 79.8788
15.14737872204565 73.9328
15.169891721717274 71.8898
15.192405310371893 71.6153
15.214901940621196 71.5864
15.237416709527137 71.6267
15.259914520936249 71.6479
15.282430473753607 70.9463
15.304947020131227 69.7799
15.327446610371178 68.8902
15.349964346154254 68.2727
15.372465126703139 68.1279
15.394984055556009 67.7883
15.417486030076159 67.6862
15.44000615566487 67.3297
15.462526881230803 66.9825
15.485030653812652 67.4208
15.507552581617434 67.3109
15.530057557334603 67.3403
15.55258069104857 67.01
15.575104429329837 67.1773
15.597611216864632 66.9089
15.620136166564563 67.2808
15.6426441664095 68.7428
15.665170331202765 71.758
15.687697105158826 74.9678
15.710206930593545 78.7075
15.732734925158933 83.3885
15.755245972089478 89.9024
15.77777519094324 99.6974
15.800287463046663 112.811
15.822817909869592 130.434
15.84534897229804 147.942
15.867863089299354 166.683
15.890395385222186 179.592
15.912910736597423 186.89
15.935444269699861 179.558
15.957978423016485 158.268
15.980495633101265 129.237
16.003031029129367 101.338
16.02554948280019 80.5588
16.048086125229432 69.939
16.070623392487107 66.6992
16.09314371869582 65.0845
16.11568223789321 64.142
16.13820381691126 63.1443
16.160743591742527 62.1864
16.183283996022084 61.2032
16.205807461423195 60.4734
16.228349126881973 60.0292
16.25087385432698 59.9295
16.27341678466365 59.3421
16.29594277784926 59.2083
16.31848697676433 59.205
16.341031811604868 59.3866
16.36355971058487 59.5383
16.3861058195587 59.165
16.40863499352978 58.093
16.431182380342005 57.6226
16.453730407713202 56.9676
16.476261501364792 56.7742
16.498810812136167 56.426
16.52134319004079 56.5569
16.54389378792203 56.3788
16.566445031001553 56.3045
16.588979342490088 56.1079
16.61153187824822 55.9423
16.634067483263312 55.7591
16.656621315414416 55.7494
16.679175797408888 55.4257
16.701713349928728 55.3944
16.72426913389191 55.821000000000005
16.74680798922351 55.7666
16.76936507887444 55.8793
16.791905240734874 55.8754
16.814463639794468 55.5324
16.837022695210294 55.5184
16.859564824093756 56.0442
16.882125194503903 56.5051
16.904668639217885 57.0819
16.927230328348003 57.1411
16.949792678493612 57.2545
16.972338104193863 56.7654
16.994901778652235 56.5003
17.017448529496576 56.4567
17.040013531998152 56.9364
17.06257920018044 57.6469
17.0851279459922 58.2273
17.107694947817667 59.2876
17.130245028099072 59.9339
17.15281336730298 61.3839
17.17536478578733 63.492
17.19793446610687 65.8772
17.220504818648422 68.7205
17.243058251703697 71.4242
17.265629950971032 75.1327
17.288184731571736 78.4061
17.310757781306908 81.0451
17.33333150794385 82.446
17.355888317140174 81.979
17.37846339986244 78.028
17.401021565958885 72.8699
17.42359800851343 67.5995
17.44617513265564 63.724
17.468735341390783 61.4509
17.491261035594565 60.35
17.51396340099364 59.9654
17.536490463869136 60.1585
17.559018209820174 60.1731
17.58154663977963 60.295
17.604251766089718 60.5045
17.626781572227713 60.5849
17.64931206518155 60.9648
17.671843245885103 61.3641
17.69455114821572 61.6284
17.717083712612634 61.9484
17.739616967569667 61.9849
17.762150914021706 62.38399999999999
17.78486160749854 62.0801
17.807396945166804 63.1186
17.829932977143503 64.2237
17.85246970436452 66.2283
17.875183204129467 68.3328
17.897721330097664 70.3471
17.920260154126645 72.9391
17.942799677153296 76.3541
17.9655159983646 80.4646
17.988056927677544 85.7318
18.010598558807683 93.5384
18.033140892692916 102.40799999999999
18.05586005052525 111.165
18.07840379824407 120.413
18.10094825154059 129.245
18.12366954819864 136.118
18.146215420998306 138.06799999999998
18.16876200220057 133.445
18.191309292745153 122.182
18.214033452627167 108.821
18.236582170236648 96.9394
18.259131600016456 90.6922
18.281681742907335 89.0752
18.304408781233683 92.3643
18.32696035875955 95.9319
18.349512652227624 99.5809
18.372065662579683 103.40799999999999
18.394795594587553 105.075
18.41735004715306 103.294
18.43990521943684 98.1862
18.46246111238171 89.4647
18.485193953325208 80.4175
18.507751296070428 72.491
18.530309362314178 67.6578
18.552868153000343 64.7837
18.57560391815056 63.408
18.59816416623245 62.8688
18.620725141597372 62.2858
18.643286845190268 61.8124
18.666025549835414 61.3843
18.688588718427933 60.7744
18.711152618092243 60.7041
18.73389353884365 60.4272
18.75645890921984 59.8553
18.77902501351406 59.5884
18.801591852673102 59.5263
18.824335739722738 59.1225
18.846904057212626 58.913000000000004
18.8694731124168 58.7471
18.89204290628315 58.6556
18.914789774966803 58.5256
18.937361054791623 58.075
18.959933076131318 57.8485
18.982505839934877 58.2054
19.00525570560582 58.0982
19.027829963004184 57.8128
19.05040496572238 57.903999999999996
19.072980714710468 57.975
19.095733592739563 58.1342
19.11831084296757 58.3918
19.140888842324735 58.8604
19.16346759176222 59.3563
19.18622349753803 59.7234
19.208803755869358 60.5977
19.231384767143577 61.8533
19.253966532312948 63.4553
19.276725481241822 65.6335
19.29930876296784 67.4826
19.3218928014549 70.1745
19.34465404436217 72.4243
19.36723960516257 74.7766
19.389825925592426 75.6268
19.412413006605938 75.4386
19.43517731967805 73.1324
19.457765930683355 69.2913
19.48035530514408 64.9395
19.50294544401556 60.9962
19.525712842708348 57.8969
19.54830451925909 56.3876
19.570896963095727 55.1711
19.593490175174704 54.8603
19.616260674962184 54.8892
19.638855432416964 54.528
19.661450960992624 54.6688
19.68404726164677 54.5091
19.706820878021247 54.2288
19.729418731756834 54.5405
19.752017360452857 54.2066
19.77461676506804 54.5514
19.797393513540218 54.5565
19.819994478951667 54.9578
19.84259622316767 55.5803
19.8651987471481 55.965
19.887978643247177 56.0351
19.91058273574792 56.5109
19.933187610901943 57.4742
19.955969879466828 58.4869
19.97857632894404 60.1337
20.00118356396599 61.7306
20.023791585494575 63.3433
20.046577028914875 65.5696
20.069186632506966 67.4269
20.091797025500632 68.9953
20.114408208858933 70.0343
20.137196842715273 70.3878
20.159809615886765 69.4716
20.18242318232135 67.3821
20.20503754298326 65.4306
20.227829382875154 63.9881
20.250445341109344 63.4453
20.27306209647285 63.5605
20.29567964993108 64.1121
20.31847471147704 64.8913
20.34109387027612 65.5059
20.363713830075454 65.6967
20.386334591841646 64.8056
20.409132890679302 62.5341
20.431755265564437 59.5778
20.454378445325528 56.8979
20.477002430930366 54.7271
20.499803982716553 53.4299
20.522429589228004 52.4327
20.54505600449589 51.9038
20.567683229489194 51.7393
20.590488049900088 51.306000000000004
20.61311690359731 51.0759
20.63574656993626 50.6874
20.658553853717297 50.4624
20.681185154618298 50.4775
20.703817271080066 50.1346
20.72645020407368 49.7774
20.749260783967177 49.8604
20.771895359337133 49.816
20.794530754161617 49.6368
20.817166969412938 49.7116
20.83998086114876 49.6429
20.86261872660049 49.5641
20.885257415405402 49.5148
20.90789692853701 49.2983
20.930714147864748 49.347
20.953355319030678 49.4392
20.97599731745334 49.49100000000001
20.99864014410749 49.4994
21.021460706796564 49.4309
21.044105199328826 49.7202
21.06675052302631 49.9251
21.089396678865015 50.1088
21.112220600704806 50.265
21.134868430275347 50.70399999999999
21.15751709492456 50.9591
21.180166595629693 51.2733
21.202993892429635 51.6199
21.22564507473034 51.757
21.24829709602816 51.9197
21.27112693608965 52.2366
21.293780644891275 52.0619
21.316435195634053 51.5827
21.339090589297417 51.1114
21.361923832041875 50.5687
21.384580921090404 49.7978
21.407238856007325 49.3368
21.429897637773326 49.3598
21.45273429906592 49.2638
21.475394784108598 49.2292
21.498056118951983 49.1629
21.520718304578022 49.4961
21.543558400304388 49.4941
21.566222297108816 49.5002
21.58888704765135 49.7212
21.61155265291521 50.0619
21.63439619898156 50.7258
21.657063523335786 50.898999999999994
21.67973170537063 51.2545
21.7024007460706 51.924
21.72524775840385 52.7824
21.747918526116475 53.8812
21.770590155457388 55.2073
21.79326264741238 56.6815
21.816113141960237 58.2418
21.838787368860547 59.8636
21.861462461341976 61.3528
21.884315579735777 62.7744
21.90699241312273 63.9289
21.92967011506078 64.8658
21.95234868653799 64.8422
21.9752053151131 64.262
21.997885635446785 62.8704
22.020566828293532 61.0782
22.04324889464272 59.1627
22.066109049404666 57.4488
22.088792872571794 56.7767
22.111477572219204 56.4547
22.1341631493376 56.6377
22.157026846313123 56.5301
22.179714188221507 56.0012
22.202402410582668 55.2927
22.22509151438863 53.9357
22.24795876962584 52.5659
22.270649646204486 51.6749
22.293341407213727 50.8372
22.316034053646906 50.0946
22.338904883215342 49.8743
22.36159931041458 49.7088
22.38429462602756 49.7531
22.40699083104897 49.5299
22.429865251039757 49.62
22.452563244831367 49.8178
22.47526213102522 49.6094
22.49813925616515 49.5005
22.520839937143307 49.2396
22.543541513520587 49.3021
22.56624398629403 49.2915
22.589124730075895 49.0814
22.611829005656723 49.3989
22.63453418063466 49.5567
22.657240256008077 49.8829
22.680124634582935 49.9752
22.70283252079775 50.236000000000004
22.725541310413075 50.5173
22.74825100442868 50.6525
22.771139033969575 51.135
22.79385054687155 51.6082
22.81656296718292 52.1665
22.83927629590484 53.0811
22.862167992606945 53.7952
22.88488314827121 54.9053
22.907599215359284 55.7693
22.93031619487366 56.466
22.953211574954405 57.0925
22.975930389478226 57.8688
22.998650119445763 58.3691
23.02137076586092 57.8582
23.044269845560063 56.9694
23.06699233506288 55.5226
23.089715744034912 53.8545
23.112617610931565 52.3439
23.135342869061212 51.0781
23.158069049684816 50.1638
23.1807961538087 49.6624
23.20370174880544 49.7458
23.226430710184808 49.5898
23.249160598093425 49.5789
23.271891413539002 49.8311
23.294800752937697 49.7967
23.31753343374794 50.1509
23.340267045128353 50.1851
23.36300158808808 50.4836
23.38591468821339 50.8646
23.408651104658304 51.2556
23.431388455719986 51.9891
23.454126742409 52.7995
23.4770436196085 53.8181
23.499783787914662 54.7919
23.522524894889884 55.1669
23.54526694154616 56.2934
23.56818761219047 56.9014
23.59093154860734 57.3162
23.613676427751283 58.0259
23.636422250635754 57.6282
23.659346731118656 56.401
23.68209445191868 54.7642
23.704843119509587 52.8326
23.72759273490623 51.0443
23.750521041644767 49.6735
23.77327256312355 48.156000000000006
23.796025035462787 47.5713
23.818956224555475 46.976000000000006
23.841710609113413 46.8562
23.86446594758979 46.6431
23.887222241002014 46.2901
23.910157285144578 45.8882
23.932915498962537 45.9906
23.955674670778713 45.8401
23.978434801611975 45.7717
24.001373717286125 45.4055
24.024135776723917 45.3721
24.046898798245582 45.2653
24.06966278287146 45.1477
24.092605586582614 45.0249
24.115371508023642 44.8195
24.1381383956401 44.7833
24.16090625045381 44.648
24.183852958731244 44.6576
24.206622758582608 44.5203
24.229393528706886 44.3841
24.252165270127392 44.3925
24.27511589952438 44.4556
24.297889594216997 44.2685
24.32066426328598 44.0163
24.34343990775613 44.0914
24.36639447485003 43.9645
24.38917208083877 43.773
24.41195066531332 43.7826
24.43490819850244 43.8806
24.457688750692377 43.6198
24.48047028445616 43.6079
24.503252800821233 43.788000000000004
24.526214300784112 43.6045
24.548998793132213 43.6047
24.57178427117417 43.4796
24.59457073593893 43.6392
24.617536219319863 43.6734
24.64032466834748 43.4464
24.663114107195035 43.5052
24.685904536893013 43.3423
24.708874020360852 43.2931
24.731666442613744 43.2028
24.754459858818787 43.1105
24.777254270007962 43.2084
24.80022777025625 43.0859
24.82302418230472 43.0199
24.845821592443674 42.9203
24.86862000170663 42.9062
24.891597535453727 42.6981
24.914397953892728 42.897
24.93719937456671 42.9222
24.96000179851076 43.1317
24.98298338249997 43.2524
25.00578782394922 43.52
25.028593271784167 43.6076
25.05157790644186 43.9763
25.07438537804115 43.8466
25.097193859145293 44.199
25.120003350792075 44.3324
25.142992065061257 44.7552
25.165803588823465 45.1404
25.18861612625217 45.2139
25.211429678386736 45.2888
25.234422489079968 45.5477
25.257238081693636 45.5452
25.280054692141732 45.674
25.3028723214652 45.5952
25.325869245420463 45.5034
25.348688923599397 45.3037
25.371509623787006 45.2987
25.394331347025812 45.184
25.41733240110666 44.8518
25.440156181590016 44.1417
25.46298098826268 43.7281
25.48580682216873 43.3979
25.50881202326435 42.7687
25.53163992281684 42.2676
25.55446885274561 41.9423
25.577298814096377 41.5543
25.600308179121807 41.4199
25.623140214533745 41.6048
25.64597328451537 41.3898
25.66898578564376 41.1561
25.691820936010206 41.303999999999995
25.714657124097695 41.1532
25.737494350954734 41.2567
25.760511045684957 41.0892
25.783350361364224 41.2488
25.806190718969255 41.1751
25.82903211955018 41.2789
25.852053024868923 41.2444
25.874896522722523 41.2704
25.897741066713106 41.3923
25.920586657892454 41.5829
25.943611790812668 41.6255
25.966459487728237 41.5797
25.989308234998564 41.5723
26.01215803367705 42.0096
26.03518741123814 41.9678
26.05803932412957 42.0465
26.080892291600094 42.1205
26.10374631470478 42.187
26.12677995397268 42.1659
26.14963609978026 42.2263
26.172493304397875 41.9916
26.19535156888223 41.8754
26.218389486949604 41.5953
26.241249882640123 41.2323
26.26411134137826 41.0592
26.28715248187403 40.9
26.31001607820869 40.8717
26.3328807407756 40.6734
26.35574647063438 40.7478
26.37879191991473 40.6948
26.401659795896734 40.8066
26.424528742360263 41.15
26.447398760366614 41.1693
26.470448535598294 41.2252
26.49332070826805 41.3671
26.516193955675355 41.7332
26.53906827888316 41.8202
26.562122397260108 42.0974
26.584998883685063 42.3658
26.607876449110325 42.6436
26.63075509460056 42.6581
26.65381357334404 42.7059
26.67669439061878 42.5852
26.699576291163382 42.6881
26.722459276044212 42.6595
26.745522132402975 42.3479
26.768407297649354 42.1362
26.791293550442003 41.8027
26.814180891848974 41.472
26.837248143099337 41.2537
26.860137673466657 41.1783
26.88302829566349 40.8112
26.90592001075963 40.6821
26.92899167420566 40.5652
26.951885586870763 40.258
26.974780595655517 39.9433
26.99785558178161 39.9174
27.020752794605112 39.817
27.043651106772522 39.6491
27.06655051935668 39.5223
27.089629948036183 39.3176
27.112531573292053 39.3527
27.135434302194138 39.4426
27.158338135817015 39.1316
27.181422024430987 39.215
27.204328079372566 39.0567
27.22723524226965 39.2287
27.250143514198573 39.1758
27.273231880156334 39.2111
27.296142382065014 39.0254
27.319053996245536 38.8858
27.341966723775965 39.0811
27.365059584515222 39.205999999999996
27.38797455070062 39.2447
27.410890633481237 39.0113
27.433807833936918 39.0476
27.456905206923906 39.118
27.47982465472398 39.0776
27.502745223449743 39.0842
27.525666914182825 39.051
27.548768816912457 39.097
27.571692763693633 39.1917
27.59461783573812 39.0064
27.617723149491244 38.8707
27.640650484125285 38.8885
27.66357894728264 38.7405
27.686508540048052 38.7164
27.709618414237887 38.5406
27.732550278321757 38.5553
27.755483275279115 38.468
27.778417406196485 38.6137
27.801531858397514 38.4793
27.824468269376716 38.5089
27.847405817586786 38.5186
27.870344504116094 38.6151
27.893463551932008 38.7415
27.916404527281053 38.8265
27.93934664422563 38.8898
27.962289903855886 39.0121
27.98541356491974 39.1129
28.00835912214229 39.2919
28.03130582533231 39.4868
28.054253675581805 39.6765
28.077381967556104 39.4794
28.100332124185126 39.5673
28.123283431160893 39.508
28.146235889577238 39.3545
28.169368830154156 39.2525
28.192323603752033 39.0369
28.215279532083304 38.7355
28.238415973016764 38.365
28.261374223145094 38.4353
28.284333631303806 38.1718
28.307294198589954 38.1124
28.330435319167677 37.8551
28.353398217078915 37.452
28.376362277420153 37.2966
28.39932750129032 37.145
28.422473319286713 37.0422
28.44544088262495 37.077
28.468409612800283 36.9338
28.491379510913497 36.6399
28.51453004413313 36.4978
28.53750229057244 36.4675
28.56047570826344 36.3944
28.583450298308804 36.4949
28.606605564586562 36.2373
28.629582511831156 36.2244
28.65256063474956 36.1152
28.675539934446338 36.2071
28.698699951647605 36.1987
28.72168161743193 36.0709
28.74466446331978 36.056999999999995
28.767648490417624 36.0582
28.790813276438353 35.9185
28.813799678527303 35.9582
28.836787265157085 36.0903
28.859955641890075 36.0693
28.882945610203045 36.0284
28.905936766392035 35.8557
28.928929111566863 35.7777
28.952102288520145 35.7356
28.975097024308607 35.6465
28.998092952423807 35.4855
29.021090073977508 35.5763
29.04426806913204 35.4446
29.067267590245258 35.3082
29.090268308143695 35.2284
29.11327022394099 35.1526
29.13645305530891 35.0423
29.159457379627167 34.9201
29.18246290519685 34.9617
29.20546963313352 34.9364
29.22865731875826 34.8336
29.25166646419296 34.9098
29.27467681535305 34.7539
29.29768837335608 34.9057
29.320880931312562 34.7735
29.34389491580634 34.7676
29.366910110507334 34.6973
29.38992651653503 34.7209
29.41312396492981 34.7783
29.436142806456754 34.6508
29.45916286268059 34.4546
29.48236399319994 34.4776
29.50538649169417 34.2902
29.528410208259935 34.352
29.55143514402014 34.1403
29.574641196749695 33.9376
29.597668583816574 33.8356
29.6206971934585 33.659
29.64372702680042 33.6807
29.666938019934474 33.6124
29.689970313635285 33.6272
29.713003834422636 33.6301
29.73603858342347 33.453
29.759254535188578 33.3501
29.78229175361658 33.3683
29.80533020365064 33.5014
29.82836988641968 33.3982
29.85159081507472 33.3096
29.874632976355343 33.2073
29.89767637376955 33.2075
29.920721008448314 33.1146
29.9439469322847 33.1177
29.96699405457564 33.0042
29.9900424175358 32.9851
30.013092022298157 33.1132
30.03632295963995 32.9959
30.059375061131373 32.9461
30.08242840783577 33.0627
30.105483000888153 32.9957
30.128718970092244 33.0248
30.151776069006917 32.8878
30.17483441768648 33.0253
30.198074175317235 32.9176
30.221135036724256 32.9359
30.24419715131772 32.8846
30.267260520236203 32.7295
30.290505341942243 32.8292
30.313571232750228 32.8804
30.336638381310948 32.89
30.35970678876503 32.8913
30.38295669299435 32.6317
30.40602763151657 32.7175
30.429099832366074 32.6585
30.452173296685572 32.5629
30.47542830191959 32.5205
30.498504306502497 32.583
30.521581577995562 32.7726
30.544660117543582 32.6647
30.56792024229725 32.7771
30.59100133132069 32.6608
30.614083691845494 32.6052
30.637167325018545 32.6387
30.660432587840603 32.7224
30.683518779717886 32.5924
30.70660624769615 32.6378
30.729694992924372 32.7083
30.75296541239743 32.6673
30.77605672557558 32.5782
30.799149319462742 32.5334
30.8224236211637 32.5214
30.845518789950724 32.3941
30.868615242910597 32.4096
30.891712981195973 32.2147
30.91499247215866 32.1552
30.938092794619365 31.9945
30.96119440587579 32.0177
30.984297307082752 31.9721
31.00758200598383 31.8281
31.030687500658694 31.775
31.053794288760695 31.7228
31.076902371446767 31.5779
31.100192296997445 31.651999999999997
31.12330298246119 31.6599
31.14641496599209 31.480999999999998
31.169528248749216 31.5626
31.19282341969534 31.5147
31.215939314557186 31.5404
31.239056512134788 31.5069
31.262175013589378 31.455
31.28547544871168 31.3741
31.30859657161541 31.3281
31.331719001892175 31.415
31.35484274070538 31.4597
31.378148458819545 31.3936
31.401274828443725 31.3962
31.424402510106933 31.4062
31.447712205419993 31.4483
31.470842524931633 31.2438
31.493974159989783 31.2515
31.51710711176168 31.3037
31.54042212308802 31.2399
31.563557722100917 31.2467
31.586694641341655 31.1007
31.609832881979628 31.0722
31.63315322823208 30.9759
31.656294125521327 30.9206
31.679436347728515 30.8369
31.70257989602529 30.7338
31.725905596152327 30.6837
31.74905181052835 30.5515
31.772199354521323 30.6993
31.79534822930507 30.6152
31.818679302290967 30.6429
31.84183085259981 30.4955
31.864983737233473 30.5309
31.88813795736804 30.6351
31.911474422233013 30.5121
31.934631327356435 30.6688
31.9577895715215 30.5819
31.980949155906522 30.5453
32.004291031706956 30.456999999999997
32.027453310562606 30.3391
32.05061693318573 30.3403
32.07396288236386 30.2823
32.09712920658542 30.2001
32.12029687812702 30.0688
32.14346589817093 30.0143
32.166817291729984 29.9479
32.18998902288583 29.9302
32.21316210610336 29.8901
32.23633654256711 29.7743
32.259693399663725 29.7218
32.282870556771144 29.5662
32.30604907069099 29.6551
32.329228942610065 29.5345
32.35259128243769 29.4076
32.375773884550505 29.4395
32.398957848235646 29.3829
32.422143174682176 29.2926
32.445511016471215 29.1998
32.468699082679954 29.2808
32.49188851523011 29.2232
32.51507931531304 29.1562
32.538452678331 29.0786
32.56164622776311 28.9839
32.58484114831493 28.9182
32.60803744118015 28.9675
32.631416344731896 28.9375
32.654615396551876 28.9376
32.67781582427913 28.9358
32.701198898634416 28.7804
32.72440209253756 28.7544
32.747606665947124 28.7312
32.77081262006088 28.5912
32.79420126883317 28.6298
32.81740999876112 28.6223
32.840620112999424 28.5205
32.86383161274818 28.5428
32.88722585534586 28.4936
32.91044014056596 28.5068
32.933655814909734 28.3892
32.95687287957963 28.4377
32.98027273544904 28.3361
33.00349259526636 28.3881
33.026713849030116 28.3855
33.04993649794511 28.195
33.073341986570746 28.2054
33.09656744032826 28.1846
33.11979429286444 28.1907
33.14302254538647 28.1806
33.166433686291185 28.155
33.18966475336992 28.0741
33.212897224069096 27.9853
33.23613109959831 28.0441
33.259547912343415 28.119
33.2827846121627 28.0361
33.306022720453775 27.9256
33.32926223842861 27.8646
33.352684742614166 27.8938
33.37592709463173 27.8947
33.399170859982064 27.7268
33.422597648419426 27.674
33.44584425514446 27.5598
33.46909227885668 27.5412
33.4923417207723 27.4545
33.51577423505344 27.5036
33.539026528130385 27.3323
33.56228024307245 27.2693
33.585535381098246 27.1409
33.60897364093058 27.1558
33.63223163992385 27.1687
33.6554910656699 27.0589
33.678751919389796 27.1307
33.702195944520106 26.9951
33.72545966903325 27.0143
33.74872482519663 26.9228
33.771991414233746 26.9434
33.79544122444841 26.9161
33.81871069412428 26.7885
33.84198160035767 26.8073
33.86525394437455 26.8778
33.88870955949969 26.7369
33.911984794020626 26.7403
33.93526147001624 26.713
33.958539588715006 26.587
33.98200102861669 26.4948
34.0052820477047 26.5105
34.02856451319451 26.3756
34.05203033759056 26.3422
34.07531571090147 26.3606
34.09860253431845 26.3432
34.121890809074316 26.2904
34.145362493118924 26.3198
34.16865368561615 26.232
34.191946333164054 26.1885
34.21524043699793 26.2316
34.23871800066799 26.143
34.26201503218366 26.1213
34.28531352370466 26.0288
34.30861347646881 25.9851
34.33209693978188 25.8958
34.3553998301885 25.9128
34.378704185565205 25.8575
34.402010007152356 25.7543
34.42549939016683 25.7926
34.44880815937748 25.7272
34.472118398533134 25.6278
34.49543010887669 25.6403
34.51892543169198 25.47
34.54224009966052 25.5452
34.56555624255917 25.5524
34.58887386163339 25.4783
34.61237514439016 25.362
34.6356957311114 25.4063
34.65901779775809 25.3082
34.68252356662995 25.3384
34.705848608458616 25.3338
34.72917513396849 25.2169
34.75250314440949 25.1821
34.77601490857862 25.073
34.799345904259795 25.0292
34.82267838863559 25.0113
34.846012362958525 25.0632
34.869530142679984 25.0905
34.89286711232212 25.0115
34.91620557568269 25.0302
34.93954553401677 25.0246
34.9630693495876 24.945999999999998
34.986412313340814 24.8972
35.00975677584668 24.8814
35.033102738362956 24.7434
35.05663261012228 24.8008
35.0799815881786 24.6935
35.10333207003229 24.6865
35.12668405694369 24.5979
35.150220005273056 24.6444
35.17357501786656 24.6793
35.19693153931268 24.5727
35.220289570874385 24.475
35.24383161619786 24.5164
35.267192683604904 24.4997
35.290555264930376 24.3816
35.314101899412165 24.4883
35.33746752422433 24.4193
35.36083466676374 24.4045
35.38420332829803 24.3431
35.407756095629054 24.3863
35.43112781085063 24.3565
35.45450104888391 24.318
35.477875810999194 24.2411
35.50143473172161 24.2215
35.52481255774625 24.3022
35.54819191167777 24.1197
35.57157279478914 24.1369
35.595137889488406 24.1081
35.61852184675279 24.1265
35.641907337029984 24.0303
35.665294361595684 23.9963
35.68886565090076 23.9514
35.7122557598848 23.8961
35.73564740699838 23.9513
35.759040593519934 23.8501
35.78261809810353 23.7949
35.80601437933051 23.761
35.829412203814705 23.6958
35.85281157283719 23.6471
35.876395313415884 23.6975
35.8997977874528 23.6055
35.92320180988546 23.4555
35.946790244133936 23.4536
35.97019737933222 23.413
35.993606066789866 23.4454
36.01701630779276 23.4166
36.04061101440684 23.3122
36.06402437852291 23.3512
36.08743930005611 23.3613
36.1108557802951 23.2583
36.13445678011326 23.2988
36.15787639383515 23.1856
36.18129757014299 23.1748
36.20472031032821 23.0822
36.22832762423364 23.0442
36.25175350829375 23.1357
36.275180960119776 22.997
36.298609981005924 23.1
36.32222362992669 23.0161
36.34565580510207 22.9717
36.36908955323448 22.9312
36.39252487562093 22.7848
36.416144880530226 22.8065
36.43958336764275 22.8285
36.463023432914625 22.7508
36.486465077645676 22.6319
36.51009145956204 22.7525
36.53353627947859 22.7573
36.55698268276811 22.7033
36.58043067073321 22.6589
36.60406345072071 22.563000000000002
36.62751462435344 22.4874
36.65096738658405 22.5329
36.67460498210655 22.4953
36.69806093788647 22.4815
36.72151848619297 22.3968
36.744977628333636 22.4671
36.76862165890998 22.3836
36.79208400512205 22.3146
36.81554794910557 22.2665
36.83901349217101 22.1993
36.862663978991606 22.2187
36.88613273667352 22.1621
36.90960309738324 22.1382
36.933075062434064 22.1228
36.95673202673572 22.073
36.98020721697122 21.9745
37.003684015502365 22.0023
37.027162423645365 21.9288
37.050825886711465 21.936999999999998
37.07430753063053 21.8607
37.09779078812467 21.8449
37.121275660513014 21.8219
37.144945643673694 21.8343
37.16843376245278 21.7371
37.19192350009803 21.7149
37.215414857931435 21.7212
37.239091382563885 21.5969
37.262585997426164 21.5986
37.28608223645736 21.5852
37.309763684451696 21.5333
37.33326318851098 21.5212
37.356764320726555 21.5159
37.380267082425526 21.5186
37.40395510942588 21.4657
37.42746114683234 21.4182
37.45096881771841 21.3722
37.474478123414166 21.3947
37.49817275092816 21.3153
37.52168534303452 21.2747
37.54519957395567 21.2124
37.568715445024665 21.1343
37.592416694607714 21.1229
37.61593586281424 21.13
37.63945667518264 21.1076
37.66297913304891 21.0456
37.68668702630454 21.0342
37.710212792059274 20.9732
37.733740207334854 20.8697
37.757269273470364 20.8897
37.780983832050374 20.7845
37.80451621684926 20.7417
37.82805025654007 20.8375
37.851585952464795 20.7802
37.8753071980695 20.6748
37.89884622345676 20.6578
37.92238690911902 20.6306
37.94611318753442 20.5565
37.969657210779765 20.5539
37.99320289834801 20.5931
38.016750251586465 20.5792
38.04048325513017 20.5139
38.06403395679343 20.463
38.087586328183946 20.4228
38.11114037065203 20.412
38.13488012115898 20.4141
38.1584375229181 20.3615
38.181996599821 20.3365
38.205557353221124 20.2792
38.229303872575656 20.2222
38.2528679961576 20.1862
38.27643380031219 20.1581
38.30000128639589 20.1241
38.32375459653193 20.1296
38.34732546371299 20.0973
38.37089801690786 20.0145
38.39447225747609 19.9955
38.418232380377425 19.9269
38.441810012983396 19.9679
38.46538933705673 19.8856
38.488970353960084 19.9379
38.51273731166058 19.887
38.536321731567014 19.8258
38.55990784840681 19.8054
38.58367995004091 19.7681
38.60726947812959 19.6862
38.63086070726198 19.6937
38.654453638806274 19.6397
38.678232613930824 19.5848
38.70182896773327 19.614
38.72542702806741 19.5732
38.7490267963045 19.5673
38.77281266709232 19.4749
38.79641586862214 19.5077
38.8200207821842 19.4404
38.843627409152944 19.4323
38.86742019782782 19.4126
38.891030269149255 19.3029
38.914642058016156 19.3283
38.938255565806124 19.3109
38.96205529464307 19.2512
38.98567225787121 19.2504
39.00929094417078 19.2243
39.03291135492255 19.2141
39.05671804624804 19.1035
39.080341923549106 19.105
39.103967529460334 19.1236
39.127594865365744 19.0547
39.15140854155791 19.0447
39.17503935514948 18.9735
39.19867190290282 19.033
39.22249083587951 18.9483
39.24612686969409 19.0031
39.269764641845306 18.9059
39.293404153722804 18.855999999999998
39.317230110864074 18.7508
39.34087311998506 18.7807
39.36451787301696 18.8056
39.388164371352595 18.6644
39.41199737518003 18.5992
39.43564738196752 18.6692
39.45929913825317 18.6207
39.48295264543308 18.5778
39.506792718520884 18.6177
39.530449745387216 18.5696
39.55410852735203 18.48
39.57776906581474 18.5338
39.60161623079 18.4688
39.625280300200025 18.3794
39.64894613032202 18.4296
39.67261372255866 18.4253
39.6964680021016 18.3672
39.72013913657293 18.3571
39.74381203738292 18.3393
39.76748670593756 18.3331
39.79134812278169 18.2336
39.81502634488497 18.2196
39.83870633896685 18.1834
39.862388106436654 18.0891
39.88625668336918 18.1033
39.90994201572829 18.1425
39.933629125719285 17.9759
39.957503091207826 17.9765
39.9811937746168 18.0218
40.00488623990914 17.9616
40.02858048850006 17.9249
40.05246165409549 17.9294
40.076159487492085 17.8191
40.099859108448875 17.8639
40.123560518384345 17.8381
40.1474489070226 17.8481
40.171153913178564 17.7777
40.194860712584955 17.7543
40.2185693066637 17.7634
40.242464941335314 17.688
40.26617714307655 17.6857
40.289891143772046 17.6475
40.3136069448471 17.6154
40.33750984859743 17.5871
40.3612292688043 17.5823
40.3849504936829 17.4652
40.40867352466194 17.5012
40.43258372059144 17.4991
40.45631038219906 17.4294
40.48003885420956 17.4065
40.503769138055105 17.4039
40.52768664931955 17.339000000000002
40.55142057531802 17.3462
40.57515631746428 17.2796
40.599079334038514 17.2967
40.62281872700477 17.2121
40.64655994043941 17.2385
40.67030297578061 17.1722
40.69423334835778 17.1229
40.71798004609188 17.1287
40.74172857006355 17.0823
40.76547892171441 17.0694
40.7894166736039 17.0847
40.813170699248566 17.0105
40.83692655691388 16.9894
40.86068424804498 17.0202
40.884629402612525 16.9864
40.908390779366385 16.9212
40.932153993938 16.8871
40.95591904777605 16.8422
40.979871628443995 16.9061
41.003640379561936 16.879
41.02741097430883 16.8141
41.05118341413683 16.8143
41.075143444384416 16.7235
41.098919593177826 16.6905
41.1226975914255 16.7355
41.14647744058318 16.6272
41.170444943946755 16.6096
41.19422851378379 16.6302
41.218013938914645 16.5587
41.24198706625173 16.479
41.26577622087193 16.4807
41.289567235177785 16.4524
41.31336011063129 16.4514
41.337340752422875 16.4293
41.361137369129835 16.4174
41.38493585138705 16.3591
41.40873620066004 16.3101
41.43272438060107 16.3151
41.45652848292052 16.2882
41.48033445666918 16.2677
41.50414230331616 16.1901
41.528138045159764 16.1454
41.551949656675205 16.1382
41.575763145513235 16.1564
41.59957851314666 16.1152
41.62358184070442 16.0405
41.64740098505737 15.9965
41.6712220126409 15.9988
41.69504492493139 15.9949
41.71905586207357 15.9674
41.74288256296395 15.9577
41.766711153007456 15.9491
41.79054163368412 15.8738
41.814560204340054 15.9164
41.838394485526365 15.9272
41.86223066180303 15.8375
41.88625497706819 15.8126
41.910094962812 15.7917
41.93393684811168 15.7326
41.95778063445365 15.7032
41.981812625263366 15.6716
42.00566023303407 15.6784
42.029509746323676 15.6473
42.05336116662236 15.6301
42.077400857069705 15.5939
42.10125611078846 15.6172
42.12511327600405 15.4961
42.14897235421036 15.5203
42.173019768448455 15.4731
42.19688269209613 15.4619
42.22074753323349 15.4152
42.24461429335818 15.3481
42.268669455600495 15.3673
42.292540073217886 15.3401
42.31641261433284 15.372
42.34028708044675 15.3209
42.36435001496739 15.2817
42.38822835065557 15.2844
42.41210861586426 15.1964
42.4359908120986 15.197000000000001
42.46006154323262 15.1419
42.48394762115317 15.135
42.507835634632315 15.1167
42.531912233047436 15.0919
42.55580413732265 15.1425
42.579697981698 15.0869
42.60359376768525 15.0367
42.62767820545945 14.9938
42.65157789440821 14.9845
42.67547952952185 14.9116
42.699383112316 14.8836
42.72347541395347 14.8882
42.74738291190531 14.8643
42.771292362102166 14.8754
42.795203766063516 14.775
42.819303956130405 14.7921
42.843219287476536 14.7761
42.86713657716324 14.698
42.89105582671383 14.6995
42.91516392983864 14.7047
42.939087119032166 14.6744
42.963012272677304 14.6564
42.98693939230129 14.5813
43.01105543317513 14.6042
43.034986504731386 14.5312
43.05891954686589 14.5626
43.08285456110972 14.5552
43.10697856448665 14.4996
43.130917542983475 14.4116
43.15485849820081 14.4509
43.17880143167367 14.405
43.20293342237094 14.4063
43.226880332449 14.3127
43.25082922540554 14.3717
43.27496722682525 14.2796
43.29892010567796 14.2902
43.32287497204102 14.2273
43.34683182745632 14.2253
43.370977859791836 14.2195
43.39493871351105 14.2273
43.41890156092628 14.1986
43.44286640358341 14.1706
43.46702049182749 14.1275
43.49098934522816 14.1197
43.51496019852649 14.0558
43.5389330532723 14.0615
43.56309522248204 14.0062
43.58707210044314 14.0117
43.61105098451946 13.942
43.63503187626491 13.9602
43.659202151562134 13.8875
43.68318707902681 13.9334
43.70717401884041 13.8598
43.731162972560874 13.8472
43.75534137913236 13.8413
43.779334381108384 13.7988
43.803329401683186 13.7601
43.82732644241872 13.7783
43.8515130055166 13.7455
43.87551410707659 13.7125
43.89951723350145 13.7066
43.923709934595614 13.664000000000001
43.94771713129917 13.6106
43.97172635758096 13.6052
43.99573761501002 13.612
44.0199385169922 13.5866
44.04395385732619 13.5092
44.067971233533086 13.5097
44.09199064718605 13.5095
44.11619977548961 13.4763
44.14022328470671 13.4485
44.16424883610785 13.4429
44.18827643127035 13.3996
44.21249381139513 13.4059
44.236525514814076 13.4233
44.26055926674478 13.309000000000001
44.28459506876863 13.3685
44.3088207262813 13.2796
44.33286064928722 13.255
44.35690262714919 13.2391
44.38094666145278 13.1566
44.4051806219871 13.2537
44.42922879003185 13.1963
44.45327901929361 13.1153
44.477331311362136 13.0981
44.501573600619416 13.0706
44.525630039221795 13.0555
44.54968854541895 13.0486
44.573937102200176 13.0624
44.5979997645541 13.0236
44.622064499300315 12.9633
44.64613130803592 12.9779
44.67038823869318 12.9733
44.69445921643748 12.9283
44.718532272981385 12.8912
44.742607409926194 12.9069
44.76687274034801 12.8434
44.79095205918753 12.8403
44.81503346325094 12.8192
44.839116954143876 12.7915
44.86339071028742 12.7467
44.88747839599524 12.7585
44.91156817336837 12.6917
44.93566004401666 12.6853
44.959942251908146 12.6654
44.984038330325966 12.6584
45.00813650686762 12.6009
45.03223678314731 12.6172
45.05652746888232 12.5905
45.08063196592069 12.5454
45.104738567558705 12.5626
45.128847275414856 12.4873
45.15314646515866 12.447000000000001
45.17725940679741 12.4593
45.20137445952892 12.4508
45.22568004865265 12.4462
45.24979934496396 12.3863
45.27392075725247 12.3672
45.29804428714431 12.3465
45.322358426247604 12.3387
45.346486212804315 12.3595
45.370616121861914 12.3426
45.39474815505086 12.2888
45.41907087049246 12.2196
45.4432071734666 12.1928
45.46734560548283 12.2719
45.49148616817604 12.2146
45.51581748638564 12.16
45.5399623320197 12.1368
45.56410931325473 12.0899
45.58825843173002 12.1109
45.61259837920865 12.0581
45.636751793816 12.0512
45.66090735060093 12.0339
45.68506505120716 12.0038
45.7094136545275 11.9749
45.73357566449271 11.9362
45.75773982322992 11.9343
45.78190613238733 11.9085
45.806263418194064 11.8726
45.83043404997326 11.8946
45.85460683713677 11.8589
45.87897065658495 11.8595
45.90314777634752 11.8226
45.92732705646868 11.7984
45.9515084986045 11.7486
45.97588104735473 11.7565
46.00006683541565 11.7699
46.02425479047904 11.7245
46.04844491420549 11.7085
46.0728262191024 11.7
46.09702070211635 11.6825
46.12121735879483 11.6768
46.14541619080294 11.6253
46.169806278764455 11.6026
46.194009483459034 11.5851
46.21821486849841 11.565999999999999
46.24242243555223 11.4775
46.266821333570014 11.5294
46.29103328674601 11.4724
46.31524742696538 11.4601
46.33946375590237 11.4057
46.36387149104216 11.4055
46.38809221957392 11.3958
46.41231514186606 11.3866
46.436540259597464 11.4094
46.460956858999374 11.3178
46.48518638983522 11.3101
46.509418121166966 11.3131
46.533652054678114 11.2888
46.55807754555709 11.2776
46.58231590571962 11.2708
46.60655647313217 11.1632
46.630988654873654 11.2219
46.655233659129024 11.1737
46.67948087571551 11.1849
46.70373030632484 11.0812
46.72817142736393 11.1274
46.752425308428684 11.0911
46.77668140861147 11.1026
46.80093972960865 11.0408
46.82538981736788 11.0264
46.849652602470904 11.0184
46.87391761349769 10.9708
46.8981848521493 10.9619
46.9226439341274 10.9343
46.946915650573224 10.9278
46.97118959976749 10.8978
46.99546578341598 10.8528
47.019933887188216 10.8553
47.04421456235744 10.8672
47.06849747711879 10.8123
47.09278263318286 10.7848
47.11725978640143 10.7545
47.14154944775105 10.7113
47.165841355555656 10.7324
47.1901355115306 10.7275
47.214621741924994 10.7251
47.23892041698887 10.7126
47.26322134538975 10.683
47.28771440635075 10.6637
47.31201986422527 10.6428
47.33632758061436 10.6337
47.360637557241866 10.5991
47.38513974410611 10.5823
47.40945426407847 10.5494
47.43377104948137 10.5084
47.45809010204344 10.5095
47.48260144275502 10.5217
47.506925052572285 10.4791
47.53125093475548 10.4355
47.55557909103813 10.4265
47.58009961361992 10.4027
47.60443234110732 10.3664
47.62876734791564 10.3527
47.65310463578333 10.350999999999999
47.6776343683373 10.350999999999999
47.7019762413987 10.2665
47.72632040075572 10.284
47.75066684815169 10.2654
47.77520581885936 10.2253
47.799556865477655 10.2431
47.823910205386 10.2044
47.84826584033272 10.1918
47.87281407745551 10.1715
47.89717432569297 10.1751
47.92153687423484 10.1735
47.94609208429692 10.1163
47.97045925671401 10.0868
47.99482873471275 10.1301
48.01920052005013 10.088
48.04376504619224 10.0671
48.068141469543484 10.0743
48.09252020552573 10.0578
48.11690125590099 10.0175
48.1414751266064 9.96994
48.16586082917454 9.96519
48.19024885144316 9.917710000000001
48.2146391951793 9.949869999999999
48.239222439012764 9.95992
48.26361744916137 9.91422
48.28801478610016 9.887410000000001
48.31241445160131 9.88591
48.337007097209366 9.82666
48.36141144338331 9.83197
48.38581812345755 9.79193
48.41022713920929 9.77834
48.434829215320704 9.80218
48.45924292604658 9.7702
48.48365897780325 9.73217
48.50807737237308 9.752930000000001
48.532688907799276 9.72107
48.55711201168574 9.67405
48.581537463754074 9.693010000000001
48.60615611725119 9.69848
48.63058628942721 9.675089999999999
48.65501881516546 9.62146
48.6794536962573 9.63836
48.70408185970339 9.58743
48.72852147531801 9.55753
48.75296345168211 9.53503
48.77740779059232 9.52541
48.80204549302823 9.54646
48.82649458091802 9.49254
48.85094603676547 9.45308
48.87539986237231 9.42494
48.90004713292306 9.42269
48.92450572200832 9.43828
48.94896668628025 9.413219999999999
48.97343002754588 9.36837
48.99808689542115 9.357560000000001
49.02255501470614 9.37102
49.04702551642794 9.33813
49.0714984023988 9.32139
49.096164896893235 9.30903
49.120642575466796 9.266160000000001
49.145122643748394 9.24724
49.16960510355558 9.22462
49.19428125404938 9.22974
49.2187685210852 9.20921
49.243258185121555 9.19497
49.26794160167084 9.206339999999999
49.2924360839405 9.172130000000001
49.31693296869764 9.12118
49.34143225776915 9.09195
49.36612538195438 9.063189999999999
49.39062950396021 9.07927
49.41513603578346 9.099089999999999
49.4396449792564 9.057319999999999
49.46434784069503 9.065719999999999
49.488861631846454 8.99898
49.513377840166804 8.99673
49.537896467493745 8.93793
49.56260909589029 8.93573
49.587132585683285 8.92872
49.611658500018365 8.94852
49.636186840738596 8.90593
49.66090926588511 8.916780000000001
49.685442483902584 8.87759
49.70997813385706 8.85035
49.734516217597076 8.82139
49.75924846937352 8.83799
49.7837914452858 8.831
49.80833686055187 8.78795
49.83288471702571 8.792119999999999
49.85762682540054 8.796339999999999
49.882179588965734 8.77008
49.9067347993235 8.706489999999999
49.93129245833333 8.722489999999999
49.95604445336378 8.71265
49.98060703442832 8.68777
50.005172069746266 8.62899
50.02993150438364 8.627239999999999
50.05450147301533 8.60497
50.07907390151433 8.58663
50.10364879174981 8.59591
50.12841816587289 8.56862
50.1529980044635 8.561110000000001
50.17758031042124 8.563410000000001
50.20216508562089 8.535960000000001
50.22694442953363 8.48072
50.25153416817468 8.47958
50.27612638170508 8.47101
50.300721072005196 8.464739999999999
50.325510416102105 8.4039
50.350110084975064 8.41061
50.37471223628208 8.422839999999999
50.39931687190919 8.405289999999999
50.424116246675766 8.384260000000001
50.44872587605249 8.34268
50.47333799543065 8.34362
50.49795260670191 8.33331
50.52276204271512 8.29307
50.54738166295838 8.31419
50.57200378079314 8.28621
50.596628398116835 8.25014
50.62144792604559 8.22922
50.646077567609396 8.22904
50.670709714377715 8.22823
50.69553683636198 8.21877
50.72017401885922 8.18587
50.7448137122895 8.17244
50.76945591856022 8.125060000000001
50.79429318636823 8.171339999999999
50.818940443716784 8.14021
50.84359021965163 8.07801
50.868242516085964 8.08018
50.893089960641895 8.02745
50.917747323549435 8.05771
50.94240721271973 8.04624
50.96706963007175 8.04186
50.99192728239342 8.01021
51.01659478166073 8.01385
51.04126481489051 7.96652
51.06593738400761 7.9451
51.090805275207074 7.9356800000000005
51.11548294172845 7.93077
51.14016314993547 7.94235
51.164845901758845 7.918239999999999
51.18972406304274 7.88554
51.21441192780656 7.85625
51.23910234200271 7.87887
51.2637953075678 7.82265
51.288683770237945 7.82941
51.31338186432707 7.78689
51.33808251561888 7.7602899999999995
51.362978729967345 7.74948
51.387684521509755 7.77533
51.41239287610203 7.7439
51.437103795691165 7.73509
51.46201036644977 7.7160899999999994
51.486726441956634 7.70718
51.51144508832545 7.691210000000001
51.536166307509156 7.61055
51.56108326624387 7.62856
51.58580965706056 7.628769999999999
51.61053862657523 7.62852
51.635270176746864 7.56445
51.66019755512065 7.58185
51.68493429268881 7.53636
51.70967361681515 7.5298300000000005
51.73441552946465 7.53012
51.759353359237934 7.5289600000000005
51.7841004750961 7.518560000000001
51.80885018539685 7.50776
51.833602492111254 7.48155
51.8585508051424 7.47125
51.883308330926425 7.4338
51.90806845906181 7.430039999999999
51.932831191525715 7.426419999999999
51.95779001977161 7.39665
51.98255798721516 7.3878699999999995
52.00732856494335 7.378010000000001
52.03229530577543 7.38082
52.057071130455945 7.31734
52.081849571391054 7.316839999999999
52.106630630568695 7.2786100000000005
52.13160794279417 7.269939999999999
52.15639426492067 7.30824
52.18118321127822 7.23469
52.205974783860896 7.227069999999999
52.23096269971011 7.22832
52.255759551287994 7.21373
52.280559035098186 7.17278
52.30536115314103 7.19021
52.33035970494467 7.15901
52.35516711807904 7.1692
52.37997717147198 7.176660000000001
52.40478986713005 7.14266
52.42979908731974 7.11866
52.454617094216 7.09576
52.47943774942214 7.103089999999999
52.50426105495102 7.0583100000000005
52.529280976059844 7.0319899999999995
52.554109609024096 7.04932
52.57894089837482 7.004989999999999
52.60377484613117 6.9770199999999996
52.62880550079408 6.99935
52.65364479223379 6.952710000000001
52.67848674816189 6.969239999999999
52.70352547971946 6.98826
52.72837279155837 6.9316699999999996
52.753222773982785 6.8873
52.778075429022984 6.929869999999999
52.80312495150885 6.882680000000001
52.827982978797436 6.8731800000000005
52.85284368481815 6.86278
52.87770707160767 6.8351
52.90276741793998 6.82229
52.92763619336701 6.81296
52.952507655698504 6.8184
52.977381806977576 6.7425
53.00245301017842 6.739210000000001
53.02733256653592 6.80002
53.052214817996074 6.73808
53.077099766608484 6.71018
53.102181859804446 6.68681
53.127072229988265 6.70737
53.15196530349892 6.672619999999999
53.17686108239249 6.65269
53.20195409881522 6.664839999999999
53.22685531582556 6.7020100000000005
53.25175924441303 6.625589999999999
53.27666588664027 6.650339999999999
53.30176985962693 6.6032
53.3266819565689 6.585710000000001
53.35159677336455 6.56648
53.376514312083096 6.5873
53.40162927507703 6.54985
53.42655228516116 6.5639
53.45147802340193 6.5155199999999995
53.47660125628886 6.49929
53.50153247842639 6.47776
53.52646643496923 6.493930000000001
53.55140312799818 6.44712
53.576537409691696 6.45107
53.60147960336152 6.43291
53.626424539786164 6.42561
53.65137222105307 6.39266
53.67651758529126 6.374219999999999
53.70147078399681 6.35087
53.72642673383343 6.39562
53.75138543689533 6.36371
53.776541917524526 6.34134
53.801506154876755 6.32993
53.826473151763246 6.29764
53.851442910284916 6.27447
53.87661054126026 6.27415
53.9015858509782 6.2511
53.92656392866066 6.30163
53.95154477641532 6.23244
53.976723591801296 6.24296
54.00171000771266 6.24812
54.02669920004598 6.237769999999999
54.051691170915745 6.24921
54.076881204886796 6.18885
54.101878760928514 6.18194
54.12687910187696 6.13814
54.152077577768296 6.13037
54.1770835166946 6.129980000000001
54.20209224691339 6.12135
54.22710377055121 6.08815
54.25231352511594 6.05219
54.27733066384342 6.03935
54.30235060239643 6.037999999999999
54.32737334290836 6.0250699999999995
54.35259441062629 5.95056
54.377622783395324 5.98259
54.40265396455061 5.99707
54.42768795623251 5.9737
54.45292037169559 5.93341
54.477960012857906 5.8924900000000004
54.50300247099511 5.87691
54.52804774825457 5.86394
54.55329154616743 5.86029
54.57834249018678 5.875030000000001
54.6033962597977 5.81964
54.6284528571545 5.77574
54.653708072335164 5.7663400000000005
54.67877035378786 5.74416
54.70383546947698 5.75924
54.72890342156389 5.69865
54.7541700889442 5.65019
54.77924374251975 5.69284
54.8043202390049 5.6689
54.82959552413022 5.68065
54.8546777351945 5.63919
54.87976279569621 5.55124
54.90485070780914 5.59992
54.930137506558005 5.53156
54.95523115074295 5.54101
54.98032765308844 5.55246
55.005427015775496 5.49783
55.03072536339621 5.5155
55.05583047570572 5.45719
55.080938454927676 5.46396
55.10604930325027 5.4309199999999995
55.131359235107396 5.420730000000001
55.15647585066083 5.37481
55.181595341907496 5.33914
55.20671771104285 5.34249
55.232039262617704 5.304209999999999
55.25716741665048 5.27424
55.28229845518636 5.30529
55.30743238042802 5.24175
55.33276558731939 5.19913
55.357905315183636 5.223
55.383047936390035 5.15055
55.40819345314859 5.1574
55.433538351073295 5.10196
55.458689688238415 5.06243
55.483843927614096 5.02452
55.509197623043605 5.05949
55.53435769621134 5.02458
55.55952067826466 5.045730000000001
55.5846865714265 4.99092
55.61005202069737 4.95496
55.63522376553902 4.94209
55.66039842818645 4.93339
55.68557601087004 4.9568
55.7109532500271 4.8695900000000005
55.73613670233794 4.89066
