TT I
1.2716486653135266 7.22777
1.2939594142134223 6.93053
1.3162702121660406 6.48595
1.3385810600174564 6.492380000000001
1.3608919586137629 6.66409
1.383202908801069 6.50413
1.405513911425503 5.92612
1.4278249673332093 6.3535
1.4501343378461518 5.60767
1.4724455028545926 5.69724
1.4947567236847858 5.96699
1.517068001182951 5.91805
1.5393793361953272 5.9918
1.5616907295681737 5.7733099999999995
1.5840021821477681 5.241630000000001
1.60631369478041 5.76235
1.6286252683124185 5.570930000000001
1.6509369035901333 4.51486
1.6732468618895553 5.05354
1.695558623192809 4.301480000000001
1.7178704487808514 4.53831
1.7401823395001077 4.66259
1.7625012545597203 4.89955
1.7848028405262486 4.69931
1.8071218901122095 4.72396
1.8294236121921872 4.46237
1.8517427996910911 4.54683
1.8740620574440425 4.27308
1.8963639900671978 4.99656
1.9186833908139995 4.6911
1.9409854680117449 4.4606
1.9633050151394713 4.39464
1.9856246367570705 4.75962
2.0079269371922672 4.605630000000001
2.03024671027244 4.57935
2.0525491637446027 4.653969999999999
2.074869091674931 4.1144099999999995
2.097171701569106 4.187930000000001
2.1194917877373847 4.54943
2.141811954326636 4.89447
2.164114805233074 4.94835
2.186435135143035 5.0175
2.208738150935709 9.67254
2.231058647554722 18.8936
2.2533792288321184 14.8471
2.275682498336085 7.987660000000001
2.298003251406138 5.45526
2.3203066942619714 5.01197
2.3426276225136022 5.71291
2.3649486396617507 5.3971800000000005
2.387252348930071 5.34959
2.4095735463442893 5.6489199999999995
2.4318774374315884 5.69339
2.4541988185014043 5.727869999999999
2.476502894794693 6.57724
2.498824462909887 6.54577
2.521146125856138 6.7246
2.5434504863470337 7.09669
2.5657723414244717 7.375030000000001
2.588076895590662 7.69848
2.610398946189713 7.938210000000001
2.6327210958598384 7.6722600000000005
2.6550259469304716 7.95154
2.6773482972090137 8.09639
2.6996533504259 8.11084
2.7219759047039602 8.3351
2.744298562293959 8.41873
2.7666039251246595 8.19994
2.7889267918020164 7.753760000000001
2.8112323652516555 8.128110000000001
2.833555444408179 8.373489999999999
2.8558786311183852 8.468810000000001
2.8781845268938557 8.489180000000001
2.9005079311721484 9.04889
2.9228140460410397 9.3072
2.9451376712799635 8.87861
2.967444008632326 9.95967
2.9897678582247247 9.90465
3.0120918213106695 10.6494
3.0343984987899373 10.615
3.0567226913198637 10.8978
3.079029599759726 11.5859
3.101354025127254 11.9608
3.123678568232338 12.89
3.145985829517914 12.7806
3.16831061055229 13.0025
3.1906181112775593 14.217
3.212943133635653 14.5563
3.2352682779763207 15.091
3.2575761442691227 15.1512
3.2799015350264273 15.5422
3.302209649240067 16.3205
3.3245352898092655 17.0536
3.3468436553365257 17.134
3.369169549113219 17.9311
3.3914955708171384 18.9327
3.413804319727358 18.8987
3.4361305997334863 18.656
3.4584396084414553 19.4341
3.4807661501462652 19.8895
3.503092824025881 20.615
3.5254022288463154 21.0196
3.5477291695206588 21.2032
3.5700388426251948 22.1412
3.5923660534916446 23.2396
3.6146934007816114 32.6108
3.637003482731501 62.5529
3.6593311053109985 67.4688
3.681641464033634 43.2407
3.7039693653009733 27.8485
3.726297407241705 25.6849
3.7486081875460804 25.4785
3.7709365132734978 26.116999999999997
3.793247578841633 26.46
3.8155761917550093 26.476
3.8378875459837216 26.8902
3.8602164494827234 26.9781
3.882545499606844 28.2723
3.9048572932539183 28.9364
3.9271866390645718 28.8499
3.9494987298666713 29.5874
3.971828374764527 29.9822
3.9941581705403255 30.6733
4.016470713506008 31.0453
4.038800813471445 31.6501
4.061113662089144 32.7188
4.0834440696459176 33.4499
4.105774632334751 33.4885
4.128087945865126 34.5355
4.150418821249301 35.0618
4.172732448931298 36.1266
4.195063640413578 37.2672
4.2173775856475215 40.4267
4.239709096631102 59.6163
4.262040768704612 155.555
4.284355196706267 201.743
4.306687193387355 133.998
4.329001947444346 63.7594
4.35133427213731 45.153999999999996
4.373666762177566 43.8101
4.395982011761091 43.8423
4.418314834921175 44.7284
4.44063041906622 50.0725
4.4629635787515625 56.2144
4.4852969080429785 56.6637
4.5076130004776225 52.2973
4.529946671403969 52.9401
4.552263106909177 54.4364
4.574597122877047 53.2251
4.596931312711224 53.4992
4.619248269273446 53.4459
4.6415828092605835 54.25
4.663900117405352 55.4813
4.686235010953232 56.8876
4.708552674085913 58.3079
4.730887924602802 59.8349
4.753223354952695 61.3705
4.775541557023902 63.7442
4.797877349456786 66.1925
4.820195915032126 67.4618
4.842532072957498 68.4197
4.864868414979744 70.3209
4.88718753227192 72.8605
4.909524244902505 74.5692
4.931843734218147 75.5853
4.954180820867835 78.0595
4.976518095879839 81.2242
4.998838149695359 83.7177
5.021175803844231 87.5488
5.043496238205739 91.0259
5.065834274903528 95.594
5.088172504230693 100.316
5.1104935158799565 107.146
5.132832132875765 127.059
5.155153533596801 160.435
5.1774925416746225 203.498
5.199814334878411 416.181
5.2221537374521505 1109.18
5.244493338631803 3027.54
5.266815727034316 7865.16
5.289155727832427 12552.1
5.311478517248165 8676.76
5.333818921080011 2696.37
5.356159527788849 528.256
5.3784829252032536 190.292
5.400823940070432 148.16
5.423147747031976 129.55100000000002
5.445489173474152 119.375
5.467830807066149 115.384
5.490155234831516 113.12200000000001
5.512497285125229 108.743
5.534822130975162 104.81
5.557164601388673 102.161
5.579489868738879 98.9752
5.601832762690846 98.3879
5.6241758697774475 97.1152
5.646501775867269 96.3458
5.668845311622074 94.96600000000001
5.691171647754637 94.9908
5.713515615597765 93.6041
5.735859800852677 92.9489
5.758186788542988 93.0919
5.780531411018185 94.9191
5.802858837297399 93.8608
5.825203900414495 94.2457
5.8475491852224 95.8928
5.869877275883075 95.99700000000001
5.892223006467101 95.1729
5.914551544266608 95.7688
5.936897724049891 98.6684
5.959244129804903 105.137
5.981573344815301 131.85399999999998
6.0039202049061 243.37400000000002
6.026249875609095 505.086
6.04859719346037 1019.21
6.070927323278297 2270.49
6.093275102315365 4569.14
6.115623113320588 5147.52
6.137953938319995 3108.02
6.160302415650845 913.385
6.182633708324452 216.333
6.2049826554078376 110.208
6.227331838745022 91.4769
6.249663839443684 83.9235
6.27201349767565 80.6138
6.294345974611799 83.8379
6.316696111167083 89.274
6.339046488263839 85.6184
6.361379686074702 76.2774
6.383730546639482 70.8425
6.406064229255215 69.0728
6.428415576718203 69.2707
6.450749747566656 68.0595
6.47310158535871 66.2335
6.495453669698332 64.9082
6.517788579421056 64.5019
6.540141159237969 63.2405
6.562476565766648 62.8959
6.5848296444934045 62.8784
6.607182974060425 62.3279
6.6295191323281015 62.6441
6.651872965955752 64.043
6.6742096296068985 79.2935
6.6965639707294615 105.81700000000001
6.71891856698715 106.022
6.741255995248479 79.4483
6.763611104154477 63.4816
6.785949046381137 59.0918
6.808304671371482 58.9054
6.8306605557940046 59.3802
6.852999275508618 58.1877
6.875355681171544 57.1898
6.897694923437771 56.6259
6.92005185377892 56.341
6.9423916220322655 55.997
6.964749080490181 55.5163
6.987106804399774 55.2291
7.009447368180821 55.5782
7.031805625367033 55.5042
7.054146723727803 55.3481
7.076505517631004 54.8017
7.098864581288365 54.9564
7.121206488070854 54.8577
7.143566093607822 55.1272
7.165908543567245 55.4386
7.188268694426048 55.1807
7.2106291193438095 55.0318
7.232972390625943 55.5018
7.255333366030969 63.3458
7.277677189091925 95.4072
7.300038718428332 123.883
7.322400526130865 107.736
7.344745183422596 74.3667
7.367107550224791 57.9656
7.389452767901992 55.5711
7.411815697249891 54.6084
7.434161478756298 54.0277
7.456524974096713 53.8463
7.478888753837185 54.1162
7.501235387657368 54.5367
7.523599738562711 54.4833
7.545946944825532 54.4089
7.568311870344528 55.0456
7.5906770845765665 55.5565
7.613025156078678 56.0904
7.635390950099687 57.0742
7.657739602662809 56.61600000000001
7.680105979923558 55.9856
7.702472650212829 56.2424
7.724822180948224 55.9081
7.747189439655568 55.9114
7.769539560075357 56.0449
7.791907410653562 56.5471
7.81425812420825 56.6323
7.836626570110925 56.8209
7.858995315087906 57.5264
7.881346924933401 57.3598
7.903716270417482 58.3357
7.926068482028405 58.6171
7.948438431475253 59.1611
7.9708086843180235 59.5143
7.993161805171116 60.3041
8.015532667162402 60.7098
8.037886398416653 62.0334
8.060257873014221 62.4291
8.082629655331942 63.1039
8.104984308787587 63.5688
8.127356708900503 66.2987
8.149711981398308 70.8328
8.172085002766314 72.6809
8.194458336181368 70.4465
8.216814543847752 68.9002
8.23918850371002 69.4274
8.26154533906492 70.0727
8.283919928836452 71.9886
8.306277395339652 72.8811
8.328652618483376 74.3265
8.351028159736202 76.1251
8.373386579575245 78.1477
8.395762759396959 80.2675
8.418121819038275 84.8342
8.440498640894003 94.4027
8.462875785192262 106.64
8.485235811156207 129.192
8.507613602688501 183.574
8.529974277114228 273.845
8.552352719347912 411.19800000000004
8.574731488360351 686.637
8.59709314210385 1243.78
8.619472567021075 1937.44
8.64183487789147 2238.42
8.664214962183097 1760.32
8.686577933647762 865.26
8.708958680784317 342.648
8.731339760774953 152.938
8.753703729764451 107.95100000000001
8.77608547780821 98.244
8.798450116065078 94.6593
8.820832535634787 92.2645
8.843215292401656 91.4645
8.865580941199045 90.6517
8.887964374703538 90.0592
8.910330701447199 90.3047
8.932714815164482 90.9815
8.955099270424924 89.3457
8.977466620733543 86.9207
8.999851761421976 85.2674
9.022219798361645 83.9347
9.04460562795561 83.5375
9.066991803441677 83.2158
9.089360876979615 83.3124
9.111747746589993 83.3043
9.13411751544971 82.1993
9.156505082664324 81.8616
9.178875550323522 82.1189
9.20126381862328 82.0504
9.223652438908596 82.4663
9.246023961427412 82.7856
9.26841328802173 82.006
9.290785518039224 82.0892
9.313175554425882 83.4902
9.335565947154315 84.3611
9.357939245086508 84.3275
9.380330352834827 84.2061
9.40270436697103 84.2504
9.425096193225055 83.98100000000001
9.447488380180165 84.3775
9.469863475295412 84.4089
9.492256385987508 84.7062
9.514632206018318 85.5781
9.537025843935714 85.6244
9.559402392368193 86.6494
9.581796761000229 88.3615
9.604191496441521 89.3614
9.626569144158516 92.3693
9.648964615551032 95.02799999999999
9.671343000390081 95.5702
9.693739211225699 94.3159
9.716135793237463 93.0858
9.738515290448102 93.5022
9.760912617143402 94.5523
9.783292860202891 95.9443
9.805690935076182 98.1338
9.828089385495742 99.1206
9.850470754023561 100.428
9.872869957865444 105.62200000000001
9.89525208097539 115.361
9.917652041736662 124.524
9.940052382417589 130.69899999999998
9.962435644102392 151.74200000000002
9.984836746950979 196.502
10.007220771957746 259.89099999999996
10.029622640473708 365.816
10.052007432299963 548.221
10.074410069984072 854.4789999999999
10.096813093716005 1303.7
10.119199042482517 1793.85
10.141602840636468 1994.93
10.163989564971628 1549.71
10.186394141051062 830.112
10.208799107559706 359.41
10.231187001965623 174.063
10.253592751657669 122.34299999999999
10.275981430388155 112.037
10.298387966769793 110.58
10.320794897965431 111.12799999999999
10.343184759907361 109.961
10.36559248305461 106.678
10.387983138083852 105.04899999999999
10.410391656691655 111.93700000000001
10.432800574501677 123.84
10.455192425893369 140.63299999999998
10.47760214443012 166.963
10.499994797678786 213.449
10.522405320453982 294.164
10.54479877906917 410.00300000000004
10.567210109595656 512.552
10.5896218454736 563.884
10.612016518879773 491.42199999999997
10.634429067781074 330.727
10.656824555333241 193.12099999999998
10.679237920773568 119.48
10.701651695961992 94.5558
10.724048411481384 88.8011
10.746463008485165 86.2829
10.768860546937125 84.7299
10.791275969274796 83.1705
10.81369180576079 82.1284
10.836090585366925 80.9889
10.858507252467449 79.6887
10.88090686379991 78.7503
10.903324365036394 78.2403
10.925724811614439 77.8935
10.948143150509463 78.4518
10.970561909719066 78.0943
10.992963615930844 76.5175
11.015383218085756 74.791
11.037785768347074 73.2527
11.06020621697282 72.6332
11.082627090322113 72.1887
11.105030913430326 71.5333
11.12745263854165 71.4282
11.149857314510728 73.285
11.172279894912576 76.932
11.194702904450653 76.86
11.217108866490921 73.8922
11.239532736615194 71.1902
11.26193956033512 69.9187
11.284364294577085 68.9027
11.306789462371718 67.3871
11.329197585398376 66.7597
11.351623622610898 66.9059
11.37403261614354 65.9438
11.396459526308487 65.8161
11.418869393879497 65.6274
11.441297180532617 65.2737
11.463725406927658 64.7763
11.486136592353875 64.5179
11.508565700543707 64.9437
11.530977768845315 65.9113
11.553407762368774 66.1303
11.575838200059769 65.8656
11.598251599479612 64.5642
11.620682927815501 63.7047
11.64309721895548 63.5043
11.665529441478206 63.1022
11.687962112597958 62.7456
11.710377748130886 63.0725
11.732811318753434 62.7577
11.755227854859067 62.8602
11.777662328529495 62.6615
11.800079768750786 62.6707
11.822515149015453 62.4485
11.844950984084935 62.8033
11.867369787303163 62.1988
11.889806534289491 62.3422
11.912226250487029 62.528
11.934663912939751 62.6945
11.9571020346363 62.988
11.979523127133968 62.8873
12.001962169624331 63.9189
12.024384183972964 65.7045
12.046824150809913 69.2326
12.069264581333726 73.8489
12.091687985297767 79.8547
12.11412934550045 88.9879
12.136553680195208 105.061
12.158995973632788 127.704
12.181438735204349 154.52
12.20386447284199 183.02900000000002
12.226308172985636 203.523
12.24873485024193 196.239
12.271179492516982 157.493
12.293607112949127 120.53299999999999
12.316052700916226 88.9819
12.338498763250042 74.2854
12.360927805303868 67.672
12.383374818673879 65.3042
12.405804812803074 64.1608
12.428252780773262 63.7829
12.45070122756722 64.0133
12.473132656675375 64.1234
12.49558206341869 64.3903
12.518014453510101 64.5327
12.540464823770117 64.5203
12.562915677315177 64.4428
12.58534951575545 65.1149
12.607801338171472 66.295
12.630236146511358 69.4707
12.652688941369085 72.2073
12.675124723177234 72.9354
12.697578494048786 71.2906
12.720032754458185 68.5823
12.742470003354093 67.4712
12.764925245138771 67.6966
12.787363476431278 67.9406
12.809819703166806 68.1699
12.83227642391173 69.1621
12.854716135692716 69.9271
12.877173846755147 70.6573
12.899614549869717 71.1615
12.9220732548287 71.9969
12.94453245827299 72.7748
12.966974655289818 73.7649
12.989434858002571 74.4519
13.011878055298721 75.1821
13.034339260862497 76.1774
13.056800969391883 77.5049
13.079245674017244 80.0855
13.101708390774869 83.6922
13.12415410463411 92.7617
13.146617833206086 103.352
13.169064559883248 114.678
13.191529303857127 129.61
13.213994557076367 153.546
13.236442809902437 192.16099999999997
13.258909083908291 249.082
13.28135835851934 316.79400000000004
13.30382565690295 380.792
13.326293469022952 430.815
13.348744283242008 420.605
13.371213125129904 340.99699999999996
13.39366497011003 248.358
13.416134845360597 163.779
13.438605238843131 119.97200000000001
13.46105863690397 106.65799999999999
13.483530069144786 108.25200000000001
13.505984506951902 113.616
13.528456981549432 123.08
13.550929978879088 138.362
13.573385983253365 163.88400000000001
13.595860028340867 204.15200000000002
13.618317081455832 255.426
13.64079217790333 313.197
13.663250283359057 355.452
13.685726434770173 369.93300000000005
13.708203115221277 326.515
13.730662806148091 246.115
13.75314054697177 170.96099999999998
13.775601299246777 119.287
13.798080104050406 93.7071
13.820559442405358 84.368
13.843021793671388 81.1485
13.865502201420897 79.6803
13.887965623051947 79.6142
13.910447103807167 78.4761
13.932929122629764 77.1256
13.955394156785959 76.6535
13.977877254034569 75.5613
14.000343367582113 74.9315
14.022827546871707 74.1686
14.045294743423524 73.581
14.06778000837062 72.9699
14.090265817715476 72.6273
14.112734645763819 72.6017
14.13522154619454 71.8341
14.157691466286913 72.0203
14.180179461423874 71.8741
14.202668005486178 71.3068
14.22513957064374 70.9093
14.247629214846473 70.1026
14.270101881097517 70.2903
14.29259262906496 70.0986
14.315083930490205 70.524
14.337558255389705 70.3866
14.360050666019726 70.4404
14.382526101071944 69.8381
14.405019624534942 69.319
14.427513705993134 68.8232
14.449990813291825 68.6116
14.47248601302899 68.392
14.49496423954951 68.7445
14.517460561197822 68.626
14.539939910570322 68.3352
14.562437357763558 69.0289
14.58493536931253 69.8273
14.607416409993311 70.3264
14.62991555254159 70.7872
14.652397725157423 70.8533
14.674898002342799 70.6892
14.697398848433282 70.5767
14.719882725991326 71.8426
14.74238471217934 73.3586
14.764869730765593 77.0719
14.787372860692983 80.3431
14.809876564079925 84.6996
14.83236330125751 90.3895
14.854868153850365 99.2699
14.877356041159485 113.71
14.899862046604186 133.159
14.922351087688757 159.234
14.944858249632887 189.162
14.967365991421232 214.005
14.989856770231246 228.50799999999998
15.012365673994204 217.863
15.03485761569738 182.72099999999998
15.05736768508665 140.156
15.07987833888692 108.79700000000001
15.102372032001655 86.8858
15.124883856909658 75.4566
15.14737872204565 71.6247
15.169891721717274 70.3879
15.192405310371893 70.1034
15.214901940621196 70.0626
15.237416709527137 69.984
15.259914520936249 70.0546
15.282430473753607 69.0534
15.304947020131227 68.3046
15.327446610371178 67.6819
15.349964346154254 66.9715
15.372465126703139 66.734
15.394984055556009 66.6582
15.417486030076159 66.2364
15.44000615566487 65.8691
15.462526881230803 65.7796
15.485030653812652 66.0008
15.507552581617434 65.887
15.530057557334603 65.8263
15.55258069104857 65.9971
15.575104429329837 66.2167
15.597611216864632 66.0272
15.620136166564563 66.4098
15.6426441664095 67.8112
15.665170331202765 70.648
15.687697105158826 73.5845
15.710206930593545 76.8503
15.732734925158933 80.738
15.755245972089478 87.5037
15.77777519094324 96.9728
15.800287463046663 110.936
15.822817909869592 130.00799999999998
15.84534897229804 151.309
15.867863089299354 174.975
15.890395385222186 190.204
15.912910736597423 194.785
15.935444269699861 176.63099999999997
15.957978423016485 149.77200000000002
15.980495633101265 116.55799999999999
16.003031029129367 91.8233
16.02554948280019 74.0314
16.048086125229432 66.5587
16.070623392487107 64.1634
16.09314371869582 63.3837
16.11568223789321 62.4716
16.13820381691126 61.7639
16.160743591742527 61.1274
16.183283996022084 60.2775
16.205807461423195 59.3374
16.228349126881973 58.7651
16.25087385432698 58.5799
16.27341678466365 58.1714
16.29594277784926 57.9548
16.31848697676433 57.8526
16.341031811604868 57.9787
16.36355971058487 58.1767
16.3861058195587 57.9232
16.40863499352978 56.7051
16.431182380342005 56.3965
16.453730407713202 55.8575
16.476261501364792 55.5745
16.498810812136167 55.2682
16.52134319004079 55.4948
16.54389378792203 55.4022
16.566445031001553 55.0999
16.588979342490088 54.9878
16.61153187824822 54.9484
16.634067483263312 54.8184
16.656621315414416 54.6686
16.679175797408888 54.5001
16.701713349928728 54.5188
16.72426913389191 54.702
16.74680798922351 54.6053
16.76936507887444 54.7222
16.791905240734874 54.6347
16.814463639794468 54.5235
16.837022695210294 54.5314
16.859564824093756 54.7836
16.882125194503903 55.2913
16.904668639217885 55.6599
16.927230328348003 55.9028
16.949792678493612 56.2142
16.972338104193863 55.6947
16.994901778652235 55.4298
17.017448529496576 55.5496
17.040013531998152 55.8679
17.06257920018044 56.4465
17.0851279459922 57.2175
17.107694947817667 58.2338
17.130245028099072 58.8975
17.15281336730298 60.0914
17.17536478578733 61.8778
17.19793446610687 64.1474
17.220504818648422 67.1692
17.243058251703697 70.6608
17.265629950971032 75.2069
17.288184731571736 79.6015
17.310757781306908 83.686
17.33333150794385 84.3073
17.355888317140174 81.2694
17.37846339986244 75.4462
17.401021565958885 69.8802
17.42359800851343 64.3852
17.44617513265564 61.3745
17.468735341390783 59.6334
17.491261035594565 59.0827
17.51396340099364 58.9542
17.536490463869136 59.0952
17.559018209820174 58.9712
17.58154663977963 59.1731
17.604251766089718 59.4524
17.626781572227713 59.5474
17.64931206518155 59.5954
17.671843245885103 60.3942
17.69455114821572 60.412
17.717083712612634 60.647
17.739616967569667 60.9976
17.762150914021706 61.4084
17.78486160749854 61.4636
17.807396945166804 62.4456
17.829932977143503 63.4883
17.85246970436452 65.2756
17.875183204129467 67.148
17.897721330097664 69.025
17.920260154126645 71.2423
17.942799677153296 74.2974
17.9655159983646 78.4154
17.988056927677544 83.9702
18.010598558807683 91.9987
18.033140892692916 101.978
18.05586005052525 113.619
18.07840379824407 125.081
18.10094825154059 135.696
18.12366954819864 142.762
18.146215420998306 140.071
18.16876200220057 130.559
18.191309292745153 114.721
18.214033452627167 100.93
18.236582170236648 90.0876
18.259131600016456 86.0015
18.281681742907335 86.9388
18.304408781233683 91.4256
18.32696035875955 96.5208
18.349512652227624 101.22200000000001
18.372065662579683 105.059
18.394795594587553 105.705
18.41735004715306 101.74600000000001
18.43990521943684 94.5222
18.46246111238171 84.2931
18.485193953325208 75.5225
18.507751296070428 68.9172
18.530309362314178 65.1992
18.552868153000343 63.1349
18.57560391815056 61.7833
18.59816416623245 61.5768
18.620725141597372 60.9574
18.643286845190268 60.5364
18.666025549835414 60.3426
18.688588718427933 59.6298
18.711152618092243 59.486000000000004
18.73389353884365 59.2296
18.75645890921984 58.7781
18.77902501351406 58.5637
18.801591852673102 58.4587
18.824335739722738 58.1175
18.846904057212626 57.8287
18.8694731124168 57.4468
18.89204290628315 57.6571
18.914789774966803 57.4959
18.937361054791623 57.0561
18.959933076131318 56.9182
18.982505839934877 56.9591
19.00525570560582 56.8748
19.027829963004184 56.7398
19.05040496572238 56.9005
19.072980714710468 57.0338
19.095733592739563 57.236000000000004
19.11831084296757 57.4634
19.140888842324735 57.6192
19.16346759176222 57.9925
19.18622349753803 58.4916
19.208803755869358 59.5861
19.231384767143577 60.8823
19.253966532312948 62.5215
19.276725481241822 64.6855
19.29930876296784 67.2555
19.3218928014549 70.3181
19.34465404436217 73.1849
19.36723960516257 75.5298
19.389825925592426 76.0825
19.412413006605938 74.9803
19.43517731967805 71.1162
19.457765930683355 66.5764
19.48035530514408 62.2181
19.50294544401556 58.4153
19.525712842708348 56.0467
19.54830451925909 54.9434
19.570896963095727 54.068000000000005
19.593490175174704 53.667
19.616260674962184 53.6804
19.638855432416964 53.4203
19.661450960992624 53.6952
19.68404726164677 53.6521
19.706820878021247 53.331
19.729418731756834 53.4756
19.752017360452857 53.1783
19.77461676506804 53.5119
19.797393513540218 53.7888
19.819994478951667 54.0117
19.84259622316767 54.4103
19.8651987471481 54.9444
19.887978643247177 55.0142
19.91058273574792 55.4937
19.933187610901943 56.3534
19.955969879466828 57.5971
19.97857632894404 59.2434
20.00118356396599 60.7974
20.023791585494575 63.0863
20.046577028914875 65.7293
20.069186632506966 67.8454
20.091797025500632 69.4644
20.114408208858933 70.0288
20.137196842715273 69.3909
20.159809615886765 67.8888
20.18242318232135 65.1943
20.20503754298326 63.0361
20.227829382875154 62.0795
20.250445341109344 62.0348
20.27306209647285 62.9236
20.29567964993108 64.1515
20.31847471147704 64.7504
20.34109387027612 65.4054
20.363713830075454 64.7605
20.386334591841646 63.2806
20.409132890679302 60.398
20.431755265564437 57.466
20.454378445325528 54.8538
20.477002430930366 52.7575
20.499803982716553 51.9295
20.522429589228004 51.2153
20.54505600449589 50.8203
20.567683229489194 50.4777
20.590488049900088 50.3376
20.61311690359731 50.0578
20.63574656993626 49.7345
20.658553853717297 49.614
20.681185154618298 49.6395
20.703817271080066 49.3443
20.72645020407368 49.0413
20.749260783967177 48.9503
20.771895359337133 48.8931
20.794530754161617 48.935
20.817166969412938 48.8694
20.83998086114876 48.7415
20.86261872660049 48.5569
20.885257415405402 48.6286
20.90789692853701 48.6193
20.930714147864748 48.4347
20.953355319030678 48.5484
20.97599731745334 48.7482
20.99864014410749 48.4402
21.021460706796564 48.3592
21.044105199328826 48.8078
21.06675052302631 48.9697
21.089396678865015 49.2628
21.112220600704806 49.4493
21.134868430275347 49.674
21.15751709492456 49.9093
21.180166595629693 50.4793
21.202993892429635 50.7575
21.22564507473034 51.2496
21.24829709602816 51.4347
21.27112693608965 51.2804
21.293780644891275 51.3587
21.316435195634053 50.6289
21.339090589297417 49.956
21.361923832041875 49.437
21.384580921090404 48.7152
21.407238856007325 48.4475
21.429897637773326 48.3381
21.45273429906592 48.4766
21.475394784108598 48.4725
21.498056118951983 48.4032
21.520718304578022 48.7244
21.543558400304388 48.6736
21.566222297108816 48.9414
21.58888704765135 49.0265
21.61155265291521 49.3053
21.63439619898156 49.665
21.657063523335786 50.1064
21.67973170537063 50.5438
21.7024007460706 50.9801
21.72524775840385 51.6309
21.747918526116475 52.9334
21.770590155457388 54.1697
21.79326264741238 55.6629
21.816113141960237 57.5085
21.838787368860547 59.538999999999994
21.861462461341976 61.6167
21.884315579735777 63.0939
21.90699241312273 64.3118
21.92967011506078 64.7744
21.95234868653799 64.4327
21.9752053151131 62.7465
21.997885635446785 60.802
22.020566828293532 58.9672
22.04324889464272 57.3015
22.066109049404666 56.2042
22.088792872571794 55.9485
22.111477572219204 55.9807
22.1341631493376 56.0958
22.157026846313123 55.6513
22.179714188221507 54.9421
22.202402410582668 53.9459
22.22509151438863 52.3603
22.24795876962584 51.0736
22.270649646204486 50.3452
22.293341407213727 49.5876
22.316034053646906 49.1411
22.338904883215342 48.7972
22.36159931041458 48.8286
22.38429462602756 48.7673
22.40699083104897 48.4836
22.429865251039757 48.5306
22.452563244831367 48.7544
22.47526213102522 48.6978
22.49813925616515 48.5688
22.520839937143307 48.556999999999995
22.543541513520587 48.4026
22.56624398629403 48.3225
22.589124730075895 48.4799
22.611829005656723 48.7689
22.63453418063466 48.8118
22.657240256008077 49.0369
22.680124634582935 49.056999999999995
22.70283252079775 49.122
22.725541310413075 49.4708
22.74825100442868 49.9287
22.771139033969575 50.2271
22.79385054687155 50.5812
22.81656296718292 51.3262
22.83927629590484 52.1631
22.862167992606945 53.2563
22.88488314827121 54.3186
22.907599215359284 55.3007
22.93031619487366 56.3725
22.953211574954405 57.2596
22.975930389478226 58.0598
22.998650119445763 58.0034
23.02137076586092 57.0405
23.044269845560063 55.7936
23.06699233506288 53.9402
23.089715744034912 52.3981
23.112617610931565 50.8296
23.135342869061212 49.799
23.158069049684816 48.8629
23.1807961538087 48.69
23.20370174880544 48.5764
23.226430710184808 48.8482
23.249160598093425 48.8487
23.271891413539002 48.8699
23.294800752937697 48.8475
23.31753343374794 49.0865
23.340267045128353 49.0986
23.36300158808808 49.5068
23.38591468821339 49.9603
23.408651104658304 50.2116
23.431388455719986 50.9034
23.454126742409 51.7282
23.4770436196085 52.7417
23.499783787914662 54.1942
23.522524894889884 55.1849
23.54526694154616 56.2328
23.56818761219047 57.2463
23.59093154860734 57.6167
23.613676427751283 57.7689
23.636422250635754 56.6488
23.659346731118656 54.9809
23.68209445191868 53.1618
23.704843119509587 50.8799
23.72759273490623 49.0366
23.750521041644767 47.7666
23.77327256312355 47.0412
23.796025035462787 46.5749
23.818956224555475 46.1663
23.841710609113413 45.9512
23.86446594758979 45.8009
23.887222241002014 45.5921
23.910157285144578 45.1506
23.932915498962537 45.3044
23.955674670778713 45.0913
23.978434801611975 44.7628
24.001373717286125 44.6057
24.024135776723917 44.6136
24.046898798245582 44.4535
24.06966278287146 44.406000000000006
24.092605586582614 44.2931
24.115371508023642 44.0286
24.1381383956401 43.9809
24.16090625045381 43.8844
24.183852958731244 43.9749
24.206622758582608 43.7745
24.229393528706886 43.5414
24.252165270127392 43.6438
24.27511589952438 43.5257
24.297889594216997 43.3174
24.32066426328598 43.2867
24.34343990775613 43.1961
24.36639447485003 43.1421
24.38917208083877 43.1493
24.41195066531332 43.0703
24.43490819850244 43.095
24.457688750692377 42.9007
24.48047028445616 42.8059
24.503252800821233 43.026
24.526214300784112 43.0775
24.548998793132213 42.9657
24.57178427117417 42.8983
24.59457073593893 43.0851
24.617536219319863 42.843
24.64032466834748 42.8514
24.663114107195035 42.8323
24.685904536893013 42.4925
24.708874020360852 42.4248
24.731666442613744 42.4046
24.754459858818787 42.4353
24.777254270007962 42.1979
24.80022777025625 42.086000000000006
24.82302418230472 42.1748
24.845821592443674 42.1803
24.86862000170663 42.2241
24.891597535453727 42.0383
24.914397953892728 42.1525
24.93719937456671 42.1154
24.96000179851076 42.3835
24.98298338249997 42.4928
25.00578782394922 42.6945
25.028593271784167 42.8966
25.05157790644186 43.3294
25.07438537804115 43.3362
25.097193859145293 43.5717
25.120003350792075 43.8641
25.142992065061257 44.1283
25.165803588823465 44.2539
25.18861612625217 44.6132
25.211429678386736 44.6093
25.234422489079968 44.6225
25.257238081693636 44.7286
25.280054692141732 44.7583
25.3028723214652 44.7795
25.325869245420463 44.9187
25.348688923599397 44.9675
25.371509623787006 44.9073
25.394331347025812 44.417
25.41733240110666 44.1095
25.440156181590016 43.3171
25.46298098826268 42.7592
25.48580682216873 42.2755
25.50881202326435 41.7342
25.53163992281684 41.4287
25.55446885274561 41.0677
25.577298814096377 40.7394
25.600308179121807 40.6686
25.623140214533745 40.8151
25.64597328451537 40.7209
25.66898578564376 40.4419
25.691820936010206 40.5586
25.714657124097695 40.4857
25.737494350954734 40.429
25.760511045684957 40.357
25.783350361364224 40.5232
25.806190718969255 40.529
25.82903211955018 40.4939
25.852053024868923 40.6136
25.874896522722523 40.6515
25.897741066713106 40.509
25.920586657892454 40.5881
25.943611790812668 40.8206
25.966459487728237 40.8225
25.989308234998564 41.0435
26.01215803367705 41.3916
26.03518741123814 41.4968
26.05803932412957 41.6447
26.080892291600094 41.5747
26.10374631470478 41.5657
26.12677995397268 41.6977
26.14963609978026 41.5692
26.172493304397875 41.1539
26.19535156888223 40.992
26.218389486949604 40.6612
26.241249882640123 40.4446
26.26411134137826 40.2103
26.28715248187403 40.139
26.31001607820869 40.0795
26.3328807407756 39.9623
26.35574647063438 40.1068
26.37879191991473 39.9798
26.401659795896734 40.0706
26.424528742360263 40.2981
26.447398760366614 40.4345
26.470448535598294 40.5474
26.49332070826805 40.709
26.516193955675355 41.0996
26.53906827888316 41.1909
26.562122397260108 41.3763
26.584998883685063 41.8075
26.607876449110325 41.89
26.63075509460056 42.0875
26.65381357334404 42.093999999999994
26.67669439061878 42.1284
26.699576291163382 42.1377
26.722459276044212 41.9391
26.745522132402975 41.6973
26.768407297649354 41.2984
26.791293550442003 41.0013
26.814180891848974 40.6379
26.837248143099337 40.3498
26.860137673466657 40.3318
26.88302829566349 40.1545
26.90592001075963 39.8029
26.92899167420566 39.5884
26.951885586870763 39.3114
26.974780595655517 39.2578
26.99785558178161 39.1118
27.020752794605112 38.9869
27.043651106772522 38.798
27.06655051935668 38.7269
27.089629948036183 38.7278
27.112531573292053 38.6709
27.135434302194138 38.7393
27.158338135817015 38.5097
27.181422024430987 38.495
27.204328079372566 38.3887
27.22723524226965 38.4279
27.250143514198573 38.5177
27.273231880156334 38.535
27.296142382065014 38.3728
27.319053996245536 38.3596
27.341966723775965 38.4634
27.365059584515222 38.4264
27.38797455070062 38.5145
27.410890633481237 38.2892
27.433807833936918 38.4755
27.456905206923906 38.4777
27.47982465472398 38.4179
27.502745223449743 38.5146
27.525666914182825 38.6644
27.548768816912457 38.484
27.571692763693633 38.4461
27.59461783573812 38.3256
27.617723149491244 38.1735
27.640650484125285 38.0035
27.66357894728264 37.9987
27.686508540048052 37.9017
27.709618414237887 37.8308
27.732550278321757 37.7982
27.755483275279115 37.8605
27.778417406196485 37.9374
27.801531858397514 37.9534
27.824468269376716 37.7953
27.847405817586786 37.8004
27.870344504116094 38.0076
27.893463551932008 37.957
27.916404527281053 38.1439
27.93934664422563 38.4892
27.962289903855886 38.3792
27.98541356491974 38.5672
28.00835912214229 38.778
28.03130582533231 38.9709
28.054253675581805 39.1793
28.077381967556104 39.0693
28.100332124185126 38.8874
28.123283431160893 38.7965
28.146235889577238 38.7667
28.169368830154156 38.5392
28.192323603752033 38.3443
28.215279532083304 38.0534
28.238415973016764 37.8526
28.261374223145094 37.6376
28.284333631303806 37.5401
28.307294198589954 37.3922
28.330435319167677 37.1733
28.353398217078915 36.8925
28.376362277420153 36.608000000000004
28.39932750129032 36.5574
28.422473319286713 36.2151
28.44544088262495 36.318000000000005
28.468409612800283 36.1991
28.491379510913497 35.961
28.51453004413313 35.9327
28.53750229057244 35.9326
28.56047570826344 35.7268
28.583450298308804 35.9417
28.606605564586562 35.6868
28.629582511831156 35.6308
28.65256063474956 35.5271
28.675539934446338 35.5712
28.698699951647605 35.4905
28.72168161743193 35.3483
28.74466446331978 35.364000000000004
28.767648490417624 35.408
28.790813276438353 35.4094
28.813799678527303 35.546
28.836787265157085 35.3899
28.859955641890075 35.4106
28.882945610203045 35.3214
28.905936766392035 35.2193
28.928929111566863 35.3085
28.952102288520145 35.1475
28.975097024308607 35.052
28.998092952423807 34.8777
29.021090073977508 34.8715
29.04426806913204 34.7982
29.067267590245258 34.5821
29.090268308143695 34.5528
29.11327022394099 34.6021
29.13645305530891 34.4333
29.159457379627167 34.3975
29.18246290519685 34.2488
29.20546963313352 34.1008
29.22865731875826 34.2329
29.25166646419296 34.2733
29.27467681535305 34.1628
29.29768837335608 34.2318
29.320880931312562 34.2669
29.34389491580634 34.1921
29.366910110507334 34.1072
29.38992651653503 34.1207
29.41312396492981 34.0856
29.436142806456754 33.9897
29.45916286268059 33.9663
29.48236399319994 33.834
29.50538649169417 33.7434
29.528410208259935 33.6172
29.55143514402014 33.458
29.574641196749695 33.2852
29.597668583816574 33.2378
29.6206971934585 33.1463
29.64372702680042 33.1436
29.666938019934474 33.0821
29.689970313635285 32.9682
29.713003834422636 32.9237
29.73603858342347 32.8458
29.759254535188578 32.7839
29.78229175361658 32.7598
29.80533020365064 32.9494
29.82836988641968 32.7342
29.85159081507472 32.654
29.874632976355343 32.6498
29.89767637376955 32.6566
29.920721008448314 32.5297
29.9439469322847 32.6127
29.96699405457564 32.6179
29.9900424175358 32.4841
30.013092022298157 32.5388
30.03632295963995 32.4569
30.059375061131373 32.4516
30.08242840783577 32.4178
30.105483000888153 32.4587
30.128718970092244 32.3381
30.151776069006917 32.2958
30.17483441768648 32.3507
30.198074175317235 32.3962
30.221135036724256 32.4327
30.24419715131772 32.3606
30.267260520236203 32.39
30.290505341942243 32.3075
30.313571232750228 32.3992
30.336638381310948 32.3206
30.35970678876503 32.1823
30.38295669299435 32.1475
30.40602763151657 32.1303
30.429099832366074 32.1602
30.452173296685572 32.0567
30.47542830191959 32.0957
30.498504306502497 32.0011
30.521581577995562 32.0643
30.544660117543582 32.1446
30.56792024229725 32.2771
30.59100133132069 32.149
30.614083691845494 32.1493
30.637167325018545 32.21
30.660432587840603 32.2598
30.683518779717886 32.1308
30.70660624769615 32.1881
30.729694992924372 32.198
30.75296541239743 32.1076
30.77605672557558 32.1249
30.799149319462742 32.03
30.8224236211637 31.8486
30.845518789950724 31.7782
30.868615242910597 31.8357
30.891712981195973 31.5743
30.91499247215866 31.5587
30.938092794619365 31.4734
30.96119440587579 31.4446
30.984297307082752 31.3037
31.00758200598383 31.2082
31.030687500658694 31.0848
31.053794288760695 31.0557
31.076902371446767 31.0474
31.100192296997445 31.1121
31.12330298246119 31.0978
31.14641496599209 30.9298
31.169528248749216 30.9587
31.19282341969534 30.8833
31.215939314557186 30.9298
31.239056512134788 30.9981
31.262175013589378 30.8414
31.28547544871168 30.8668
31.30859657161541 30.7942
31.331719001892175 30.8886
31.35484274070538 30.9096
31.378148458819545 30.8674
31.401274828443725 30.7513
31.424402510106933 30.8534
31.447712205419993 30.9553
31.470842524931633 30.909000000000002
31.493974159989783 30.8141
31.51710711176168 30.7776
31.54042212308802 30.7335
31.563557722100917 30.7301
31.586694641341655 30.4949
31.609832881979628 30.3485
31.63315322823208 30.3248
31.656294125521327 30.3343
31.679436347728515 30.2748
31.70257989602529 30.241999999999997
31.725905596152327 30.2466
31.74905181052835 30.0446
31.772199354521323 30.2058
31.79534822930507 30.2361
31.818679302290967 30.1152
31.84183085259981 30.1426
31.864983737233473 30.0598
31.88813795736804 30.1529
31.911474422233013 30.0442
31.934631327356435 30.0319
31.9577895715215 30.0253
31.980949155906522 29.9858
32.004291031706956 29.9118
32.027453310562606 29.8764
32.05061693318573 29.676
32.07396288236386 29.715999999999998
32.09712920658542 29.6035
32.12029687812702 29.5132
32.14346589817093 29.4555
32.166817291729984 29.5006
32.18998902288583 29.416
32.21316210610336 29.3707
32.23633654256711 29.2643
32.259693399663725 29.2517
32.282870556771144 29.176
32.30604907069099 29.1139
32.329228942610065 29.0052
32.35259128243769 28.9711
32.375773884550505 28.9147
32.398957848235646 28.9424
32.422143174682176 28.7765
32.445511016471215 28.7339
32.468699082679954 28.6181
32.49188851523011 28.6297
32.51507931531304 28.6326
32.538452678331 28.6133
32.56164622776311 28.5654
32.58484114831493 28.3299
32.60803744118015 28.3613
32.631416344731896 28.3956
32.654615396551876 28.3466
32.67781582427913 28.3778
32.701198898634416 28.3807
32.72440209253756 28.1989
32.747606665947124 28.2087
32.77081262006088 28.0995
32.79420126883317 28.1483
32.81740999876112 28.1445
32.840620112999424 28.0874
32.86383161274818 27.9903
32.88722585534586 27.9726
32.91044014056596 28.1333
32.933655814909734 27.9853
32.95687287957963 27.988000000000003
32.98027273544904 27.8629
33.00349259526636 27.8274
33.026713849030116 27.8586
33.04993649794511 27.7528
33.073341986570746 27.791999999999998
33.09656744032826 27.7565
33.11979429286444 27.8081
33.14302254538647 27.865
33.166433686291185 27.7332
33.18966475336992 27.6298
33.212897224069096 27.5564
33.23613109959831 27.6094
33.259547912343415 27.5838
33.2827846121627 27.5512
33.306022720453775 27.4769
33.32926223842861 27.2917
33.352684742614166 27.4019
33.37592709463173 27.4264
33.399170859982064 27.2672
33.422597648419426 27.1276
33.44584425514446 27.035
33.46909227885668 27.0235
33.4923417207723 26.9352
33.51577423505344 27.0584
33.539026528130385 26.9713
33.56228024307245 26.8278
33.585535381098246 26.7628
33.60897364093058 26.6797
33.63223163992385 26.6852
33.6554910656699 26.6251
33.678751919389796 26.654
33.702195944520106 26.5282
33.72545966903325 26.5663
33.74872482519663 26.5189
33.771991414233746 26.5074
33.79544122444841 26.4991
33.81871069412428 26.3475
33.84198160035767 26.2796
33.86525394437455 26.3423
33.88870955949969 26.3208
33.911984794020626 26.2958
33.93526147001624 26.1604
33.958539588715006 26.1731
33.98200102861669 26.0763
34.0052820477047 26.0014
34.02856451319451 26.0336
34.05203033759056 25.9499
34.07531571090147 25.9008
34.09860253431845 25.9356
34.121890809074316 25.9065
34.145362493118924 25.9227
34.16865368561615 25.8233
34.191946333164054 25.7854
34.21524043699793 25.7617
34.23871800066799 25.7223
34.26201503218366 25.6119
34.28531352370466 25.666
34.30861347646881 25.5736
34.33209693978188 25.5443
34.3553998301885 25.5153
34.378704185565205 25.5014
34.402010007152356 25.375999999999998
34.42549939016683 25.4412
34.44880815937748 25.2618
34.472118398533134 25.1997
34.49543010887669 25.14
34.51892543169198 25.0949
34.54224009966052 25.0825
34.56555624255917 25.1471
34.58887386163339 25.0663
34.61237514439016 25.031
34.6356957311114 24.9367
34.65901779775809 24.9196
34.68252356662995 24.8955
34.705848608458616 24.8467
34.72917513396849 24.7802
34.75250314440949 24.7993
34.77601490857862 24.8267
34.799345904259795 24.7121
34.82267838863559 24.6884
34.846012362958525 24.663
34.869530142679984 24.5882
34.89286711232212 24.6783
34.91620557568269 24.5913
34.93954553401677 24.5225
34.9630693495876 24.4332
34.986412313340814 24.434
35.00975677584668 24.4164
35.033102738362956 24.4209
35.05663261012228 24.3032
35.0799815881786 24.2882
35.10333207003229 24.1931
35.12668405694369 24.3375
35.150220005273056 24.2519
35.17357501786656 24.2026
35.19693153931268 24.1709
35.220289570874385 24.0698
35.24383161619786 24.1999
35.267192683604904 24.151999999999997
35.290555264930376 24.0502
35.314101899412165 24.072
35.33746752422433 24.026999999999997
35.36083466676374 24.0045
35.38420332829803 23.9922
35.407756095629054 24.0169
35.43112781085063 23.9572
35.45450104888391 23.9651
35.477875810999194 23.9235
35.50143473172161 23.7424
35.52481255774625 23.8524
35.54819191167777 23.8593
35.57157279478914 23.8108
35.595137889488406 23.7262
35.61852184675279 23.6915
35.641907337029984 23.6368
35.665294361595684 23.5983
35.68886565090076 23.5437
35.7122557598848 23.3992
35.73564740699838 23.4694
35.759040593519934 23.449
35.78261809810353 23.430999999999997
35.80601437933051 23.2807
35.829412203814705 23.2744
35.85281157283719 23.206
35.876395313415884 23.1839
35.8997977874528 23.1859
35.92320180988546 23.1879
35.946790244133936 23.0799
35.97019737933222 23.1009
35.993606066789866 23.1027
36.01701630779276 23.0455
36.04061101440684 22.9456
36.06402437852291 23.01
36.08743930005611 22.9669
36.1108557802951 22.8991
36.13445678011326 22.9323
36.15787639383515 22.8228
36.18129757014299 22.7778
36.20472031032821 22.8052
36.22832762423364 22.6264
36.25175350829375 22.6953
36.275180960119776 22.6519
36.298609981005924 22.6468
36.32222362992669 22.568
36.34565580510207 22.6122
36.36908955323448 22.4991
36.39252487562093 22.4016
36.416144880530226 22.3793
36.43958336764275 22.3565
36.463023432914625 22.4156
36.486465077645676 22.3599
36.51009145956204 22.4315
36.53353627947859 22.315
36.55698268276811 22.324
36.58043067073321 22.267
36.60406345072071 22.2217
36.62751462435344 22.213
36.65096738658405 22.1748
36.67460498210655 22.0962
36.69806093788647 22.0794
36.72151848619297 21.9744
36.744977628333636 21.9622
36.76862165890998 21.9334
36.79208400512205 21.895
36.81554794910557 21.9333
36.83901349217101 21.7656
36.862663978991606 21.8224
36.88613273667352 21.7984
36.90960309738324 21.7541
36.933075062434064 21.7086
36.95673202673572 21.6923
36.98020721697122 21.5844
37.003684015502365 21.6223
37.027162423645365 21.5488
37.050825886711465 21.5874
37.07430753063053 21.4085
37.09779078812467 21.4975
37.121275660513014 21.4717
37.144945643673694 21.3995
37.16843376245278 21.416999999999998
37.19192350009803 21.3684
37.215414857931435 21.3664
37.239091382563885 21.1626
37.262585997426164 21.2227
37.28608223645736 21.2058
37.309763684451696 21.1826
37.33326318851098 21.1449
37.356764320726555 21.122
37.380267082425526 21.1378
37.40395510942588 21.0879
37.42746114683234 20.9715
37.45096881771841 20.964000000000002
37.474478123414166 21.0011
37.49817275092816 20.9666
37.52168534303452 20.9369
37.54519957395567 20.8302
37.568715445024665 20.8652
37.592416694607714 20.7393
37.61593586281424 20.8089
37.63945667518264 20.854
37.66297913304891 20.6943
37.68668702630454 20.6466
37.710212792059274 20.6127
37.733740207334854 20.5873
37.757269273470364 20.5475
37.780983832050374 20.5303
37.80451621684926 20.4829
37.82805025654007 20.414
37.851585952464795 20.3708
37.8753071980695 20.3391
37.89884622345676 20.3687
37.92238690911902 20.3857
37.94611318753442 20.2757
37.969657210779765 20.1921
37.99320289834801 20.1955
38.016750251586465 20.1984
38.04048325513017 20.1432
38.06403395679343 20.1206
38.087586328183946 20.1268
38.11114037065203 20.0982
38.13488012115898 20.0679
38.1584375229181 19.9975
38.181996599821 19.9595
38.205557353221124 19.912
38.229303872575656 19.9041
38.2528679961576 19.9137
38.27643380031219 19.846
38.30000128639589 19.785
38.32375459653193 19.7662
38.34732546371299 19.7638
38.37089801690786 19.6218
38.39447225747609 19.6159
38.418232380377425 19.6329
38.441810012983396 19.6328
38.46538933705673 19.6574
38.488970353960084 19.5923
38.51273731166058 19.4904
38.536321731567014 19.4609
38.55990784840681 19.4698
38.58367995004091 19.4552
38.60726947812959 19.365
38.63086070726198 19.3761
38.654453638806274 19.4042
38.678232613930824 19.3159
38.70182896773327 19.2694
38.72542702806741 19.274
38.7490267963045 19.1806
38.77281266709232 19.125999999999998
38.79641586862214 19.1238
38.8200207821842 19.092
38.843627409152944 19.0841
38.86742019782782 19.1027
38.891030269149255 18.9931
38.914642058016156 19.012999999999998
38.938255565806124 19.0574
38.96205529464307 18.9369
38.98567225787121 18.8655
39.00929094417078 18.8834
39.03291135492255 18.8862
39.05671804624804 18.855
39.080341923549106 18.7067
39.103967529460334 18.7327
39.127594865365744 18.7046
39.15140854155791 18.7034
39.17503935514948 18.6578
39.19867190290282 18.6789
39.22249083587951 18.6562
39.24612686969409 18.6347
39.269764641845306 18.5367
39.293404153722804 18.529
39.317230110864074 18.4254
39.34087311998506 18.3884
39.36451787301696 18.4295
39.388164371352595 18.3744
39.41199737518003 18.3727
39.43564738196752 18.3382
39.45929913825317 18.2855
39.48295264543308 18.2699
39.506792718520884 18.2432
39.530449745387216 18.2214
39.55410852735203 18.1558
39.57776906581474 18.1931
39.60161623079 18.1713
39.625280300200025 18.1312
39.64894613032202 18.1045
39.67261372255866 18.0494
39.6964680021016 18.0279
39.72013913657293 18.0309
39.74381203738292 18.0397
39.76748670593756 18.0238
39.79134812278169 17.9465
39.81502634488497 17.9659
39.83870633896685 17.923
39.862388106436654 17.807000000000002
39.88625668336918 17.8204
39.90994201572829 17.8011
39.933629125719285 17.7267
39.957503091207826 17.6762
39.9811937746168 17.6943
40.00488623990914 17.7361
40.02858048850006 17.6676
40.05246165409549 17.6411
40.076159487492085 17.5245
40.099859108448875 17.5578
40.123560518384345 17.5267
40.1474489070226 17.5174
40.171153913178564 17.5034
40.194860712584955 17.4769
40.2185693066637 17.4431
40.242464941335314 17.4058
40.26617714307655 17.3262
40.289891143772046 17.3199
40.3136069448471 17.2908
40.33750984859743 17.299
40.3612292688043 17.2681
40.3849504936829 17.2697
40.40867352466194 17.2672
40.43258372059144 17.174
40.45631038219906 17.1371
40.48003885420956 17.1089
40.503769138055105 17.0611
40.52768664931955 17.0775
40.55142057531802 17.1508
40.57515631746428 17.066
40.599079334038514 17.0355
40.62281872700477 16.9144
40.64655994043941 16.9126
40.67030297578061 16.8911
40.69423334835778 16.864
40.71798004609188 16.8307
40.74172857006355 16.8436
40.76547892171441 16.7858
40.7894166736039 16.7488
40.813170699248566 16.7493
40.83692655691388 16.7179
40.86068424804498 16.6841
40.884629402612525 16.6362
40.908390779366385 16.6559
40.932153993938 16.6509
40.95591904777605 16.5723
40.979871628443995 16.6185
41.003640379561936 16.5668
41.02741097430883 16.5091
41.05118341413683 16.493
41.075143444384416 16.4221
41.098919593177826 16.4549
41.1226975914255 16.3669
41.14647744058318 16.3582
41.170444943946755 16.3583
41.19422851378379 16.3366
41.218013938914645 16.273
41.24198706625173 16.2018
41.26577622087193 16.1821
41.289567235177785 16.1997
41.31336011063129 16.1773
41.337340752422875 16.1309
41.361137369129835 16.0606
41.38493585138705 16.1394
41.40873620066004 16.0617
41.43272438060107 16.0355
41.45652848292052 15.9501
41.48033445666918 15.931
41.50414230331616 15.9381
41.528138045159764 15.9451
41.551949656675205 15.9059
41.575763145513235 15.8987
41.59957851314666 15.8498
41.62358184070442 15.7571
41.64740098505737 15.777000000000001
41.6712220126409 15.7465
41.69504492493139 15.6703
41.71905586207357 15.7211
41.74288256296395 15.6902
41.766711153007456 15.6709
41.79054163368412 15.6206
41.814560204340054 15.5939
41.838394485526365 15.5958
41.86223066180303 15.5511
41.88625497706819 15.5218
41.910094962812 15.526
41.93393684811168 15.4734
41.95778063445365 15.4519
41.981812625263366 15.4805
42.00566023303407 15.4559
42.029509746323676 15.3468
42.05336116662236 15.3217
42.077400857069705 15.3614
42.10125611078846 15.2977
42.12511327600405 15.2637
42.14897235421036 15.2181
42.173019768448455 15.2286
42.19688269209613 15.1982
42.22074753323349 15.1838
42.24461429335818 15.187999999999999
42.268669455600495 15.0929
42.292540073217886 15.1119
42.31641261433284 15.084000000000001
42.34028708044675 15.0683
42.36435001496739 15.0239
42.38822835065557 15.0686
42.41210861586426 14.9506
42.4359908120986 15.0249
42.46006154323262 14.9009
42.48394762115317 14.8767
42.507835634632315 14.905
42.531912233047436 14.8927
42.55580413732265 14.8275
42.579697981698 14.8144
42.60359376768525 14.7668
42.62767820545945 14.7794
42.65157789440821 14.7596
42.67547952952185 14.6919
42.699383112316 14.6331
42.72347541395347 14.6158
42.74738291190531 14.6262
42.771292362102166 14.6148
42.795203766063516 14.5672
42.819303956130405 14.5153
42.843219287476536 14.5027
42.86713657716324 14.5054
42.89105582671383 14.4474
42.91516392983864 14.4348
42.939087119032166 14.4616
42.963012272677304 14.4085
42.98693939230129 14.4075
43.01105543317513 14.2987
43.034986504731386 14.3575
43.05891954686589 14.2952
43.08285456110972 14.2742
43.10697856448665 14.2605
43.130917542983475 14.2324
43.15485849820081 14.1907
43.17880143167367 14.0964
43.20293342237094 14.1468
43.226880332449 14.1263
43.25082922540554 14.1121
43.27496722682525 14.0509
43.29892010567796 14.0612
43.32287497204102 14.0308
43.34683182745632 13.9974
43.370977859791836 13.9884
43.39493871351105 14.0036
43.41890156092628 13.9686
43.44286640358341 13.8957
43.46702049182749 13.8873
43.49098934522816 13.8795
43.51496019852649 13.8384
43.5389330532723 13.8105
43.56309522248204 13.7956
43.58707210044314 13.7469
43.61105098451946 13.6964
43.63503187626491 13.7104
43.659202151562134 13.6665
43.68318707902681 13.6923
43.70717401884041 13.6413
43.731162972560874 13.5915
43.75534137913236 13.5702
43.779334381108384 13.5495
43.803329401683186 13.5523
43.82732644241872 13.539000000000001
43.8515130055166 13.5096
43.87551410707659 13.4609
43.89951723350145 13.4504
43.923709934595614 13.4913
43.94771713129917 13.4618
43.97172635758096 13.4176
43.99573761501002 13.397
44.0199385169922 13.3518
44.04395385732619 13.2856
44.067971233533086 13.2832
44.09199064718605 13.3148
44.11619977548961 13.2584
44.14022328470671 13.1948
44.16424883610785 13.1792
44.18827643127035 13.2029
44.21249381139513 13.1782
44.236525514814076 13.1175
44.26055926674478 13.0926
44.28459506876863 13.1349
44.3088207262813 13.085
44.33286064928722 13.0995
44.35690262714919 13.0521
44.38094666145278 13.0009
44.4051806219871 13.0092
44.42922879003185 12.9548
44.45327901929361 12.9372
44.477331311362136 12.9363
44.501573600619416 12.8917
44.525630039221795 12.8797
44.54968854541895 12.8556
44.573937102200176 12.8178
44.5979997645541 12.8081
44.622064499300315 12.7872
44.64613130803592 12.7704
44.67038823869318 12.7542
44.69445921643748 12.7467
44.718532272981385 12.6955
44.742607409926194 12.7016
44.76687274034801 12.6859
44.79095205918753 12.6193
44.81503346325094 12.61
44.839116954143876 12.5974
44.86339071028742 12.5913
44.88747839599524 12.5473
44.91156817336837 12.4944
44.93566004401666 12.4763
44.959942251908146 12.4751
44.984038330325966 12.4296
45.00813650686762 12.3637
45.03223678314731 12.3622
45.05652746888232 12.3626
45.08063196592069 12.3659
45.104738567558705 12.3178
45.128847275414856 12.2978
45.15314646515866 12.2935
45.17725940679741 12.2774
45.20137445952892 12.2527
45.22568004865265 12.2159
45.24979934496396 12.2069
45.27392075725247 12.2001
45.29804428714431 12.1637
45.322358426247604 12.1343
45.346486212804315 12.0827
45.370616121861914 12.0848
45.39474815505086 12.0903
45.41907087049246 12.0728
45.4432071734666 12.0493
45.46734560548283 12.0178
45.49148616817604 12.0419
45.51581748638564 11.9748
45.5399623320197 11.9152
45.56410931325473 11.8724
45.58825843173002 11.9325
45.61259837920865 11.8784
45.636751793816 11.8833
45.66090735060093 11.8576
45.68506505120716 11.8083
45.7094136545275 11.7892
45.73357566449271 11.7645
45.75773982322992 11.7642
45.78190613238733 11.725999999999999
45.806263418194064 11.6809
45.83043404997326 11.6872
45.85460683713677 11.6765
45.87897065658495 11.6831
45.90314777634752 11.6317
45.92732705646868 11.6057
45.9515084986045 11.5723
45.97588104735473 11.575
46.00006683541565 11.5467
46.02425479047904 11.5458
46.04844491420549 11.4913
46.0728262191024 11.4768
46.09702070211635 11.4641
46.12121735879483 11.4836
46.14541619080294 11.4445
46.169806278764455 11.3683
46.194009483459034 11.3767
46.21821486849841 11.395999999999999
46.24242243555223 11.3451
46.266821333570014 11.3345
46.29103328674601 11.3272
46.31524742696538 11.3133
46.33946375590237 11.2735
46.36387149104216 11.2294
46.38809221957392 11.1584
46.41231514186606 11.1887
46.436540259597464 11.1429
46.460956858999374 11.1633
46.48518638983522 11.1288
46.509418121166966 11.1379
46.533652054678114 11.0798
46.55807754555709 11.0664
46.58231590571962 11.0797
46.60655647313217 11.0372
46.630988654873654 10.9987
46.655233659129024 10.9543
46.67948087571551 10.982999999999999
46.70373030632484 10.9462
46.72817142736393 10.9347
46.752425308428684 10.9221
46.77668140861147 10.905
46.80093972960865 10.8637
46.82538981736788 10.8355
46.849652602470904 10.8359
46.87391761349769 10.8074
46.8981848521493 10.8241
46.9226439341274 10.7797
46.946915650573224 10.7302
46.97118959976749 10.7354
46.99546578341598 10.7162
47.019933887188216 10.7119
47.04421456235744 10.6817
47.06849747711879 10.6569
47.09278263318286 10.6615
47.11725978640143 10.6208
47.14154944775105 10.5912
47.165841355555656 10.5633
47.1901355115306 10.5373
47.214621741924994 10.5385
47.23892041698887 10.505
47.26322134538975 10.4943
47.28771440635075 10.4736
47.31201986422527 10.4609
47.33632758061436 10.448
47.360637557241866 10.4574
47.38513974410611 10.4367
47.40945426407847 10.3707
47.43377104948137 10.3967
47.45809010204344 10.3498
47.48260144275502 10.3138
47.506925052572285 10.287
47.53125093475548 10.2358
47.55557909103813 10.2547
47.58009961361992 10.2356
47.60443234110732 10.2151
47.62876734791564 10.2116
47.65310463578333 10.1969
47.6776343683373 10.1558
47.7019762413987 10.116
47.72632040075572 10.113
47.75066684815169 10.1147
47.77520581885936 10.085
47.799556865477655 10.0497
47.823910205386 10.0546
47.84826584033272 10.0349
47.87281407745551 10.0132
47.89717432569297 10.0406
47.92153687423484 10.0295
47.94609208429692 9.977160000000001
47.97045925671401 9.932310000000001
47.99482873471275 9.92816
48.01920052005013 9.907810000000001
48.04376504619224 9.87294
48.068141469543484 9.93973
48.09252020552573 9.85178
48.11690125590099 9.84741
48.1414751266064 9.80595
48.16586082917454 9.81285
48.19024885144316 9.764
48.2146391951793 9.7594
48.239222439012764 9.77084
48.26361744916137 9.75489
48.28801478610016 9.73321
48.31241445160131 9.68848
48.337007097209366 9.70458
48.36141144338331 9.6605
48.38581812345755 9.63263
48.41022713920929 9.62508
48.434829215320704 9.59582
48.45924292604658 9.633989999999999
48.48365897780325 9.60668
48.50807737237308 9.580739999999999
48.532688907799276 9.5418
48.55711201168574 9.5418
48.581537463754074 9.50417
48.60615611725119 9.48578
48.63058628942721 9.48393
48.65501881516546 9.45185
48.6794536962573 9.42773
48.70408185970339 9.41887
48.72852147531801 9.366660000000001
48.75296345168211 9.406830000000001
48.77740779059232 9.39631
48.80204549302823 9.36913
48.82649458091802 9.33453
48.85094603676547 9.303410000000001
48.87539986237231 9.26625
48.90004713292306 9.28311
48.92450572200832 9.255930000000001
48.94896668628025 9.21177
48.97343002754588 9.22745
48.99808689542115 9.21953
49.02255501470614 9.19857
49.04702551642794 9.19178
49.0714984023988 9.15403
49.096164896893235 9.13605
49.120642575466796 9.106539999999999
49.145122643748394 9.098980000000001
49.16960510355558 9.08182
49.19428125404938 9.078710000000001
49.2187685210852 9.07597
49.243258185121555 9.041139999999999
49.26794160167084 9.01567
49.2924360839405 9.00558
49.31693296869764 8.987
49.34143225776915 9.008460000000001
49.36612538195438 8.942689999999999
49.39062950396021 8.96759
49.41513603578346 8.932839999999999
49.4396449792564 8.89372
49.46434784069503 8.894919999999999
49.488861631846454 8.859169999999999
49.513377840166804 8.88239
49.537896467493745 8.79758
49.56260909589029 8.76759
49.587132585683285 8.80744
49.611658500018365 8.77586
49.636186840738596 8.77165
49.66090926588511 8.75966
49.685442483902584 8.712760000000001
49.70997813385706 8.68867
49.734516217597076 8.68492
49.75924846937352 8.68184
49.7837914452858 8.64898
49.80833686055187 8.621080000000001
49.83288471702571 8.628039999999999
49.85762682540054 8.65283
49.882179588965734 8.613
49.9067347993235 8.57915
49.93129245833333 8.5754
49.95604445336378 8.55772
49.98060703442832 8.52885
50.005172069746266 8.49566
50.02993150438364 8.50796
50.05450147301533 8.478480000000001
50.07907390151433 8.490639999999999
50.10364879174981 8.43348
50.12841816587289 8.436
50.1529980044635 8.40553
50.17758031042124 8.39993
50.20216508562089 8.39428
50.22694442953363 8.35725
50.25153416817468 8.31674
50.27612638170508 8.31972
50.300721072005196 8.30759
50.325510416102105 8.296389999999999
50.350110084975064 8.27267
50.37471223628208 8.27597
50.39931687190919 8.24412
50.424116246675766 8.217939999999999
50.44872587605249 8.22495
50.47333799543065 8.21035
50.49795260670191 8.20195
50.52276204271512 8.20415
50.54738166295838 8.15466
50.57200378079314 8.151019999999999
50.596628398116835 8.15121
50.62144792604559 8.13541
50.646077567609396 8.1207
50.670709714377715 8.1114
50.69553683636198 8.0828
50.72017401885922 8.06504
50.7448137122895 8.06755
50.76945591856022 8.05693
50.79429318636823 8.02186
50.818940443716784 8.01778
50.84359021965163 7.959969999999999
50.868242516085964 7.946389999999999
50.893089960641895 7.9524300000000006
50.917747323549435 7.9245
50.94240721271973 7.890689999999999
50.96706963007175 7.91707
50.99192728239342 7.8953
51.01659478166073 7.92108
51.04126481489051 7.8617300000000006
51.06593738400761 7.840730000000001
51.090805275207074 7.81203
51.11548294172845 7.77035
51.14016314993547 7.79455
51.164845901758845 7.78613
51.18972406304274 7.74109
51.21441192780656 7.75863
51.23910234200271 7.73566
51.2637953075678 7.72192
51.288683770237945 7.69225
51.31338186432707 7.684239999999999
51.33808251561888 7.648110000000001
51.362978729967345 7.631010000000001
51.387684521509755 7.621919999999999
51.41239287610203 7.61135
51.437103795691165 7.562589999999999
51.46201036644977 7.58007
51.486726441956634 7.567360000000001
51.51144508832545 7.5471699999999995
51.536166307509156 7.524039999999999
51.56108326624387 7.51815
51.58580965706056 7.51135
51.61053862657523 7.47087
51.635270176746864 7.4458
51.66019755512065 7.4483
51.68493429268881 7.4085399999999995
51.70967361681515 7.435860000000001
51.73441552946465 7.4089
51.759353359237934 7.37512
51.7841004750961 7.36937
51.80885018539685 7.35602
51.833602492111254 7.344239999999999
51.8585508051424 7.344860000000001
51.883308330926425 7.29856
51.90806845906181 7.29938
51.932831191525715 7.31428
51.95779001977161 7.235310000000001
51.98255798721516 7.25997
52.00732856494335 7.2495
52.03229530577543 7.238410000000001
52.057071130455945 7.267589999999999
52.081849571391054 7.24138
52.106630630568695 7.22585
52.13160794279417 7.15946
52.15639426492067 7.14381
52.18118321127822 7.1203
52.205974783860896 7.09722
52.23096269971011 7.10888
52.255759551287994 7.0990899999999995
52.280559035098186 7.052010000000001
52.30536115314103 7.07377
52.33035970494467 7.08137
52.35516711807904 7.06873
52.37997717147198 7.02913
52.40478986713005 7.02738
52.42979908731974 6.9955300000000005
52.454617094216 6.97625
52.47943774942214 6.9272
52.50426105495102 6.94625
52.529280976059844 6.94675
52.554109609024096 6.91905
52.57894089837482 6.9395
52.60377484613117 6.884469999999999
52.62880550079408 6.90408
52.65364479223379 6.84927
52.67848674816189 6.835889999999999
52.70352547971946 6.83679
52.72837279155837 6.8574
52.753222773982785 6.8068100000000005
52.778075429022984 6.803960000000001
52.80312495150885 6.7974
52.827982978797436 6.78189
52.85284368481815 6.7397
52.87770707160767 6.74096
52.90276741793998 6.69445
52.92763619336701 6.692139999999999
52.952507655698504 6.64877
52.977381806977576 6.655810000000001
53.00245301017842 6.671930000000001
53.02733256653592 6.65963
53.052214817996074 6.65716
53.077099766608484 6.634010000000001
53.102181859804446 6.582389999999999
53.127072229988265 6.6105100000000006
53.15196530349892 6.5867
53.17686108239249 6.51319
53.20195409881522 6.54866
53.22685531582556 6.54554
53.25175924441303 6.51475
53.27666588664027 6.50335
53.30176985962693 6.48625
53.3266819565689 6.5144
53.35159677336455 6.49855
53.376514312083096 6.46473
53.40162927507703 6.41898
53.42655228516116 6.41409
53.45147802340193 6.4013
53.47660125628886 6.41718
53.50153247842639 6.37838
53.52646643496923 6.34376
53.55140312799818 6.39425
53.576537409691696 6.37465
53.60147960336152 6.34732
53.626424539786164 6.32792
53.65137222105307 6.27326
53.67651758529126 6.30286
53.70147078399681 6.23686
53.72642673383343 6.25934
53.75138543689533 6.24442
53.776541917524526 6.22872
53.801506154876755 6.216080000000001
53.826473151763246 6.18185
53.851442910284916 6.14829
53.87661054126026 6.14858
53.9015858509782 6.159590000000001
53.92656392866066 6.14722
53.95154477641532 6.1294699999999995
53.976723591801296 6.10511
54.00171000771266 6.10389
54.02669920004598 6.10947
54.051691170915745 6.06839
54.076881204886796 6.05879
54.101878760928514 6.07568
54.12687910187696 6.0178199999999995
54.152077577768296 6.03946
54.1770835166946 6.015569999999999
54.20209224691339 5.977869999999999
54.22710377055121 6.00584
54.25231352511594 5.98549
54.27733066384342 5.920319999999999
54.30235060239643 5.92794
54.32737334290836 5.92114
54.35259441062629 5.916119999999999
54.377622783395324 5.8322
54.40265396455061 5.8783900000000004
54.42768795623251 5.8291900000000005
54.45292037169559 5.808590000000001
54.477960012857906 5.80865
54.50300247099511 5.79809
54.52804774825457 5.84239
54.55329154616743 5.74064
54.57834249018678 5.737369999999999
54.6033962597977 5.71614
54.6284528571545 5.67309
54.653708072335164 5.69799
54.67877035378786 5.6898800000000005
54.70383546947698 5.63983
54.72890342156389 5.6314400000000004
54.7541700889442 5.59086
54.77924374251975 5.630669999999999
54.8043202390049 5.58061
54.82959552413022 5.5726
54.8546777351945 5.503830000000001
54.87976279569621 5.48666
54.90485070780914 5.47203
54.930137506558005 5.48874
54.95523115074295 5.48682
54.98032765308844 5.4467
55.005427015775496 5.43626
55.03072536339621 5.41977
55.05583047570572 5.35966
55.080938454927676 5.35899
55.10604930325027 5.358969999999999
55.131359235107396 5.32491
55.15647585066083 5.31081
55.181595341907496 5.27921
55.20671771104285 5.25327
55.232039262617704 5.23194
55.25716741665048 5.2430900000000005
55.28229845518636 5.226780000000001
55.30743238042802 5.162780000000001
55.33276558731939 5.14464
55.357905315183636 5.14392
55.383047936390035 5.103269999999999
55.40819345314859 5.07129
55.433538351073295 5.063280000000001
55.458689688238415 5.08033
55.483843927614096 5.03291
55.509197623043605 5.033119999999999
55.53435769621134 4.95137
55.55952067826466 4.92191
55.5846865714265 4.95401
55.61005202069737 4.89843
55.63522376553902 4.88225
55.66039842818645 4.8787400000000005
55.68557601087004 4.7923
55.7109532500271 4.73877
55.73613670233794 4.772819999999999
