TT I
1.2716486653135266 7.2181
1.2939594142134223 7.06106
1.3162702121660406 6.590610000000001
1.3385810600174564 6.88466
1.3608919586137629 6.56082
1.383202908801069 6.1107
1.405513911425503 6.51575
1.4278249673332093 5.84175
1.4501343378461518 5.82418
1.4724455028545926 5.62441
1.4947567236847858 6.26369
1.517068001182951 5.79571
1.5393793361953272 6.0793
1.5616907295681737 5.62705
1.5840021821477681 5.58019
1.60631369478041 5.26502
1.6286252683124185 5.50874
1.6509369035901333 5.01706
1.6732468618895553 5.23401
1.695558623192809 4.821359999999999
1.7178704487808514 5.05656
1.7401823395001077 4.71778
1.7625012545597203 4.79609
1.7848028405262486 4.89484
1.8071218901122095 5.08753
1.8294236121921872 4.84715
1.8517427996910911 4.12893
1.8740620574440425 4.4454400000000005
1.8963639900671978 4.55624
1.9186833908139995 4.72655
1.9409854680117449 5.20158
1.9633050151394713 4.36375
1.9856246367570705 4.45943
2.0079269371922672 4.62995
2.03024671027244 4.772130000000001
2.0525491637446027 4.67588
2.074869091674931 4.65019
2.097171701569106 4.50864
2.1194917877373847 4.89802
2.141811954326636 5.03855
2.164114805233074 5.22618
2.186435135143035 6.3567599999999995
2.208738150935709 15.0659
2.231058647554722 32.2575
2.2533792288321184 25.250999999999998
2.275682498336085 11.1925
2.298003251406138 6.05849
2.3203066942619714 5.70036
2.3426276225136022 5.331180000000001
2.3649486396617507 5.76791
2.387252348930071 5.49846
2.4095735463442893 5.91597
2.4318774374315884 6.0927
2.4541988185014043 6.00858
2.476502894794693 6.2333
2.498824462909887 7.01598
2.521146125856138 7.14965
2.5434504863470337 7.23313
2.5657723414244717 8.28727
2.588076895590662 8.4161
2.610398946189713 8.74992
2.6327210958598384 7.896910000000001
2.6550259469304716 8.19492
2.6773482972090137 8.521460000000001
2.6996533504259 8.62801
2.7219759047039602 8.509089999999999
2.744298562293959 8.37468
2.7666039251246595 8.08947
2.7889267918020164 8.18374
2.8112323652516555 7.95222
2.833555444408179 8.618789999999999
2.8558786311183852 8.120339999999999
2.8781845268938557 9.11713
2.9005079311721484 9.4719
2.9228140460410397 8.58262
2.9451376712799635 9.013580000000001
2.967444008632326 9.749239999999999
2.9897678582247247 9.78818
3.0120918213106695 10.7287
3.0343984987899373 11.147
3.0567226913198637 11.0635
3.079029599759726 11.9892
3.101354025127254 11.9805
3.123678568232338 13.3313
3.145985829517914 13.3202
3.16831061055229 13.5663
3.1906181112775593 14.1444
3.212943133635653 14.6637
3.2352682779763207 14.8132
3.2575761442691227 15.3714
3.2799015350264273 15.8469
3.302209649240067 16.3518
3.3245352898092655 16.6647
3.3468436553365257 17.4078
3.369169549113219 17.5865
3.3914955708171384 18.7697
3.413804319727358 19.087
3.4361305997334863 19.3068
3.4584396084414553 19.4849
3.4807661501462652 20.1051
3.503092824025881 20.9233
3.5254022288463154 21.1753
3.5477291695206588 21.7649
3.5700388426251948 22.7583
3.5923660534916446 23.7904
3.6146934007816114 40.5666
3.637003482731501 99.3037
3.6593311053109985 110.988
3.681641464033634 62.6474
3.7039693653009733 31.9558
3.726297407241705 26.1062
3.7486081875460804 25.4708
3.7709365132734978 25.6055
3.793247578841633 26.4535
3.8155761917550093 26.8221
3.8378875459837216 26.9864
3.8602164494827234 27.1341
3.882545499606844 27.8141
3.9048572932539183 28.694000000000003
3.9271866390645718 29.2906
3.9494987298666713 29.3582
3.971828374764527 30.4025
3.9941581705403255 30.8226
4.016470713506008 31.5298
4.038800813471445 32.4604
4.061113662089144 32.6872
4.0834440696459176 33.7433
4.105774632334751 34.0096
4.128087945865126 35.3069
4.150418821249301 35.6463
4.172732448931298 37.3931
4.195063640413578 38.7208
4.2173775856475215 43.6178
4.239709096631102 79.1291
4.262040768704612 265.135
4.284355196706267 369.154
4.306687193387355 238.253
4.329001947444346 88.5566
4.35133427213731 48.8604
4.373666762177566 44.5066
4.395982011761091 43.9935
4.418314834921175 45.656000000000006
4.44063041906622 54.3033
4.4629635787515625 67.0227
4.4852969080429785 67.0283
4.5076130004776225 54.6777
4.529946671403969 49.8222
4.552263106909177 49.8142
4.574597122877047 50.6063
4.596931312711224 51.7421
4.619248269273446 52.6246
4.6415828092605835 53.9349
4.663900117405352 54.7143
4.686235010953232 55.6683
4.708552674085913 56.8803
4.730887924602802 58.4475
4.753223354952695 60.2978
4.775541557023902 61.5055
4.797877349456786 62.4371
4.820195915032126 64.7846
4.842532072957498 66.1775
4.864868414979744 68.0181
4.88718753227192 69.8114
4.909524244902505 71.9203
4.931843734218147 73.6485
4.954180820867835 75.7644
4.976518095879839 78.6348
4.998838149695359 81.759
5.021175803844231 84.6738
5.043496238205739 87.9446
5.065834274903528 91.7693
5.088172504230693 95.9689
5.1104935158799565 101.664
5.132832132875765 123.32600000000001
5.155153533596801 169.798
5.1774925416746225 200.735
5.199814334878411 292.742
5.2221537374521505 772.802
5.244493338631803 2416.11
5.266815727034316 7348.08
5.289155727832427 12644.3
5.311478517248165 9217.57
5.333818921080011 2856.3
5.356159527788849 525.399
5.3784829252032536 177.524
5.400823940070432 140.175
5.423147747031976 125.199
5.445489173474152 116.382
5.467830807066149 111.148
5.490155234831516 106.662
5.512497285125229 103.508
5.534822130975162 102.21
5.557164601388673 100.27
5.579489868738879 97.0685
5.601832762690846 96.5372
5.6241758697774475 96.1743
5.646501775867269 94.7908
5.668845311622074 93.1583
5.691171647754637 92.7703
5.713515615597765 91.3303
5.735859800852677 90.4434
5.758186788542988 89.2418
5.780531411018185 89.2313
5.802858837297399 89.3042
5.825203900414495 89.171
5.8475491852224 88.963
5.869877275883075 89.6191
5.892223006467101 89.945
5.914551544266608 90.8461
5.936897724049891 92.6782
5.959244129804903 96.8528
5.981573344815301 108.906
6.0039202049061 171.655
6.026249875609095 367.296
6.04859719346037 810.8860000000001
6.070927323278297 2044.1
6.093275102315365 4376.0
6.115623113320588 5276.17
6.137953938319995 3222.66
6.160302415650845 932.7819999999999
6.182633708324452 223.822
6.2049826554078376 111.369
6.227331838745022 90.3735
6.249663839443684 83.3467
6.27201349767565 81.6541
6.294345974611799 89.2576
6.316696111167083 103.12799999999999
6.339046488263839 97.5843
6.361379686074702 80.2732
6.383730546639482 71.2971
6.406064229255215 67.8714
6.428415576718203 67.7005
6.450749747566656 66.5019
6.47310158535871 65.5474
6.495453669698332 64.6137
6.517788579421056 64.15899999999999
6.540141159237969 63.2999
6.562476565766648 62.9117
6.5848296444934045 62.6529
6.607182974060425 61.9844
6.6295191323281015 62.0716
6.651872965955752 66.498
6.6742096296068985 95.633
6.6965639707294615 149.077
6.71891856698715 150.964
6.741255995248479 100.56700000000001
6.763611104154477 69.0746
6.785949046381137 60.107
6.808304671371482 58.1317
6.8306605557940046 57.49100000000001
6.852999275508618 56.7187
6.875355681171544 56.4644
6.897694923437771 55.8792
6.92005185377892 56.3387
6.9423916220322655 55.9989
6.964749080490181 55.4156
6.987106804399774 55.2515
7.009447368180821 55.1791
7.031805625367033 55.2984
7.054146723727803 55.1686
7.076505517631004 54.8097
7.098864581288365 54.6239
7.121206488070854 54.765
7.143566093607822 54.5805
7.165908543567245 54.4647
7.188268694426048 54.7835
7.2106291193438095 55.3359
7.232972390625943 56.8032
7.255333366030969 70.8914
7.277677189091925 133.032
7.300038718428332 188.38
7.322400526130865 158.975
7.344745183422596 94.9199
7.367107550224791 62.6642
7.389452767901992 56.4702
7.411815697249891 55.206
7.434161478756298 54.3808
7.456524974096713 54.119
7.478888753837185 53.6979
7.501235387657368 53.926
7.523599738562711 54.2198
7.545946944825532 54.5254
7.568311870344528 54.5725
7.5906770845765665 55.0759
7.613025156078678 56.501999999999995
7.635390950099687 57.9228
7.657739602662809 57.0455
7.680105979923558 55.7812
7.702472650212829 55.3952
7.724822180948224 55.1784
7.747189439655568 55.2859
7.769539560075357 55.8695
7.791907410653562 55.8729
7.81425812420825 55.9532
7.836626570110925 56.199
7.858995315087906 56.8758
7.881346924933401 57.0353
7.903716270417482 57.6439
7.926068482028405 57.8804
7.948438431475253 58.5447
7.9708086843180235 59.1995
7.993161805171116 59.6833
8.015532667162402 60.095
8.037886398416653 61.0277
8.060257873014221 61.0585
8.082629655331942 61.7514
8.104984308787587 63.1138
8.127356708900503 66.5628
8.149711981398308 73.1399
8.172085002766314 75.8046
8.194458336181368 71.6207
8.216814543847752 68.5467
8.23918850371002 68.3503
8.26154533906492 68.5726
8.283919928836452 70.5318
8.306277395339652 71.45
8.328652618483376 73.0224
8.351028159736202 74.4964
8.373386579575245 76.846
8.395762759396959 78.5158
8.418121819038275 83.6203
8.440498640894003 98.071
8.462875785192262 112.848
8.485235811156207 120.165
8.507613602688501 144.935
8.529974277114228 215.141
8.552352719347912 333.569
8.574731488360351 580.044
8.59709314210385 1119.74
8.619472567021075 1836.34
8.64183487789147 2282.22
8.664214962183097 1875.14
8.686577933647762 978.5419999999999
8.708958680784317 371.589
8.731339760774953 171.954
8.753703729764451 111.559
8.77608547780821 97.6897
8.798450116065078 94.1367
8.820832535634787 90.5221
8.843215292401656 89.6109
8.865580941199045 88.1063
8.887964374703538 86.848
8.910330701447199 88.4138
8.932714815164482 92.0344
8.955099270424924 90.6896
8.977466620733543 87.1999
8.999851761421976 84.3583
9.022219798361645 82.7426
9.04460562795561 82.2482
9.066991803441677 81.5633
9.089360876979615 81.184
9.111747746589993 81.3343
9.13411751544971 80.6574
9.156505082664324 80.4747
9.178875550323522 80.6916
9.20126381862328 81.2316
9.223652438908596 81.5615
9.246023961427412 81.5982
9.26841328802173 80.6846
9.290785518039224 80.8515
9.313175554425882 81.2723
9.335565947154315 81.1615
9.357939245086508 81.2198
9.380330352834827 81.4188
9.40270436697103 81.5037
9.425096193225055 81.4766
9.447488380180165 82.2428
9.469863475295412 82.7279
9.492256385987508 83.4224
9.514632206018318 83.6558
9.537025843935714 83.90899999999999
9.559402392368193 84.6477
9.581796761000229 86.1961
9.604191496441521 87.044
9.626569144158516 90.7666
9.648964615551032 95.7441
9.671343000390081 97.7463
9.693739211225699 95.4422
9.716135793237463 92.5205
9.738515290448102 91.742
9.760912617143402 92.6363
9.783292860202891 93.206
9.805690935076182 95.2051
9.828089385495742 95.5503
9.850470754023561 97.9943
9.872869957865444 106.444
9.89525208097539 122.96
9.917652041736662 137.631
9.940052382417589 135.13
9.962435644102392 133.582
9.984836746950979 156.575
10.007220771957746 210.512
10.029622640473708 301.567
10.052007432299963 465.13699999999994
10.074410069984072 750.697
10.096813093716005 1219.4
10.119199042482517 1747.83
10.141602840636468 1978.11
10.163989564971628 1600.36
10.186394141051062 918.3380000000001
10.208799107559706 405.371
10.231187001965623 186.31599999999997
10.253592751657669 124.535
10.275981430388155 111.67200000000001
10.298387966769793 111.839
10.320794897965431 114.79899999999999
10.343184759907361 113.95200000000001
10.36559248305461 107.885
10.387983138083852 102.705
10.410391656691655 103.38799999999999
10.432800574501677 111.443
10.455192425893369 124.95
10.47760214443012 147.433
10.499994797678786 187.66
10.522405320453982 265.112
10.54479877906917 391.087
10.567210109595656 515.34
10.5896218454736 575.768
10.612016518879773 503.006
10.634429067781074 347.103
10.656824555333241 201.45
10.679237920773568 123.416
10.701651695961992 95.8953
10.724048411481384 88.3207
10.746463008485165 85.1923
10.768860546937125 83.5044
10.791275969274796 81.8068
10.81369180576079 81.0622
10.836090585366925 79.9228
10.858507252467449 78.5752
10.88090686379991 77.6607
10.903324365036394 77.2503
10.925724811614439 77.4253
10.948143150509463 78.8909
10.970561909719066 77.9602
10.992963615930844 76.1278
11.015383218085756 73.8952
11.037785768347074 72.2683
11.06020621697282 71.5108
11.082627090322113 71.2281
11.105030913430326 71.0035
11.12745263854165 71.5113
11.149857314510728 75.6957
11.172279894912576 82.8698
11.194702904450653 83.7399
11.217108866490921 79.3315
11.239532736615194 74.3705
11.26193956033512 71.5551
11.284364294577085 69.7771
11.306789462371718 67.5116
11.329197585398376 66.2932
11.351623622610898 66.1429
11.37403261614354 65.3142
11.396459526308487 65.107
11.418869393879497 64.7044
11.441297180532617 64.5771
11.463725406927658 64.226
11.486136592353875 63.8417
11.508565700543707 64.8886
11.530977768845315 66.8784
11.553407762368774 68.0224
11.575838200059769 67.2698
11.598251599479612 65.3745
11.620682927815501 63.313
11.64309721895548 62.913000000000004
11.665529441478206 62.3956
11.687962112597958 61.9601
11.710377748130886 61.8834
11.732811318753434 62.1026
11.755227854859067 62.1444
11.777662328529495 62.0193
11.800079768750786 61.9375
11.822515149015453 61.5517
11.844950984084935 61.6977
11.867369787303163 61.3465
11.889806534289491 61.3559
11.912226250487029 61.8153
11.934663912939751 61.9226
11.9571020346363 61.9041
11.979523127133968 61.8161
12.001962169624331 62.3995
12.024384183972964 63.0527
12.046824150809913 65.4909
12.069264581333726 69.8252
12.091687985297767 75.0867
12.11412934550045 83.8584
12.136553680195208 97.876
12.158995973632788 120.618
12.181438735204349 150.02700000000002
12.20386447284199 187.701
12.226308172985636 206.331
12.24873485024193 200.947
12.271179492516982 169.56900000000002
12.293607112949127 127.882
12.316052700916226 97.4516
12.338498763250042 79.2688
12.360927805303868 70.1981
12.383374818673879 65.7773
12.405804812803074 63.8026
12.428252780773262 63.5272
12.45070122756722 63.4535
12.473132656675375 63.3233
12.49558206341869 63.2763
12.518014453510101 63.3989
12.540464823770117 63.5775
12.562915677315177 63.9487
12.58534951575545 64.6461
12.607801338171472 67.0757
12.630236146511358 73.0114
12.652688941369085 78.49
12.675124723177234 79.0948
12.697578494048786 74.6568
12.720032754458185 69.3489
12.742470003354093 67.1285
12.764925245138771 66.7042
12.787363476431278 67.0387
12.809819703166806 67.2564
12.83227642391173 67.9179
12.854716135692716 68.5879
12.877173846755147 69.733
12.899614549869717 69.5638
12.9220732548287 70.5319
12.94453245827299 70.7803
12.966974655289818 71.6387
12.989434858002571 72.4898
13.011878055298721 73.2143
13.034339260862497 74.3095
13.056800969391883 75.5282
13.079245674017244 77.36
13.101708390774869 78.8401
13.12415410463411 84.059
13.146617833206086 94.0032
13.169064559883248 104.57600000000001
13.191529303857127 117.40299999999999
13.213994557076367 138.248
13.236442809902437 173.385
13.258909083908291 229.011
13.28135835851934 295.04
13.30382565690295 371.705
13.326293469022952 427.61199999999997
13.348744283242008 426.035
13.371213125129904 357.267
13.39366497011003 260.79200000000003
13.416134845360597 170.984
13.438605238843131 123.65700000000001
13.46105863690397 102.822
13.483530069144786 100.617
13.505984506951902 104.598
13.528456981549432 113.03200000000001
13.550929978879088 127.163
13.573385983253365 149.72
13.595860028340867 188.387
13.618317081455832 243.674
13.64079217790333 305.88599999999997
13.663250283359057 353.454
13.685726434770173 377.656
13.708203115221277 341.642
13.730662806148091 260.814
13.75314054697177 184.225
13.775601299246777 126.81
13.798080104050406 96.2271
13.820559442405358 84.1561
13.843021793671388 80.4926
13.865502201420897 78.8339
13.887965623051947 78.2763
13.910447103807167 77.3937
13.932929122629764 75.5655
13.955394156785959 75.3943
13.977877254034569 74.6579
14.000343367582113 73.8367
14.022827546871707 73.0633
14.045294743423524 72.3261
14.06778000837062 71.7611
14.090265817715476 71.7066
14.112734645763819 71.6152
14.13522154619454 71.4719
14.157691466286913 71.7226
14.180179461423874 71.1226
14.202668005486178 70.3229
14.22513957064374 69.518
14.247629214846473 69.135
14.270101881097517 69.2769
14.29259262906496 69.5706
14.315083930490205 70.5103
14.337558255389705 70.848
14.360050666019726 70.5275
14.382526101071944 69.2923
14.405019624534942 68.3173
14.427513705993134 67.8308
14.449990813291825 67.6963
14.47248601302899 67.5613
14.49496423954951 67.5358
14.517460561197822 67.6432
14.539939910570322 67.3723
14.562437357763558 68.1289
14.58493536931253 69.1629
14.607416409993311 70.2951
14.62991555254159 71.0845
14.652397725157423 70.9258
14.674898002342799 69.9653
14.697398848433282 69.1829
14.719882725991326 69.7545
14.74238471217934 70.0614
14.764869730765593 72.3806
14.787372860692983 75.2117
14.809876564079925 79.3172
14.83236330125751 84.4343
14.854868153850365 92.1531
14.877356041159485 104.978
14.899862046604186 123.682
14.922351087688757 149.558
14.944858249632887 181.618
14.967365991421232 209.597
14.989856770231246 223.326
15.012365673994204 216.59
15.03485761569738 186.54
15.05736768508665 145.887
15.07987833888692 112.477
15.102372032001655 89.5334
15.124883856909658 76.6528
15.14737872204565 71.2732
15.169891721717274 69.6834
15.192405310371893 69.6189
15.214901940621196 70.1096
15.237416709527137 70.0563
15.259914520936249 70.5619
15.282430473753607 69.5257
15.304947020131227 68.3414
15.327446610371178 67.2076
15.349964346154254 66.301
15.372465126703139 65.8359
15.394984055556009 65.4422
15.417486030076159 65.47
15.44000615566487 65.2581
15.462526881230803 64.8737
15.485030653812652 65.4699
15.507552581617434 65.2326
15.530057557334603 65.4126
15.55258069104857 65.29899999999999
15.575104429329837 65.0789
15.597611216864632 64.7448
15.620136166564563 64.7715
15.6426441664095 65.1578
15.665170331202765 66.7572
15.687697105158826 69.362
15.710206930593545 72.6325
15.732734925158933 75.9997
15.755245972089478 81.8102
15.77777519094324 90.1699
15.800287463046663 102.943
15.822817909869592 122.219
15.84534897229804 146.059
15.867863089299354 170.892
15.890395385222186 190.704
15.912910736597423 195.167
15.935444269699861 182.02599999999998
15.957978423016485 155.745
15.980495633101265 121.23
16.003031029129367 94.0234
16.02554948280019 75.8013
16.048086125229432 67.3001
16.070623392487107 64.47
16.09314371869582 64.0244
16.11568223789321 63.2197
16.13820381691126 61.8658
16.160743591742527 60.8891
16.183283996022084 59.9577
16.205807461423195 58.7602
16.228349126881973 58.0757
16.25087385432698 58.0733
16.27341678466365 57.6403
16.29594277784926 57.6394
16.31848697676433 57.927
16.341031811604868 58.4802
16.36355971058487 58.8251
16.3861058195587 58.5253
16.40863499352978 57.167
16.431182380342005 56.0788
16.453730407713202 55.568999999999996
16.476261501364792 55.0432
16.498810812136167 54.6605
16.52134319004079 54.9187
16.54389378792203 54.7017
16.566445031001553 54.5364
16.588979342490088 54.3519
16.61153187824822 54.3221
16.634067483263312 54.0444
16.656621315414416 53.9905
16.679175797408888 53.5556
16.701713349928728 53.9603
16.72426913389191 53.9525
16.74680798922351 54.2361
16.76936507887444 54.1997
16.791905240734874 54.2118
16.814463639794468 54.158
16.837022695210294 54.0718
16.859564824093756 54.5428
16.882125194503903 55.2897
16.904668639217885 56.0606
16.927230328348003 56.1861
16.949792678493612 56.2963
16.972338104193863 55.5794
16.994901778652235 54.9197
17.017448529496576 54.7438
17.040013531998152 54.8526
17.06257920018044 55.0817
17.0851279459922 55.7149
17.107694947817667 56.5271
17.130245028099072 57.4683
17.15281336730298 58.5806
17.17536478578733 60.3389
17.19793446610687 62.3463
17.220504818648422 65.2676
17.243058251703697 68.7353
17.265629950971032 73.6317
17.288184731571736 78.443
17.310757781306908 82.9676
17.33333150794385 83.0922
17.355888317140174 81.5007
17.37846339986244 76.3199
17.401021565958885 69.9253
17.42359800851343 64.3005
17.44617513265564 60.7859
17.468735341390783 59.0817
17.491261035594565 58.4378
17.51396340099364 57.9458
17.536490463869136 58.0913
17.559018209820174 58.2383
17.58154663977963 58.2931
17.604251766089718 58.3558
17.626781572227713 58.5339
17.64931206518155 58.7868
17.671843245885103 59.3739
17.69455114821572 59.8517
17.717083712612634 60.052
17.739616967569667 59.995
17.762150914021706 60.4122
17.78486160749854 60.2066
17.807396945166804 60.7069
17.829932977143503 61.3253
17.85246970436452 62.2652
17.875183204129467 64.2226
17.897721330097664 66.1103
17.920260154126645 68.1745
17.942799677153296 70.9815
17.9655159983646 74.4601
17.988056927677544 79.4831
18.010598558807683 87.00200000000001
18.033140892692916 97.3074
18.05586005052525 109.23899999999999
18.07840379824407 121.314
18.10094825154059 131.062
18.12366954819864 138.989
18.146215420998306 137.221
18.16876200220057 128.47
18.191309292745153 114.191
18.214033452627167 101.15
18.236582170236648 90.1551
18.259131600016456 84.5958
18.281681742907335 84.6131
18.304408781233683 89.0021
18.32696035875955 94.6323
18.349512652227624 99.9451
18.372065662579683 103.946
18.394795594587553 105.068
18.41735004715306 102.06299999999999
18.43990521943684 94.8864
18.46246111238171 85.6913
18.485193953325208 76.6262
18.507751296070428 69.347
18.530309362314178 65.0652
18.552868153000343 62.4786
18.57560391815056 61.3182
18.59816416623245 60.6582
18.620725141597372 60.0994
18.643286845190268 59.8117
18.666025549835414 59.5374
18.688588718427933 59.0222
18.711152618092243 58.8291
18.73389353884365 58.5641
18.75645890921984 57.9577
18.77902501351406 57.7238
18.801591852673102 57.7301
18.824335739722738 57.2317
18.846904057212626 57.2432
18.8694731124168 56.9916
18.89204290628315 57.053000000000004
18.914789774966803 56.6046
18.937361054791623 56.4106
18.959933076131318 56.135
18.982505839934877 55.9654
19.00525570560582 56.2599
19.027829963004184 55.97
19.05040496572238 56.0446
19.072980714710468 55.9986
19.095733592739563 56.1131
19.11831084296757 56.4289
19.140888842324735 56.8159
19.16346759176222 57.1176
19.18622349753803 57.5764
19.208803755869358 58.1986
19.231384767143577 59.2204
19.253966532312948 60.7947
19.276725481241822 62.8037
19.29930876296784 65.5056
19.3218928014549 68.7292
19.34465404436217 72.3302
19.36723960516257 75.3421
19.389825925592426 76.2063
19.412413006605938 75.2295
19.43517731967805 71.4305
19.457765930683355 66.9712
19.48035530514408 62.5007
19.50294544401556 58.7492
19.525712842708348 56.0048
19.54830451925909 54.5337
19.570896963095727 53.3948
19.593490175174704 53.1499
19.616260674962184 53.1574
19.638855432416964 52.733999999999995
19.661450960992624 52.8234
19.68404726164677 52.6512
19.706820878021247 52.531000000000006
19.729418731756834 52.8189
19.752017360452857 52.4767
19.77461676506804 52.5823
19.797393513540218 52.623999999999995
19.819994478951667 53.0032
19.84259622316767 53.3842
19.8651987471481 53.8858
19.887978643247177 53.8377
19.91058273574792 54.4328
19.933187610901943 55.1637
19.955969879466828 56.1933
19.97857632894404 57.5667
20.00118356396599 59.2481
20.023791585494575 61.2785
20.046577028914875 64.179
20.069186632506966 66.5704
20.091797025500632 68.5812
20.114408208858933 69.0554
20.137196842715273 68.7645
20.159809615886765 67.2894
20.18242318232135 64.2655
20.20503754298326 62.4117
20.227829382875154 61.2251
20.250445341109344 61.2961
20.27306209647285 62.1941
20.29567964993108 63.4565
20.31847471147704 64.7376
20.34109387027612 65.4988
20.363713830075454 65.0919
20.386334591841646 63.7226
20.409132890679302 60.9892
20.431755265564437 57.8154
20.454378445325528 55.0894
20.477002430930366 53.06
20.499803982716553 51.98
20.522429589228004 51.108000000000004
20.54505600449589 50.5504
20.567683229489194 50.3557
20.590488049900088 50.0701
20.61311690359731 49.6602
20.63574656993626 49.3937
20.658553853717297 49.0379
20.681185154618298 49.1091
20.703817271080066 49.0276
20.72645020407368 48.6802
20.749260783967177 48.43899999999999
20.771895359337133 48.3581
20.794530754161617 48.2104
20.817166969412938 48.2676
20.83998086114876 48.2229
20.86261872660049 48.1958
20.885257415405402 47.9852
20.90789692853701 47.8183
20.930714147864748 47.7833
20.953355319030678 47.8962
20.97599731745334 47.9445
20.99864014410749 47.8194
21.021460706796564 47.7139
21.044105199328826 48.0464
21.06675052302631 48.2232
21.089396678865015 48.4119
21.112220600704806 48.7689
21.134868430275347 49.2151
21.15751709492456 49.3885
21.180166595629693 49.7912
21.202993892429635 50.2256
21.22564507473034 50.6441
21.24829709602816 50.8252
21.27112693608965 50.8464
21.293780644891275 50.8114
21.316435195634053 50.0804
21.339090589297417 49.3166
21.361923832041875 49.0342
21.384580921090404 48.4704
21.407238856007325 47.9487
21.429897637773326 47.7506
21.45273429906592 47.7189
21.475394784108598 47.5813
21.498056118951983 47.6118
21.520718304578022 47.806000000000004
21.543558400304388 47.7576
21.566222297108816 48.0168
21.58888704765135 47.9871
21.61155265291521 48.1642
21.63439619898156 48.813
21.657063523335786 48.879
21.67973170537063 49.4311
21.7024007460706 49.8342
21.72524775840385 50.5227
21.747918526116475 51.4486
21.770590155457388 52.7205
21.79326264741238 54.3542
21.816113141960237 56.0212
21.838787368860547 58.0883
21.861462461341976 60.2452
21.884315579735777 62.3033
21.90699241312273 63.477
21.92967011506078 63.8934
21.95234868653799 63.6633
21.9752053151131 62.3556
21.997885635446785 60.5448
22.020566828293532 58.6467
22.04324889464272 57.0638
22.066109049404666 56.0213
22.088792872571794 55.4644
22.111477572219204 55.4461
22.1341631493376 55.5602
22.157026846313123 55.2785
22.179714188221507 54.533
22.202402410582668 53.4712
22.22509151438863 51.7711
22.24795876962584 50.8229
22.270649646204486 49.8799
22.293341407213727 49.1741
22.316034053646906 48.7404
22.338904883215342 48.5468
22.36159931041458 48.3425
22.38429462602756 48.4821
22.40699083104897 48.1587
22.429865251039757 48.2369
22.452563244831367 48.3139
22.47526213102522 48.2654
22.49813925616515 48.003
22.520839937143307 47.9116
22.543541513520587 47.9544
22.56624398629403 47.761
22.589124730075895 47.8118
22.611829005656723 47.9407
22.63453418063466 47.826
22.657240256008077 48.0283
22.680124634582935 48.1104
22.70283252079775 48.4633
22.725541310413075 48.6173
22.74825100442868 48.8596
22.771139033969575 49.5145
22.79385054687155 49.485
22.81656296718292 50.2013
22.83927629590484 50.9516
22.862167992606945 52.0432
22.88488314827121 53.2951
22.907599215359284 54.2934
22.93031619487366 55.4745
22.953211574954405 56.4744
22.975930389478226 57.4004
22.998650119445763 57.5527
23.02137076586092 56.88399999999999
23.044269845560063 55.5189
23.06699233506288 53.8472
23.089715744034912 52.1062
23.112617610931565 50.5003
23.135342869061212 49.2397
23.158069049684816 48.6735
23.1807961538087 48.2798
23.20370174880544 48.0431
23.226430710184808 48.1369
23.249160598093425 48.09
23.271891413539002 48.0936
23.294800752937697 47.9895
23.31753343374794 48.0991
23.340267045128353 48.3969
23.36300158808808 48.5929
23.38591468821339 48.8431
23.408651104658304 49.1722
23.431388455719986 49.9478
23.454126742409 50.716
23.4770436196085 51.7942
23.499783787914662 53.0639
23.522524894889884 54.1055
23.54526694154616 55.3251
23.56818761219047 56.445
23.59093154860734 56.9365
23.613676427751283 57.2698
23.636422250635754 56.5344
23.659346731118656 54.9003
23.68209445191868 53.2055
23.704843119509587 51.062
23.72759273490623 49.1662
23.750521041644767 47.7807
23.77327256312355 46.83
23.796025035462787 46.1535
23.818956224555475 45.5481
23.841710609113413 45.478
23.86446594758979 45.3156
23.887222241002014 45.0023
23.910157285144578 44.6737
23.932915498962537 44.5811
23.955674670778713 44.4644
23.978434801611975 44.3671
24.001373717286125 44.2321
24.024135776723917 44.0123
24.046898798245582 43.9601
24.06966278287146 43.6871
24.092605586582614 43.6875
24.115371508023642 43.5539
24.1381383956401 43.5915
24.16090625045381 43.5268
24.183852958731244 43.4471
24.206622758582608 43.3838
24.229393528706886 43.0033
24.252165270127392 43.2099
24.27511589952438 43.0752
24.297889594216997 42.9238
24.32066426328598 42.7654
24.34343990775613 42.6831
24.36639447485003 42.6675
24.38917208083877 42.6457
24.41195066531332 42.5099
24.43490819850244 42.5921
24.457688750692377 42.479
24.48047028445616 42.416000000000004
24.503252800821233 42.5453
24.526214300784112 42.5298
24.548998793132213 42.5219
24.57178427117417 42.5088
24.59457073593893 42.5564
24.617536219319863 42.4533
24.64032466834748 42.4558
24.663114107195035 42.3357
24.685904536893013 42.0473
24.708874020360852 41.9786
24.731666442613744 41.7462
24.754459858818787 41.8237
24.777254270007962 41.8561
24.80022777025625 41.6314
24.82302418230472 41.6649
24.845821592443674 41.7083
24.86862000170663 41.6809
24.891597535453727 41.4407
24.914397953892728 41.7064
24.93719937456671 41.5126
24.96000179851076 41.8218
24.98298338249997 41.8424
25.00578782394922 42.1383
25.028593271784167 42.2525
25.05157790644186 42.544
25.07438537804115 42.6897
25.097193859145293 42.8704
25.120003350792075 43.1861
25.142992065061257 43.5611
25.165803588823465 43.71
25.18861612625217 43.9145
25.211429678386736 43.966
25.234422489079968 44.1204
25.257238081693636 44.2211
25.280054692141732 44.4396
25.3028723214652 44.5926
25.325869245420463 44.4858
25.348688923599397 44.5016
25.371509623787006 44.3956
25.394331347025812 44.0391
25.41733240110666 43.6598
25.440156181590016 42.8945
25.46298098826268 42.607
25.48580682216873 41.9566
25.50881202326435 41.2963
25.53163992281684 40.8623
25.55446885274561 40.5876
25.577298814096377 40.4205
25.600308179121807 40.3517
25.623140214533745 40.3287
25.64597328451537 40.2138
25.66898578564376 39.931
25.691820936010206 40.0481
25.714657124097695 39.9704
25.737494350954734 40.0244
25.760511045684957 39.8699
25.783350361364224 39.8213
25.806190718969255 39.9093
25.82903211955018 40.181
25.852053024868923 40.0475
25.874896522722523 40.1387
25.897741066713106 39.9344
25.920586657892454 40.1269
25.943611790812668 40.3192
25.966459487728237 40.4544
25.989308234998564 40.482
26.01215803367705 40.8296
26.03518741123814 40.9875
26.05803932412957 41.0745
26.080892291600094 40.9939
26.10374631470478 41.0514
26.12677995397268 41.2228
26.14963609978026 41.2417
26.172493304397875 40.7452
26.19535156888223 40.5752
26.218389486949604 40.188
26.241249882640123 40.0368
26.26411134137826 39.7995
26.28715248187403 39.6721
26.31001607820869 39.6401
26.3328807407756 39.4513
26.35574647063438 39.622
26.37879191991473 39.5093
26.401659795896734 39.5485
26.424528742360263 39.6082
26.447398760366614 39.9051
26.470448535598294 39.8837
26.49332070826805 40.1921
26.516193955675355 40.5287
26.53906827888316 40.6735
26.562122397260108 40.7487
26.584998883685063 41.0944
26.607876449110325 41.4245
26.63075509460056 41.5315
26.65381357334404 41.699
26.67669439061878 41.4946
26.699576291163382 41.4814
26.722459276044212 41.4145
26.745522132402975 41.2122
26.768407297649354 40.8795
26.791293550442003 40.545
26.814180891848974 40.3866
26.837248143099337 40.0767
26.860137673466657 39.827
26.88302829566349 39.7172
26.90592001075963 39.4659
26.92899167420566 39.3837
26.951885586870763 38.9369
26.974780595655517 38.8501
26.99785558178161 38.7478
27.020752794605112 38.5609
27.043651106772522 38.4038
27.06655051935668 38.2964
27.089629948036183 38.174
27.112531573292053 38.1902
27.135434302194138 38.1885
27.158338135817015 37.9955
27.181422024430987 37.9522
27.204328079372566 37.9753
27.22723524226965 37.9625
27.250143514198573 37.9162
27.273231880156334 38.0041
27.296142382065014 37.8358
27.319053996245536 37.815
27.341966723775965 37.9501
27.365059584515222 37.9656
27.38797455070062 38.0868
27.410890633481237 37.9969
27.433807833936918 37.9766
27.456905206923906 38.0229
27.47982465472398 37.9702
27.502745223449743 37.9841
27.525666914182825 38.0651
27.548768816912457 38.1528
27.571692763693633 37.9915
27.59461783573812 37.8955
27.617723149491244 37.8012
27.640650484125285 37.7032
27.66357894728264 37.486999999999995
27.686508540048052 37.6325
27.709618414237887 37.4413
27.732550278321757 37.1837
27.755483275279115 37.2479
27.778417406196485 37.2945
27.801531858397514 37.2504
27.824468269376716 37.2366
27.847405817586786 37.3454
27.870344504116094 37.5134
27.893463551932008 37.4393
27.916404527281053 37.6821
27.93934664422563 37.8955
27.962289903855886 37.8736
27.98541356491974 38.1849
28.00835912214229 38.2807
28.03130582533231 38.4842
28.054253675581805 38.4884
28.077381967556104 38.5202
28.100332124185126 38.5486
28.123283431160893 38.5293
28.146235889577238 38.4238
28.169368830154156 38.2343
28.192323603752033 38.0384
28.215279532083304 37.7023
28.238415973016764 37.4887
28.261374223145094 37.3406
28.284333631303806 37.1684
28.307294198589954 36.9605
28.330435319167677 36.5734
28.353398217078915 36.4356
28.376362277420153 36.2537
28.39932750129032 36.1563
28.422473319286713 35.9251
28.44544088262495 35.8929
28.468409612800283 35.6464
28.491379510913497 35.5084
28.51453004413313 35.4842
28.53750229057244 35.5203
28.56047570826344 35.4118
28.583450298308804 35.3871
28.606605564586562 35.1079
28.629582511831156 35.2101
28.65256063474956 35.0883
28.675539934446338 35.1295
28.698699951647605 35.1504
28.72168161743193 35.0392
28.74466446331978 35.0705
28.767648490417624 34.9984
28.790813276438353 34.9272
28.813799678527303 35.0629
28.836787265157085 35.0002
28.859955641890075 35.0088
28.882945610203045 35.0046
28.905936766392035 34.9176
28.928929111566863 34.874
28.952102288520145 34.8351
28.975097024308607 34.694
28.998092952423807 34.5623
29.021090073977508 34.4847
29.04426806913204 34.3455
29.067267590245258 34.2801
29.090268308143695 34.1193
29.11327022394099 33.97
29.13645305530891 33.9687
29.159457379627167 33.9281
29.18246290519685 33.8519
29.20546963313352 33.8751
29.22865731875826 33.8532
29.25166646419296 33.8869
29.27467681535305 33.8175
29.29768837335608 33.8577
29.320880931312562 33.8689
29.34389491580634 33.8999
29.366910110507334 33.7052
29.38992651653503 33.8746
29.41312396492981 33.9006
29.436142806456754 33.7975
29.45916286268059 33.678000000000004
29.48236399319994 33.5628
29.50538649169417 33.4387
29.528410208259935 33.2569
29.55143514402014 33.0876
29.574641196749695 32.955999999999996
29.597668583816574 32.783
29.6206971934585 32.7083
29.64372702680042 32.8085
29.666938019934474 32.6902
29.689970313635285 32.6001
29.713003834422636 32.5391
29.73603858342347 32.5079
29.759254535188578 32.4026
29.78229175361658 32.3736
29.80533020365064 32.5123
29.82836988641968 32.4457
29.85159081507472 32.336999999999996
29.874632976355343 32.2291
29.89767637376955 32.2552
29.920721008448314 32.1815
29.9439469322847 32.17
29.96699405457564 32.1559
29.9900424175358 32.188
30.013092022298157 31.9956
30.03632295963995 32.0236
30.059375061131373 32.1989
30.08242840783577 32.1496
30.105483000888153 32.0084
30.128718970092244 31.9273
30.151776069006917 31.9346
30.17483441768648 32.0798
30.198074175317235 31.8743
30.221135036724256 31.918000000000003
30.24419715131772 31.9679
30.267260520236203 31.9727
30.290505341942243 31.8754
30.313571232750228 31.9042
30.336638381310948 31.9084
30.35970678876503 31.805999999999997
30.38295669299435 31.7573
30.40602763151657 31.7665
30.429099832366074 31.6597
30.452173296685572 31.6638
30.47542830191959 31.6595
30.498504306502497 31.579
30.521581577995562 31.7578
30.544660117543582 31.7234
30.56792024229725 31.7078
30.59100133132069 31.6696
30.614083691845494 31.6239
30.637167325018545 31.7374
30.660432587840603 31.9221
30.683518779717886 31.759
30.70660624769615 31.8433
30.729694992924372 31.7701
30.75296541239743 31.8481
30.77605672557558 31.7822
30.799149319462742 31.6935
30.8224236211637 31.5369
30.845518789950724 31.5053
30.868615242910597 31.4523
30.891712981195973 31.2703
30.91499247215866 31.3011
30.938092794619365 31.2999
30.96119440587579 31.1039
30.984297307082752 30.9993
31.00758200598383 30.8418
31.030687500658694 30.8039
31.053794288760695 30.7933
31.076902371446767 30.6621
31.100192296997445 30.5967
31.12330298246119 30.6444
31.14641496599209 30.5366
31.169528248749216 30.6435
31.19282341969534 30.5299
31.215939314557186 30.5605
31.239056512134788 30.4701
31.262175013589378 30.5173
31.28547544871168 30.4046
31.30859657161541 30.424
31.331719001892175 30.4958
31.35484274070538 30.5521
31.378148458819545 30.6611
31.401274828443725 30.5917
31.424402510106933 30.498
31.447712205419993 30.4674
31.470842524931633 30.4378
31.493974159989783 30.4661
31.51710711176168 30.342
31.54042212308802 30.3611
31.563557722100917 30.3882
31.586694641341655 30.1706
31.609832881979628 30.0584
31.63315322823208 30.0217
31.656294125521327 29.9199
31.679436347728515 29.8647
31.70257989602529 29.775
31.725905596152327 29.8278
31.74905181052835 29.6893
31.772199354521323 29.8312
31.79534822930507 29.7932
31.818679302290967 29.8307
31.84183085259981 29.699
31.864983737233473 29.6566
31.88813795736804 29.7518
31.911474422233013 29.6332
31.934631327356435 29.7491
31.9577895715215 29.7099
31.980949155906522 29.5684
32.004291031706956 29.5852
32.027453310562606 29.5515
32.05061693318573 29.339000000000002
32.07396288236386 29.4107
32.09712920658542 29.3076
32.12029687812702 29.2166
32.14346589817093 29.2294
32.166817291729984 29.054000000000002
32.18998902288583 29.0241
32.21316210610336 28.9908
32.23633654256711 28.9374
32.259693399663725 28.899
32.282870556771144 28.7765
32.30604907069099 28.7798
32.329228942610065 28.7244
32.35259128243769 28.6225
32.375773884550505 28.5694
32.398957848235646 28.5775
32.422143174682176 28.5468
32.445511016471215 28.359
32.468699082679954 28.3295
32.49188851523011 28.311
32.51507931531304 28.2274
32.538452678331 28.3155
32.56164622776311 28.1642
32.58484114831493 28.160999999999998
32.60803744118015 28.2018
32.631416344731896 28.1586
32.654615396551876 28.1395
32.67781582427913 28.0163
32.701198898634416 27.91
32.72440209253756 27.8532
32.747606665947124 27.8839
32.77081262006088 27.7532
32.79420126883317 27.8124
32.81740999876112 27.796
32.840620112999424 27.6569
32.86383161274818 27.6713
32.88722585534586 27.6009
32.91044014056596 27.7238
32.933655814909734 27.7068
32.95687287957963 27.688000000000002
32.98027273544904 27.5477
33.00349259526636 27.5609
33.026713849030116 27.4871
33.04993649794511 27.4803
33.073341986570746 27.4547
33.09656744032826 27.4467
33.11979429286444 27.4257
33.14302254538647 27.4699
33.166433686291185 27.3517
33.18966475336992 27.2845
33.212897224069096 27.2594
33.23613109959831 27.3641
33.259547912343415 27.2543
33.2827846121627 27.2357
33.306022720453775 27.1287
33.32926223842861 27.008000000000003
33.352684742614166 27.0888
33.37592709463173 27.031
33.399170859982064 26.9374
33.422597648419426 26.8694
33.44584425514446 26.7741
33.46909227885668 26.788
33.4923417207723 26.586
33.51577423505344 26.6834
33.539026528130385 26.5183
33.56228024307245 26.6346
33.585535381098246 26.5062
33.60897364093058 26.3452
33.63223163992385 26.3878
33.6554910656699 26.3439
33.678751919389796 26.3408
33.702195944520106 26.1822
33.72545966903325 26.2168
33.74872482519663 26.1551
33.771991414233746 26.27
33.79544122444841 26.1989
33.81871069412428 26.1171
33.84198160035767 26.0747
33.86525394437455 26.090999999999998
33.88870955949969 26.0085
33.911984794020626 26.0379
33.93526147001624 25.912
33.958539588715006 25.896
33.98200102861669 25.8459
34.0052820477047 25.7621
34.02856451319451 25.7016
34.05203033759056 25.6256
34.07531571090147 25.674
34.09860253431845 25.6151
34.121890809074316 25.5929
34.145362493118924 25.5959
34.16865368561615 25.5871
34.191946333164054 25.4825
34.21524043699793 25.3771
34.23871800066799 25.4202
34.26201503218366 25.3174
34.28531352370466 25.2939
34.30861347646881 25.2547
34.33209693978188 25.1784
34.3553998301885 25.2364
34.378704185565205 25.0807
34.402010007152356 25.1051
34.42549939016683 25.0482
34.44880815937748 25.0249
34.472118398533134 24.9248
34.49543010887669 24.9846
34.51892543169198 24.8185
34.54224009966052 24.868000000000002
34.56555624255917 24.8996
34.58887386163339 24.7711
34.61237514439016 24.738000000000003
34.6356957311114 24.6315
34.65901779775809 24.5672
34.68252356662995 24.6466
34.705848608458616 24.6081
34.72917513396849 24.5738
34.75250314440949 24.410999999999998
34.77601490857862 24.3721
34.799345904259795 24.3722
34.82267838863559 24.3897
34.846012362958525 24.3374
34.869530142679984 24.3114
34.89286711232212 24.2923
34.91620557568269 24.2631
34.93954553401677 24.2577
34.9630693495876 24.1553
34.986412313340814 24.1902
35.00975677584668 24.1104
35.033102738362956 23.9875
35.05663261012228 23.9578
35.0799815881786 24.0667
35.10333207003229 23.96
35.12668405694369 24.0058
35.150220005273056 24.0118
35.17357501786656 23.9252
35.19693153931268 23.8786
35.220289570874385 23.8852
35.24383161619786 23.8134
35.267192683604904 23.8318
35.290555264930376 23.8012
35.314101899412165 23.8482
35.33746752422433 23.7667
35.36083466676374 23.7186
35.38420332829803 23.7114
35.407756095629054 23.6599
35.43112781085063 23.6631
35.45450104888391 23.6194
35.477875810999194 23.5861
35.50143473172161 23.4741
35.52481255774625 23.5949
35.54819191167777 23.4719
35.57157279478914 23.433000000000003
35.595137889488406 23.5368
35.61852184675279 23.4116
35.641907337029984 23.3565
35.665294361595684 23.3161
35.68886565090076 23.2756
35.7122557598848 23.2575
35.73564740699838 23.2786
35.759040593519934 23.1862
35.78261809810353 23.1503
35.80601437933051 23.0138
35.829412203814705 23.0484
35.85281157283719 22.9729
35.876395313415884 22.9877
35.8997977874528 22.8652
35.92320180988546 22.8358
35.946790244133936 22.8276
35.97019737933222 22.7628
35.993606066789866 22.7647
36.01701630779276 22.7788
36.04061101440684 22.6117
36.06402437852291 22.6431
36.08743930005611 22.686999999999998
36.1108557802951 22.6394
36.13445678011326 22.643
36.15787639383515 22.4904
36.18129757014299 22.5621
36.20472031032821 22.4452
36.22832762423364 22.4137
36.25175350829375 22.468000000000004
36.275180960119776 22.3166
36.298609981005924 22.3666
36.32222362992669 22.3621
36.34565580510207 22.3313
36.36908955323448 22.2775
36.39252487562093 22.1363
36.416144880530226 22.1765
36.43958336764275 22.1921
36.463023432914625 22.1521
36.486465077645676 22.0534
36.51009145956204 22.111
36.53353627947859 22.0877
36.55698268276811 22.1414
36.58043067073321 22.0117
36.60406345072071 21.9269
36.62751462435344 21.9348
36.65096738658405 21.8811
36.67460498210655 21.8957
36.69806093788647 21.8366
36.72151848619297 21.7411
36.744977628333636 21.7903
36.76862165890998 21.7046
36.79208400512205 21.6666
36.81554794910557 21.599
36.83901349217101 21.6091
36.862663978991606 21.522
36.88613273667352 21.4816
36.90960309738324 21.518
36.933075062434064 21.5191
36.95673202673572 21.4422
36.98020721697122 21.3988
37.003684015502365 21.3799
37.027162423645365 21.3347
37.050825886711465 21.2576
37.07430753063053 21.2558
37.09779078812467 21.2068
37.121275660513014 21.1716
37.144945643673694 21.1003
37.16843376245278 21.1307
37.19192350009803 21.0906
37.215414857931435 21.0038
37.239091382563885 21.0128
37.262585997426164 20.9454
37.28608223645736 20.9515
37.309763684451696 20.9479
37.33326318851098 20.9332
37.356764320726555 20.8516
37.380267082425526 20.8795
37.40395510942588 20.7947
37.42746114683234 20.7738
37.45096881771841 20.7287
37.474478123414166 20.7248
37.49817275092816 20.6868
37.52168534303452 20.61
37.54519957395567 20.613000000000003
37.568715445024665 20.5832
37.592416694607714 20.5111
37.61593586281424 20.5945
37.63945667518264 20.6161
37.66297913304891 20.508000000000003
37.68668702630454 20.4464
37.710212792059274 20.4142
37.733740207334854 20.3663
37.757269273470364 20.2873
37.780983832050374 20.2893
37.80451621684926 20.3111
37.82805025654007 20.2013
37.851585952464795 20.1485
37.8753071980695 20.0949
37.89884622345676 20.024
37.92238690911902 20.0394
37.94611318753442 20.0152
37.969657210779765 20.0514
37.99320289834801 19.9915
38.016750251586465 19.9175
38.04048325513017 19.9115
38.06403395679343 19.8667
38.087586328183946 19.8696
38.11114037065203 19.8212
38.13488012115898 19.7528
38.1584375229181 19.7473
38.181996599821 19.7153
38.205557353221124 19.7292
38.229303872575656 19.6777
38.2528679961576 19.7052
38.27643380031219 19.6638
38.30000128639589 19.6018
38.32375459653193 19.6126
38.34732546371299 19.5966
38.37089801690786 19.4709
38.39447225747609 19.4519
38.418232380377425 19.4433
38.441810012983396 19.3969
38.46538933705673 19.2856
38.488970353960084 19.3287
38.51273731166058 19.3054
38.536321731567014 19.2061
38.55990784840681 19.2576
38.58367995004091 19.1722
38.60726947812959 19.1783
38.63086070726198 19.1725
38.654453638806274 19.1144
38.678232613930824 19.0549
38.70182896773327 19.0421
38.72542702806741 19.0289
38.7490267963045 18.9869
38.77281266709232 18.9244
38.79641586862214 18.9542
38.8200207821842 18.9297
38.843627409152944 18.9279
38.86742019782782 18.8663
38.891030269149255 18.8077
38.914642058016156 18.7374
38.938255565806124 18.7831
38.96205529464307 18.7826
38.98567225787121 18.7379
39.00929094417078 18.6593
39.03291135492255 18.637999999999998
39.05671804624804 18.6994
39.080341923549106 18.6075
39.103967529460334 18.5382
39.127594865365744 18.4349
39.15140854155791 18.4707
39.17503935514948 18.4916
39.19867190290282 18.4601
39.22249083587951 18.4688
39.24612686969409 18.4371
39.269764641845306 18.3778
39.293404153722804 18.4081
39.317230110864074 18.2944
39.34087311998506 18.2385
39.36451787301696 18.2637
39.388164371352595 18.1926
39.41199737518003 18.1572
39.43564738196752 18.1449
39.45929913825317 18.1111
39.48295264543308 18.0811
39.506792718520884 18.0206
39.530449745387216 18.0101
39.55410852735203 17.9964
39.57776906581474 18.0132
39.60161623079 17.9267
39.625280300200025 17.9189
39.64894613032202 17.8814
39.67261372255866 17.861
39.6964680021016 17.8804
39.72013913657293 17.8408
39.74381203738292 17.7886
39.76748670593756 17.7917
39.79134812278169 17.7498
39.81502634488497 17.7111
39.83870633896685 17.6069
39.862388106436654 17.6014
39.88625668336918 17.6012
39.90994201572829 17.5759
39.933629125719285 17.5134
39.957503091207826 17.5332
39.9811937746168 17.593
40.00488623990914 17.5153
40.02858048850006 17.3364
40.05246165409549 17.3717
40.076159487492085 17.3155
40.099859108448875 17.3505
40.123560518384345 17.2897
40.1474489070226 17.3217
40.171153913178564 17.2262
40.194860712584955 17.2254
40.2185693066637 17.2496
40.242464941335314 17.1541
40.26617714307655 17.1515
40.289891143772046 17.137
40.3136069448471 17.1507
40.33750984859743 17.1146
40.3612292688043 17.0062
40.3849504936829 17.0476
40.40867352466194 17.0645
40.43258372059144 17.0228
40.45631038219906 16.9747
40.48003885420956 16.9018
40.503769138055105 16.8983
40.52768664931955 16.9088
40.55142057531802 16.9161
40.57515631746428 16.8594
40.599079334038514 16.8012
40.62281872700477 16.7621
40.64655994043941 16.6481
40.67030297578061 16.682000000000002
40.69423334835778 16.756
40.71798004609188 16.6427
40.74172857006355 16.5698
40.76547892171441 16.5831
40.7894166736039 16.5569
40.813170699248566 16.5391
40.83692655691388 16.5023
40.86068424804498 16.5518
40.884629402612525 16.4489
40.908390779366385 16.4936
40.932153993938 16.4714
40.95591904777605 16.4366
40.979871628443995 16.3865
41.003640379561936 16.3252
41.02741097430883 16.3198
41.05118341413683 16.3337
41.075143444384416 16.299
41.098919593177826 16.2762
41.1226975914255 16.2301
41.14647744058318 16.1918
41.170444943946755 16.1458
41.19422851378379 16.1068
41.218013938914645 16.0876
41.24198706625173 16.022000000000002
41.26577622087193 16.0471
41.289567235177785 16.0353
41.31336011063129 15.9645
41.337340752422875 15.9463
41.361137369129835 15.9893
41.38493585138705 15.9131
41.40873620066004 15.8722
41.43272438060107 15.8804
41.45652848292052 15.8385
41.48033445666918 15.8376
41.50414230331616 15.75
41.528138045159764 15.7828
41.551949656675205 15.6628
41.575763145513235 15.6968
41.59957851314666 15.6842
41.62358184070442 15.6049
41.64740098505737 15.5925
41.6712220126409 15.5655
41.69504492493139 15.5441
41.71905586207357 15.5322
41.74288256296395 15.4998
41.766711153007456 15.4518
41.79054163368412 15.4646
41.814560204340054 15.4807
41.838394485526365 15.4044
41.86223066180303 15.325
41.88625497706819 15.3267
41.910094962812 15.3453
41.93393684811168 15.3106
41.95778063445365 15.2214
41.981812625263366 15.2091
42.00566023303407 15.2559
42.029509746323676 15.2213
42.05336116662236 15.1997
42.077400857069705 15.1922
42.10125611078846 15.105
42.12511327600405 15.0694
42.14897235421036 15.0721
42.173019768448455 15.1229
42.19688269209613 15.0245
42.22074753323349 14.9754
42.24461429335818 14.9682
42.268669455600495 14.9739
42.292540073217886 14.9505
42.31641261433284 14.9485
42.34028708044675 14.8863
42.36435001496739 14.8892
42.38822835065557 14.9143
42.41210861586426 14.8367
42.4359908120986 14.7869
42.46006154323262 14.7486
42.48394762115317 14.6738
42.507835634632315 14.7149
42.531912233047436 14.7715
42.55580413732265 14.6856
42.579697981698 14.618
42.60359376768525 14.6637
42.62767820545945 14.5841
42.65157789440821 14.6416
42.67547952952185 14.5699
42.699383112316 14.5584
42.72347541395347 14.4952
42.74738291190531 14.4232
42.771292362102166 14.4532
42.795203766063516 14.4068
42.819303956130405 14.4201
42.843219287476536 14.3669
42.86713657716324 14.3954
42.89105582671383 14.3431
42.91516392983864 14.3098
42.939087119032166 14.2602
42.963012272677304 14.2389
42.98693939230129 14.192
43.01105543317513 14.1197
43.034986504731386 14.1904
43.05891954686589 14.1326
43.08285456110972 14.1456
43.10697856448665 14.0751
43.130917542983475 14.0711
43.15485849820081 14.1073
43.17880143167367 13.9962
43.20293342237094 13.9922
43.226880332449 13.9578
43.25082922540554 13.9852
43.27496722682525 13.9541
43.29892010567796 13.9337
43.32287497204102 13.8815
43.34683182745632 13.8124
43.370977859791836 13.8343
43.39493871351105 13.7801
43.41890156092628 13.7981
43.44286640358341 13.7479
43.46702049182749 13.7224
43.49098934522816 13.7021
43.51496019852649 13.6852
43.5389330532723 13.6383
43.56309522248204 13.6148
43.58707210044314 13.6083
43.61105098451946 13.565
43.63503187626491 13.6179
43.659202151562134 13.5648
43.68318707902681 13.5245
43.70717401884041 13.477
43.731162972560874 13.4798
43.75534137913236 13.4423
43.779334381108384 13.46
43.803329401683186 13.4253
43.82732644241872 13.3791
43.8515130055166 13.4082
43.87551410707659 13.333
43.89951723350145 13.2998
43.923709934595614 13.2793
43.94771713129917 13.2726
43.97172635758096 13.2535
43.99573761501002 13.2459
44.0199385169922 13.2143
44.04395385732619 13.175
44.067971233533086 13.1759
44.09199064718605 13.1219
44.11619977548961 13.1057
44.14022328470671 13.0825
44.16424883610785 13.0381
44.18827643127035 13.0832
44.21249381139513 13.0431
44.236525514814076 12.9769
44.26055926674478 12.9955
44.28459506876863 12.9699
44.3088207262813 12.9169
44.33286064928722 12.8957
44.35690262714919 12.8977
44.38094666145278 12.8584
44.4051806219871 12.8618
44.42922879003185 12.8379
44.45327901929361 12.7917
44.477331311362136 12.7744
44.501573600619416 12.7032
44.525630039221795 12.7242
44.54968854541895 12.6946
44.573937102200176 12.6632
44.5979997645541 12.6995
44.622064499300315 12.642999999999999
44.64613130803592 12.6308
44.67038823869318 12.6302
44.69445921643748 12.575
44.718532272981385 12.5137
44.742607409926194 12.5225
44.76687274034801 12.517999999999999
44.79095205918753 12.433
44.81503346325094 12.4343
44.839116954143876 12.4575
44.86339071028742 12.4863
44.88747839599524 12.4006
44.91156817336837 12.3668
44.93566004401666 12.3658
44.959942251908146 12.3595
44.984038330325966 12.3321
45.00813650686762 12.252
45.03223678314731 12.2454
45.05652746888232 12.2267
45.08063196592069 12.2198
45.104738567558705 12.1851
45.128847275414856 12.2108
45.15314646515866 12.145
45.17725940679741 12.133
45.20137445952892 12.0827
45.22568004865265 12.0847
45.24979934496396 12.0496
45.27392075725247 12.0528
45.29804428714431 12.0647
45.322358426247604 12.015
45.346486212804315 11.9715
45.370616121861914 11.9859
45.39474815505086 11.9143
45.41907087049246 11.9221
45.4432071734666 11.8874
45.46734560548283 11.8497
45.49148616817604 11.8769
45.51581748638564 11.8096
45.5399623320197 11.8249
45.56410931325473 11.7715
45.58825843173002 11.8408
45.61259837920865 11.7721
45.636751793816 11.7394
45.66090735060093 11.7047
45.68506505120716 11.689
45.7094136545275 11.6681
45.73357566449271 11.6555
45.75773982322992 11.6003
45.78190613238733 11.5602
45.806263418194064 11.5544
45.83043404997326 11.5714
45.85460683713677 11.5252
45.87897065658495 11.544
45.90314777634752 11.5454
45.92732705646868 11.5041
45.9515084986045 11.4884
45.97588104735473 11.4577
46.00006683541565 11.4526
46.02425479047904 11.4185
46.04844491420549 11.4311
46.0728262191024 11.376
46.09702070211635 11.3352
46.12121735879483 11.3335
46.14541619080294 11.2937
46.169806278764455 11.3038
46.194009483459034 11.255999999999998
46.21821486849841 11.2303
46.24242243555223 11.2445
46.266821333570014 11.1963
46.29103328674601 11.169
46.31524742696538 11.1681
46.33946375590237 11.1258
46.36387149104216 11.1045
46.38809221957392 11.0727
46.41231514186606 11.0807
46.436540259597464 11.0929
46.460956858999374 11.0215
46.48518638983522 11.0213
46.509418121166966 11.0108
46.533652054678114 11.0039
46.55807754555709 10.9619
46.58231590571962 10.9754
46.60655647313217 10.8736
46.630988654873654 10.8659
46.655233659129024 10.8579
46.67948087571551 10.8865
46.70373030632484 10.8271
46.72817142736393 10.8113
46.752425308428684 10.7872
46.77668140861147 10.7706
46.80093972960865 10.7144
46.82538981736788 10.7014
46.849652602470904 10.7207
46.87391761349769 10.6519
46.8981848521493 10.6575
46.9226439341274 10.6599
46.946915650573224 10.6492
46.97118959976749 10.6443
46.99546578341598 10.6067
47.019933887188216 10.5688
47.04421456235744 10.5741
47.06849747711879 10.5398
47.09278263318286 10.5323
47.11725978640143 10.4668
47.14154944775105 10.4694
47.165841355555656 10.4719
47.1901355115306 10.4523
47.214621741924994 10.3822
47.23892041698887 10.3658
47.26322134538975 10.3822
47.28771440635075 10.3744
47.31201986422527 10.3924
47.33632758061436 10.3076
47.360637557241866 10.2815
47.38513974410611 10.3069
47.40945426407847 10.2698
47.43377104948137 10.2594
47.45809010204344 10.2209
47.48260144275502 10.1861
47.506925052572285 10.1737
47.53125093475548 10.1563
47.55557909103813 10.1408
47.58009961361992 10.1392
47.60443234110732 10.112
47.62876734791564 10.1418
47.65310463578333 10.1038
47.6776343683373 10.041
47.7019762413987 10.0515
47.72632040075572 10.003
47.75066684815169 9.99992
47.77520581885936 9.98709
47.799556865477655 9.94463
47.823910205386 9.945219999999999
47.84826584033272 9.95646
47.87281407745551 9.9134
47.89717432569297 9.90484
47.92153687423484 9.88813
47.94609208429692 9.88767
47.97045925671401 9.850710000000001
47.99482873471275 9.8324
48.01920052005013 9.828330000000001
48.04376504619224 9.81997
48.068141469543484 9.83935
48.09252020552573 9.820739999999999
48.11690125590099 9.73938
48.1414751266064 9.71129
48.16586082917454 9.72269
48.19024885144316 9.703380000000001
48.2146391951793 9.698030000000001
48.239222439012764 9.69185
48.26361744916137 9.64855
48.28801478610016 9.5946
48.31241445160131 9.57731
48.337007097209366 9.604330000000001
48.36141144338331 9.61012
48.38581812345755 9.530380000000001
48.41022713920929 9.530489999999999
48.434829215320704 9.506739999999999
48.45924292604658 9.52855
48.48365897780325 9.52088
48.50807737237308 9.4838
48.532688907799276 9.481710000000001
48.55711201168574 9.396410000000001
48.581537463754074 9.3726
48.60615611725119 9.39485
48.63058628942721 9.35055
48.65501881516546 9.3367
48.6794536962573 9.35936
48.70408185970339 9.35086
48.72852147531801 9.33427
48.75296345168211 9.28235
48.77740779059232 9.26571
48.80204549302823 9.26442
48.82649458091802 9.24745
48.85094603676547 9.21141
48.87539986237231 9.1628
48.90004713292306 9.1688
48.92450572200832 9.1752
48.94896668628025 9.15504
48.97343002754588 9.14373
48.99808689542115 9.15291
49.02255501470614 9.13823
49.04702551642794 9.1139
49.0714984023988 9.0578
49.096164896893235 9.046510000000001
49.120642575466796 9.0694
49.145122643748394 9.03585
49.16960510355558 8.987160000000001
49.19428125404938 8.98628
49.2187685210852 8.99297
49.243258185121555 8.94528
49.26794160167084 8.9158
49.2924360839405 8.920810000000001
49.31693296869764 8.879769999999999
49.34143225776915 8.8644
49.36612538195438 8.872110000000001
49.39062950396021 8.87631
49.41513603578346 8.83191
49.4396449792564 8.784289999999999
49.46434784069503 8.78904
49.488861631846454 8.75206
49.513377840166804 8.75716
49.537896467493745 8.7388
49.56260909589029 8.68932
49.587132585683285 8.72808
49.611658500018365 8.739189999999999
49.636186840738596 8.63751
49.66090926588511 8.63829
49.685442483902584 8.619580000000001
49.70997813385706 8.574110000000001
49.734516217597076 8.58264
49.75924846937352 8.57841
49.7837914452858 8.594430000000001
49.80833686055187 8.54195
49.83288471702571 8.51408
49.85762682540054 8.51553
49.882179588965734 8.49085
49.9067347993235 8.43871
49.93129245833333 8.46818
49.95604445336378 8.44747
49.98060703442832 8.45315
50.005172069746266 8.42805
50.02993150438364 8.38424
50.05450147301533 8.39777
50.07907390151433 8.40923
50.10364879174981 8.36847
50.12841816587289 8.34498
50.1529980044635 8.30343
50.17758031042124 8.32901
50.20216508562089 8.32199
50.22694442953363 8.307269999999999
50.25153416817468 8.25789
50.27612638170508 8.22328
50.300721072005196 8.1922
50.325510416102105 8.17936
50.350110084975064 8.181569999999999
50.37471223628208 8.20365
50.39931687190919 8.15821
50.424116246675766 8.17619
50.44872587605249 8.126560000000001
50.47333799543065 8.12561
50.49795260670191 8.10763
50.52276204271512 8.1033
50.54738166295838 8.06147
50.57200378079314 8.083210000000001
50.596628398116835 8.04222
50.62144792604559 8.04636
50.646077567609396 7.99875
50.670709714377715 8.02848
50.69553683636198 7.96553
50.72017401885922 7.9482
50.7448137122895 7.944539999999999
50.76945591856022 7.92207
50.79429318636823 7.94053
50.818940443716784 7.94451
50.84359021965163 7.88468
50.868242516085964 7.86423
50.893089960641895 7.867839999999999
50.917747323549435 7.85072
50.94240721271973 7.82558
50.96706963007175 7.7641800000000005
50.99192728239342 7.765560000000001
51.01659478166073 7.82465
51.04126481489051 7.76019
51.06593738400761 7.77193
51.090805275207074 7.75276
51.11548294172845 7.735460000000001
51.14016314993547 7.7133
51.164845901758845 7.699089999999999
51.18972406304274 7.71825
51.21441192780656 7.70419
51.23910234200271 7.6918
51.2637953075678 7.63093
51.288683770237945 7.58162
51.31338186432707 7.582910000000001
51.33808251561888 7.5943
51.362978729967345 7.565739999999999
51.387684521509755 7.5930800000000005
51.41239287610203 7.530060000000001
51.437103795691165 7.5086699999999995
51.46201036644977 7.490139999999999
51.486726441956634 7.46787
51.51144508832545 7.48535
51.536166307509156 7.468089999999999
51.56108326624387 7.45005
51.58580965706056 7.41984
51.61053862657523 7.424010000000001
51.635270176746864 7.418260000000001
51.66019755512065 7.407210000000001
51.68493429268881 7.376119999999999
51.70967361681515 7.38968
51.73441552946465 7.36862
51.759353359237934 7.35765
51.7841004750961 7.3218
51.80885018539685 7.28607
51.833602492111254 7.284110000000001
51.8585508051424 7.277019999999999
51.883308330926425 7.24982
51.90806845906181 7.22225
51.932831191525715 7.21213
51.95779001977161 7.20901
51.98255798721516 7.17462
52.00732856494335 7.14738
52.03229530577543 7.1656
52.057071130455945 7.1531199999999995
52.081849571391054 7.1181
52.106630630568695 7.107469999999999
52.13160794279417 7.0925199999999995
52.15639426492067 7.093439999999999
52.18118321127822 7.08703
52.205974783860896 7.05702
52.23096269971011 7.03985
52.255759551287994 7.02747
52.280559035098186 7.00092
52.30536115314103 6.9905800000000005
52.33035970494467 6.981489999999999
52.35516711807904 6.9425
52.37997717147198 6.94183
52.40478986713005 6.946089999999999
52.42979908731974 6.92139
52.454617094216 6.921410000000001
52.47943774942214 6.90216
52.50426105495102 6.917260000000001
52.529280976059844 6.8972
52.554109609024096 6.862830000000001
52.57894089837482 6.8514100000000004
52.60377484613117 6.8581
52.62880550079408 6.869960000000001
52.65364479223379 6.80421
52.67848674816189 6.7751
52.70352547971946 6.745660000000001
52.72837279155837 6.73905
52.753222773982785 6.7402
52.778075429022984 6.70902
52.80312495150885 6.703760000000001
52.827982978797436 6.7081800000000005
52.85284368481815 6.676819999999999
52.87770707160767 6.66107
52.90276741793998 6.67685
52.92763619336701 6.6913100000000005
52.952507655698504 6.638780000000001
52.977381806977576 6.63589
53.00245301017842 6.615539999999999
53.02733256653592 6.58365
53.052214817996074 6.57647
53.077099766608484 6.548780000000001
53.102181859804446 6.52569
53.127072229988265 6.5287
53.15196530349892 6.49998
53.17686108239249 6.49533
53.20195409881522 6.48111
53.22685531582556 6.46879
53.25175924441303 6.44043
53.27666588664027 6.44969
53.30176985962693 6.4092
53.3266819565689 6.4160900000000005
53.35159677336455 6.4515
53.376514312083096 6.44005
53.40162927507703 6.4134199999999995
53.42655228516116 6.40914
53.45147802340193 6.3413699999999995
53.47660125628886 6.3257699999999994
53.50153247842639 6.3558900000000005
53.52646643496923 6.31016
53.55140312799818 6.28969
53.576537409691696 6.22998
53.60147960336152 6.2740599999999995
53.626424539786164 6.2864
53.65137222105307 6.26385
53.67651758529126 6.2438199999999995
53.70147078399681 6.23423
53.72642673383343 6.21791
53.75138543689533 6.15367
53.776541917524526 6.149430000000001
53.801506154876755 6.1389
53.826473151763246 6.12531
53.851442910284916 6.11943
53.87661054126026 6.12332
53.9015858509782 6.106669999999999
53.92656392866066 6.07103
53.95154477641532 6.07125
53.976723591801296 6.050619999999999
54.00171000771266 6.02859
54.02669920004598 6.00766
54.051691170915745 6.03546
54.076881204886796 5.98749
54.101878760928514 5.98739
54.12687910187696 6.01933
54.152077577768296 5.97336
54.1770835166946 5.93476
54.20209224691339 5.94566
54.22710377055121 5.90752
54.25231352511594 5.91292
54.27733066384342 5.8463199999999995
54.30235060239643 5.85914
54.32737334290836 5.8354099999999995
54.35259441062629 5.8022
54.377622783395324 5.8095
54.40265396455061 5.82381
54.42768795623251 5.81114
54.45292037169559 5.7632900000000005
54.477960012857906 5.75735
54.50300247099511 5.7556400000000005
54.52804774825457 5.75244
54.55329154616743 5.68941
54.57834249018678 5.68762
54.6033962597977 5.648219999999999
54.6284528571545 5.655480000000001
54.653708072335164 5.60784
54.67877035378786 5.613980000000001
54.70383546947698 5.52865
54.72890342156389 5.56454
54.7541700889442 5.54568
54.77924374251975 5.54354
54.8043202390049 5.51955
54.82959552413022 5.47293
54.8546777351945 5.4576400000000005
54.87976279569621 5.44022
54.90485070780914 5.46133
54.930137506558005 5.3929
54.95523115074295 5.37009
54.98032765308844 5.38734
55.005427015775496 5.3529
55.03072536339621 5.40395
55.05583047570572 5.33181
55.080938454927676 5.3006400000000005
55.10604930325027 5.25814
55.131359235107396 5.29354
55.15647585066083 5.225280000000001
55.181595341907496 5.18072
55.20671771104285 5.17775
55.232039262617704 5.18317
55.25716741665048 5.15174
55.28229845518636 5.13435
55.30743238042802 5.08528
55.33276558731939 5.0922
55.357905315183636 5.06074
55.383047936390035 5.02934
55.40819345314859 5.00971
55.433538351073295 4.94814
55.458689688238415 5.01455
55.483843927614096 4.95528
55.509197623043605 4.94487
55.53435769621134 4.87844
55.55952067826466 4.88163
55.5846865714265 4.86713
55.61005202069737 4.8350800000000005
55.63522376553902 4.83381
55.66039842818645 4.75804
55.68557601087004 4.77795
55.7109532500271 4.72801
55.73613670233794 4.7637599999999996
