TT I
1.2716486653135266 7.09238
1.2939594142134223 6.99188
1.3162702121660406 6.6417399999999995
1.3385810600174564 6.4394800000000005
1.3608919586137629 6.3423099999999994
1.383202908801069 6.0501
1.405513911425503 5.4919400000000005
1.4278249673332093 5.52482
1.4501343378461518 5.71609
1.4724455028545926 5.13553
1.4947567236847858 5.26463
1.517068001182951 5.44606
1.5393793361953272 6.1487300000000005
1.5616907295681737 5.5785
1.5840021821477681 4.9695
1.60631369478041 5.30288
1.6286252683124185 5.53188
1.6509369035901333 4.98937
1.6732468618895553 4.76716
1.695558623192809 4.74054
1.7178704487808514 4.40561
1.7401823395001077 3.85702
1.7625012545597203 4.79891
1.7848028405262486 4.56684
1.8071218901122095 4.52578
1.8294236121921872 4.57069
1.8517427996910911 4.1847199999999996
1.8740620574440425 4.44661
1.8963639900671978 4.71444
1.9186833908139995 4.47941
1.9409854680117449 4.64856
1.9633050151394713 4.2495199999999995
1.9856246367570705 4.14692
2.0079269371922672 4.40975
2.03024671027244 4.12045
2.0525491637446027 3.9737
2.074869091674931 4.27681
2.097171701569106 4.51543
2.1194917877373847 4.58151
2.141811954326636 4.6487300000000005
2.164114805233074 4.5403400000000005
2.186435135143035 4.81804
2.208738150935709 5.152080000000001
2.231058647554722 6.91202
2.2533792288321184 6.5506
2.275682498336085 5.0700400000000005
2.298003251406138 4.73805
2.3203066942619714 5.14805
2.3426276225136022 4.971369999999999
2.3649486396617507 5.63548
2.387252348930071 5.92967
2.4095735463442893 6.03036
2.4318774374315884 6.2566
2.4541988185014043 6.6253
2.476502894794693 7.0215
2.498824462909887 7.71207
2.521146125856138 7.7018
2.5434504863470337 7.5879199999999996
2.5657723414244717 7.46163
2.588076895590662 8.58366
2.610398946189713 8.85993
2.6327210958598384 8.2481
2.6550259469304716 7.6516399999999996
2.6773482972090137 8.329939999999999
2.6996533504259 8.25712
2.7219759047039602 8.664760000000001
2.744298562293959 8.4007
2.7666039251246595 8.34597
2.7889267918020164 8.84201
2.8112323652516555 8.367180000000001
2.833555444408179 8.89712
2.8558786311183852 8.41093
2.8781845268938557 8.81033
2.9005079311721484 9.159419999999999
2.9228140460410397 9.44362
2.9451376712799635 9.74957
2.967444008632326 9.92051
2.9897678582247247 10.0328
3.0120918213106695 10.5928
3.0343984987899373 10.6711
3.0567226913198637 10.5189
3.079029599759726 11.4511
3.101354025127254 11.9632
3.123678568232338 12.9982
3.145985829517914 12.9066
3.16831061055229 13.7767
3.1906181112775593 14.2188
3.212943133635653 14.8572
3.2352682779763207 14.802
3.2575761442691227 14.925999999999998
3.2799015350264273 15.3833
3.302209649240067 15.6775
3.3245352898092655 16.3385
3.3468436553365257 16.8451
3.369169549113219 16.5236
3.3914955708171384 17.4739
3.413804319727358 18.1753
3.4361305997334863 18.5752
3.4584396084414553 18.5918
3.4807661501462652 19.151
3.503092824025881 19.9264
3.5254022288463154 19.8996
3.5477291695206588 20.5102
3.5700388426251948 21.3322
3.5923660534916446 21.6065
3.6146934007816114 23.054000000000002
3.637003482731501 27.7711
3.6593311053109985 30.598000000000003
3.681641464033634 27.1925
3.7039693653009733 24.2473
3.726297407241705 23.8301
3.7486081875460804 23.7186
3.7709365132734978 24.2527
3.793247578841633 25.1802
3.8155761917550093 25.4019
3.8378875459837216 25.4991
3.8602164494827234 26.1487
3.882545499606844 26.9799
3.9048572932539183 27.4867
3.9271866390645718 28.1284
3.9494987298666713 28.4122
3.971828374764527 28.6637
3.9941581705403255 29.0548
4.016470713506008 29.644000000000002
4.038800813471445 30.4323
4.061113662089144 31.0244
4.0834440696459176 31.5465
4.105774632334751 31.5129
4.128087945865126 32.6442
4.150418821249301 33.0769
4.172732448931298 33.8864
4.195063640413578 34.4905
4.2173775856475215 35.3292
4.239709096631102 37.7556
4.262040768704612 52.6632
4.284355196706267 64.5302
4.306687193387355 56.9142
4.329001947444346 44.3812
4.35133427213731 40.5869
4.373666762177566 40.5069
4.395982011761091 41.3198
4.418314834921175 42.1311
4.44063041906622 43.1194
4.4629635787515625 44.6728
4.4852969080429785 46.5481
4.5076130004776225 46.4853
4.529946671403969 46.6017
4.552263106909177 46.7801
4.574597122877047 48.0921
4.596931312711224 49.3255
4.619248269273446 50.0152
4.6415828092605835 51.1111
4.663900117405352 52.3625
4.686235010953232 53.6687
4.708552674085913 55.1043
4.730887924602802 56.3582
4.753223354952695 57.7116
4.775541557023902 58.9161
4.797877349456786 60.5108
4.820195915032126 61.8682
4.842532072957498 63.5584
4.864868414979744 65.0619
4.88718753227192 67.4723
4.909524244902505 69.6525
4.931843734218147 71.0733
4.954180820867835 73.6003
4.976518095879839 76.6898
4.998838149695359 79.5928
5.021175803844231 82.7934
5.043496238205739 85.0432
5.065834274903528 88.9675
5.088172504230693 93.1735
5.1104935158799565 97.1138
5.132832132875765 104.83200000000001
5.155153533596801 117.522
5.1774925416746225 136.963
5.199814334878411 228.52
5.2221537374521505 773.0160000000001
5.244493338631803 2419.2
5.266815727034316 7098.46
5.289155727832427 13385.3
5.311478517248165 9594.04
5.333818921080011 3367.2
5.356159527788849 720.935
5.3784829252032536 222.94099999999997
5.400823940070432 147.73
5.423147747031976 125.055
5.445489173474152 113.583
5.467830807066149 108.14200000000001
5.490155234831516 104.376
5.512497285125229 100.836
5.534822130975162 98.6418
5.557164601388673 96.9803
5.579489868738879 94.1537
5.601832762690846 92.8633
5.6241758697774475 91.5796
5.646501775867269 90.9189
5.668845311622074 89.7571
5.691171647754637 89.7004
5.713515615597765 88.4785
5.735859800852677 87.5785
5.758186788542988 86.6539
5.780531411018185 86.5798
5.802858837297399 85.9334
5.825203900414495 86.0596
5.8475491852224 86.0557
5.869877275883075 86.395
5.892223006467101 87.3421
5.914551544266608 88.3384
5.936897724049891 90.6881
5.959244129804903 94.6208
5.981573344815301 105.46700000000001
6.0039202049061 160.588
6.026249875609095 380.213
6.04859719346037 861.9839999999999
6.070927323278297 2021.73
6.093275102315365 4485.26
6.115623113320588 5733.54
6.137953938319995 3528.59
6.160302415650845 1059.64
6.182633708324452 245.40900000000002
6.2049826554078376 110.402
6.227331838745022 87.10799999999999
6.249663839443684 79.9882
6.27201349767565 75.9678
6.294345974611799 73.5373
6.316696111167083 72.9964
6.339046488263839 71.8931
6.361379686074702 68.2846
6.383730546639482 66.2063
6.406064229255215 64.7268
6.428415576718203 63.7964
6.450749747566656 63.0675
6.47310158535871 61.9133
6.495453669698332 61.6934
6.517788579421056 60.8216
6.540141159237969 60.1066
6.562476565766648 59.3469
6.5848296444934045 58.9368
6.607182974060425 58.0043
6.6295191323281015 57.8344
6.651872965955752 57.3057
6.6742096296068985 58.4963
6.6965639707294615 62.9627
6.71891856698715 64.1977
6.741255995248479 60.3079
6.763611104154477 56.5719
6.785949046381137 55.1877
6.808304671371482 54.4309
6.8306605557940046 54.263000000000005
6.852999275508618 53.7509
6.875355681171544 53.1426
6.897694923437771 53.1495
6.92005185377892 53.1601
6.9423916220322655 53.3696
6.964749080490181 52.5179
6.987106804399774 52.3487
7.009447368180821 52.0465
7.031805625367033 51.7744
7.054146723727803 52.037
7.076505517631004 52.1261
7.098864581288365 52.1439
7.121206488070854 51.5087
7.143566093607822 51.1569
7.165908543567245 51.4439
7.188268694426048 51.2924
7.2106291193438095 51.1414
7.232972390625943 51.0126
7.255333366030969 51.8195
7.277677189091925 55.7926
7.300038718428332 61.9472
7.322400526130865 61.4779
7.344745183422596 56.0761
7.367107550224791 52.3031
7.389452767901992 51.7146
7.411815697249891 51.6504
7.434161478756298 51.2101
7.456524974096713 51.196000000000005
7.478888753837185 51.6595
7.501235387657368 53.2766
7.523599738562711 60.4886
7.545946944825532 73.1011
7.568311870344528 78.0048
7.5906770845765665 68.1827
7.613025156078678 57.857
7.635390950099687 54.1625
7.657739602662809 52.9601
7.680105979923558 52.6699
7.702472650212829 52.8245
7.724822180948224 52.9359
7.747189439655568 53.167
7.769539560075357 52.8503
7.791907410653562 53.4795
7.81425812420825 53.5426
7.836626570110925 53.8665
7.858995315087906 54.6792
7.881346924933401 54.5856
7.903716270417482 54.8124
7.926068482028405 55.1649
7.948438431475253 56.1151
7.9708086843180235 56.5429
7.993161805171116 57.5707
8.015532667162402 57.3484
8.037886398416653 58.2808
8.060257873014221 58.6791
8.082629655331942 59.3635
8.104984308787587 60.0756
8.127356708900503 61.033
8.149711981398308 62.2659
8.172085002766314 63.4712
8.194458336181368 63.6787
8.216814543847752 64.443
8.23918850371002 65.2644
8.26154533906492 66.1446
8.283919928836452 68.0345
8.306277395339652 69.0203
8.328652618483376 70.1576
8.351028159736202 71.65899999999999
8.373386579575245 73.6775
8.395762759396959 75.235
8.418121819038275 77.8227
8.440498640894003 81.3592
8.462875785192262 86.1155
8.485235811156207 93.9425
8.507613602688501 126.43799999999999
8.529974277114228 223.32299999999998
8.552352719347912 357.976
8.574731488360351 596.315
8.59709314210385 1064.22
8.619472567021075 1821.2
8.64183487789147 2250.72
8.664214962183097 1967.48
8.686577933647762 1089.06
8.708958680784317 425.685
8.731339760774953 177.19799999999998
8.753703729764451 109.958
8.77608547780821 94.689
8.798450116065078 90.7572
8.820832535634787 87.9026
8.843215292401656 86.809
8.865580941199045 85.0958
8.887964374703538 84.4042
8.910330701447199 83.1993
8.932714815164482 82.5471
8.955099270424924 82.0739
8.977466620733543 81.5576
8.999851761421976 80.6508
9.022219798361645 79.8503
9.04460562795561 80.0237
9.066991803441677 79.6928
9.089360876979615 78.9741
9.111747746589993 79.0069
9.13411751544971 78.8365
9.156505082664324 78.8614
9.178875550323522 79.4508
9.20126381862328 82.1605
9.223652438908596 94.7064
9.246023961427412 114.1
9.26841328802173 121.155
9.290785518039224 108.585
9.313175554425882 91.6573
9.335565947154315 81.8878
9.357939245086508 79.6441
9.380330352834827 79.6926
9.40270436697103 79.402
9.425096193225055 79.3439
9.447488380180165 80.1414
9.469863475295412 80.4009
9.492256385987508 80.4251
9.514632206018318 81.1965
9.537025843935714 81.5409
9.559402392368193 82.1374
9.581796761000229 82.7303
9.604191496441521 83.3215
9.626569144158516 84.2155
9.648964615551032 85.0887
9.671343000390081 85.8162
9.693739211225699 86.9344
9.716135793237463 87.3195
9.738515290448102 88.0055
9.760912617143402 88.8074
9.783292860202891 90.0218
9.805690935076182 91.13799999999999
9.828089385495742 92.0218
9.850470754023561 93.4183
9.872869957865444 95.3929
9.89525208097539 98.5464
9.917652041736662 102.405
9.940052382417589 105.484
9.962435644102392 114.17200000000001
9.984836746950979 144.869
10.007220771957746 221.46599999999998
10.029622640473708 336.537
10.052007432299963 497.04
10.074410069984072 750.577
10.096813093716005 1180.02
10.119199042482517 1742.17
10.141602840636468 2094.13
10.163989564971628 1677.02
10.186394141051062 1008.36
10.208799107559706 447.60900000000004
10.231187001965623 204.868
10.253592751657669 125.823
10.275981430388155 107.009
10.298387966769793 102.719
10.320794897965431 101.541
10.343184759907361 100.236
10.36559248305461 98.5233
10.387983138083852 97.2068
10.410391656691655 98.2305
10.432800574501677 106.81700000000001
10.455192425893369 127.62
10.47760214443012 156.899
10.499994797678786 196.796
10.522405320453982 262.541
10.54479877906917 372.795
10.567210109595656 502.381
10.5896218454736 588.8009999999999
10.612016518879773 535.865
10.634429067781074 376.98199999999997
10.656824555333241 224.083
10.679237920773568 141.734
10.701651695961992 106.285
10.724048411481384 94.2889
10.746463008485165 86.7893
10.768860546937125 82.4351
10.791275969274796 79.5311
10.81369180576079 78.7032
10.836090585366925 77.4305
10.858507252467449 75.9557
10.88090686379991 75.1539
10.903324365036394 74.317
10.925724811614439 73.1323
10.948143150509463 73.1622
10.970561909719066 72.2831
10.992963615930844 71.1655
11.015383218085756 69.9609
11.037785768347074 69.3265
11.06020621697282 68.709
11.082627090322113 68.585
11.105030913430326 67.7089
11.12745263854165 67.0405
11.149857314510728 66.917
11.172279894912576 67.5628
11.194702904450653 67.0584
11.217108866490921 66.666
11.239532736615194 65.3127
11.26193956033512 64.7359
11.284364294577085 64.4591
11.306789462371718 63.7006
11.329197585398376 63.3195
11.351623622610898 63.4819
11.37403261614354 62.7516
11.396459526308487 63.0554
11.418869393879497 62.4855
11.441297180532617 62.1864
11.463725406927658 61.6008
11.486136592353875 61.1751
11.508565700543707 60.8118
11.530977768845315 61.169
11.553407762368774 60.9768
11.575838200059769 60.8199
11.598251599479612 60.4219
11.620682927815501 60.1913
11.64309721895548 60.4764
11.665529441478206 59.8657
11.687962112597958 59.7654
11.710377748130886 59.8458
11.732811318753434 59.5453
11.755227854859067 59.7211
11.777662328529495 59.2855
11.800079768750786 59.2868
11.822515149015453 59.373000000000005
11.844950984084935 59.7281
11.867369787303163 59.7755
11.889806534289491 60.1661
11.912226250487029 62.4312
11.934663912939751 66.6186
11.9571020346363 69.9456
11.979523127133968 70.2168
12.001962169624331 67.6597
12.024384183972964 64.3781
12.046824150809913 64.2305
12.069264581333726 68.9252
12.091687985297767 75.7286
12.11412934550045 84.6174
12.136553680195208 97.4285
12.158995973632788 117.178
12.181438735204349 145.721
12.20386447284199 176.635
12.226308172985636 205.082
12.24873485024193 209.08599999999998
12.271179492516982 174.25400000000002
12.293607112949127 132.66
12.316052700916226 94.8683
12.338498763250042 72.9196
12.360927805303868 64.1146
12.383374818673879 62.0815
12.405804812803074 60.9253
12.428252780773262 60.7236
12.45070122756722 61.1666
12.473132656675375 60.8248
12.49558206341869 61.0009
12.518014453510101 61.0102
12.540464823770117 61.2322
12.562915677315177 60.9931
12.58534951575545 61.5869
12.607801338171472 61.2905
12.630236146511358 62.088
12.652688941369085 63.244
12.675124723177234 63.7573
12.697578494048786 63.7135
12.720032754458185 63.4507
12.742470003354093 63.87
12.764925245138771 64.1702
12.787363476431278 64.6372
12.809819703166806 64.7251
12.83227642391173 65.58800000000001
12.854716135692716 66.0395
12.877173846755147 67.3979
12.899614549869717 67.2871
12.9220732548287 67.9609
12.94453245827299 68.9052
12.966974655289818 69.975
12.989434858002571 70.861
13.011878055298721 71.5535
13.034339260862497 72.2515
13.056800969391883 73.8086
13.079245674017244 76.0866
13.101708390774869 78.3596
13.12415410463411 82.1031
13.146617833206086 91.8342
13.169064559883248 105.929
13.191529303857127 122.889
13.213994557076367 144.123
13.236442809902437 175.203
13.258909083908291 223.46099999999998
13.28135835851934 287.87
13.30382565690295 361.93
13.326293469022952 425.858
13.348744283242008 440.86
13.371213125129904 376.061
13.39366497011003 281.839
13.416134845360597 186.185
13.438605238843131 127.62
13.46105863690397 102.273
13.483530069144786 98.1433
13.505984506951902 105.839
13.528456981549432 117.99600000000001
13.550929978879088 132.689
13.573385983253365 153.14700000000002
13.595860028340867 185.162
13.618317081455832 233.21599999999998
13.64079217790333 291.20799999999997
13.663250283359057 351.865
13.685726434770173 389.463
13.708203115221277 363.134
13.730662806148091 290.246
13.75314054697177 207.03599999999997
13.775601299246777 139.11
13.798080104050406 100.79299999999999
13.820559442405358 84.5406
13.843021793671388 79.1899
13.865502201420897 77.2435
13.887965623051947 76.4034
13.910447103807167 75.6541
13.932929122629764 74.3075
13.955394156785959 73.9339
13.977877254034569 73.0902
14.000343367582113 72.2595
14.022827546871707 71.6408
14.045294743423524 71.0412
14.06778000837062 70.3855
14.090265817715476 70.6486
14.112734645763819 71.9656
14.13522154619454 74.4134
14.157691466286913 76.6406
14.180179461423874 77.11
14.202668005486178 74.5213
14.22513957064374 71.3599
14.247629214846473 68.7449
14.270101881097517 67.6353
14.29259262906496 67.1162
14.315083930490205 67.1051
14.337558255389705 66.9297
14.360050666019726 66.8092
14.382526101071944 66.5769
14.405019624534942 66.2941
14.427513705993134 66.0581
14.449990813291825 66.0485
14.47248601302899 65.757
14.49496423954951 65.8641
14.517460561197822 65.914
14.539939910570322 65.6382
14.562437357763558 65.8375
14.58493536931253 66.1713
14.607416409993311 66.2889
14.62991555254159 66.7126
14.652397725157423 66.8183
14.674898002342799 66.9276
14.697398848433282 67.0891
14.719882725991326 67.5967
14.74238471217934 68.3432
14.764869730765593 70.0935
14.787372860692983 73.6448
14.809876564079925 80.3122
14.83236330125751 87.236
14.854868153850365 95.7007
14.877356041159485 107.564
14.899862046604186 122.809
14.922351087688757 145.438
14.944858249632887 176.737
14.967365991421232 206.894
14.989856770231246 225.958
15.012365673994204 228.06799999999998
15.03485761569738 200.185
15.05736768508665 160.648
15.07987833888692 122.803
15.102372032001655 93.8884
15.124883856909658 77.6386
15.14737872204565 70.9059
15.169891721717274 68.3922
15.192405310371893 67.5303
15.214901940621196 66.9869
15.237416709527137 66.1733
15.259914520936249 65.9151
15.282430473753607 65.2485
15.304947020131227 64.6973
15.327446610371178 64.5856
15.349964346154254 64.1489
15.372465126703139 64.0032
15.394984055556009 63.8519
15.417486030076159 63.6606
15.44000615566487 63.2238
15.462526881230803 63.1379
15.485030653812652 63.3435
15.507552581617434 63.0713
15.530057557334603 62.9206
15.55258069104857 63.0802
15.575104429329837 63.2363
15.597611216864632 62.9959
15.620136166564563 63.1731
15.6426441664095 63.7642
15.665170331202765 64.6796
15.687697105158826 67.998
15.710206930593545 72.9165
15.732734925158933 78.4416
15.755245972089478 84.7062
15.77777519094324 92.3536
15.800287463046663 103.40799999999999
15.822817909869592 120.491
15.84534897229804 141.778
15.867863089299354 166.947
15.890395385222186 188.65400000000002
15.912910736597423 200.078
15.935444269699861 191.297
15.957978423016485 166.99900000000002
15.980495633101265 132.635
16.003031029129367 102.77799999999999
16.02554948280019 81.0929
16.048086125229432 69.7254
16.070623392487107 65.196
16.09314371869582 63.0936
16.11568223789321 61.4384
16.13820381691126 60.0338
16.160743591742527 58.8816
16.183283996022084 58.2181
16.205807461423195 57.2172
16.228349126881973 56.6022
16.25087385432698 56.4638
16.27341678466365 56.0623
16.29594277784926 55.7288
16.31848697676433 55.273
16.341031811604868 54.8399
16.36355971058487 54.8162
16.3861058195587 54.6854
16.40863499352978 54.0472
16.431182380342005 53.9462
16.453730407713202 53.618
16.476261501364792 53.3499
16.498810812136167 53.0633
16.52134319004079 53.2726
16.54389378792203 53.2596
16.566445031001553 53.0666
16.588979342490088 52.8561
16.61153187824822 52.766999999999996
16.634067483263312 52.6489
16.656621315414416 52.5836
16.679175797408888 52.2497
16.701713349928728 52.4568
16.72426913389191 52.5241
16.74680798922351 52.5408
16.76936507887444 52.4153
16.791905240734874 52.5978
16.814463639794468 52.2863
16.837022695210294 52.4444
16.859564824093756 52.7888
16.882125194503903 52.8647
16.904668639217885 53.3494
16.927230328348003 53.6962
16.949792678493612 54.2278
16.972338104193863 54.2228
16.994901778652235 53.8994
17.017448529496576 53.4553
17.040013531998152 53.4134
17.06257920018044 53.6955
17.0851279459922 54.3142
17.107694947817667 55.5543
17.130245028099072 56.5592
17.15281336730298 57.9648
17.17536478578733 59.5324
17.19793446610687 61.4805
17.220504818648422 64.2659
17.243058251703697 67.4546
17.265629950971032 71.8976
17.288184731571736 77.0893
17.310757781306908 81.3796
17.33333150794385 82.912
17.355888317140174 82.6194
17.37846339986244 78.4053
17.401021565958885 71.7816
17.42359800851343 65.2634
17.44617513265564 60.9874
17.468735341390783 58.5285
17.491261035594565 57.3433
17.51396340099364 56.8336
17.536490463869136 56.7963
17.559018209820174 56.7232
17.58154663977963 56.8847
17.604251766089718 57.3855
17.626781572227713 57.3699
17.64931206518155 57.567
17.671843245885103 57.9646
17.69455114821572 57.9872
17.717083712612634 58.5431
17.739616967569667 58.9285
17.762150914021706 59.9292
17.78486160749854 60.158
17.807396945166804 60.6348
17.829932977143503 61.041000000000004
17.85246970436452 61.6131
17.875183204129467 63.0533
17.897721330097664 65.6834
17.920260154126645 69.0393
17.942799677153296 72.3707
17.9655159983646 76.0681
17.988056927677544 80.8267
18.010598558807683 87.0283
18.033140892692916 96.337
18.05586005052525 107.727
18.07840379824407 119.866
18.10094825154059 131.914
18.12366954819864 141.22
18.146215420998306 143.615
18.16876200220057 137.291
18.191309292745153 123.47200000000001
18.214033452627167 108.78200000000001
18.236582170236648 95.2708
18.259131600016456 87.3452
18.281681742907335 85.0694
18.304408781233683 87.9801
18.32696035875955 93.3769
18.349512652227624 98.4796
18.372065662579683 104.20299999999999
18.394795594587553 106.859
18.41735004715306 104.164
18.43990521943684 97.602
18.46246111238171 88.8693
18.485193953325208 78.9635
18.507751296070428 71.2205
18.530309362314178 65.3899
18.552868153000343 62.8073
18.57560391815056 61.0909
18.59816416623245 60.5159
18.620725141597372 59.8326
18.643286845190268 59.2331
18.666025549835414 58.6173
18.688588718427933 57.9883
18.711152618092243 57.8144
18.73389353884365 57.4601
18.75645890921984 57.0117
18.77902501351406 56.7782
18.801591852673102 56.6602
18.824335739722738 56.3269
18.846904057212626 56.1288
18.8694731124168 55.9298
18.89204290628315 55.9747
18.914789774966803 55.6947
18.937361054791623 55.4834
18.959933076131318 55.1118
18.982505839934877 54.9104
19.00525570560582 55.0483
19.027829963004184 54.7343
19.05040496572238 54.8401
19.072980714710468 54.7355
19.095733592739563 54.6264
19.11831084296757 54.8333
19.140888842324735 55.5651
19.16346759176222 55.8327
19.18622349753803 56.4955
19.208803755869358 57.4613
19.231384767143577 58.7942
19.253966532312948 60.0316
19.276725481241822 62.231
19.29930876296784 65.2947
19.3218928014549 68.6535
19.34465404436217 71.7151
19.36723960516257 74.6502
19.389825925592426 75.9192
19.412413006605938 75.2498
19.43517731967805 72.3518
19.457765930683355 68.0089
19.48035530514408 63.1742
19.50294544401556 59.114
19.525712842708348 55.876999999999995
19.54830451925909 53.9787
19.570896963095727 52.6422
19.593490175174704 52.1998
19.616260674962184 52.268
19.638855432416964 51.9933
19.661450960992624 51.8713
19.68404726164677 51.8982
19.706820878021247 51.6632
19.729418731756834 51.8073
19.752017360452857 51.4585
19.77461676506804 51.7464
19.797393513540218 51.6675
19.819994478951667 51.7614
19.84259622316767 52.4125
19.8651987471481 53.007
19.887978643247177 53.4533
19.91058273574792 54.0046
19.933187610901943 54.7689
19.955969879466828 55.6708
19.97857632894404 56.9873
20.00118356396599 58.4056
20.023791585494575 60.3527
20.046577028914875 63.2111
20.069186632506966 66.2028
20.091797025500632 68.69
20.114408208858933 70.032
20.137196842715273 70.413
20.159809615886765 69.0716
20.18242318232135 66.2418
20.20503754298326 63.498000000000005
20.227829382875154 61.8327
20.250445341109344 61.1626
20.27306209647285 61.4495
20.29567964993108 62.8538
20.31847471147704 64.1267
20.34109387027612 65.1863
20.363713830075454 65.0906
20.386334591841646 64.0596
20.409132890679302 61.3877
20.431755265564437 58.0403
20.454378445325528 55.1415
20.477002430930366 52.6992
20.499803982716553 50.873999999999995
20.522429589228004 49.6503
20.54505600449589 49.14
20.567683229489194 48.9809
20.590488049900088 48.7805
20.61311690359731 48.533
20.63574656993626 48.4157
20.658553853717297 48.2522
20.681185154618298 48.0527
20.703817271080066 47.89
20.72645020407368 47.5863
20.749260783967177 48.0396
20.771895359337133 48.0996
20.794530754161617 47.9593
20.817166969412938 47.8241
20.83998086114876 47.765
20.86261872660049 47.446000000000005
20.885257415405402 47.2628
20.90789692853701 47.0788
20.930714147864748 47.0562
20.953355319030678 46.9525
20.97599731745334 47.1318
20.99864014410749 47.056000000000004
21.021460706796564 47.056999999999995
21.044105199328826 47.3947
21.06675052302631 47.5799
21.089396678865015 47.5989
21.112220600704806 47.8944
21.134868430275347 48.1056
21.15751709492456 48.4684
21.180166595629693 48.6039
21.202993892429635 49.363
21.22564507473034 49.8262
21.24829709602816 50.1728
21.27112693608965 50.4552
21.293780644891275 50.2875
21.316435195634053 49.7745
21.339090589297417 48.9825
21.361923832041875 48.3104
21.384580921090404 47.5617
21.407238856007325 47.2314
21.429897637773326 47.0708
21.45273429906592 47.1142
21.475394784108598 47.1179
21.498056118951983 47.0111
21.520718304578022 47.2799
21.543558400304388 47.1562
21.566222297108816 47.2728
21.58888704765135 47.323
21.61155265291521 47.4222
21.63439619898156 48.1061
21.657063523335786 48.6717
21.67973170537063 49.2314
21.7024007460706 49.7854
21.72524775840385 50.4112
21.747918526116475 51.4286
21.770590155457388 52.4002
21.79326264741238 53.61600000000001
21.816113141960237 55.4375
21.838787368860547 57.5565
21.861462461341976 59.7464
21.884315579735777 62.2198
21.90699241312273 64.4067
21.92967011506078 65.2683
21.95234868653799 64.7845
21.9752053151131 63.8114
21.997885635446785 61.7764
22.020566828293532 59.5823
22.04324889464272 57.6181
22.066109049404666 56.0803
22.088792872571794 55.6496
22.111477572219204 55.6157
22.1341631493376 55.69
22.157026846313123 55.8216
22.179714188221507 55.181000000000004
22.202402410582668 54.1444
22.22509151438863 52.3813
22.24795876962584 50.9123
22.270649646204486 49.6766
22.293341407213727 48.941
22.316034053646906 48.2272
22.338904883215342 47.833
22.36159931041458 47.6317
22.38429462602756 47.4638
22.40699083104897 47.2136
22.429865251039757 47.2755
22.452563244831367 47.3416
22.47526213102522 47.3358
22.49813925616515 47.2451
22.520839937143307 47.1336
22.543541513520587 47.1142
22.56624398629403 47.0472
22.589124730075895 47.0367
22.611829005656723 47.4271
22.63453418063466 47.2268
22.657240256008077 47.4105
22.680124634582935 47.6203
22.70283252079775 47.9463
22.725541310413075 48.4524
22.74825100442868 48.7896
22.771139033969575 49.2744
22.79385054687155 49.4822
22.81656296718292 49.9944
22.83927629590484 50.808
22.862167992606945 51.7948
22.88488314827121 52.9241
22.907599215359284 54.013000000000005
22.93031619487366 55.4582
22.953211574954405 56.629
22.975930389478226 57.4998
22.998650119445763 57.9164
23.02137076586092 57.3179
23.044269845560063 56.1791
23.06699233506288 54.5881
23.089715744034912 52.6908
23.112617610931565 50.7816
23.135342869061212 49.4221
23.158069049684816 48.1608
23.1807961538087 47.6826
23.20370174880544 47.5873
23.226430710184808 47.4568
23.249160598093425 47.4755
23.271891413539002 47.4543
23.294800752937697 47.5585
23.31753343374794 48.0361
23.340267045128353 48.2894
23.36300158808808 48.735
23.38591468821339 49.0002
23.408651104658304 49.5773
23.431388455719986 50.051
23.454126742409 50.6913
23.4770436196085 51.8192
23.499783787914662 53.1413
23.522524894889884 54.2013
23.54526694154616 55.6316
23.56818761219047 56.9904
23.59093154860734 57.7801
23.613676427751283 58.45399999999999
23.636422250635754 57.7974
23.659346731118656 56.1604
23.68209445191868 54.2269
23.704843119509587 51.9064
23.72759273490623 49.7981
23.750521041644767 47.9299
23.77327256312355 46.5418
23.796025035462787 45.8166
23.818956224555475 45.1079
23.841710609113413 45.0325
23.86446594758979 44.608000000000004
23.887222241002014 44.246
23.910157285144578 44.0421
23.932915498962537 43.9625
23.955674670778713 43.9037
23.978434801611975 43.7606
24.001373717286125 43.6603
24.024135776723917 43.5914
24.046898798245582 43.3633
24.06966278287146 43.3109
24.092605586582614 43.0738
24.115371508023642 42.9753
24.1381383956401 42.87
24.16090625045381 42.8811
24.183852958731244 42.7629
24.206622758582608 42.5962
24.229393528706886 42.4337
24.252165270127392 42.6127
24.27511589952438 42.3973
24.297889594216997 42.1507
24.32066426328598 42.0042
24.34343990775613 42.0494
24.36639447485003 41.9916
24.38917208083877 41.8337
24.41195066531332 41.923
24.43490819850244 41.9199
24.457688750692377 41.8741
24.48047028445616 41.7355
24.503252800821233 41.8575
24.526214300784112 41.8198
24.548998793132213 41.9292
24.57178427117417 41.9297
24.59457073593893 42.0144
24.617536219319863 41.9551
24.64032466834748 41.9682
24.663114107195035 41.7443
24.685904536893013 41.5353
24.708874020360852 41.3751
24.731666442613744 41.2567
24.754459858818787 41.1845
24.777254270007962 41.1356
24.80022777025625 41.0005
24.82302418230472 40.8759
24.845821592443674 40.9173
24.86862000170663 41.0634
24.891597535453727 40.9765
24.914397953892728 41.0562
24.93719937456671 41.0444
24.96000179851076 41.3072
24.98298338249997 41.4326
25.00578782394922 41.6712
25.028593271784167 41.6183
25.05157790644186 42.0618
25.07438537804115 42.3532
25.097193859145293 42.7055
25.120003350792075 42.95
25.142992065061257 43.3734
25.165803588823465 43.6956
25.18861612625217 43.8429
25.211429678386736 43.9925
25.234422489079968 44.0338
25.257238081693636 44.1441
25.280054692141732 44.3019
25.3028723214652 44.3155
25.325869245420463 44.4121
25.348688923599397 44.4643
25.371509623787006 44.4443
25.394331347025812 44.1774
25.41733240110666 43.7806
25.440156181590016 42.9991
25.46298098826268 42.3853
25.48580682216873 41.7887
25.50881202326435 41.1842
25.53163992281684 40.6203
25.55446885274561 40.2083
25.577298814096377 39.8968
25.600308179121807 39.8233
25.623140214533745 39.9685
25.64597328451537 39.7591
25.66898578564376 39.4429
25.691820936010206 39.558
25.714657124097695 39.4008
25.737494350954734 39.4019
25.760511045684957 39.436
25.783350361364224 39.4716
25.806190718969255 39.4069
25.82903211955018 39.5942
25.852053024868923 39.772
25.874896522722523 39.6542
25.897741066713106 39.562
25.920586657892454 39.6893
25.943611790812668 39.8153
25.966459487728237 39.8812
25.989308234998564 40.0749
26.01215803367705 40.2485
26.03518741123814 40.605
26.05803932412957 40.7345
26.080892291600094 40.7751
26.10374631470478 40.8955
26.12677995397268 41.1051
26.14963609978026 41.1846
26.172493304397875 40.7562
26.19535156888223 40.5333
26.218389486949604 40.0757
26.241249882640123 39.7402
26.26411134137826 39.5419
26.28715248187403 39.3325
26.31001607820869 39.2094
26.3328807407756 39.1007
26.35574647063438 39.2204
26.37879191991473 39.1641
26.401659795896734 39.3258
26.424528742360263 39.5086
26.447398760366614 39.4551
26.470448535598294 39.5693
26.49332070826805 39.6871
26.516193955675355 39.9923
26.53906827888316 40.3142
26.562122397260108 40.4926
26.584998883685063 40.9345
26.607876449110325 41.2056
26.63075509460056 41.4385
26.65381357334404 41.653
26.67669439061878 41.7536
26.699576291163382 41.5896
26.722459276044212 41.5345
26.745522132402975 41.3305
26.768407297649354 40.9793
26.791293550442003 40.726
26.814180891848974 40.3765
26.837248143099337 40.0714
26.860137673466657 39.9003
26.88302829566349 39.5584
26.90592001075963 39.3554
26.92899167420566 39.2946
26.951885586870763 38.8683
26.974780595655517 38.6971
26.99785558178161 38.5268
27.020752794605112 38.3838
27.043651106772522 38.1366
27.06655051935668 38.0015
27.089629948036183 37.8281
27.112531573292053 37.7988
27.135434302194138 37.8431
27.158338135817015 37.7204
27.181422024430987 37.6737
27.204328079372566 37.5845
27.22723524226965 37.6909
27.250143514198573 37.7569
27.273231880156334 37.6681
27.296142382065014 37.5309
27.319053996245536 37.416
27.341966723775965 37.4181
27.365059584515222 37.6131
27.38797455070062 37.6304
27.410890633481237 37.673
27.433807833936918 37.6035
27.456905206923906 37.6708
27.47982465472398 37.6755
27.502745223449743 37.8013
27.525666914182825 37.9017
27.548768816912457 37.7619
27.571692763693633 37.8802
27.59461783573812 37.7962
27.617723149491244 37.5358
27.640650484125285 37.4895
27.66357894728264 37.4306
27.686508540048052 37.4414
27.709618414237887 37.3654
27.732550278321757 37.1241
27.755483275279115 37.0488
27.778417406196485 37.1305
27.801531858397514 37.1553
27.824468269376716 37.0908
27.847405817586786 37.0019
27.870344504116094 37.0507
27.893463551932008 37.3446
27.916404527281053 37.5122
27.93934664422563 37.5399
27.962289903855886 37.6651
27.98541356491974 37.9083
28.00835912214229 38.1932
28.03130582533231 38.5463
28.054253675581805 38.6459
28.077381967556104 38.6959
28.100332124185126 38.7363
28.123283431160893 38.5824
28.146235889577238 38.3932
28.169368830154156 38.1665
28.192323603752033 37.9948
28.215279532083304 37.694
28.238415973016764 37.5283
28.261374223145094 37.4043
28.284333631303806 37.1755
28.307294198589954 37.0037
28.330435319167677 36.6899
28.353398217078915 36.3743
28.376362277420153 36.0931
28.39932750129032 35.9002
28.422473319286713 35.7517
28.44544088262495 35.8064
28.468409612800283 35.5927
28.491379510913497 35.3138
28.51453004413313 35.1631
28.53750229057244 35.1283
28.56047570826344 35.1346
28.583450298308804 35.2272
28.606605564586562 35.0059
28.629582511831156 35.0252
28.65256063474956 34.8603
28.675539934446338 34.8596
28.698699951647605 34.8537
28.72168161743193 34.6542
28.74466446331978 34.6926
28.767648490417624 34.6202
28.790813276438353 34.5489
28.813799678527303 34.5886
28.836787265157085 34.7627
28.859955641890075 34.635
28.882945610203045 34.6689
28.905936766392035 34.5667
28.928929111566863 34.5803
28.952102288520145 34.4758
28.975097024308607 34.4601
28.998092952423807 34.3363
29.021090073977508 34.1399
29.04426806913204 34.0041
29.067267590245258 33.9595
29.090268308143695 33.8804
29.11327022394099 33.8308
29.13645305530891 33.7492
29.159457379627167 33.6756
29.18246290519685 33.5669
29.20546963313352 33.518
29.22865731875826 33.5751
29.25166646419296 33.5481
29.27467681535305 33.4468
29.29768837335608 33.5821
29.320880931312562 33.6282
29.34389491580634 33.5741
29.366910110507334 33.5443
29.38992651653503 33.641999999999996
29.41312396492981 33.6335
29.436142806456754 33.5124
29.45916286268059 33.3937
29.48236399319994 33.2118
29.50538649169417 33.1628
29.528410208259935 33.0528
29.55143514402014 32.8322
29.574641196749695 32.701
29.597668583816574 32.5967
29.6206971934585 32.3021
29.64372702680042 32.359
29.666938019934474 32.3163
29.689970313635285 32.312
29.713003834422636 32.2582
29.73603858342347 32.2937
29.759254535188578 32.0835
29.78229175361658 31.9724
29.80533020365064 32.0858
29.82836988641968 32.1251
29.85159081507472 32.0441
29.874632976355343 31.9343
29.89767637376955 32.016999999999996
29.920721008448314 31.819000000000003
29.9439469322847 31.8075
29.96699405457564 31.7215
29.9900424175358 31.8388
30.013092022298157 31.7834
30.03632295963995 31.7422
30.059375061131373 31.7696
30.08242840783577 31.7638
30.105483000888153 31.8258
30.128718970092244 31.7667
30.151776069006917 31.7089
30.17483441768648 31.7552
30.198074175317235 31.7447
30.221135036724256 31.6788
30.24419715131772 31.5537
30.267260520236203 31.583000000000002
30.290505341942243 31.6781
30.313571232750228 31.6946
30.336638381310948 31.65
30.35970678876503 31.5552
30.38295669299435 31.5193
30.40602763151657 31.5298
30.429099832366074 31.4466
30.452173296685572 31.4355
30.47542830191959 31.313000000000002
30.498504306502497 31.3081
30.521581577995562 31.5098
30.544660117543582 31.4911
30.56792024229725 31.4434
30.59100133132069 31.4648
30.614083691845494 31.5859
30.637167325018545 31.5551
30.660432587840603 31.7265
30.683518779717886 31.7383
30.70660624769615 31.5295
30.729694992924372 31.6605
30.75296541239743 31.6553
30.77605672557558 31.6341
30.799149319462742 31.5589
30.8224236211637 31.4941
30.845518789950724 31.291
30.868615242910597 31.2754
30.891712981195973 31.0604
30.91499247215866 31.0399
30.938092794619365 31.0457
30.96119440587579 30.9387
30.984297307082752 30.7746
31.00758200598383 30.7434
31.030687500658694 30.5731
31.053794288760695 30.5532
31.076902371446767 30.5073
31.100192296997445 30.5632
31.12330298246119 30.480999999999998
31.14641496599209 30.3336
31.169528248749216 30.2389
31.19282341969534 30.303
31.215939314557186 30.3894
31.239056512134788 30.2713
31.262175013589378 30.3035
31.28547544871168 30.2265
31.30859657161541 30.2388
31.331719001892175 30.221999999999998
31.35484274070538 30.3181
31.378148458819545 30.3625
31.401274828443725 30.3489
31.424402510106933 30.2766
31.447712205419993 30.3024
31.470842524931633 30.3199
31.493974159989783 30.2944
31.51710711176168 30.2983
31.54042212308802 30.2948
31.563557722100917 30.2295
31.586694641341655 30.0538
31.609832881979628 29.8917
31.63315322823208 29.8801
31.656294125521327 29.7931
31.679436347728515 29.7372
31.70257989602529 29.6945
31.725905596152327 29.6435
31.74905181052835 29.6303
31.772199354521323 29.6173
31.79534822930507 29.5091
31.818679302290967 29.6745
31.84183085259981 29.6072
31.864983737233473 29.5172
31.88813795736804 29.541999999999998
31.911474422233013 29.4606
31.934631327356435 29.4705
31.9577895715215 29.5453
31.980949155906522 29.5172
32.004291031706956 29.5201
32.027453310562606 29.4506
32.05061693318573 29.3218
32.07396288236386 29.311
32.09712920658542 29.1842
32.12029687812702 29.0383
32.14346589817093 28.9679
32.166817291729984 28.9808
32.18998902288583 28.9127
32.21316210610336 28.9026
32.23633654256711 28.6835
32.259693399663725 28.6116
32.282870556771144 28.506999999999998
32.30604907069099 28.5838
32.329228942610065 28.5522
32.35259128243769 28.3399
32.375773884550505 28.2993
32.398957848235646 28.4266
32.422143174682176 28.2954
32.445511016471215 28.1875
32.468699082679954 28.1102
32.49188851523011 28.105999999999998
32.51507931531304 28.0187
32.538452678331 28.0981
32.56164622776311 27.9595
32.58484114831493 27.8629
32.60803744118015 27.8801
32.631416344731896 27.8933
32.654615396551876 27.8688
32.67781582427913 27.8122
32.701198898634416 27.7386
32.72440209253756 27.6846
32.747606665947124 27.6404
32.77081262006088 27.551
32.79420126883317 27.5643
32.81740999876112 27.6165
32.840620112999424 27.464000000000002
32.86383161274818 27.3677
32.88722585534586 27.4858
32.91044014056596 27.5877
32.933655814909734 27.4331
32.95687287957963 27.4283
32.98027273544904 27.3022
33.00349259526636 27.3338
33.026713849030116 27.3142
33.04993649794511 27.2949
33.073341986570746 27.2746
33.09656744032826 27.1879
33.11979429286444 27.2673
33.14302254538647 27.2428
33.166433686291185 27.2124
33.18966475336992 27.1568
33.212897224069096 27.0865
33.23613109959831 27.0888
33.259547912343415 27.0696
33.2827846121627 27.066999999999997
33.306022720453775 26.9446
33.32926223842861 26.9308
33.352684742614166 26.8548
33.37592709463173 26.8377
33.399170859982064 26.7725
33.422597648419426 26.7487
33.44584425514446 26.6066
33.46909227885668 26.5804
33.4923417207723 26.4853
33.51577423505344 26.4902
33.539026528130385 26.3955
33.56228024307245 26.3189
33.585535381098246 26.2137
33.60897364093058 26.2148
33.63223163992385 26.2082
33.6554910656699 26.1553
33.678751919389796 26.1384
33.702195944520106 26.0114
33.72545966903325 26.0655
33.74872482519663 25.9995
33.771991414233746 26.0243
33.79544122444841 25.9284
33.81871069412428 25.8211
33.84198160035767 25.826
33.86525394437455 25.8806
33.88870955949969 25.7959
33.911984794020626 25.781999999999996
33.93526147001624 25.7252
33.958539588715006 25.6833
33.98200102861669 25.6769
34.0052820477047 25.5429
34.02856451319451 25.4901
34.05203033759056 25.436999999999998
34.07531571090147 25.4607
34.09860253431845 25.4608
34.121890809074316 25.4189
34.145362493118924 25.3263
34.16865368561615 25.2899
34.191946333164054 25.2869
34.21524043699793 25.2186
34.23871800066799 25.2473
34.26201503218366 25.1356
34.28531352370466 25.0166
34.30861347646881 25.0676
34.33209693978188 24.9917
34.3553998301885 24.9832
34.378704185565205 24.904
34.402010007152356 24.8268
34.42549939016683 24.8553
34.44880815937748 24.7926
34.472118398533134 24.7002
34.49543010887669 24.7181
34.51892543169198 24.6127
34.54224009966052 24.6452
34.56555624255917 24.6982
34.58887386163339 24.5439
34.61237514439016 24.4448
34.6356957311114 24.4811
34.65901779775809 24.4638
34.68252356662995 24.3913
34.705848608458616 24.4681
34.72917513396849 24.3316
34.75250314440949 24.2593
34.77601490857862 24.209
34.799345904259795 24.1038
34.82267838863559 24.1611
34.846012362958525 24.1151
34.869530142679984 24.0766
34.89286711232212 24.0657
34.91620557568269 24.05
34.93954553401677 24.0423
34.9630693495876 23.9381
34.986412313340814 24.06
35.00975677584668 23.9532
35.033102738362956 23.9811
35.05663261012228 23.8397
35.0799815881786 23.8347
35.10333207003229 23.8323
35.12668405694369 23.7851
35.150220005273056 23.7906
35.17357501786656 23.8165
35.19693153931268 23.7134
35.220289570874385 23.6344
35.24383161619786 23.5968
35.267192683604904 23.6021
35.290555264930376 23.5533
35.314101899412165 23.6648
35.33746752422433 23.6016
35.36083466676374 23.5613
35.38420332829803 23.5204
35.407756095629054 23.6374
35.43112781085063 23.5148
35.45450104888391 23.5277
35.477875810999194 23.5437
35.50143473172161 23.3223
35.52481255774625 23.3885
35.54819191167777 23.3319
35.57157279478914 23.3255
35.595137889488406 23.354
35.61852184675279 23.3358
35.641907337029984 23.1819
35.665294361595684 23.2002
35.68886565090076 23.0909
35.7122557598848 23.0227
35.73564740699838 23.0376
35.759040593519934 22.991
35.78261809810353 22.9578
35.80601437933051 22.9088
35.829412203814705 22.921999999999997
35.85281157283719 22.8459
35.876395313415884 22.8518
35.8997977874528 22.7639
35.92320180988546 22.7229
35.946790244133936 22.6462
35.97019737933222 22.6771
35.993606066789866 22.6659
36.01701630779276 22.6602
36.04061101440684 22.534000000000002
36.06402437852291 22.5853
36.08743930005611 22.6034
36.1108557802951 22.4348
36.13445678011326 22.4622
36.15787639383515 22.3722
36.18129757014299 22.3589
36.20472031032821 22.2275
36.22832762423364 22.1498
36.25175350829375 22.186999999999998
36.275180960119776 22.2268
36.298609981005924 22.2262
36.32222362992669 22.2195
36.34565580510207 22.2095
36.36908955323448 22.1795
36.39252487562093 22.0359
36.416144880530226 22.0241
36.43958336764275 22.0421
36.463023432914625 22.0009
36.486465077645676 21.9704
36.51009145956204 21.9972
36.53353627947859 22.0162
36.55698268276811 21.9287
36.58043067073321 21.8819
36.60406345072071 21.7948
36.62751462435344 21.7522
36.65096738658405 21.6778
36.67460498210655 21.6821
36.69806093788647 21.6445
36.72151848619297 21.605
36.744977628333636 21.6084
36.76862165890998 21.5151
36.79208400512205 21.5459
36.81554794910557 21.4971
36.83901349217101 21.4006
36.862663978991606 21.3447
36.88613273667352 21.3134
36.90960309738324 21.3968
36.933075062434064 21.3222
36.95673202673572 21.2444
36.98020721697122 21.2426
37.003684015502365 21.175
37.027162423645365 21.1006
37.050825886711465 21.1012
37.07430753063053 21.1177
37.09779078812467 21.0079
37.121275660513014 21.0765
37.144945643673694 20.9723
37.16843376245278 20.9601
37.19192350009803 20.9495
37.215414857931435 20.884
37.239091382563885 20.7949
37.262585997426164 20.7756
37.28608223645736 20.8016
37.309763684451696 20.7543
37.33326318851098 20.7442
37.356764320726555 20.7412
37.380267082425526 20.7023
37.40395510942588 20.68
37.42746114683234 20.61
37.45096881771841 20.563000000000002
37.474478123414166 20.628
37.49817275092816 20.5361
37.52168534303452 20.5621
37.54519957395567 20.4631
37.568715445024665 20.4375
37.592416694607714 20.387999999999998
37.61593586281424 20.4381
37.63945667518264 20.4479
37.66297913304891 20.2873
37.68668702630454 20.3209
37.710212792059274 20.2033
37.733740207334854 20.2174
37.757269273470364 20.1707
37.780983832050374 20.1646
37.80451621684926 20.1319
37.82805025654007 20.128
37.851585952464795 20.0613
37.8753071980695 19.9724
37.89884622345676 19.9537
37.92238690911902 19.9036
37.94611318753442 19.9028
37.969657210779765 19.9038
37.99320289834801 19.8258
38.016750251586465 19.773
38.04048325513017 19.7292
38.06403395679343 19.6982
38.087586328183946 19.7082
38.11114037065203 19.7242
38.13488012115898 19.6993
38.1584375229181 19.6206
38.181996599821 19.5041
38.205557353221124 19.5304
38.229303872575656 19.5356
38.2528679961576 19.4636
38.27643380031219 19.5094
38.30000128639589 19.4257
38.32375459653193 19.3939
38.34732546371299 19.3747
38.37089801690786 19.2928
38.39447225747609 19.3361
38.418232380377425 19.2772
38.441810012983396 19.2182
38.46538933705673 19.1468
38.488970353960084 19.1847
38.51273731166058 19.1766
38.536321731567014 19.0555
38.55990784840681 19.1057
38.58367995004091 19.0606
38.60726947812959 19.025
38.63086070726198 19.0136
38.654453638806274 19.003
38.678232613930824 18.8795
38.70182896773327 18.9035
38.72542702806741 18.8565
38.7490267963045 18.838
38.77281266709232 18.8381
38.79641586862214 18.7769
38.8200207821842 18.7258
38.843627409152944 18.784000000000002
38.86742019782782 18.6778
38.891030269149255 18.5975
38.914642058016156 18.6185
38.938255565806124 18.6366
38.96205529464307 18.5558
38.98567225787121 18.5619
39.00929094417078 18.4772
39.03291135492255 18.5474
39.05671804624804 18.5094
39.080341923549106 18.4405
39.103967529460334 18.4413
39.127594865365744 18.3132
39.15140854155791 18.3304
39.17503935514948 18.2717
39.19867190290282 18.3091
39.22249083587951 18.2817
39.24612686969409 18.2615
39.269764641845306 18.1702
39.293404153722804 18.1714
39.317230110864074 18.1
39.34087311998506 18.0688
39.36451787301696 18.1585
39.388164371352595 18.0053
39.41199737518003 18.0186
39.43564738196752 17.9802
39.45929913825317 17.9425
39.48295264543308 17.9101
39.506792718520884 17.8533
39.530449745387216 17.9118
39.55410852735203 17.8263
39.57776906581474 17.8531
39.60161623079 17.817999999999998
39.625280300200025 17.7998
39.64894613032202 17.6866
39.67261372255866 17.7128
39.6964680021016 17.7015
39.72013913657293 17.6782
39.74381203738292 17.6975
39.76748670593756 17.607
39.79134812278169 17.5696
39.81502634488497 17.5455
39.83870633896685 17.5015
39.862388106436654 17.4171
39.88625668336918 17.4465
39.90994201572829 17.4282
39.933629125719285 17.3533
39.957503091207826 17.3547
39.9811937746168 17.3649
40.00488623990914 17.3229
40.02858048850006 17.2637
40.05246165409549 17.2471
40.076159487492085 17.2467
40.099859108448875 17.2945
40.123560518384345 17.176
40.1474489070226 17.167
40.171153913178564 17.111
40.194860712584955 17.0882
40.2185693066637 17.1303
40.242464941335314 17.0214
40.26617714307655 17.1097
40.289891143772046 17.0288
40.3136069448471 16.9829
40.33750984859743 16.9442
40.3612292688043 16.9002
40.3849504936829 16.9425
40.40867352466194 16.9016
40.43258372059144 16.8425
40.45631038219906 16.8439
40.48003885420956 16.7498
40.503769138055105 16.7465
40.52768664931955 16.7544
40.55142057531802 16.7835
40.57515631746428 16.6802
40.599079334038514 16.6419
40.62281872700477 16.5984
40.64655994043941 16.6431
40.67030297578061 16.5413
40.69423334835778 16.5336
40.71798004609188 16.4931
40.74172857006355 16.5422
40.76547892171441 16.5285
40.7894166736039 16.4142
40.813170699248566 16.4296
40.83692655691388 16.4282
40.86068424804498 16.4456
40.884629402612525 16.3802
40.908390779366385 16.3755
40.932153993938 16.2886
40.95591904777605 16.2622
40.979871628443995 16.2546
41.003640379561936 16.2277
41.02741097430883 16.2147
41.05118341413683 16.1486
41.075143444384416 16.1411
41.098919593177826 16.1388
41.1226975914255 16.1335
41.14647744058318 16.0544
41.170444943946755 16.02
41.19422851378379 16.0492
41.218013938914645 15.9706
41.24198706625173 15.9432
41.26577622087193 15.9237
41.289567235177785 15.862
41.31336011063129 15.8812
41.337340752422875 15.8498
41.361137369129835 15.7776
41.38493585138705 15.8005
41.40873620066004 15.8072
41.43272438060107 15.7035
41.45652848292052 15.7411
41.48033445666918 15.6781
41.50414230331616 15.6129
41.528138045159764 15.6756
41.551949656675205 15.5777
41.575763145513235 15.603
41.59957851314666 15.5774
41.62358184070442 15.5362
41.64740098505737 15.4873
41.6712220126409 15.4729
41.69504492493139 15.4411
41.71905586207357 15.434000000000001
41.74288256296395 15.3795
41.766711153007456 15.3749
41.79054163368412 15.3354
41.814560204340054 15.3646
41.838394485526365 15.3439
41.86223066180303 15.302999999999999
41.88625497706819 15.2978
41.910094962812 15.2259
41.93393684811168 15.2264
41.95778063445365 15.0785
41.981812625263366 15.1504
42.00566023303407 15.1865
42.029509746323676 15.1145
42.05336116662236 15.0284
42.077400857069705 15.0567
42.10125611078846 15.0611
42.12511327600405 15.0051
42.14897235421036 14.9422
42.173019768448455 14.9502
42.19688269209613 14.8884
42.22074753323349 14.883
42.24461429335818 14.8464
42.268669455600495 14.8274
42.292540073217886 14.8306
42.31641261433284 14.8189
42.34028708044675 14.8316
42.36435001496739 14.7595
42.38822835065557 14.7551
42.41210861586426 14.708
42.4359908120986 14.7107
42.46006154323262 14.6443
42.48394762115317 14.5613
42.507835634632315 14.6631
42.531912233047436 14.6096
42.55580413732265 14.5603
42.579697981698 14.5226
42.60359376768525 14.5133
42.62767820545945 14.4848
42.65157789440821 14.4731
42.67547952952185 14.4494
42.699383112316 14.4731
42.72347541395347 14.360999999999999
42.74738291190531 14.332
42.771292362102166 14.3634
42.795203766063516 14.2856
42.819303956130405 14.2821
42.843219287476536 14.2553
42.86713657716324 14.2126
42.89105582671383 14.1975
42.91516392983864 14.1689
42.939087119032166 14.1456
42.963012272677304 14.16
42.98693939230129 14.1106
43.01105543317513 14.0957
43.034986504731386 14.0064
43.05891954686589 14.024000000000001
43.08285456110972 13.991
43.10697856448665 14.004000000000001
43.130917542983475 13.9253
43.15485849820081 13.8965
43.17880143167367 13.8886
43.20293342237094 13.8483
43.226880332449 13.815999999999999
43.25082922540554 13.8634
43.27496722682525 13.8474
43.29892010567796 13.7611
43.32287497204102 13.7585
43.34683182745632 13.753
43.370977859791836 13.6994
43.39493871351105 13.6794
43.41890156092628 13.7241
43.44286640358341 13.6482
43.46702049182749 13.6319
43.49098934522816 13.5644
43.51496019852649 13.5752
43.5389330532723 13.5869
43.56309522248204 13.5376
43.58707210044314 13.4604
43.61105098451946 13.4528
43.63503187626491 13.4256
43.659202151562134 13.4207
43.68318707902681 13.4056
43.70717401884041 13.408
43.731162972560874 13.343
43.75534137913236 13.3499
43.779334381108384 13.3165
43.803329401683186 13.2401
43.82732644241872 13.2754
43.8515130055166 13.2824
43.87551410707659 13.2228
43.89951723350145 13.2178
43.923709934595614 13.2143
43.94771713129917 13.1767
43.97172635758096 13.1395
43.99573761501002 13.1385
44.0199385169922 13.0872
44.04395385732619 13.1015
44.067971233533086 13.1128
44.09199064718605 13.0483
44.11619977548961 13.0245
44.14022328470671 12.9401
44.16424883610785 12.9655
44.18827643127035 12.9284
44.21249381139513 12.9389
44.236525514814076 12.925999999999998
44.26055926674478 12.8793
44.28459506876863 12.8982
44.3088207262813 12.8231
44.33286064928722 12.7619
44.35690262714919 12.7545
44.38094666145278 12.7311
44.4051806219871 12.7683
44.42922879003185 12.75
44.45327901929361 12.697000000000001
44.477331311362136 12.6746
44.501573600619416 12.6339
44.525630039221795 12.6035
44.54968854541895 12.5711
44.573937102200176 12.6277
44.5979997645541 12.5699
44.622064499300315 12.5283
44.64613130803592 12.5038
44.67038823869318 12.5146
44.69445921643748 12.4987
44.718532272981385 12.4117
44.742607409926194 12.4262
44.76687274034801 12.4041
44.79095205918753 12.3802
44.81503346325094 12.35
44.839116954143876 12.3768
44.86339071028742 12.3463
44.88747839599524 12.2697
44.91156817336837 12.2759
44.93566004401666 12.2631
44.959942251908146 12.2212
44.984038330325966 12.2339
45.00813650686762 12.1698
45.03223678314731 12.1458
45.05652746888232 12.1058
45.08063196592069 12.1027
45.104738567558705 12.0914
45.128847275414856 12.0656
45.15314646515866 12.0863
45.17725940679741 12.0651
45.20137445952892 12.0179
45.22568004865265 12.0176
45.24979934496396 11.9691
45.27392075725247 11.9397
45.29804428714431 11.931
45.322358426247604 11.934000000000001
45.346486212804315 11.8987
45.370616121861914 11.8383
45.39474815505086 11.8379
45.41907087049246 11.8226
45.4432071734666 11.7844
45.46734560548283 11.7718
45.49148616817604 11.7961
45.51581748638564 11.7271
45.5399623320197 11.7473
45.56410931325473 11.7153
45.58825843173002 11.6558
45.61259837920865 11.600999999999999
45.636751793816 11.6487
45.66090735060093 11.6068
45.68506505120716 11.5678
45.7094136545275 11.5886
45.73357566449271 11.5479
45.75773982322992 11.5323
45.78190613238733 11.4959
45.806263418194064 11.4948
45.83043404997326 11.4736
45.85460683713677 11.4442
45.87897065658495 11.4383
45.90314777634752 11.3815
45.92732705646868 11.3639
45.9515084986045 11.3697
45.97588104735473 11.3511
46.00006683541565 11.3224
46.02425479047904 11.2857
46.04844491420549 11.3004
46.0728262191024 11.294
46.09702070211635 11.2887
46.12121735879483 11.2487
46.14541619080294 11.2274
46.169806278764455 11.2579
46.194009483459034 11.2452
46.21821486849841 11.1836
46.24242243555223 11.1376
46.266821333570014 11.0889
46.29103328674601 11.0829
46.31524742696538 11.1105
46.33946375590237 11.0635
46.36387149104216 11.0036
46.38809221957392 11.0153
46.41231514186606 11.0113
46.436540259597464 10.9961
46.460956858999374 10.9499
46.48518638983522 10.9167
46.509418121166966 10.9108
46.533652054678114 10.8715
46.55807754555709 10.8561
46.58231590571962 10.8258
46.60655647313217 10.8163
46.630988654873654 10.7836
46.655233659129024 10.8026
46.67948087571551 10.7095
46.70373030632484 10.7225
46.72817142736393 10.6989
46.752425308428684 10.706
46.77668140861147 10.727
46.80093972960865 10.6739
46.82538981736788 10.6488
46.849652602470904 10.6432
46.87391761349769 10.5754
46.8981848521493 10.623
46.9226439341274 10.5902
46.946915650573224 10.558
46.97118959976749 10.5355
46.99546578341598 10.5108
47.019933887188216 10.4877
47.04421456235744 10.4662
47.06849747711879 10.4496
47.09278263318286 10.4126
47.11725978640143 10.4098
47.14154944775105 10.3872
47.165841355555656 10.3623
47.1901355115306 10.3552
47.214621741924994 10.3417
47.23892041698887 10.3479
47.26322134538975 10.306
47.28771440635075 10.2752
47.31201986422527 10.2551
47.33632758061436 10.2154
47.360637557241866 10.2212
47.38513974410611 10.2166
47.40945426407847 10.1953
47.43377104948137 10.1803
47.45809010204344 10.1695
47.48260144275502 10.1154
47.506925052572285 10.0761
47.53125093475548 10.071
47.55557909103813 10.0611
47.58009961361992 10.0551
47.60443234110732 10.036
47.62876734791564 10.0406
47.65310463578333 9.99726
47.6776343683373 9.975589999999999
47.7019762413987 9.9301
47.72632040075572 9.977319999999999
47.75066684815169 9.96192
47.77520581885936 9.91468
47.799556865477655 9.87072
47.823910205386 9.90352
47.84826584033272 9.86962
47.87281407745551 9.81805
47.89717432569297 9.8102
47.92153687423484 9.81425
47.94609208429692 9.74288
47.97045925671401 9.74986
47.99482873471275 9.77631
48.01920052005013 9.72902
48.04376504619224 9.709610000000001
48.068141469543484 9.74371
48.09252020552573 9.70374
48.11690125590099 9.662460000000001
48.1414751266064 9.66066
48.16586082917454 9.63937
48.19024885144316 9.59223
48.2146391951793 9.59804
48.239222439012764 9.63842
48.26361744916137 9.54018
48.28801478610016 9.52228
48.31241445160131 9.51225
48.337007097209366 9.49035
48.36141144338331 9.48046
48.38581812345755 9.47907
48.41022713920929 9.49254
48.434829215320704 9.436589999999999
48.45924292604658 9.43277
48.48365897780325 9.46867
48.50807737237308 9.38488
48.532688907799276 9.392430000000001
48.55711201168574 9.388
48.581537463754074 9.33822
48.60615611725119 9.31899
48.63058628942721 9.315
48.65501881516546 9.32165
48.6794536962573 9.26635
48.70408185970339 9.2311
48.72852147531801 9.22653
48.75296345168211 9.20753
48.77740779059232 9.20439
48.80204549302823 9.209010000000001
48.82649458091802 9.14316
48.85094603676547 9.136610000000001
48.87539986237231 9.11214
48.90004713292306 9.11437
48.92450572200832 9.08538
48.94896668628025 9.067060000000001
48.97343002754588 9.04835
48.99808689542115 9.035060000000001
49.02255501470614 9.05937
49.04702551642794 9.01919
49.0714984023988 9.00662
49.096164896893235 8.96469
49.120642575466796 8.951939999999999
49.145122643748394 8.93695
49.16960510355558 8.9132
49.19428125404938 8.938369999999999
49.2187685210852 8.91438
49.243258185121555 8.856010000000001
49.26794160167084 8.8572
49.2924360839405 8.868160000000001
49.31693296869764 8.82042
49.34143225776915 8.77638
49.36612538195438 8.749239999999999
49.39062950396021 8.775089999999999
49.41513603578346 8.7621
49.4396449792564 8.73598
49.46434784069503 8.71442
49.488861631846454 8.698139999999999
49.513377840166804 8.70265
49.537896467493745 8.67184
49.56260909589029 8.63518
49.587132585683285 8.63782
49.611658500018365 8.59416
49.636186840738596 8.58191
49.66090926588511 8.598339999999999
49.685442483902584 8.58726
49.70997813385706 8.54335
49.734516217597076 8.53012
49.75924846937352 8.50192
49.7837914452858 8.512369999999999
49.80833686055187 8.50663
49.83288471702571 8.48148
49.85762682540054 8.497760000000001
49.882179588965734 8.46377
49.9067347993235 8.40827
49.93129245833333 8.39816
49.95604445336378 8.396339999999999
49.98060703442832 8.41082
50.005172069746266 8.37005
50.02993150438364 8.38883
50.05450147301533 8.332360000000001
50.07907390151433 8.29539
50.10364879174981 8.30996
50.12841816587289 8.29083
50.1529980044635 8.2473
50.17758031042124 8.23045
50.20216508562089 8.19989
50.22694442953363 8.20155
50.25153416817468 8.18333
50.27612638170508 8.19575
50.300721072005196 8.16312
50.325510416102105 8.16312
50.350110084975064 8.14798
50.37471223628208 8.149569999999999
50.39931687190919 8.10781
50.424116246675766 8.08808
50.44872587605249 8.06886
50.47333799543065 8.06398
50.49795260670191 8.08434
50.52276204271512 8.04819
50.54738166295838 8.04107
50.57200378079314 8.017000000000001
50.596628398116835 7.967169999999999
50.62144792604559 7.98245
50.646077567609396 7.9558800000000005
50.670709714377715 7.94994
50.69553683636198 7.9643
50.72017401885922 7.90937
50.7448137122895 7.93209
50.76945591856022 7.88695
50.79429318636823 7.872160000000001
50.818940443716784 7.86366
50.84359021965163 7.873880000000001
50.868242516085964 7.8589
50.893089960641895 7.817130000000001
50.917747323549435 7.753839999999999
50.94240721271973 7.78861
50.96706963007175 7.73937
50.99192728239342 7.7621
51.01659478166073 7.734139999999999
51.04126481489051 7.67678
51.06593738400761 7.67053
51.090805275207074 7.684939999999999
51.11548294172845 7.649769999999999
51.14016314993547 7.66102
51.164845901758845 7.656910000000001
51.18972406304274 7.6177600000000005
51.21441192780656 7.588430000000001
51.23910234200271 7.57764
51.2637953075678 7.57598
51.288683770237945 7.56033
51.31338186432707 7.54351
51.33808251561888 7.506139999999999
51.362978729967345 7.507280000000001
51.387684521509755 7.4995199999999995
51.41239287610203 7.49558
51.437103795691165 7.438839999999999
51.46201036644977 7.444319999999999
51.486726441956634 7.447439999999999
51.51144508832545 7.41245
51.536166307509156 7.383660000000001
51.56108326624387 7.365239999999999
51.58580965706056 7.39985
51.61053862657523 7.36371
51.635270176746864 7.31031
51.66019755512065 7.33573
51.68493429268881 7.31703
51.70967361681515 7.2743
51.73441552946465 7.29588
51.759353359237934 7.270580000000001
51.7841004750961 7.24374
51.80885018539685 7.242789999999999
51.833602492111254 7.18924
51.8585508051424 7.197139999999999
51.883308330926425 7.17623
51.90806845906181 7.15627
51.932831191525715 7.12856
51.95779001977161 7.130160000000001
51.98255798721516 7.12891
52.00732856494335 7.1265
52.03229530577543 7.078360000000001
52.057071130455945 7.043769999999999
52.081849571391054 7.0301100000000005
52.106630630568695 7.0429
52.13160794279417 7.04426
52.15639426492067 7.04984
52.18118321127822 7.024769999999999
52.205974783860896 6.99177
52.23096269971011 6.9584
52.255759551287994 6.953410000000001
52.280559035098186 6.9442
52.30536115314103 6.93733
52.33035970494467 6.932410000000001
52.35516711807904 6.9179
52.37997717147198 6.8836699999999995
52.40478986713005 6.9196
52.42979908731974 6.85188
52.454617094216 6.87103
52.47943774942214 6.8651800000000005
52.50426105495102 6.86137
52.529280976059844 6.80622
52.554109609024096 6.7798
52.57894089837482 6.80013
52.60377484613117 6.80305
52.62880550079408 6.81181
52.65364479223379 6.745
52.67848674816189 6.7331199999999995
52.70352547971946 6.6915
52.72837279155837 6.72812
52.753222773982785 6.7039100000000005
52.778075429022984 6.6887300000000005
52.80312495150885 6.67408
52.827982978797436 6.637639999999999
52.85284368481815 6.62895
52.87770707160767 6.602010000000001
52.90276741793998 6.58852
52.92763619336701 6.56606
52.952507655698504 6.628660000000001
52.977381806977576 6.576689999999999
53.00245301017842 6.553030000000001
53.02733256653592 6.51548
53.052214817996074 6.47938
53.077099766608484 6.49183
53.102181859804446 6.469869999999999
53.127072229988265 6.47975
53.15196530349892 6.4642
53.17686108239249 6.46713
53.20195409881522 6.43296
53.22685531582556 6.43401
53.25175924441303 6.37553
53.27666588664027 6.35576
53.30176985962693 6.38251
53.3266819565689 6.37669
53.35159677336455 6.33948
53.376514312083096 6.34385
53.40162927507703 6.362480000000001
53.42655228516116 6.33411
53.45147802340193 6.30889
53.47660125628886 6.277340000000001
53.50153247842639 6.27818
53.52646643496923 6.26799
53.55140312799818 6.246230000000001
53.576537409691696 6.25662
53.60147960336152 6.233
53.626424539786164 6.219519999999999
53.65137222105307 6.1984900000000005
53.67651758529126 6.164569999999999
53.70147078399681 6.12784
53.72642673383343 6.15937
53.75138543689533 6.16714
53.776541917524526 6.17634
53.801506154876755 6.14497
53.826473151763246 6.11531
53.851442910284916 6.09218
53.87661054126026 6.048769999999999
53.9015858509782 6.06532
53.92656392866066 6.02796
53.95154477641532 6.0854099999999995
53.976723591801296 6.06025
54.00171000771266 5.98495
54.02669920004598 6.02194
54.051691170915745 6.00218
54.076881204886796 5.94607
54.101878760928514 5.97208
54.12687910187696 5.92146
54.152077577768296 5.9389400000000006
54.1770835166946 5.87498
54.20209224691339 5.85755
54.22710377055121 5.87138
54.25231352511594 5.86099
54.27733066384342 5.85171
54.30235060239643 5.85187
54.32737334290836 5.8357
54.35259441062629 5.77356
54.377622783395324 5.80352
54.40265396455061 5.81501
54.42768795623251 5.7705400000000004
54.45292037169559 5.73827
54.477960012857906 5.7708
54.50300247099511 5.7057400000000005
54.52804774825457 5.701280000000001
54.55329154616743 5.65512
54.57834249018678 5.70155
54.6033962597977 5.6504900000000005
54.6284528571545 5.62822
54.653708072335164 5.60891
54.67877035378786 5.60273
54.70383546947698 5.5354
54.72890342156389 5.56717
54.7541700889442 5.49107
54.77924374251975 5.4881
54.8043202390049 5.51891
54.82959552413022 5.43268
54.8546777351945 5.46686
54.87976279569621 5.4143
54.90485070780914 5.40395
54.930137506558005 5.34622
54.95523115074295 5.38429
54.98032765308844 5.38278
55.005427015775496 5.31099
55.03072536339621 5.30007
55.05583047570572 5.288930000000001
55.080938454927676 5.27273
55.10604930325027 5.237430000000001
55.131359235107396 5.27959
55.15647585066083 5.21305
55.181595341907496 5.16291
55.20671771104285 5.1399300000000006
55.232039262617704 5.1669
55.25716741665048 5.12729
55.28229845518636 5.06719
55.30743238042802 5.0182400000000005
55.33276558731939 5.06033
55.357905315183636 5.1051
55.383047936390035 4.96475
55.40819345314859 5.0130300000000005
55.433538351073295 4.96915
55.458689688238415 4.93797
55.483843927614096 4.92939
55.509197623043605 4.8562199999999995
55.53435769621134 4.845940000000001
55.55952067826466 4.82792
55.5846865714265 4.83536
55.61005202069737 4.80325
55.63522376553902 4.80103
55.66039842818645 4.77945
55.68557601087004 4.75813
55.7109532500271 4.68204
55.73613670233794 4.77112
