TT I
1.2716486653135266 7.293410000000001
1.2939594142134223 7.11252
1.3162702121660406 6.17935
1.3385810600174564 5.768269999999999
1.3608919586137629 5.95529
1.383202908801069 6.15793
1.405513911425503 6.67387
1.4278249673332093 5.77873
1.4501343378461518 6.33598
1.4724455028545926 5.84468
1.4947567236847858 5.66448
1.517068001182951 6.02724
1.5393793361953272 5.54704
1.5616907295681737 5.4687
1.5840021821477681 5.01561
1.60631369478041 4.8665400000000005
1.6286252683124185 5.10118
1.6509369035901333 4.8086199999999995
1.6732468618895553 4.1196
1.695558623192809 4.48644
1.7178704487808514 4.5954
1.7401823395001077 5.09218
1.7625012545597203 4.9961400000000005
1.7848028405262486 4.50971
1.8071218901122095 4.7025
1.8294236121921872 3.85715
1.8517427996910911 5.22299
1.8740620574440425 4.976780000000001
1.8963639900671978 4.88336
1.9186833908139995 4.536519999999999
1.9409854680117449 4.848269999999999
1.9633050151394713 5.03895
1.9856246367570705 4.40246
2.0079269371922672 4.5958
2.03024671027244 4.10838
2.0525491637446027 4.70547
2.074869091674931 4.57107
2.097171701569106 4.41836
2.1194917877373847 5.0042
2.141811954326636 5.15993
2.164114805233074 4.290369999999999
2.186435135143035 5.26961
2.208738150935709 5.6923
2.231058647554722 6.8434800000000005
2.2533792288321184 6.6576699999999995
2.275682498336085 5.5656300000000005
2.298003251406138 5.1325400000000005
2.3203066942619714 5.0948199999999995
2.3426276225136022 5.24199
2.3649486396617507 5.20653
2.387252348930071 5.93577
2.4095735463442893 6.2613199999999996
2.4318774374315884 6.49319
2.4541988185014043 7.026669999999999
2.476502894794693 7.568389999999999
2.498824462909887 7.20707
2.521146125856138 6.944030000000001
2.5434504863470337 6.85542
2.5657723414244717 7.8792800000000005
2.588076895590662 8.55136
2.610398946189713 8.2551
2.6327210958598384 7.617960000000001
2.6550259469304716 8.14157
2.6773482972090137 8.467260000000001
2.6996533504259 8.23283
2.7219759047039602 8.54694
2.744298562293959 8.20347
2.7666039251246595 8.10694
2.7889267918020164 8.41965
2.8112323652516555 8.26728
2.833555444408179 8.73345
2.8558786311183852 8.4565
2.8781845268938557 8.56272
2.9005079311721484 9.36684
2.9228140460410397 8.989189999999999
2.9451376712799635 9.13751
2.967444008632326 9.37032
2.9897678582247247 9.7415
3.0120918213106695 10.4866
3.0343984987899373 10.5921
3.0567226913198637 10.6285
3.079029599759726 11.6185
3.101354025127254 12.2157
3.123678568232338 12.6656
3.145985829517914 13.0362
3.16831061055229 13.1578
3.1906181112775593 14.2286
3.212943133635653 14.6141
3.2352682779763207 14.8466
3.2575761442691227 14.7323
3.2799015350264273 15.1627
3.302209649240067 15.3101
3.3245352898092655 16.455
3.3468436553365257 16.6988
3.369169549113219 16.9887
3.3914955708171384 17.9077
3.413804319727358 18.2856
3.4361305997334863 18.1529
3.4584396084414553 19.1814
3.4807661501462652 19.531
3.503092824025881 19.8139
3.5254022288463154 20.4575
3.5477291695206588 21.2449
3.5700388426251948 21.4366
3.5923660534916446 22.1888
3.6146934007816114 23.3146
3.637003482731501 28.0588
3.6593311053109985 29.5544
3.681641464033634 26.4089
3.7039693653009733 24.3734
3.726297407241705 24.845
3.7486081875460804 25.0822
3.7709365132734978 25.0217
3.793247578841633 25.6648
3.8155761917550093 25.7465
3.8378875459837216 26.3062
3.8602164494827234 26.5972
3.882545499606844 27.5028
3.9048572932539183 28.4868
3.9271866390645718 28.3151
3.9494987298666713 29.0007
3.971828374764527 29.4485
3.9941581705403255 30.2364
4.016470713506008 30.5247
4.038800813471445 31.2722
4.061113662089144 31.5056
4.0834440696459176 32.4077
4.105774632334751 32.8022
4.128087945865126 33.2301
4.150418821249301 33.5801
4.172732448931298 34.2795
4.195063640413578 35.2215
4.2173775856475215 36.1785
4.239709096631102 39.6955
4.262040768704612 54.0925
4.284355196706267 64.0883
4.306687193387355 54.815
4.329001947444346 43.9522
4.35133427213731 41.3195
4.373666762177566 41.9391
4.395982011761091 42.3026
4.418314834921175 43.3161
4.44063041906622 44.7845
4.4629635787515625 46.6345
4.4852969080429785 47.8087
4.5076130004776225 49.8682
4.529946671403969 54.0838
4.552263106909177 57.5787
4.574597122877047 55.586999999999996
4.596931312711224 53.0946
4.619248269273446 52.8914
4.6415828092605835 53.2949
4.663900117405352 54.8805
4.686235010953232 56.5453
4.708552674085913 58.0111
4.730887924602802 58.8125
4.753223354952695 60.4096
4.775541557023902 63.7644
4.797877349456786 66.4375
4.820195915032126 67.0865
4.842532072957498 67.3953
4.864868414979744 70.3712
4.88718753227192 74.4234
4.909524244902505 76.1075
4.931843734218147 75.6193
4.954180820867835 77.2944
4.976518095879839 79.8661
4.998838149695359 82.6541
5.021175803844231 86.0438
5.043496238205739 88.7086
5.065834274903528 93.3448
5.088172504230693 97.60700000000001
5.1104935158799565 102.899
5.132832132875765 115.87899999999999
5.155153533596801 135.847
5.1774925416746225 175.13099999999997
5.199814334878411 377.999
5.2221537374521505 1000.1
5.244493338631803 2819.43
5.266815727034316 8067.65
5.289155727832427 13739.3
5.311478517248165 8308.85
5.333818921080011 2228.55
5.356159527788849 416.463
5.3784829252032536 177.15599999999998
5.400823940070432 143.786
5.423147747031976 125.234
5.445489173474152 116.385
5.467830807066149 116.81
5.490155234831516 116.71799999999999
5.512497285125229 109.779
5.534822130975162 104.166
5.557164601388673 100.854
5.579489868738879 97.0692
5.601832762690846 95.9971
5.6241758697774475 95.3242
5.646501775867269 94.9639
5.668845311622074 93.5688
5.691171647754637 93.4012
5.713515615597765 92.4163
5.735859800852677 91.9882
5.758186788542988 93.7388
5.780531411018185 96.6383
5.802858837297399 96.0508
5.825203900414495 95.9274
5.8475491852224 97.5336
5.869877275883075 97.6648
5.892223006467101 94.5626
5.914551544266608 93.1012
5.936897724049891 95.5785
5.959244129804903 103.051
5.981573344815301 131.592
6.0039202049061 240.937
6.026249875609095 471.467
6.04859719346037 957.388
6.070927323278297 2212.08
6.093275102315365 4787.09
6.115623113320588 5599.65
6.137953938319995 2990.76
6.160302415650845 815.2260000000001
6.182633708324452 192.495
6.2049826554078376 101.944
6.227331838745022 86.2368
6.249663839443684 80.6029
6.27201349767565 77.3679
6.294345974611799 75.5954
6.316696111167083 74.865
6.339046488263839 73.6335
6.361379686074702 70.3489
6.383730546639482 68.7848
6.406064229255215 68.6778
6.428415576718203 69.0594
6.450749747566656 67.682
6.47310158535871 65.426
6.495453669698332 64.1664
6.517788579421056 62.8426
6.540141159237969 61.9939
6.562476565766648 61.5165
6.5848296444934045 61.4248
6.607182974060425 61.8676
6.6295191323281015 61.4428
6.651872965955752 60.4386
6.6742096296068985 61.1661
6.6965639707294615 65.4418
6.71891856698715 65.0813
6.741255995248479 61.006
6.763611104154477 58.1688
6.785949046381137 57.2307
6.808304671371482 57.5366
6.8306605557940046 58.9546
6.852999275508618 58.2695
6.875355681171544 56.6771
6.897694923437771 55.2848
6.92005185377892 54.8365
6.9423916220322655 54.5004
6.964749080490181 54.2052
6.987106804399774 54.1652
7.009447368180821 54.4595
7.031805625367033 54.4996
7.054146723727803 54.3934
7.076505517631004 53.512
7.098864581288365 53.8836
7.121206488070854 53.581
7.143566093607822 53.9335
7.165908543567245 54.9277
7.188268694426048 54.5603
7.2106291193438095 53.6671
7.232972390625943 53.1612
7.255333366030969 53.6099
7.277677189091925 57.6168
7.300038718428332 62.9108
7.322400526130865 60.9891
7.344745183422596 56.4482
7.367107550224791 53.6795
7.389452767901992 53.2632
7.411815697249891 52.9471
7.434161478756298 52.3199
7.456524974096713 52.645
7.478888753837185 52.6722
7.501235387657368 53.2489
7.523599738562711 53.2656
7.545946944825532 54.0129
7.568311870344528 54.4636
7.5906770845765665 54.341
7.613025156078678 53.8396
7.635390950099687 54.3916
7.657739602662809 54.3794
7.680105979923558 54.8909
7.702472650212829 55.8063
7.724822180948224 55.7331
7.747189439655568 55.2774
7.769539560075357 54.9276
7.791907410653562 55.2429
7.81425812420825 55.185
7.836626570110925 55.3768
7.858995315087906 56.4677
7.881346924933401 56.8748
7.903716270417482 57.2064
7.926068482028405 57.5975
7.948438431475253 58.31
7.9708086843180235 58.6566
7.993161805171116 59.36600000000001
8.015532667162402 59.8878
8.037886398416653 60.9811
8.060257873014221 61.5868
8.082629655331942 62.1157
8.104984308787587 62.9871
8.127356708900503 64.2839
8.149711981398308 67.1599
8.172085002766314 68.2329
8.194458336181368 68.2751
8.216814543847752 67.6201
8.23918850371002 68.2212
8.26154533906492 69.0533
8.283919928836452 71.0068
8.306277395339652 71.5677
8.328652618483376 72.9985
8.351028159736202 75.1637
8.373386579575245 77.5582
8.395762759396959 78.7393
8.418121819038275 81.271
8.440498640894003 85.7903
8.462875785192262 95.8298
8.485235811156207 123.01899999999999
8.507613602688501 178.12400000000002
8.529974277114228 266.834
8.552352719347912 395.575
8.574731488360351 661.768
8.59709314210385 1239.87
8.619472567021075 2036.21
8.64183487789147 2402.36
8.664214962183097 1769.73
8.686577933647762 812.758
8.708958680784317 304.214
8.731339760774953 139.825
8.753703729764451 102.916
8.77608547780821 95.2912
8.798450116065078 92.9343
8.820832535634787 90.6811
8.843215292401656 90.9717
8.865580941199045 90.3516
8.887964374703538 89.66
8.910330701447199 89.5158
8.932714815164482 89.0425
8.955099270424924 86.3181
8.977466620733543 84.8828
8.999851761421976 84.22200000000001
9.022219798361645 82.6822
9.04460562795561 82.7211
9.066991803441677 82.8052
9.089360876979615 83.1768
9.111747746589993 83.3332
9.13411751544971 82.1445
9.156505082664324 81.3097
9.178875550323522 81.0953
9.20126381862328 80.9301
9.223652438908596 81.5815
9.246023961427412 82.3714
9.26841328802173 82.5543
9.290785518039224 82.6092
9.313175554425882 83.6493
9.335565947154315 84.9802
9.357939245086508 85.6919
9.380330352834827 84.5673
9.40270436697103 84.0022
9.425096193225055 83.9219
9.447488380180165 84.0674
9.469863475295412 84.1057
9.492256385987508 84.0618
9.514632206018318 84.4559
9.537025843935714 84.7726
9.559402392368193 85.8134
9.581796761000229 88.1344
9.604191496441521 89.8519
9.626569144158516 92.1172
9.648964615551032 91.8797
9.671343000390081 91.4451
9.693739211225699 90.8347
9.716135793237463 91.1456
9.738515290448102 91.9856
9.760912617143402 93.53399999999999
9.783292860202891 95.5692
9.805690935076182 97.8298
9.828089385495742 98.6747
9.850470754023561 99.3849
9.872869957865444 101.073
9.89525208097539 104.734
9.917652041736662 109.846
9.940052382417589 121.146
9.962435644102392 149.451
9.984836746950979 192.22099999999998
10.007220771957746 255.024
10.029622640473708 359.087
10.052007432299963 536.18
10.074410069984072 842.9060000000001
10.096813093716005 1349.14
10.119199042482517 1888.08
10.141602840636468 2106.75
10.163989564971628 1477.33
10.186394141051062 729.546
10.208799107559706 298.001
10.231187001965623 153.575
10.253592751657669 115.98700000000001
10.275981430388155 107.82799999999999
10.298387966769793 105.287
10.320794897965431 104.723
10.343184759907361 103.352
10.36559248305461 101.816
10.387983138083852 103.57799999999999
10.410391656691655 110.992
10.432800574501677 122.794
10.455192425893369 138.571
10.47760214443012 164.608
10.499994797678786 210.861
10.522405320453982 295.365
10.54479877906917 415.13300000000004
10.567210109595656 549.63
10.5896218454736 591.6469999999999
10.612016518879773 468.595
10.634429067781074 290.504
10.656824555333241 170.86
10.679237920773568 112.28299999999999
10.701651695961992 92.5537
10.724048411481384 87.0422
10.746463008485165 84.8089
10.768860546937125 83.4742
10.791275969274796 81.7507
10.81369180576079 80.5757
10.836090585366925 79.3316
10.858507252467449 78.3922
10.88090686379991 77.3056
10.903324365036394 76.7546
10.925724811614439 76.0571
10.948143150509463 76.20100000000001
10.970561909719066 75.6275
10.992963615930844 75.0758
11.015383218085756 74.0827
11.037785768347074 72.6561
11.06020621697282 71.5483
11.082627090322113 70.9993
11.105030913430326 70.0599
11.12745263854165 69.3265
11.149857314510728 68.7085
11.172279894912576 69.7973
11.194702904450653 68.9363
11.217108866490921 67.8344
11.239532736615194 67.3414
11.26193956033512 66.7614
11.284364294577085 66.4607
11.306789462371718 65.9903
11.329197585398376 65.5997
11.351623622610898 65.8675
11.37403261614354 64.7028
11.396459526308487 64.5146
11.418869393879497 64.37
11.441297180532617 63.9493
11.463725406927658 63.6735
11.486136592353875 63.3905
11.508565700543707 63.0915
11.530977768845315 63.3279
11.553407762368774 63.0139
11.575838200059769 63.1113
11.598251599479612 62.6139
11.620682927815501 62.4594
11.64309721895548 62.3396
11.665529441478206 61.9532
11.687962112597958 61.6703
11.710377748130886 61.946999999999996
11.732811318753434 61.8524
11.755227854859067 61.6331
11.777662328529495 61.641999999999996
11.800079768750786 61.5951
11.822515149015453 61.7445
11.844950984084935 61.653
11.867369787303163 61.1649
11.889806534289491 61.3994
11.912226250487029 62.1079
11.934663912939751 62.3078
11.9571020346363 62.405
11.979523127133968 62.5266
12.001962169624331 64.1685
12.024384183972964 65.6829
12.046824150809913 68.8684
12.069264581333726 73.0059
12.091687985297767 79.184
12.11412934550045 88.566
12.136553680195208 103.51700000000001
12.158995973632788 124.93299999999999
12.181438735204349 158.278
12.20386447284199 193.542
12.226308172985636 205.585
12.24873485024193 193.57
12.271179492516982 151.548
12.293607112949127 108.18299999999999
12.316052700916226 82.2222
12.338498763250042 68.688
12.360927805303868 64.0408
12.383374818673879 63.3438
12.405804812803074 62.6099
12.428252780773262 62.6965
12.45070122756722 63.0601
12.473132656675375 63.0141
12.49558206341869 63.4748
12.518014453510101 63.7891
12.540464823770117 63.6117
12.562915677315177 63.6964
12.58534951575545 64.0137
12.607801338171472 64.0279
12.630236146511358 64.4607
12.652688941369085 65.4834
12.675124723177234 65.8987
12.697578494048786 66.2126
12.720032754458185 65.8723
12.742470003354093 66.1321
12.764925245138771 66.3434
12.787363476431278 66.8751
12.809819703166806 67.3073
12.83227642391173 68.3341
12.854716135692716 68.835
12.877173846755147 69.9561
12.899614549869717 70.5596
12.9220732548287 71.4642
12.94453245827299 71.8607
12.966974655289818 72.8121
12.989434858002571 73.4461
13.011878055298721 74.1905
13.034339260862497 75.2678
13.056800969391883 76.6931
13.079245674017244 79.8602
13.101708390774869 84.3664
13.12415410463411 92.3322
13.146617833206086 102.351
13.169064559883248 113.115
13.191529303857127 127.99
13.213994557076367 151.2
13.236442809902437 188.90900000000002
13.258909083908291 249.493
13.28135835851934 325.625
13.30382565690295 398.43800000000005
13.326293469022952 453.176
13.348744283242008 417.912
13.371213125129904 320.809
13.39366497011003 218.503
13.416134845360597 146.593
13.438605238843131 112.163
13.46105863690397 103.275
13.483530069144786 105.994
13.505984506951902 111.921
13.528456981549432 122.215
13.550929978879088 138.134
13.573385983253365 162.264
13.595860028340867 202.459
13.618317081455832 257.754
13.64079217790333 326.742
13.663250283359057 384.152
13.685726434770173 386.454
13.708203115221277 326.975
13.730662806148091 240.982
13.75314054697177 162.864
13.775601299246777 114.292
13.798080104050406 91.0335
13.820559442405358 82.6201
13.843021793671388 79.9495
13.865502201420897 78.7195
13.887965623051947 78.3782
13.910447103807167 77.4021
13.932929122629764 76.1613
13.955394156785959 75.4954
13.977877254034569 74.5942
14.000343367582113 73.8613
14.022827546871707 73.134
14.045294743423524 72.3398
14.06778000837062 71.824
14.090265817715476 71.4313
14.112734645763819 71.3529
14.13522154619454 70.7656
14.157691466286913 70.7552
14.180179461423874 70.6771
14.202668005486178 70.1234
14.22513957064374 69.4415
14.247629214846473 69.3098
14.270101881097517 68.8256
14.29259262906496 68.6118
14.315083930490205 68.6676
14.337558255389705 68.377
14.360050666019726 68.5875
14.382526101071944 68.4593
14.405019624534942 68.133
14.427513705993134 67.7457
14.449990813291825 68.0134
14.47248601302899 67.5381
14.49496423954951 67.5975
14.517460561197822 68.0918
14.539939910570322 67.7972
14.562437357763558 67.6155
14.58493536931253 68.2059
14.607416409993311 68.2165
14.62991555254159 68.6537
14.652397725157423 68.8028
14.674898002342799 69.0601
14.697398848433282 69.6458
14.719882725991326 71.1651
14.74238471217934 72.9215
14.764869730765593 76.3669
14.787372860692983 79.3159
14.809876564079925 83.7768
14.83236330125751 90.0946
14.854868153850365 99.1492
14.877356041159485 113.428
14.899862046604186 132.44899999999998
14.922351087688757 159.481
14.944858249632887 194.081
14.967365991421232 223.21400000000003
14.989856770231246 232.773
15.012365673994204 216.261
15.03485761569738 176.14700000000002
15.05736768508665 132.613
15.07987833888692 101.22399999999999
15.102372032001655 82.6965
15.124883856909658 73.3584
15.14737872204565 70.1821
15.169891721717274 68.9647
15.192405310371893 68.6868
15.214901940621196 68.3386
15.237416709527137 67.6645
15.259914520936249 67.4556
15.282430473753607 66.8661
15.304947020131227 66.2893
15.327446610371178 65.9751
15.349964346154254 65.6491
15.372465126703139 65.632
15.394984055556009 65.381
15.417486030076159 65.221
15.44000615566487 64.9373
15.462526881230803 64.6861
15.485030653812652 64.6922
15.507552581617434 64.6138
15.530057557334603 64.9007
15.55258069104857 64.8456
15.575104429329837 65.0716
15.597611216864632 65.0413
15.620136166564563 65.9389
15.6426441664095 67.5836
15.665170331202765 69.84100000000001
15.687697105158826 72.7166
15.710206930593545 75.9051
15.732734925158933 80.4231
15.755245972089478 86.8493
15.77777519094324 95.82
15.800287463046663 109.245
15.822817909869592 129.036
15.84534897229804 151.803
15.867863089299354 179.16400000000002
15.890395385222186 197.79
15.912910736597423 196.0
15.935444269699861 175.78
15.957978423016485 139.945
15.980495633101265 108.646
16.003031029129367 85.1682
16.02554948280019 70.7852
16.048086125229432 64.2781
16.070623392487107 62.0936
16.09314371869582 61.2043
16.11568223789321 60.3587
16.13820381691126 59.836999999999996
16.160743591742527 59.4569
16.183283996022084 58.9225
16.205807461423195 58.2058
16.228349126881973 57.6206
16.25087385432698 57.605
16.27341678466365 57.0866
16.29594277784926 56.5772
16.31848697676433 56.3769
16.341031811604868 55.8825
16.36355971058487 55.7939
16.3861058195587 55.7562
16.40863499352978 55.3343
16.431182380342005 55.0957
16.453730407713202 54.8498
16.476261501364792 54.6264
16.498810812136167 54.2802
16.52134319004079 54.4759
16.54389378792203 54.2528
16.566445031001553 54.0644
16.588979342490088 54.1176
16.61153187824822 54.065
16.634067483263312 53.9677
16.656621315414416 53.7224
16.679175797408888 53.4141
16.701713349928728 53.4956
16.72426913389191 53.7257
16.74680798922351 53.6791
16.76936507887444 53.79600000000001
16.791905240734874 53.7904
16.814463639794468 53.7646
16.837022695210294 53.5907
16.859564824093756 53.6846
16.882125194503903 53.8609
16.904668639217885 54.0099
16.927230328348003 53.7808
16.949792678493612 54.3354
16.972338104193863 54.2998
16.994901778652235 54.1587
17.017448529496576 54.637
17.040013531998152 54.9821
17.06257920018044 55.7245
17.0851279459922 56.3255
17.107694947817667 57.3336
17.130245028099072 57.9536
17.15281336730298 59.372
17.17536478578733 61.1335
17.19793446610687 63.318999999999996
17.220504818648422 66.5506
17.243058251703697 70.0973
17.265629950971032 75.2533
17.288184731571736 80.7279
17.310757781306908 83.5677
17.33333150794385 82.7032
17.355888317140174 79.1316
17.37846339986244 73.0345
17.401021565958885 66.992
17.42359800851343 62.6573
17.44617513265564 59.8846
17.468735341390783 58.7336
17.491261035594565 58.0315
17.51396340099364 57.9714
17.536490463869136 58.1424
17.559018209820174 58.0913
17.58154663977963 58.108000000000004
17.604251766089718 58.3597
17.626781572227713 58.4581
17.64931206518155 58.71
17.671843245885103 59.1231
17.69455114821572 59.4064
17.717083712612634 59.742
17.739616967569667 59.956
17.762150914021706 60.3252
17.78486160749854 60.6724
17.807396945166804 61.8166
17.829932977143503 63.098
17.85246970436452 64.4143
17.875183204129467 66.0252
17.897721330097664 68.0921
17.920260154126645 70.3263
17.942799677153296 73.6026
17.9655159983646 77.5537
17.988056927677544 83.0955
18.010598558807683 90.9861
18.033140892692916 101.56700000000001
18.05586005052525 113.978
18.07840379824407 127.46700000000001
18.10094825154059 138.312
18.12366954819864 142.369
18.146215420998306 137.202
18.16876200220057 123.965
18.191309292745153 108.584
18.214033452627167 95.2338
18.236582170236648 86.5605
18.259131600016456 83.6303
18.281681742907335 85.1529
18.304408781233683 90.6038
18.32696035875955 97.0173
18.349512652227624 102.367
18.372065662579683 106.41799999999999
18.394795594587553 104.85799999999999
18.41735004715306 98.6991
18.43990521943684 89.1681
18.46246111238171 80.1578
18.485193953325208 71.923
18.507751296070428 66.1991
18.530309362314178 63.5219
18.552868153000343 61.8006
18.57560391815056 60.716
18.59816416623245 60.5503
18.620725141597372 60.0781
18.643286845190268 59.5088
18.666025549835414 59.2179
18.688588718427933 58.6706
18.711152618092243 58.6726
18.73389353884365 58.2584
18.75645890921984 57.9929
18.77902501351406 57.6733
18.801591852673102 57.699
18.824335739722738 57.2163
18.846904057212626 57.1587
18.8694731124168 56.8198
18.89204290628315 56.8895
18.914789774966803 56.5406
18.937361054791623 56.1786
18.959933076131318 56.0444
18.982505839934877 55.8944
19.00525570560582 55.9587
19.027829963004184 55.7942
19.05040496572238 55.8114
19.072980714710468 56.0512
19.095733592739563 56.3236
19.11831084296757 56.2923
19.140888842324735 56.5758
19.16346759176222 56.9158
19.18622349753803 57.2738
19.208803755869358 58.3936
19.231384767143577 59.8059
19.253966532312948 61.36600000000001
19.276725481241822 63.6418
19.29930876296784 66.2307
19.3218928014549 69.6149
19.34465404436217 72.347
19.36723960516257 74.9132
19.389825925592426 75.3767
19.412413006605938 72.8036
19.43517731967805 68.2409
19.457765930683355 64.2873
19.48035530514408 59.7617
19.50294544401556 56.7848
19.525712842708348 54.7288
19.54830451925909 53.9133
19.570896963095727 52.9839
19.593490175174704 53.0277
19.616260674962184 52.9327
19.638855432416964 52.6447
19.661450960992624 52.9284
19.68404726164677 52.6047
19.706820878021247 52.4332
19.729418731756834 52.6278
19.752017360452857 52.512
19.77461676506804 52.8745
19.797393513540218 53.081
19.819994478951667 53.1225
19.84259622316767 53.273
19.8651987471481 53.8413
19.887978643247177 54.0626
19.91058273574792 54.6472
19.933187610901943 55.5058
19.955969879466828 56.7789
19.97857632894404 58.2771
20.00118356396599 60.1324
20.023791585494575 62.3923
20.046577028914875 65.6721
20.069186632506966 68.0418
20.091797025500632 69.8932
20.114408208858933 70.0071
20.137196842715273 68.9204
20.159809615886765 66.4017
20.18242318232135 63.2864
20.20503754298326 61.43
20.227829382875154 60.871
20.250445341109344 61.3042
20.27306209647285 62.4507
20.29567964993108 64.0139
20.31847471147704 64.8609
20.34109387027612 65.5727
20.363713830075454 64.5038
20.386334591841646 61.9387
20.409132890679302 58.6929
20.431755265564437 55.7799
20.454378445325528 53.3221
20.477002430930366 51.5953
20.499803982716553 50.6302
20.522429589228004 49.9922
20.54505600449589 49.6374
20.567683229489194 49.6123
20.590488049900088 49.43600000000001
20.61311690359731 49.3318
20.63574656993626 49.251000000000005
20.658553853717297 48.794
20.681185154618298 48.6585
20.703817271080066 48.5204
20.72645020407368 48.1912
20.749260783967177 48.2712
20.771895359337133 48.0038
20.794530754161617 48.04600000000001
20.817166969412938 47.9779
20.83998086114876 48.0286
20.86261872660049 47.9622
20.885257415405402 47.8239
20.90789692853701 47.7112
20.930714147864748 47.7488
20.953355319030678 47.733000000000004
20.97599731745334 47.9131
20.99864014410749 47.6339
21.021460706796564 47.7965
21.044105199328826 48.0119
21.06675052302631 48.2008
21.089396678865015 48.113
21.112220600704806 48.6254
21.134868430275347 49.0248
21.15751709492456 49.4314
21.180166595629693 49.7672
21.202993892429635 50.2692
21.22564507473034 50.6226
21.24829709602816 50.8478
21.27112693608965 50.7731
21.293780644891275 50.5159
21.316435195634053 49.6249
21.339090589297417 48.7938
21.361923832041875 48.3225
21.384580921090404 47.9313
21.407238856007325 47.7078
21.429897637773326 47.6641
21.45273429906592 47.7037
21.475394784108598 47.5678
21.498056118951983 47.5334
21.520718304578022 47.9155
21.543558400304388 48.119
21.566222297108816 48.2918
21.58888704765135 48.3955
21.61155265291521 48.6913
21.63439619898156 48.9922
21.657063523335786 49.3455
21.67973170537063 49.9115
21.7024007460706 50.3686
21.72524775840385 51.2396
21.747918526116475 52.0862
21.770590155457388 53.29600000000001
21.79326264741238 54.9799
21.816113141960237 56.8204
21.838787368860547 59.0242
21.861462461341976 61.2532
21.884315579735777 63.3576
21.90699241312273 64.3893
21.92967011506078 64.3126
21.95234868653799 62.9758
21.9752053151131 60.9098
21.997885635446785 58.6444
22.020566828293532 56.9298
22.04324889464272 55.7262
22.066109049404666 55.2051
22.088792872571794 55.2404
22.111477572219204 55.6671
22.1341631493376 55.5415
22.157026846313123 54.8548
22.179714188221507 54.0338
22.202402410582668 52.5343
22.22509151438863 51.0499
22.24795876962584 50.0321
22.270649646204486 49.2788
22.293341407213727 48.6376
22.316034053646906 48.3997
22.338904883215342 48.1121
22.36159931041458 48.0625
22.38429462602756 47.8756
22.40699083104897 47.5727
22.429865251039757 47.6038
22.452563244831367 47.626999999999995
22.47526213102522 47.6813
22.49813925616515 47.6464
22.520839937143307 47.6473
22.543541513520587 47.8223
22.56624398629403 47.6236
22.589124730075895 47.5664
22.611829005656723 47.8996
22.63453418063466 47.7929
22.657240256008077 48.1534
22.680124634582935 48.295
22.70283252079775 48.55
22.725541310413075 48.8937
22.74825100442868 48.9928
22.771139033969575 49.4913
22.79385054687155 49.8221
22.81656296718292 50.4264
22.83927629590484 51.3918
22.862167992606945 52.3947
22.88488314827121 53.7173
22.907599215359284 54.8186
22.93031619487366 56.236999999999995
22.953211574954405 56.9864
22.975930389478226 57.3939
22.998650119445763 57.1078
23.02137076586092 55.9269
23.044269845560063 54.1712
23.06699233506288 52.4533
23.089715744034912 50.7791
23.112617610931565 49.2702
23.135342869061212 48.6627
23.158069049684816 48.2163
23.1807961538087 47.7618
23.20370174880544 47.7971
23.226430710184808 47.8763
23.249160598093425 48.1855
23.271891413539002 48.0405
23.294800752937697 47.9967
23.31753343374794 48.3595
23.340267045128353 48.4414
23.36300158808808 48.7395
23.38591468821339 49.1415
23.408651104658304 49.6371
23.431388455719986 50.2668
23.454126742409 51.1706
23.4770436196085 52.1058
23.499783787914662 53.6132
23.522524894889884 54.9869
23.54526694154616 56.1896
23.56818761219047 57.4863
23.59093154860734 57.5248
23.613676427751283 57.403
23.636422250635754 55.7482
23.659346731118656 53.8725
23.68209445191868 51.7261
23.704843119509587 49.68899999999999
23.72759273490623 48.0672
23.750521041644767 46.8145
23.77327256312355 45.994
23.796025035462787 45.6032
23.818956224555475 45.3697
23.841710609113413 45.0703
23.86446594758979 44.8526
23.887222241002014 44.711000000000006
23.910157285144578 44.3676
23.932915498962537 44.2636
23.955674670778713 44.2449
23.978434801611975 44.0263
24.001373717286125 43.8469
24.024135776723917 43.742
24.046898798245582 43.5256
24.06966278287146 43.5312
24.092605586582614 43.4836
24.115371508023642 43.2844
24.1381383956401 43.3168
24.16090625045381 43.2406
24.183852958731244 43.0251
24.206622758582608 42.9759
24.229393528706886 42.7262
24.252165270127392 42.9068
24.27511589952438 42.8728
24.297889594216997 42.5787
24.32066426328598 42.42
24.34343990775613 42.5143
24.36639447485003 42.3537
24.38917208083877 42.2267
24.41195066531332 42.1568
24.43490819850244 42.2826
24.457688750692377 42.1387
24.48047028445616 42.1481
24.503252800821233 42.2777
24.526214300784112 42.5195
24.548998793132213 42.2565
24.57178427117417 42.2169
24.59457073593893 42.3527
24.617536219319863 42.0943
24.64032466834748 42.0816
24.663114107195035 41.9651
24.685904536893013 41.7546
24.708874020360852 41.4714
24.731666442613744 41.4748
24.754459858818787 41.5383
24.777254270007962 41.5094
24.80022777025625 41.4337
24.82302418230472 41.4095
24.845821592443674 41.3294
24.86862000170663 41.4268
24.891597535453727 41.4116
24.914397953892728 41.5332
24.93719937456671 41.5268
24.96000179851076 41.6463
24.98298338249997 41.8335
25.00578782394922 42.0349
25.028593271784167 42.2078
25.05157790644186 42.541000000000004
25.07438537804115 42.8744
25.097193859145293 42.986000000000004
25.120003350792075 43.4404
25.142992065061257 43.6592
25.165803588823465 43.8394
25.18861612625217 43.8874
25.211429678386736 43.8416
25.234422489079968 44.01
25.257238081693636 44.0164
25.280054692141732 44.2788
25.3028723214652 44.1898
25.325869245420463 44.343
25.348688923599397 44.4078
25.371509623787006 44.2514
25.394331347025812 43.7229
25.41733240110666 43.2758
25.440156181590016 42.4005
25.46298098826268 41.8907
25.48580682216873 41.2907
25.50881202326435 40.7424
25.53163992281684 40.4986
25.55446885274561 40.2928
25.577298814096377 40.1613
25.600308179121807 40.1687
25.623140214533745 40.260999999999996
25.64597328451537 40.0159
25.66898578564376 39.7684
25.691820936010206 39.8603
25.714657124097695 39.7992
25.737494350954734 39.854
25.760511045684957 39.6212
25.783350361364224 39.8148
25.806190718969255 39.7729
25.82903211955018 39.8279
25.852053024868923 39.8284
25.874896522722523 39.9126
25.897741066713106 39.8318
25.920586657892454 39.8736
25.943611790812668 40.2311
25.966459487728237 40.2704
25.989308234998564 40.4481
26.01215803367705 40.711999999999996
26.03518741123814 40.8861
26.05803932412957 41.0614
26.080892291600094 40.9969
26.10374631470478 41.108999999999995
26.12677995397268 41.0404
26.14963609978026 41.0065
26.172493304397875 40.5404
26.19535156888223 40.3872
26.218389486949604 40.01
26.241249882640123 39.7478
26.26411134137826 39.5174
26.28715248187403 39.4927
26.31001607820869 39.4702
26.3328807407756 39.3956
26.35574647063438 39.4515
26.37879191991473 39.2978
26.401659795896734 39.4083
26.424528742360263 39.646
26.447398760366614 39.8257
26.470448535598294 39.8517
26.49332070826805 40.1068
26.516193955675355 40.3908
26.53906827888316 40.676
26.562122397260108 40.791
26.584998883685063 41.1642
26.607876449110325 41.5643
26.63075509460056 41.6174
26.65381357334404 41.6333
26.67669439061878 41.5531
26.699576291163382 41.288000000000004
26.722459276044212 41.1841
26.745522132402975 40.7242
26.768407297649354 40.4334
26.791293550442003 40.2906
26.814180891848974 40.0605
26.837248143099337 39.8084
26.860137673466657 39.811
26.88302829566349 39.453
26.90592001075963 39.2295
26.92899167420566 39.1555
26.951885586870763 38.6829
26.974780595655517 38.4958
26.99785558178161 38.5148
27.020752794605112 38.4549
27.043651106772522 38.2264
27.06655051935668 38.202
27.089629948036183 38.0985
27.112531573292053 38.0649
27.135434302194138 38.2004
27.158338135817015 37.9068
27.181422024430987 37.9821
27.204328079372566 37.9007
27.22723524226965 37.8966
27.250143514198573 37.9138
27.273231880156334 37.8795
27.296142382065014 37.7507
27.319053996245536 37.6619
27.341966723775965 37.8619
27.365059584515222 37.8286
27.38797455070062 37.734
27.410890633481237 37.7404
27.433807833936918 37.872
27.456905206923906 37.9079
27.47982465472398 37.9145
27.502745223449743 38.0955
27.525666914182825 38.1346
27.548768816912457 38.046
27.571692763693633 37.9356
27.59461783573812 37.7342
27.617723149491244 37.5663
27.640650484125285 37.6029
27.66357894728264 37.5068
27.686508540048052 37.4287
27.709618414237887 37.369
27.732550278321757 37.147
27.755483275279115 37.2142
27.778417406196485 37.234
27.801531858397514 37.2229
27.824468269376716 37.1824
27.847405817586786 37.1383
27.870344504116094 37.3317
27.893463551932008 37.516
27.916404527281053 37.7361
27.93934664422563 37.8707
27.962289903855886 37.9494
27.98541356491974 38.3472
28.00835912214229 38.3185
28.03130582533231 38.5187
28.054253675581805 38.5888
28.077381967556104 38.5152
28.100332124185126 38.4713
28.123283431160893 38.3625
28.146235889577238 38.1852
28.169368830154156 37.9037
28.192323603752033 37.7911
28.215279532083304 37.6208
28.238415973016764 37.3459
28.261374223145094 37.1268
28.284333631303806 36.9375
28.307294198589954 36.741
28.330435319167677 36.415
28.353398217078915 36.2041
28.376362277420153 36.0777
28.39932750129032 35.85
28.422473319286713 35.4848
28.44544088262495 35.6365
28.468409612800283 35.565
28.491379510913497 35.3761
28.51453004413313 35.3546
28.53750229057244 35.3117
28.56047570826344 35.2338
28.583450298308804 35.2204
28.606605564586562 35.0056
28.629582511831156 35.0721
28.65256063474956 35.0008
28.675539934446338 35.0018
28.698699951647605 34.9874
28.72168161743193 34.927
28.74466446331978 34.8615
28.767648490417624 34.8432
28.790813276438353 34.7532
28.813799678527303 34.9141
28.836787265157085 34.8594
28.859955641890075 34.8313
28.882945610203045 34.7521
28.905936766392035 34.5793
28.928929111566863 34.6974
28.952102288520145 34.6324
28.975097024308607 34.5084
28.998092952423807 34.3154
29.021090073977508 34.2756
29.04426806913204 34.2275
29.067267590245258 33.9955
29.090268308143695 33.9609
29.11327022394099 33.9643
29.13645305530891 33.8953
29.159457379627167 33.9341
29.18246290519685 33.8204
29.20546963313352 33.6655
29.22865731875826 33.7082
29.25166646419296 33.7396
29.27467681535305 33.5922
29.29768837335608 33.5797
29.320880931312562 33.7349
29.34389491580634 33.6762
29.366910110507334 33.5658
29.38992651653503 33.7204
29.41312396492981 33.6499
29.436142806456754 33.5587
29.45916286268059 33.5259
29.48236399319994 33.2788
29.50538649169417 33.1034
29.528410208259935 33.0916
29.55143514402014 32.9364
29.574641196749695 32.7741
29.597668583816574 32.7588
29.6206971934585 32.657
29.64372702680042 32.5589
29.666938019934474 32.4983
29.689970313635285 32.3354
29.713003834422636 32.4432
29.73603858342347 32.292
29.759254535188578 32.2302
29.78229175361658 32.1696
29.80533020365064 32.3062
29.82836988641968 32.3325
29.85159081507472 32.146
29.874632976355343 32.1198
29.89767637376955 32.2077
29.920721008448314 32.0451
29.9439469322847 32.0508
29.96699405457564 31.9662
29.9900424175358 32.0144
30.013092022298157 31.9658
30.03632295963995 31.9267
30.059375061131373 31.9707
30.08242840783577 31.9906
30.105483000888153 31.9549
30.128718970092244 31.8161
30.151776069006917 31.8474
30.17483441768648 31.8613
30.198074175317235 31.7341
30.221135036724256 31.8828
30.24419715131772 31.8575
30.267260520236203 31.618000000000002
30.290505341942243 31.7291
30.313571232750228 31.7655
30.336638381310948 31.7524
30.35970678876503 31.7605
30.38295669299435 31.5857
30.40602763151657 31.6072
30.429099832366074 31.543000000000003
30.452173296685572 31.4628
30.47542830191959 31.469
30.498504306502497 31.4572
30.521581577995562 31.5618
30.544660117543582 31.6388
30.56792024229725 31.6672
30.59100133132069 31.6479
30.614083691845494 31.7137
30.637167325018545 31.7751
30.660432587840603 31.8062
30.683518779717886 31.7703
30.70660624769615 31.7368
30.729694992924372 31.6896
30.75296541239743 31.6665
30.77605672557558 31.5476
30.799149319462742 31.5436
30.8224236211637 31.3501
30.845518789950724 31.2307
30.868615242910597 31.2966
30.891712981195973 31.1006
30.91499247215866 30.9572
30.938092794619365 30.9384
30.96119440587579 30.9163
30.984297307082752 30.927
31.00758200598383 30.7792
31.030687500658694 30.6672
31.053794288760695 30.6189
31.076902371446767 30.6088
31.100192296997445 30.7413
31.12330298246119 30.4397
31.14641496599209 30.4547
31.169528248749216 30.4917
31.19282341969534 30.4554
31.215939314557186 30.4556
31.239056512134788 30.4913
31.262175013589378 30.3173
31.28547544871168 30.36
31.30859657161541 30.3747
31.331719001892175 30.3996
31.35484274070538 30.3857
31.378148458819545 30.4053
31.401274828443725 30.3425
31.424402510106933 30.386999999999997
31.447712205419993 30.4613
31.470842524931633 30.3201
31.493974159989783 30.3013
31.51710711176168 30.2918
31.54042212308802 30.2904
31.563557722100917 30.2122
31.586694641341655 29.9608
31.609832881979628 29.8903
31.63315322823208 29.8647
31.656294125521327 29.7606
31.679436347728515 29.6922
31.70257989602529 29.791999999999998
31.725905596152327 29.6762
31.74905181052835 29.6313
31.772199354521323 29.679000000000002
31.79534822930507 29.7108
31.818679302290967 29.6854
31.84183085259981 29.7032
31.864983737233473 29.5779
31.88813795736804 29.6826
31.911474422233013 29.5356
31.934631327356435 29.5989
31.9577895715215 29.5719
31.980949155906522 29.5883
32.004291031706956 29.4866
32.027453310562606 29.288
32.05061693318573 29.2712
32.07396288236386 29.2223
32.09712920658542 29.1709
32.12029687812702 29.0691
32.14346589817093 29.0467
32.166817291729984 28.9478
32.18998902288583 28.954
32.21316210610336 28.8526
32.23633654256711 28.7921
32.259693399663725 28.767
32.282870556771144 28.5982
32.30604907069099 28.6166
32.329228942610065 28.5531
32.35259128243769 28.4803
32.375773884550505 28.4369
32.398957848235646 28.4661
32.422143174682176 28.3565
32.445511016471215 28.2781
32.468699082679954 28.2273
32.49188851523011 28.2377
32.51507931531304 28.1344
32.538452678331 28.1637
32.56164622776311 28.0315
32.58484114831493 27.8182
32.60803744118015 28.0314
32.631416344731896 28.0665
32.654615396551876 27.9402
32.67781582427913 27.9953
32.701198898634416 27.8865
32.72440209253756 27.8194
32.747606665947124 27.811
32.77081262006088 27.7175
32.79420126883317 27.7148
32.81740999876112 27.5967
32.840620112999424 27.5359
32.86383161274818 27.5027
32.88722585534586 27.5298
32.91044014056596 27.5538
32.933655814909734 27.5078
32.95687287957963 27.5452
32.98027273544904 27.4584
33.00349259526636 27.3702
33.026713849030116 27.4864
33.04993649794511 27.3763
33.073341986570746 27.2931
33.09656744032826 27.4092
33.11979429286444 27.3085
33.14302254538647 27.4264
33.166433686291185 27.2889
33.18966475336992 27.1833
33.212897224069096 27.0747
33.23613109959831 27.0688
33.259547912343415 27.1267
33.2827846121627 27.1166
33.306022720453775 27.0674
33.32926223842861 26.8849
33.352684742614166 26.9659
33.37592709463173 26.8991
33.399170859982064 26.8764
33.422597648419426 26.6743
33.44584425514446 26.6298
33.46909227885668 26.6986
33.4923417207723 26.4965
33.51577423505344 26.5941
33.539026528130385 26.4148
33.56228024307245 26.3807
33.585535381098246 26.3441
33.60897364093058 26.3133
33.63223163992385 26.3088
33.6554910656699 26.2148
33.678751919389796 26.1337
33.702195944520106 26.1848
33.72545966903325 26.070999999999998
33.74872482519663 26.0131
33.771991414233746 26.1497
33.79544122444841 26.0851
33.81871069412428 25.956
33.84198160035767 25.9631
33.86525394437455 25.9695
33.88870955949969 25.8982
33.911984794020626 25.8059
33.93526147001624 25.8495
33.958539588715006 25.8407
33.98200102861669 25.7109
34.0052820477047 25.5452
34.02856451319451 25.5887
34.05203033759056 25.4866
34.07531571090147 25.4453
34.09860253431845 25.4833
34.121890809074316 25.397
34.145362493118924 25.3686
34.16865368561615 25.3245
34.191946333164054 25.3044
34.21524043699793 25.2901
34.23871800066799 25.2845
34.26201503218366 25.1933
34.28531352370466 25.1864
34.30861347646881 25.1164
34.33209693978188 25.1216
34.3553998301885 25.1678
34.378704185565205 25.0712
34.402010007152356 24.9721
34.42549939016683 24.9373
34.44880815937748 24.8933
34.472118398533134 24.8351
34.49543010887669 24.8654
34.51892543169198 24.7638
34.54224009966052 24.6651
34.56555624255917 24.7178
34.58887386163339 24.6116
34.61237514439016 24.5475
34.6356957311114 24.5917
34.65901779775809 24.6179
34.68252356662995 24.4688
34.705848608458616 24.4526
34.72917513396849 24.3901
34.75250314440949 24.3943
34.77601490857862 24.2738
34.799345904259795 24.23
34.82267838863559 24.2246
34.846012362958525 24.2355
34.869530142679984 24.2166
34.89286711232212 24.1388
34.91620557568269 24.0788
34.93954553401677 24.0728
34.9630693495876 24.0734
34.986412313340814 24.1245
35.00975677584668 24.1241
35.033102738362956 23.9784
35.05663261012228 23.9209
35.0799815881786 23.8966
35.10333207003229 23.8474
35.12668405694369 23.8539
35.150220005273056 23.8824
35.17357501786656 23.8226
35.19693153931268 23.7762
35.220289570874385 23.649
35.24383161619786 23.7471
35.267192683604904 23.7108
35.290555264930376 23.7495
35.314101899412165 23.6847
35.33746752422433 23.6187
35.36083466676374 23.6667
35.38420332829803 23.5357
35.407756095629054 23.5868
35.43112781085063 23.5878
35.45450104888391 23.543000000000003
35.477875810999194 23.4674
35.50143473172161 23.378
35.52481255774625 23.5121
35.54819191167777 23.4073
35.57157279478914 23.3753
35.595137889488406 23.3421
35.61852184675279 23.3188
35.641907337029984 23.2299
35.665294361595684 23.2306
35.68886565090076 23.2202
35.7122557598848 23.0779
35.73564740699838 23.0384
35.759040593519934 23.065
35.78261809810353 23.006999999999998
35.80601437933051 22.9533
35.829412203814705 22.8679
35.85281157283719 22.8353
35.876395313415884 22.9299
35.8997977874528 22.8799
35.92320180988546 22.8898
35.946790244133936 22.7358
35.97019737933222 22.6284
35.993606066789866 22.6373
36.01701630779276 22.649
36.04061101440684 22.631
36.06402437852291 22.5752
36.08743930005611 22.6118
36.1108557802951 22.5364
36.13445678011326 22.4614
36.15787639383515 22.3704
36.18129757014299 22.4117
36.20472031032821 22.3987
36.22832762423364 22.3783
36.25175350829375 22.3411
36.275180960119776 22.2558
36.298609981005924 22.3165
36.32222362992669 22.2002
36.34565580510207 22.1151
36.36908955323448 22.1374
36.39252487562093 22.0417
36.416144880530226 22.0961
36.43958336764275 22.0885
36.463023432914625 22.1176
36.486465077645676 21.9787
36.51009145956204 22.01
36.53353627947859 21.9607
36.55698268276811 21.959
36.58043067073321 21.9258
36.60406345072071 21.837
36.62751462435344 21.8253
36.65096738658405 21.7886
36.67460498210655 21.7595
36.69806093788647 21.7502
36.72151848619297 21.6475
36.744977628333636 21.6562
36.76862165890998 21.6222
36.79208400512205 21.5155
36.81554794910557 21.5976
36.83901349217101 21.5022
36.862663978991606 21.4944
36.88613273667352 21.4625
36.90960309738324 21.4342
36.933075062434064 21.3898
36.95673202673572 21.3181
36.98020721697122 21.2938
37.003684015502365 21.2685
37.027162423645365 21.2137
37.050825886711465 21.2276
37.07430753063053 21.1513
37.09779078812467 21.0737
37.121275660513014 21.0334
37.144945643673694 21.0615
37.16843376245278 21.011
37.19192350009803 21.0268
37.215414857931435 21.0057
37.239091382563885 20.923000000000002
37.262585997426164 20.8918
37.28608223645736 20.8327
37.309763684451696 20.8321
37.33326318851098 20.7802
37.356764320726555 20.6986
37.380267082425526 20.7621
37.40395510942588 20.7817
37.42746114683234 20.6677
37.45096881771841 20.660999999999998
37.474478123414166 20.6071
37.49817275092816 20.5838
37.52168534303452 20.5879
37.54519957395567 20.472
37.568715445024665 20.5162
37.592416694607714 20.4599
37.61593586281424 20.4808
37.63945667518264 20.465
37.66297913304891 20.3881
37.68668702630454 20.3091
37.710212792059274 20.2117
37.733740207334854 20.2051
37.757269273470364 20.2327
37.780983832050374 20.166
37.80451621684926 20.1481
37.82805025654007 20.2177
37.851585952464795 20.1089
37.8753071980695 20.0451
37.89884622345676 19.9812
37.92238690911902 19.9634
37.94611318753442 19.9996
37.969657210779765 19.9093
37.99320289834801 19.907
38.016750251586465 19.8345
38.04048325513017 19.8062
38.06403395679343 19.7492
38.087586328183946 19.7406
38.11114037065203 19.7307
38.13488012115898 19.6808
38.1584375229181 19.6415
38.181996599821 19.6022
38.205557353221124 19.6557
38.229303872575656 19.6076
38.2528679961576 19.5955
38.27643380031219 19.5658
38.30000128639589 19.4943
38.32375459653193 19.5374
38.34732546371299 19.4264
38.37089801690786 19.369
38.39447225747609 19.2527
38.418232380377425 19.2774
38.441810012983396 19.3371
38.46538933705673 19.3017
38.488970353960084 19.2441
38.51273731166058 19.2376
38.536321731567014 19.1977
38.55990784840681 19.1607
38.58367995004091 19.1039
38.60726947812959 19.0269
38.63086070726198 19.0446
38.654453638806274 19.0824
38.678232613930824 18.9986
38.70182896773327 18.9229
38.72542702806741 18.9079
38.7490267963045 18.8789
38.77281266709232 18.8333
38.79641586862214 18.8599
38.8200207821842 18.8028
38.843627409152944 18.8513
38.86742019782782 18.7909
38.891030269149255 18.6971
38.914642058016156 18.6518
38.938255565806124 18.541
38.96205529464307 18.5822
38.98567225787121 18.6921
39.00929094417078 18.5888
39.03291135492255 18.5178
39.05671804624804 18.5404
39.080341923549106 18.4947
39.103967529460334 18.4921
39.127594865365744 18.3813
39.15140854155791 18.319000000000003
39.17503935514948 18.3256
39.19867190290282 18.3607
39.22249083587951 18.3035
39.24612686969409 18.2902
39.269764641845306 18.3643
39.293404153722804 18.2255
39.317230110864074 18.1068
39.34087311998506 18.1181
39.36451787301696 18.0535
39.388164371352595 18.0371
39.41199737518003 18.041
39.43564738196752 18.069000000000003
39.45929913825317 18.0195
39.48295264543308 17.9327
39.506792718520884 18.0111
39.530449745387216 17.9535
39.55410852735203 17.9424
39.57776906581474 17.9168
39.60161623079 17.8483
39.625280300200025 17.7694
39.64894613032202 17.7269
39.67261372255866 17.8466
39.6964680021016 17.7286
39.72013913657293 17.7538
39.74381203738292 17.7031
39.76748670593756 17.7226
39.79134812278169 17.6892
39.81502634488497 17.593
39.83870633896685 17.5574
39.862388106436654 17.5204
39.88625668336918 17.4959
39.90994201572829 17.5262
39.933629125719285 17.5517
39.957503091207826 17.4443
39.9811937746168 17.5584
40.00488623990914 17.4322
40.02858048850006 17.3073
40.05246165409549 17.2664
40.076159487492085 17.282
40.099859108448875 17.3115
40.123560518384345 17.215999999999998
40.1474489070226 17.1851
40.171153913178564 17.1569
40.194860712584955 17.0971
40.2185693066637 17.1726
40.242464941335314 17.0797
40.26617714307655 17.0684
40.289891143772046 17.0539
40.3136069448471 17.0504
40.33750984859743 17.0133
40.3612292688043 16.9944
40.3849504936829 16.964000000000002
40.40867352466194 16.9599
40.43258372059144 16.8611
40.45631038219906 16.889
40.48003885420956 16.7902
40.503769138055105 16.8108
40.52768664931955 16.8145
40.55142057531802 16.7733
40.57515631746428 16.76
40.599079334038514 16.6895
40.62281872700477 16.590999999999998
40.64655994043941 16.5671
40.67030297578061 16.5867
40.69423334835778 16.6119
40.71798004609188 16.5689
40.74172857006355 16.5308
40.76547892171441 16.5065
40.7894166736039 16.4749
40.813170699248566 16.4686
40.83692655691388 16.4433
40.86068424804498 16.4661
40.884629402612525 16.4157
40.908390779366385 16.4032
40.932153993938 16.3211
40.95591904777605 16.2643
40.979871628443995 16.283
41.003640379561936 16.304000000000002
41.02741097430883 16.2539
41.05118341413683 16.1982
41.075143444384416 16.1638
41.098919593177826 16.1879
41.1226975914255 16.1086
41.14647744058318 16.0756
41.170444943946755 16.037
41.19422851378379 16.0413
41.218013938914645 15.9971
41.24198706625173 15.9163
41.26577622087193 15.9365
41.289567235177785 15.925999999999998
41.31336011063129 15.8868
41.337340752422875 15.8452
41.361137369129835 15.939
41.38493585138705 15.8299
41.40873620066004 15.7762
41.43272438060107 15.7777
41.45652848292052 15.725
41.48033445666918 15.7333
41.50414230331616 15.7205
41.528138045159764 15.6652
41.551949656675205 15.6476
41.575763145513235 15.6201
41.59957851314666 15.6072
41.62358184070442 15.5537
41.64740098505737 15.537
41.6712220126409 15.5076
41.69504492493139 15.4553
41.71905586207357 15.4458
41.74288256296395 15.4271
41.766711153007456 15.4008
41.79054163368412 15.3977
41.814560204340054 15.3637
41.838394485526365 15.3632
41.86223066180303 15.2959
41.88625497706819 15.2621
41.910094962812 15.2417
41.93393684811168 15.2261
41.95778063445365 15.1829
41.981812625263366 15.1677
42.00566023303407 15.1805
42.029509746323676 15.0949
42.05336116662236 15.110999999999999
42.077400857069705 15.1062
42.10125611078846 15.1045
42.12511327600405 15.0345
42.14897235421036 14.9966
42.173019768448455 14.9781
42.19688269209613 14.9536
42.22074753323349 14.9128
42.24461429335818 14.8938
42.268669455600495 14.8654
42.292540073217886 14.8489
42.31641261433284 14.8169
42.34028708044675 14.7919
42.36435001496739 14.7833
42.38822835065557 14.7739
42.41210861586426 14.742
42.4359908120986 14.6788
42.46006154323262 14.6388
42.48394762115317 14.6942
42.507835634632315 14.6778
42.531912233047436 14.6017
42.55580413732265 14.5924
42.579697981698 14.5338
42.60359376768525 14.5473
42.62767820545945 14.5368
42.65157789440821 14.5641
42.67547952952185 14.4889
42.699383112316 14.4797
42.72347541395347 14.4053
42.74738291190531 14.3373
42.771292362102166 14.3701
42.795203766063516 14.3416
42.819303956130405 14.3125
42.843219287476536 14.2661
42.86713657716324 14.2785
42.89105582671383 14.2501
42.91516392983864 14.2418
42.939087119032166 14.2206
42.963012272677304 14.1955
42.98693939230129 14.1028
43.01105543317513 14.0722
43.034986504731386 14.0705
43.05891954686589 14.0776
43.08285456110972 14.0493
43.10697856448665 13.9968
43.130917542983475 13.9401
43.15485849820081 13.979000000000001
43.17880143167367 13.9551
43.20293342237094 13.9124
43.226880332449 13.8898
43.25082922540554 13.8824
43.27496722682525 13.8486
43.29892010567796 13.7951
43.32287497204102 13.8172
43.34683182745632 13.7574
43.370977859791836 13.8012
43.39493871351105 13.7445
43.41890156092628 13.7163
43.44286640358341 13.6948
43.46702049182749 13.6622
43.49098934522816 13.6109
43.51496019852649 13.5713
43.5389330532723 13.5461
43.56309522248204 13.5412
43.58707210044314 13.5514
43.61105098451946 13.4707
43.63503187626491 13.4688
43.659202151562134 13.4766
43.68318707902681 13.4785
43.70717401884041 13.4893
43.731162972560874 13.4233
43.75534137913236 13.3704
43.779334381108384 13.3811
43.803329401683186 13.376
43.82732644241872 13.3557
43.8515130055166 13.2606
43.87551410707659 13.2256
43.89951723350145 13.2636
43.923709934595614 13.2325
43.94771713129917 13.2053
43.97172635758096 13.169
43.99573761501002 13.1868
44.0199385169922 13.1652
44.04395385732619 13.1174
44.067971233533086 13.1215
44.09199064718605 13.0578
44.11619977548961 13.0376
44.14022328470671 13.0155
44.16424883610785 12.9811
44.18827643127035 13.0006
44.21249381139513 12.9628
44.236525514814076 12.8983
44.26055926674478 12.8975
44.28459506876863 12.9688
44.3088207262813 12.8816
44.33286064928722 12.8122
44.35690262714919 12.8339
44.38094666145278 12.8373
44.4051806219871 12.7837
44.42922879003185 12.7002
44.45327901929361 12.6982
44.477331311362136 12.6898
44.501573600619416 12.6506
44.525630039221795 12.6342
44.54968854541895 12.6471
44.573937102200176 12.6175
44.5979997645541 12.5965
44.622064499300315 12.5298
44.64613130803592 12.5312
44.67038823869318 12.5345
44.69445921643748 12.5103
44.718532272981385 12.4675
44.742607409926194 12.4747
44.76687274034801 12.4514
44.79095205918753 12.3409
44.81503346325094 12.3472
44.839116954143876 12.3614
44.86339071028742 12.3521
44.88747839599524 12.3093
44.91156817336837 12.32
44.93566004401666 12.2952
44.959942251908146 12.2959
44.984038330325966 12.2674
45.00813650686762 12.1584
45.03223678314731 12.1821
45.05652746888232 12.1413
45.08063196592069 12.1202
45.104738567558705 12.1171
45.128847275414856 12.0966
45.15314646515866 12.0489
45.17725940679741 12.0703
45.20137445952892 12.0555
45.22568004865265 12.026
45.24979934496396 11.9955
45.27392075725247 11.9847
45.29804428714431 11.9303
45.322358426247604 11.9185
45.346486212804315 11.8572
45.370616121861914 11.9225
45.39474815505086 11.884
45.41907087049246 11.8398
45.4432071734666 11.8414
45.46734560548283 11.8589
45.49148616817604 11.8449
45.51581748638564 11.7435
45.5399623320197 11.744000000000002
45.56410931325473 11.6997
45.58825843173002 11.7302
45.61259837920865 11.6647
45.636751793816 11.6408
45.66090735060093 11.6402
45.68506505120716 11.6347
45.7094136545275 11.5936
45.73357566449271 11.5335
45.75773982322992 11.5389
45.78190613238733 11.5329
45.806263418194064 11.5018
45.83043404997326 11.5465
45.85460683713677 11.5038
45.87897065658495 11.4837
45.90314777634752 11.4457
45.92732705646868 11.4487
45.9515084986045 11.4273
45.97588104735473 11.4239
46.00006683541565 11.3925
46.02425479047904 11.3335
46.04844491420549 11.2782
46.0728262191024 11.2998
46.09702070211635 11.2773
46.12121735879483 11.3046
46.14541619080294 11.2293
46.169806278764455 11.2301
46.194009483459034 11.2195
46.21821486849841 11.220999999999998
46.24242243555223 11.1725
46.266821333570014 11.1662
46.29103328674601 11.1504
46.31524742696538 11.1297
46.33946375590237 11.0734
46.36387149104216 11.0331
46.38809221957392 10.985
46.41231514186606 11.0368
46.436540259597464 10.9962
46.460956858999374 10.9774
46.48518638983522 10.9337
46.509418121166966 10.8953
46.533652054678114 10.8823
46.55807754555709 10.8526
46.58231590571962 10.8533
46.60655647313217 10.8545
46.630988654873654 10.8521
46.655233659129024 10.8127
46.67948087571551 10.769
46.70373030632484 10.7546
46.72817142736393 10.7796
46.752425308428684 10.7059
46.77668140861147 10.7167
46.80093972960865 10.7113
46.82538981736788 10.6771
46.849652602470904 10.6679
46.87391761349769 10.6532
46.8981848521493 10.6172
46.9226439341274 10.5744
46.946915650573224 10.5306
46.97118959976749 10.5908
46.99546578341598 10.5195
47.019933887188216 10.4964
47.04421456235744 10.5063
47.06849747711879 10.4928
47.09278263318286 10.4559
47.11725978640143 10.4349
47.14154944775105 10.3991
47.165841355555656 10.4039
47.1901355115306 10.3734
47.214621741924994 10.3528
47.23892041698887 10.3224
47.26322134538975 10.3256
47.28771440635075 10.2944
47.31201986422527 10.3034
47.33632758061436 10.2549
47.360637557241866 10.2522
47.38513974410611 10.2467
47.40945426407847 10.2167
47.43377104948137 10.2043
47.45809010204344 10.1573
47.48260144275502 10.142000000000001
47.506925052572285 10.1618
47.53125093475548 10.1165
47.55557909103813 10.1135
47.58009961361992 10.062999999999999
47.60443234110732 10.0278
47.62876734791564 10.0321
47.65310463578333 10.0502
47.6776343683373 10.0256
47.7019762413987 9.94895
47.72632040075572 9.957139999999999
47.75066684815169 9.93067
47.77520581885936 9.93118
47.799556865477655 9.927660000000001
47.823910205386 9.91191
47.84826584033272 9.88176
47.87281407745551 9.82744
47.89717432569297 9.87871
47.92153687423484 9.86078
47.94609208429692 9.836260000000001
47.97045925671401 9.80345
47.99482873471275 9.76927
48.01920052005013 9.76085
48.04376504619224 9.73703
48.068141469543484 9.73265
48.09252020552573 9.7002
48.11690125590099 9.65195
48.1414751266064 9.65654
48.16586082917454 9.666139999999999
48.19024885144316 9.6383
48.2146391951793 9.59914
48.239222439012764 9.606069999999999
48.26361744916137 9.59873
48.28801478610016 9.58803
48.31241445160131 9.56015
48.337007097209366 9.50912
48.36141144338331 9.48209
48.38581812345755 9.51603
48.41022713920929 9.4882
48.434829215320704 9.45071
48.45924292604658 9.4531
48.48365897780325 9.472760000000001
48.50807737237308 9.39723
48.532688907799276 9.40441
48.55711201168574 9.400910000000001
48.581537463754074 9.35411
48.60615611725119 9.361460000000001
48.63058628942721 9.31588
48.65501881516546 9.32348
48.6794536962573 9.28929
48.70408185970339 9.29228
48.72852147531801 9.278960000000001
48.75296345168211 9.222610000000001
48.77740779059232 9.2458
48.80204549302823 9.25587
48.82649458091802 9.19604
48.85094603676547 9.16042
48.87539986237231 9.098419999999999
48.90004713292306 9.129719999999999
48.92450572200832 9.139389999999999
48.94896668628025 9.11375
48.97343002754588 9.1026
48.99808689542115 9.099210000000001
49.02255501470614 9.06381
49.04702551642794 9.01717
49.0714984023988 9.01722
49.096164896893235 9.024469999999999
49.120642575466796 8.978660000000001
49.145122643748394 8.9653
49.16960510355558 8.92758
49.19428125404938 8.943489999999999
49.2187685210852 8.93336
49.243258185121555 8.89648
49.26794160167084 8.8949
49.2924360839405 8.87168
49.31693296869764 8.80575
49.34143225776915 8.8307
49.36612538195438 8.79901
49.39062950396021 8.79608
49.41513603578346 8.78737
49.4396449792564 8.74508
49.46434784069503 8.73217
49.488861631846454 8.71441
49.513377840166804 8.71362
49.537896467493745 8.679839999999999
49.56260909589029 8.63992
49.587132585683285 8.66319
49.611658500018365 8.64276
49.636186840738596 8.594619999999999
49.66090926588511 8.63384
49.685442483902584 8.59573
49.70997813385706 8.57649
49.734516217597076 8.57929
49.75924846937352 8.5359
49.7837914452858 8.48484
49.80833686055187 8.47511
49.83288471702571 8.484630000000001
49.85762682540054 8.47384
49.882179588965734 8.43481
49.9067347993235 8.406360000000001
49.93129245833333 8.399389999999999
49.95604445336378 8.40272
49.98060703442832 8.39156
50.005172069746266 8.36355
50.02993150438364 8.35407
50.05450147301533 8.38279
50.07907390151433 8.35853
50.10364879174981 8.31352
50.12841816587289 8.31423
50.1529980044635 8.27978
50.17758031042124 8.25287
50.20216508562089 8.23161
50.22694442953363 8.21905
50.25153416817468 8.19104
50.27612638170508 8.18698
50.300721072005196 8.17452
50.325510416102105 8.16398
50.350110084975064 8.160919999999999
50.37471223628208 8.13208
50.39931687190919 8.11198
50.424116246675766 8.10853
50.44872587605249 8.10591
50.47333799543065 8.08883
50.49795260670191 8.04632
50.52276204271512 8.038739999999999
50.54738166295838 8.04044
50.57200378079314 8.00455
50.596628398116835 8.01844
50.62144792604559 7.99083
50.646077567609396 7.994789999999999
50.670709714377715 7.9664600000000005
50.69553683636198 7.929189999999999
50.72017401885922 7.919989999999999
50.7448137122895 7.87096
50.76945591856022 7.8575800000000005
50.79429318636823 7.860239999999999
50.818940443716784 7.87724
50.84359021965163 7.84479
50.868242516085964 7.82675
50.893089960641895 7.797389999999999
50.917747323549435 7.78437
50.94240721271973 7.77078
50.96706963007175 7.7539
50.99192728239342 7.788530000000001
51.01659478166073 7.75293
51.04126481489051 7.765789999999999
51.06593738400761 7.74112
51.090805275207074 7.709110000000001
51.11548294172845 7.6554
51.14016314993547 7.65683
51.164845901758845 7.6415
51.18972406304274 7.61717
51.21441192780656 7.621560000000001
51.23910234200271 7.599810000000001
51.2637953075678 7.587969999999999
51.288683770237945 7.5574699999999995
51.31338186432707 7.53795
51.33808251561888 7.518860000000001
51.362978729967345 7.52025
51.387684521509755 7.501
51.41239287610203 7.51085
51.437103795691165 7.50983
51.46201036644977 7.463830000000001
51.486726441956634 7.40318
51.51144508832545 7.42973
51.536166307509156 7.418419999999999
51.56108326624387 7.409510000000001
51.58580965706056 7.38775
51.61053862657523 7.363119999999999
51.635270176746864 7.3397
51.66019755512065 7.32262
51.68493429268881 7.31743
51.70967361681515 7.29012
51.73441552946465 7.3308800000000005
51.759353359237934 7.2801
51.7841004750961 7.29673
51.80885018539685 7.27054
51.833602492111254 7.218310000000001
51.8585508051424 7.205889999999999
51.883308330926425 7.20259
51.90806845906181 7.1759699999999995
51.932831191525715 7.18562
51.95779001977161 7.19665
51.98255798721516 7.15555
52.00732856494335 7.13714
52.03229530577543 7.13223
52.057071130455945 7.1093399999999995
52.081849571391054 7.053260000000001
52.106630630568695 7.06447
52.13160794279417 7.02619
52.15639426492067 7.050860000000001
52.18118321127822 7.02115
52.205974783860896 7.00558
52.23096269971011 7.004010000000001
52.255759551287994 7.01655
52.280559035098186 6.9661
52.30536115314103 6.9665
52.33035970494467 6.96852
52.35516711807904 6.92587
52.37997717147198 6.89722
52.40478986713005 6.9189300000000005
52.42979908731974 6.8502600000000005
52.454617094216 6.86389
52.47943774942214 6.847339999999999
52.50426105495102 6.84055
52.529280976059844 6.853269999999999
52.554109609024096 6.828310000000001
52.57894089837482 6.799060000000001
52.60377484613117 6.7978
52.62880550079408 6.770910000000001
52.65364479223379 6.7612
52.67848674816189 6.71784
52.70352547971946 6.7361699999999995
52.72837279155837 6.715330000000001
52.753222773982785 6.71885
52.778075429022984 6.67828
52.80312495150885 6.701280000000001
52.827982978797436 6.6394
52.85284368481815 6.622789999999999
52.87770707160767 6.61618
52.90276741793998 6.6170800000000005
52.92763619336701 6.55685
52.952507655698504 6.5891
52.977381806977576 6.53362
53.00245301017842 6.580419999999999
53.02733256653592 6.568230000000001
53.052214817996074 6.53026
53.077099766608484 6.51037
53.102181859804446 6.52554
53.127072229988265 6.49271
53.15196530349892 6.4941
53.17686108239249 6.454619999999999
53.20195409881522 6.4808699999999995
53.22685531582556 6.4512
53.25175924441303 6.42347
53.27666588664027 6.39476
53.30176985962693 6.368609999999999
53.3266819565689 6.360180000000001
53.35159677336455 6.3735599999999994
53.376514312083096 6.35171
53.40162927507703 6.3660000000000005
53.42655228516116 6.29776
53.45147802340193 6.26193
53.47660125628886 6.27383
53.50153247842639 6.2880199999999995
53.52646643496923 6.26194
53.55140312799818 6.24584
53.576537409691696 6.26063
53.60147960336152 6.21744
53.626424539786164 6.1935400000000005
53.65137222105307 6.22167
53.67651758529126 6.20334
53.70147078399681 6.15923
53.72642673383343 6.20685
53.75138543689533 6.14773
53.776541917524526 6.12516
53.801506154876755 6.13739
53.826473151763246 6.10391
53.851442910284916 6.08539
53.87661054126026 6.05005
53.9015858509782 6.0662
53.92656392866066 6.06878
53.95154477641532 6.05675
53.976723591801296 6.0071
54.00171000771266 6.02152
54.02669920004598 6.021059999999999
54.051691170915745 5.97725
54.076881204886796 5.98281
54.101878760928514 5.95896
54.12687910187696 5.93684
54.152077577768296 5.90227
54.1770835166946 5.91935
54.20209224691339 5.9126199999999995
54.22710377055121 5.86983
54.25231352511594 5.89775
54.27733066384342 5.87552
54.30235060239643 5.84463
54.32737334290836 5.80526
54.35259441062629 5.774290000000001
54.377622783395324 5.82883
54.40265396455061 5.77395
54.42768795623251 5.74836
54.45292037169559 5.73001
54.477960012857906 5.74017
54.50300247099511 5.77002
54.52804774825457 5.7407900000000005
54.55329154616743 5.6852800000000006
54.57834249018678 5.65877
54.6033962597977 5.60051
54.6284528571545 5.60516
54.653708072335164 5.6042
54.67877035378786 5.516369999999999
54.70383546947698 5.53305
54.72890342156389 5.4943800000000005
54.7541700889442 5.50887
54.77924374251975 5.516780000000001
54.8043202390049 5.48442
54.82959552413022 5.43278
54.8546777351945 5.435309999999999
54.87976279569621 5.38861
54.90485070780914 5.42856
54.930137506558005 5.41178
54.95523115074295 5.42395
54.98032765308844 5.3781
55.005427015775496 5.32134
55.03072536339621 5.35254
55.05583047570572 5.26426
55.080938454927676 5.26225
55.10604930325027 5.22809
55.131359235107396 5.2464699999999995
55.15647585066083 5.12319
55.181595341907496 5.16517
55.20671771104285 5.15325
55.232039262617704 5.13879
55.25716741665048 5.09885
55.28229845518636 5.146719999999999
55.30743238042802 5.10255
55.33276558731939 5.08956
55.357905315183636 5.0651
55.383047936390035 5.04983
55.40819345314859 4.99712
55.433538351073295 4.98492
55.458689688238415 4.94735
55.483843927614096 4.88848
55.509197623043605 4.90715
55.53435769621134 4.8891599999999995
55.55952067826466 4.84446
55.5846865714265 4.82083
55.61005202069737 4.77829
55.63522376553902 4.800730000000001
55.66039842818645 4.75575
55.68557601087004 4.731
55.7109532500271 4.7262
55.73613670233794 4.73365
