TT I
1.2716486653135266 7.789630000000001
1.2939594142134223 7.556189999999999
1.3162702121660406 7.36287
1.3385810600174564 7.53016
1.3608919586137629 7.661239999999999
1.383202908801069 7.24085
1.405513911425503 6.71219
1.4278249673332093 6.971430000000001
1.4501343378461518 6.232480000000001
1.4724455028545926 6.3314699999999995
1.4947567236847858 6.0252300000000005
1.517068001182951 7.120939999999999
1.5393793361953272 6.61835
1.5616907295681737 5.97652
1.5840021821477681 5.65525
1.60631369478041 5.5559
1.6286252683124185 5.33155
1.6509369035901333 5.28481
1.6732468618895553 5.59649
1.695558623192809 4.97975
1.7178704487808514 5.5195300000000005
1.7401823395001077 5.82724
1.7625012545597203 5.62591
1.7848028405262486 5.4865900000000005
1.8071218901122095 5.23262
1.8294236121921872 4.6474400000000005
1.8517427996910911 5.00633
1.8740620574440425 4.711180000000001
1.8963639900671978 4.81412
1.9186833908139995 4.974530000000001
1.9409854680117449 4.73486
1.9633050151394713 5.15656
1.9856246367570705 5.32383
2.0079269371922672 4.97169
2.03024671027244 4.83079
2.0525491637446027 4.81987
2.074869091674931 4.67931
2.097171701569106 4.5301599999999995
2.1194917877373847 4.7866800000000005
2.141811954326636 4.5643
2.164114805233074 4.6536599999999995
2.186435135143035 4.49442
2.208738150935709 4.59976
2.231058647554722 5.20478
2.2533792288321184 5.09566
2.275682498336085 4.67404
2.298003251406138 4.88352
2.3203066942619714 3.99595
2.3426276225136022 4.57491
2.3649486396617507 4.74121
2.387252348930071 4.26851
2.4095735463442893 4.32935
2.4318774374315884 4.60671
2.4541988185014043 4.62514
2.476502894794693 4.52308
2.498824462909887 5.75871
2.521146125856138 4.78084
2.5434504863470337 5.173080000000001
2.5657723414244717 5.5968800000000005
2.588076895590662 5.44165
2.610398946189713 6.07446
2.6327210958598384 5.93985
2.6550259469304716 6.054130000000001
2.6773482972090137 6.63625
2.6996533504259 6.4269099999999995
2.7219759047039602 6.37143
2.744298562293959 6.86868
2.7666039251246595 6.08796
2.7889267918020164 6.769
2.8112323652516555 7.22622
2.833555444408179 7.01467
2.8558786311183852 7.86189
2.8781845268938557 8.02311
2.9005079311721484 8.52107
2.9228140460410397 9.38898
2.9451376712799635 8.76721
2.967444008632326 9.521469999999999
2.9897678582247247 9.680439999999999
3.0120918213106695 10.4102
3.0343984987899373 11.1151
3.0567226913198637 10.9768
3.079029599759726 11.2485
3.101354025127254 12.6599
3.123678568232338 12.9567
3.145985829517914 12.5351
3.16831061055229 13.2819
3.1906181112775593 13.8406
3.212943133635653 14.7665
3.2352682779763207 15.1588
3.2575761442691227 15.3993
3.2799015350264273 15.5901
3.302209649240067 16.7157
3.3245352898092655 16.8832
3.3468436553365257 17.5449
3.369169549113219 17.8667
3.3914955708171384 18.6573
3.413804319727358 18.5421
3.4361305997334863 19.2727
3.4584396084414553 19.9672
3.4807661501462652 20.3536
3.503092824025881 20.745
3.5254022288463154 21.1816
3.5477291695206588 21.3291
3.5700388426251948 22.1326
3.5923660534916446 22.2326
3.6146934007816114 22.5977
3.637003482731501 23.1662
3.6593311053109985 23.9897
3.681641464033634 24.1493
3.7039693653009733 24.7379
3.726297407241705 25.072
3.7486081875460804 25.6818
3.7709365132734978 25.7375
3.793247578841633 26.6344
3.8155761917550093 26.7897
3.8378875459837216 27.6002
3.8602164494827234 27.4437
3.882545499606844 28.6252
3.9048572932539183 29.2801
3.9271866390645718 29.3672
3.9494987298666713 29.8682
3.971828374764527 30.1515
3.9941581705403255 31.4082
4.016470713506008 32.0101
4.038800813471445 32.5836
4.061113662089144 32.6303
4.0834440696459176 33.969
4.105774632334751 34.3217
4.128087945865126 34.7818
4.150418821249301 34.8294
4.172732448931298 36.3889
4.195063640413578 36.6954
4.2173775856475215 37.8874
4.239709096631102 38.8146
4.262040768704612 39.2187
4.284355196706267 39.6878
4.306687193387355 40.6004
4.329001947444346 41.9794
4.35133427213731 42.9461
4.373666762177566 43.5643
4.395982011761091 44.0629
4.418314834921175 45.1823
4.44063041906622 46.7856
4.4629635787515625 47.3033
4.4852969080429785 48.4151
4.5076130004776225 50.299
4.529946671403969 52.4226
4.552263106909177 53.7861
4.574597122877047 54.3703
4.596931312711224 54.6709
4.619248269273446 55.5789
4.6415828092605835 57.2673
4.663900117405352 58.0486
4.686235010953232 59.7238
4.708552674085913 60.8024
4.730887924602802 62.5551
4.753223354952695 64.5791
4.775541557023902 66.6501
4.797877349456786 68.1691
4.820195915032126 70.3779
4.842532072957498 71.7484
4.864868414979744 74.1151
4.88718753227192 77.2746
4.909524244902505 79.4576
4.931843734218147 80.6352
4.954180820867835 83.9672
4.976518095879839 87.8053
4.998838149695359 91.4467
5.021175803844231 96.5026
5.043496238205739 100.781
5.065834274903528 106.319
5.088172504230693 113.90700000000001
5.1104935158799565 123.48899999999999
5.132832132875765 140.101
5.155153533596801 168.447
5.1774925416746225 287.345
5.199814334878411 888.181
5.2221537374521505 2181.07
5.244493338631803 3952.87
5.266815727034316 6880.43
5.289155727832427 10528.0
5.311478517248165 9295.85
5.333818921080011 4084.86
5.356159527788849 945.27
5.3784829252032536 268.519
5.400823940070432 182.03900000000002
5.423147747031976 152.184
5.445489173474152 136.739
5.467830807066149 129.05100000000002
5.490155234831516 123.4
5.512497285125229 117.37100000000001
5.534822130975162 114.916
5.557164601388673 111.87
5.579489868738879 108.311
5.601832762690846 106.336
5.6241758697774475 104.84700000000001
5.646501775867269 103.788
5.668845311622074 102.984
5.691171647754637 102.48
5.713515615597765 101.64399999999999
5.735859800852677 100.656
5.758186788542988 100.566
5.780531411018185 101.67399999999999
5.802858837297399 101.475
5.825203900414495 102.15700000000001
5.8475491852224 103.656
5.869877275883075 104.042
5.892223006467101 106.315
5.914551544266608 109.516
5.936897724049891 116.30799999999999
5.959244129804903 132.235
5.981573344815301 197.87099999999998
6.0039202049061 445.631
6.026249875609095 886.658
6.04859719346037 1429.6
6.070927323278297 2232.53
6.093275102315365 3697.4
6.115623113320588 4598.22
6.137953938319995 3647.02
6.160302415650845 1395.95
6.182633708324452 354.30199999999996
6.2049826554078376 145.667
6.227331838745022 108.551
6.249663839443684 95.4368
6.27201349767565 88.5328
6.294345974611799 84.3227
6.316696111167083 80.7318
6.339046488263839 78.6992
6.361379686074702 76.0298
6.383730546639482 74.5701
6.406064229255215 72.8173
6.428415576718203 72.4009
6.450749747566656 71.0123
6.47310158535871 69.5289
6.495453669698332 68.0753
6.517788579421056 67.3199
6.540141159237969 66.0758
6.562476565766648 65.3418
6.5848296444934045 64.8458
6.607182974060425 64.3799
6.6295191323281015 64.0597
6.651872965955752 63.0449
6.6742096296068985 62.6265
6.6965639707294615 62.3192
6.71891856698715 61.2848
6.741255995248479 60.9004
6.763611104154477 60.4603
6.785949046381137 60.1375
6.808304671371482 59.958999999999996
6.8306605557940046 60.0345
6.852999275508618 59.1127
6.875355681171544 58.6814
6.897694923437771 58.3092
6.92005185377892 58.1045
6.9423916220322655 57.7606
6.964749080490181 57.1077
6.987106804399774 57.181000000000004
7.009447368180821 57.1387
7.031805625367033 57.3179
7.054146723727803 57.0603
7.076505517631004 56.6649
7.098864581288365 56.5008
7.121206488070854 56.146
7.143566093607822 56.1882
7.165908543567245 56.2889
7.188268694426048 56.5557
7.2106291193438095 56.2207
7.232972390625943 55.5446
7.255333366030969 55.6414
7.277677189091925 55.3678
7.300038718428332 55.4394
7.322400526130865 55.5821
7.344745183422596 55.7411
7.367107550224791 56.0609
7.389452767901992 55.9121
7.411815697249891 55.8714
7.434161478756298 55.2799
7.456524974096713 55.4846
7.478888753837185 55.4515
7.501235387657368 55.8382
7.523599738562711 55.9066
7.545946944825532 56.3941
7.568311870344528 57.1558
7.5906770845765665 56.747
7.613025156078678 56.7487
7.635390950099687 57.3552
7.657739602662809 57.3448
7.680105979923558 57.3827
7.702472650212829 58.1222
7.724822180948224 57.91
7.747189439655568 58.2005
7.769539560075357 58.0977
7.791907410653562 58.6371
7.81425812420825 58.6476
7.836626570110925 59.0866
7.858995315087906 60.0063
7.881346924933401 60.3049
7.903716270417482 60.4916
7.926068482028405 61.2719
7.948438431475253 61.7098
7.9708086843180235 62.1211
7.993161805171116 63.0694
8.015532667162402 63.347
8.037886398416653 64.6838
8.060257873014221 65.1904
8.082629655331942 65.832
8.104984308787587 66.3528
8.127356708900503 67.4688
8.149711981398308 68.8284
8.172085002766314 69.8938
8.194458336181368 70.3116
8.216814543847752 71.3884
8.23918850371002 72.8272
8.26154533906492 73.8325
8.283919928836452 75.89399999999999
8.306277395339652 77.125
8.328652618483376 78.4487
8.351028159736202 81.3604
8.373386579575245 84.0554
8.395762759396959 86.3416
8.418121819038275 90.035
8.440498640894003 96.0821
8.462875785192262 110.819
8.485235811156207 165.507
8.507613602688501 290.932
8.529974277114228 445.42
8.552352719347912 579.734
8.574731488360351 758.753
8.59709314210385 1076.91
8.619472567021075 1557.29
8.64183487789147 1990.61
8.664214962183097 1895.18
8.686577933647762 1169.8
8.708958680784317 509.411
8.731339760774953 213.485
8.753703729764451 129.403
8.77608547780821 110.251
8.798450116065078 104.156
8.820832535634787 99.8389
8.843215292401656 97.5161
8.865580941199045 95.7596
8.887964374703538 94.5231
8.910330701447199 93.5807
8.932714815164482 91.9913
8.955099270424924 90.3162
8.977466620733543 89.398
8.999851761421976 89.2535
9.022219798361645 88.4457
9.04460562795561 88.1679
9.066991803441677 87.759
9.089360876979615 87.645
9.111747746589993 87.4379
9.13411751544971 86.2943
9.156505082664324 86.2882
9.178875550323522 86.2123
9.20126381862328 85.8407
9.223652438908596 86.0476
9.246023961427412 86.5299
9.26841328802173 86.5318
9.290785518039224 86.8051
9.313175554425882 87.9463
9.335565947154315 88.4128
9.357939245086508 88.3542
9.380330352834827 88.2547
9.40270436697103 88.3088
9.425096193225055 88.19
9.447488380180165 89.0094
9.469863475295412 88.9793
9.492256385987508 89.2625
9.514632206018318 90.3011
9.537025843935714 90.4537
9.559402392368193 91.4195
9.581796761000229 92.9076
9.604191496441521 93.5006
9.626569144158516 94.3809
9.648964615551032 94.8252
9.671343000390081 95.3344
9.693739211225699 96.1334
9.716135793237463 97.2361
9.738515290448102 98.4656
9.760912617143402 100.068
9.783292860202891 101.93700000000001
9.805690935076182 103.075
9.828089385495742 104.01899999999999
9.850470754023561 106.615
9.872869957865444 108.899
9.89525208097539 112.09899999999999
9.917652041736662 118.182
9.940052382417589 137.55100000000002
9.962435644102392 202.38099999999997
9.984836746950979 302.666
10.007220771957746 411.467
10.029622640473708 512.0459999999999
10.052007432299963 637.515
10.074410069984072 805.1260000000001
10.096813093716005 1085.16
10.119199042482517 1466.44
10.141602840636468 1806.64
10.163989564971628 1701.05
10.186394141051062 1146.38
10.208799107559706 531.908
10.231187001965623 244.667
10.253592751657669 146.94899999999998
10.275981430388155 123.09
10.298387966769793 117.021
10.320794897965431 114.33200000000001
10.343184759907361 112.345
10.36559248305461 111.197
10.387983138083852 115.2
10.410391656691655 131.71200000000002
10.432800574501677 158.75
10.455192425893369 185.74400000000003
10.47760214443012 210.352
10.499994797678786 237.43900000000002
10.522405320453982 283.413
10.54479877906917 357.148
10.567210109595656 446.385
10.5896218454736 534.248
10.612016518879773 540.0169999999999
10.634429067781074 403.50300000000004
10.656824555333241 252.449
10.679237920773568 151.05200000000002
10.701651695961992 107.02799999999999
10.724048411481384 95.6946
10.746463008485165 92.2375
10.768860546937125 89.7751
10.791275969274796 87.7405
10.81369180576079 86.4967
10.836090585366925 85.2243
10.858507252467449 83.8752
10.88090686379991 82.8319
10.903324365036394 81.908
10.925724811614439 80.6196
10.948143150509463 80.4831
10.970561909719066 79.4082
10.992963615930844 78.6735
11.015383218085756 77.5304
11.037785768347074 76.7125
11.06020621697282 76.265
11.082627090322113 75.3875
11.105030913430326 74.2204
11.12745263854165 74.0565
11.149857314510728 73.0924
11.172279894912576 73.118
11.194702904450653 72.3469
11.217108866490921 71.6758
11.239532736615194 70.9954
11.26193956033512 70.8895
11.284364294577085 70.7158
11.306789462371718 70.0722
11.329197585398376 69.595
11.351623622610898 69.7553
11.37403261614354 68.7672
11.396459526308487 68.6056
11.418869393879497 68.3934
11.441297180532617 68.119
11.463725406927658 67.7709
11.486136592353875 67.4286
11.508565700543707 66.8745
11.530977768845315 66.7519
11.553407762368774 66.6747
11.575838200059769 66.4048
11.598251599479612 66.0604
11.620682927815501 65.8773
11.64309721895548 66.1679
11.665529441478206 65.7206
11.687962112597958 65.4172
11.710377748130886 65.61399999999999
11.732811318753434 65.6411
11.755227854859067 65.3945
11.777662328529495 65.2661
11.800079768750786 65.4009
11.822515149015453 65.0747
11.844950984084935 65.6512
11.867369787303163 65.2714
11.889806534289491 65.0888
11.912226250487029 65.6952
11.934663912939751 65.9407
11.9571020346363 66.1736
11.979523127133968 66.4347
12.001962169624331 68.4008
12.024384183972964 72.6261
12.046824150809913 79.8799
12.069264581333726 87.7324
12.091687985297767 93.9506
12.11412934550045 99.8118
12.136553680195208 109.20100000000001
12.158995973632788 123.09
12.181438735204349 141.11700000000002
12.20386447284199 164.865
12.226308172985636 193.50599999999997
12.24873485024193 204.372
12.271179492516982 182.46200000000002
12.293607112949127 143.695
12.316052700916226 101.98100000000001
12.338498763250042 78.6225
12.360927805303868 69.9181
12.383374818673879 67.97800000000001
12.405804812803074 67.1025
12.428252780773262 67.0447
12.45070122756722 66.8933
12.473132656675375 67.133
12.49558206341869 67.2676
12.518014453510101 67.1456
12.540464823770117 67.2666
12.562915677315177 67.211
12.58534951575545 67.6764
12.607801338171472 67.7283
12.630236146511358 68.0067
12.652688941369085 68.5877
12.675124723177234 68.9589
12.697578494048786 69.434
12.720032754458185 69.8009
12.742470003354093 70.0076
12.764925245138771 70.8966
12.787363476431278 71.2351
12.809819703166806 71.4732
12.83227642391173 72.2009
12.854716135692716 73.1311
12.877173846755147 74.0849
12.899614549869717 74.6458
12.9220732548287 75.7655
12.94453245827299 76.1571
12.966974655289818 77.4711
12.989434858002571 78.2749
13.011878055298721 79.10600000000001
13.034339260862497 80.5593
13.056800969391883 82.4853
13.079245674017244 86.4424
13.101708390774869 94.1349
13.12415410463411 111.03
13.146617833206086 130.339
13.169064559883248 146.263
13.191529303857127 159.464
13.213994557076367 174.78799999999998
13.236442809902437 197.585
13.258909083908291 231.08700000000002
13.28135835851934 271.505
13.30382565690295 325.631
13.326293469022952 384.88599999999997
13.348744283242008 422.01
13.371213125129904 388.26599999999996
13.39366497011003 304.46299999999997
13.416134845360597 211.398
13.438605238843131 149.346
13.46105863690397 129.77
13.483530069144786 133.386
13.505984506951902 142.66
13.528456981549432 152.05
13.550929978879088 161.47799999999998
13.573385983253365 175.153
13.595860028340867 197.547
13.618317081455832 228.02599999999998
13.64079217790333 267.858
13.663250283359057 315.85
13.685726434770173 354.515
13.708203115221277 359.134
13.730662806148091 302.22900000000004
13.75314054697177 225.899
13.775601299246777 153.988
13.798080104050406 109.76
13.820559442405358 92.2436
13.843021793671388 86.6647
13.865502201420897 84.4709
13.887965623051947 84.0691
13.910447103807167 82.9602
13.932929122629764 81.2706
13.955394156785959 80.7322
13.977877254034569 79.6417
14.000343367582113 79.0352
14.022827546871707 78.2756
14.045294743423524 77.4385
14.06778000837062 76.8565
14.090265817715476 76.3012
14.112734645763819 75.7935
14.13522154619454 75.5227
14.157691466286913 75.2
14.180179461423874 74.9796
14.202668005486178 74.7221
14.22513957064374 74.1581
14.247629214846473 73.9563
14.270101881097517 73.435
14.29259262906496 73.2831
14.315083930490205 72.8206
14.337558255389705 72.90100000000001
14.360050666019726 73.0506
14.382526101071944 72.6383
14.405019624534942 72.6045
14.427513705993134 72.2269
14.449990813291825 72.1327
14.47248601302899 72.2247
14.49496423954951 72.4955
14.517460561197822 72.3366
14.539939910570322 72.0367
14.562437357763558 72.233
14.58493536931253 72.5392
14.607416409993311 72.7463
14.62991555254159 73.0202
14.652397725157423 73.2067
14.674898002342799 73.783
14.697398848433282 74.32600000000001
14.719882725991326 76.7361
14.74238471217934 81.0496
14.764869730765593 88.5115
14.787372860692983 94.6641
14.809876564079925 100.665
14.83236330125751 106.079
14.854868153850365 111.45200000000001
14.877356041159485 119.963
14.899862046604186 130.82
14.922351087688757 146.283
14.944858249632887 166.054
14.967365991421232 189.592
14.989856770231246 211.16299999999998
15.012365673994204 222.766
15.03485761569738 206.981
15.05736768508665 169.97
15.07987833888692 130.901
15.102372032001655 101.662
15.124883856909658 83.2912
15.14737872204565 76.9721
15.169891721717274 74.2082
15.192405310371893 73.3991
15.214901940621196 72.6956
15.237416709527137 72.2119
15.259914520936249 71.8957
15.282430473753607 71.039
15.304947020131227 70.5527
15.327446610371178 70.4166
15.349964346154254 70.1459
15.372465126703139 69.9064
15.394984055556009 69.6888
15.417486030076159 69.7705
15.44000615566487 69.297
15.462526881230803 69.158
15.485030653812652 69.0445
15.507552581617434 68.7342
15.530057557334603 68.9993
15.55258069104857 69.1005
15.575104429329837 69.4534
15.597611216864632 69.7347
15.620136166564563 71.204
15.6426441664095 75.0596
15.665170331202765 80.3734
15.687697105158826 85.984
15.710206930593545 90.9731
15.732734925158933 94.4997
15.755245972089478 98.0409
15.77777519094324 103.87100000000001
15.800287463046663 111.726
15.822817909869592 122.818
15.84534897229804 136.40200000000002
15.867863089299354 153.27200000000002
15.890395385222186 173.18099999999998
15.912910736597423 190.141
15.935444269699861 192.639
15.957978423016485 173.74900000000002
15.980495633101265 142.122
16.003031029129367 111.176
16.02554948280019 85.6649
16.048086125229432 72.3997
16.070623392487107 67.5142
16.09314371869582 65.5655
16.11568223789321 64.2971
16.13820381691126 63.8515
16.160743591742527 63.4852
16.183283996022084 62.8485
16.205807461423195 61.9912
16.228349126881973 61.5068
16.25087385432698 61.4498
16.27341678466365 60.9018
16.29594277784926 60.6234
16.31848697676433 60.1451
16.341031811604868 59.5821
16.36355971058487 59.611999999999995
16.3861058195587 59.3725
16.40863499352978 58.685
16.431182380342005 58.651
16.453730407713202 58.3087
16.476261501364792 58.1666
16.498810812136167 57.9771
16.52134319004079 58.1459
16.54389378792203 57.7224
16.566445031001553 57.6657
16.588979342490088 57.458999999999996
16.61153187824822 57.2164
16.634067483263312 57.1262
16.656621315414416 57.2521
16.679175797408888 57.0839
16.701713349928728 56.958999999999996
16.72426913389191 56.9801
16.74680798922351 56.9949
16.76936507887444 57.1574
16.791905240734874 57.1896
16.814463639794468 57.041000000000004
16.837022695210294 57.1368
16.859564824093756 57.2696
16.882125194503903 57.1464
16.904668639217885 57.4178
16.927230328348003 57.4666
16.949792678493612 57.6278
16.972338104193863 57.5423
16.994901778652235 57.8218
17.017448529496576 58.3425
17.040013531998152 59.2877
17.06257920018044 60.5278
17.0851279459922 61.6632
17.107694947817667 62.9219
17.130245028099072 63.7236
17.15281336730298 64.5251
17.17536478578733 65.5671
17.19793446610687 67.1653
17.220504818648422 68.9506
17.243058251703697 70.9356
17.265629950971032 74.222
17.288184731571736 77.8953
17.310757781306908 82.3454
17.33333150794385 85.5754
17.355888317140174 85.64299999999999
17.37846339986244 82.8653
17.401021565958885 76.97399999999999
17.42359800851343 71.3076
17.44617513265564 66.7763
17.468735341390783 63.8373
17.491261035594565 62.3654
17.51396340099364 61.7195
17.536490463869136 61.8842
17.559018209820174 61.9049
17.58154663977963 62.1624
17.604251766089718 62.1353
17.626781572227713 62.356
17.64931206518155 62.7641
17.671843245885103 63.1661
17.69455114821572 63.0294
17.717083712612634 63.5615
17.739616967569667 63.9987
17.762150914021706 64.3193
17.78486160749854 65.0045
17.807396945166804 66.4986
17.829932977143503 69.0186
17.85246970436452 72.1463
17.875183204129467 75.1731
17.897721330097664 77.843
17.920260154126645 80.2419
17.942799677153296 82.5713
17.9655159983646 84.6974
17.988056927677544 88.3585
18.010598558807683 93.1266
18.033140892692916 99.2343
18.05586005052525 106.34200000000001
18.07840379824407 116.12100000000001
18.10094825154059 128.082
18.12366954819864 139.516
18.146215420998306 145.539
18.16876200220057 143.993
18.191309292745153 132.422
18.214033452627167 116.994
18.236582170236648 102.335
18.259131600016456 93.5011
18.281681742907335 89.6092
18.304408781233683 90.2649
18.32696035875955 93.0446
18.349512652227624 96.9665
18.372065662579683 102.915
18.394795594587553 106.743
18.41735004715306 106.9
18.43990521943684 101.523
18.46246111238171 93.5283
18.485193953325208 83.3073
18.507751296070428 74.8796
18.530309362314178 69.7077
18.552868153000343 66.8228
18.57560391815056 65.3978
18.59816416623245 64.9999
18.620725141597372 64.2438
18.643286845190268 63.7591
18.666025549835414 63.2153
18.688588718427933 62.5925
18.711152618092243 62.5673
18.73389353884365 62.2683
18.75645890921984 61.8755
18.77902501351406 61.6072
18.801591852673102 61.4201
18.824335739722738 60.918
18.846904057212626 60.903
18.8694731124168 60.4656
18.89204290628315 60.5847
18.914789774966803 60.3882
18.937361054791623 60.2017
18.959933076131318 59.7462
18.982505839934877 59.6602
19.00525570560582 59.7356
19.027829963004184 59.4612
19.05040496572238 59.7738
19.072980714710468 60.263999999999996
19.095733592739563 60.8161
19.11831084296757 61.3414
19.140888842324735 61.6947
19.16346759176222 61.9295
19.18622349753803 62.06100000000001
19.208803755869358 62.7397
19.231384767143577 63.5333
19.253966532312948 64.6521
19.276725481241822 66.053
19.29930876296784 67.1619
19.3218928014549 69.1366
19.34465404436217 71.4444
19.36723960516257 74.3675
19.389825925592426 76.9004
19.412413006605938 77.5229
19.43517731967805 75.8996
19.457765930683355 72.4108
19.48035530514408 68.1658
19.50294544401556 63.4656
19.525712842708348 60.0403
19.54830451925909 58.2866
19.570896963095727 56.8679
19.593490175174704 56.538000000000004
19.616260674962184 56.4847
19.638855432416964 55.9894
19.661450960992624 56.1368
19.68404726164677 56.0755
19.706820878021247 55.7864
19.729418731756834 56.1496
19.752017360452857 55.9922
19.77461676506804 56.5364
19.797393513540218 57.1162
19.819994478951667 57.485
19.84259622316767 58.071999999999996
19.8651987471481 58.7009
19.887978643247177 58.6593
19.91058273574792 58.8292
19.933187610901943 59.3189
19.955969879466828 60.2933
19.97857632894404 61.4376
20.00118356396599 62.6923
20.023791585494575 64.0054
20.046577028914875 66.3214
20.069186632506966 68.5525
20.091797025500632 70.9909
20.114408208858933 72.5902
20.137196842715273 73.3824
20.159809615886765 72.9737
20.18242318232135 70.3894
20.20503754298326 67.7419
20.227829382875154 65.5825
20.250445341109344 64.1593
20.27306209647285 63.7687
20.29567964993108 64.7394
20.31847471147704 65.5475
20.34109387027612 66.7027
20.363713830075454 67.6632
20.386334591841646 67.313
20.409132890679302 65.1864
20.431755265564437 62.1693
20.454378445325528 59.0766
20.477002430930366 56.4221
20.499803982716553 54.7051
20.522429589228004 53.7113
20.54505600449589 52.9305
20.567683229489194 52.777
20.590488049900088 52.6003
20.61311690359731 52.4076
20.63574656993626 52.3956
20.658553853717297 51.8989
20.681185154618298 51.9827
20.703817271080066 51.7449
20.72645020407368 51.4674
20.749260783967177 51.2168
20.771895359337133 51.3251
20.794530754161617 51.4222
20.817166969412938 51.1927
20.83998086114876 51.1617
20.86261872660049 51.043
20.885257415405402 51.0957
20.90789692853701 51.0568
20.930714147864748 51.0
20.953355319030678 51.1129
20.97599731745334 51.2602
20.99864014410749 51.0336
21.021460706796564 51.1127
21.044105199328826 51.2661
21.06675052302631 51.3859
21.089396678865015 51.478
21.112220600704806 51.7407
21.134868430275347 51.9239
21.15751709492456 51.838
21.180166595629693 52.1489
21.202993892429635 52.6018
21.22564507473034 52.8321
21.24829709602816 53.3293
21.27112693608965 53.669
21.293780644891275 53.8547
21.316435195634053 53.5124
21.339090589297417 52.6452
21.361923832041875 52.1297
21.384580921090404 51.4591
21.407238856007325 50.9887
21.429897637773326 51.0062
21.45273429906592 50.9065
21.475394784108598 50.8489
21.498056118951983 50.7261
21.520718304578022 51.0375
21.543558400304388 51.4827
21.566222297108816 51.6559
21.58888704765135 52.1304
21.61155265291521 52.5985
21.63439619898156 53.1121
21.657063523335786 53.4064
21.67973170537063 53.742
21.7024007460706 53.9456
21.72524775840385 54.6586
21.747918526116475 55.5388
21.770590155457388 56.5255
21.79326264741238 57.4812
21.816113141960237 58.8399
21.838787368860547 60.2669
21.861462461341976 61.703
21.884315579735777 63.6706
21.90699241312273 65.342
21.92967011506078 66.8845
21.95234868653799 67.4878
21.9752053151131 66.9178
21.997885635446785 65.238
22.020566828293532 63.3258
22.04324889464272 60.6551
22.066109049404666 58.7626
22.088792872571794 57.8159
22.111477572219204 57.8751
22.1341631493376 57.9955
22.157026846313123 58.2098
22.179714188221507 58.1962
22.202402410582668 57.4223
22.22509151438863 55.8909
22.24795876962584 54.6523
22.270649646204486 53.3638
22.293341407213727 52.3083
22.316034053646906 51.7128
22.338904883215342 51.3635
22.36159931041458 51.1824
22.38429462602756 51.1794
22.40699083104897 50.8015
22.429865251039757 50.7788
22.452563244831367 50.6985
22.47526213102522 50.8131
22.49813925616515 50.8305
22.520839937143307 50.7863
22.543541513520587 50.7749
22.56624398629403 50.8464
22.589124730075895 50.9837
22.611829005656723 51.4582
22.63453418063466 51.563
22.657240256008077 51.8756
22.680124634582935 52.0774
22.70283252079775 52.3488
22.725541310413075 52.5264
22.74825100442868 52.5917
22.771139033969575 53.1242
22.79385054687155 53.0912
22.81656296718292 53.5303
22.83927629590484 54.0611
22.862167992606945 54.7773
22.88488314827121 55.541000000000004
22.907599215359284 56.3264
22.93031619487366 57.31399999999999
22.953211574954405 58.0712
22.975930389478226 59.3093
22.998650119445763 60.0569
23.02137076586092 59.8958
23.044269845560063 59.3751
23.06699233506288 57.9354
23.089715744034912 56.0103
23.112617610931565 54.1889
23.135342869061212 52.8269
23.158069049684816 51.876999999999995
23.1807961538087 51.4688
23.20370174880544 51.2217
23.226430710184808 51.5042
23.249160598093425 51.7635
23.271891413539002 51.7445
23.294800752937697 52.0352
23.31753343374794 52.2407
23.340267045128353 52.0777
23.36300158808808 52.468
23.38591468821339 52.713
23.408651104658304 52.7867
23.431388455719986 53.2964
23.454126742409 53.7549
23.4770436196085 54.3186
23.499783787914662 55.2276
23.522524894889884 55.8398
23.54526694154616 56.4209
23.56818761219047 57.7133
23.59093154860734 58.4956
23.613676427751283 59.6394
23.636422250635754 59.6332
23.659346731118656 58.856
23.68209445191868 57.0236
23.704843119509587 54.8948
23.72759273490623 52.8851
23.750521041644767 50.9791
23.77327256312355 49.6801
23.796025035462787 48.9811
23.818956224555475 48.3855
23.841710609113413 48.1668
23.86446594758979 47.9208
23.887222241002014 47.6779
23.910157285144578 47.2279
23.932915498962537 47.2839
23.955674670778713 47.1689
23.978434801611975 46.9944
24.001373717286125 46.7982
24.024135776723917 46.581
24.046898798245582 46.6265
24.06966278287146 46.4573
24.092605586582614 46.3375
24.115371508023642 46.0553
24.1381383956401 46.0612
24.16090625045381 45.9052
24.183852958731244 45.699
24.206622758582608 45.7731
24.229393528706886 45.5182
24.252165270127392 45.7564
24.27511589952438 45.6817
24.297889594216997 45.3618
24.32066426328598 45.2233
24.34343990775613 45.2896
24.36639447485003 45.211000000000006
24.38917208083877 45.0768
24.41195066531332 45.0763
24.43490819850244 45.0215
24.457688750692377 44.9183
24.48047028445616 44.7685
24.503252800821233 44.9682
24.526214300784112 44.9454
24.548998793132213 44.8232
24.57178427117417 44.9722
24.59457073593893 44.9275
24.617536219319863 44.8806
24.64032466834748 44.8523
24.663114107195035 44.8519
24.685904536893013 44.4379
24.708874020360852 44.3791
24.731666442613744 44.3534
24.754459858818787 44.2253
24.777254270007962 44.3509
24.80022777025625 44.2265
24.82302418230472 44.31100000000001
24.845821592443674 44.3114
24.86862000170663 44.2586
24.891597535453727 44.2668
24.914397953892728 44.4919
24.93719937456671 44.3166
24.96000179851076 44.4445
24.98298338249997 44.6055
25.00578782394922 44.9457
25.028593271784167 44.9629
25.05157790644186 45.1667
25.07438537804115 45.2939
25.097193859145293 45.5007
25.120003350792075 45.5161
25.142992065061257 45.9555
25.165803588823465 46.1968
25.18861612625217 46.4455
25.211429678386736 46.5539
25.234422489079968 46.6047
25.257238081693636 46.4659
25.280054692141732 46.5142
25.3028723214652 46.358999999999995
25.325869245420463 46.415
25.348688923599397 46.5485
25.371509623787006 46.742
25.394331347025812 46.7017
25.41733240110666 46.3144
25.440156181590016 45.7657
25.46298098826268 45.1759
25.48580682216873 44.68600000000001
25.50881202326435 43.9804
25.53163992281684 43.3983
25.55446885274561 43.1464
25.577298814096377 42.8564
25.600308179121807 42.7727
25.623140214533745 42.7908
25.64597328451537 42.6864
25.66898578564376 42.339
25.691820936010206 42.461999999999996
25.714657124097695 42.4446
25.737494350954734 42.5049
25.760511045684957 42.3194
25.783350361364224 42.3732
25.806190718969255 42.4932
25.82903211955018 42.5022
25.852053024868923 42.5152
25.874896522722523 42.4827
25.897741066713106 42.4609
25.920586657892454 42.6384
25.943611790812668 42.5604
25.966459487728237 42.7527
25.989308234998564 42.6204
26.01215803367705 42.9057
26.03518741123814 42.9724
26.05803932412957 43.0991
26.080892291600094 43.1215
26.10374631470478 43.3757
26.12677995397268 43.4504
26.14963609978026 43.6127
26.172493304397875 43.3489
26.19535156888223 43.2391
26.218389486949604 42.9158
26.241249882640123 42.601000000000006
26.26411134137826 42.4458
26.28715248187403 42.4026
26.31001607820869 42.1141
26.3328807407756 42.0045
26.35574647063438 42.1726
26.37879191991473 42.1452
26.401659795896734 42.0978
26.424528742360263 42.2005
26.447398760366614 42.4092
26.470448535598294 42.2982
26.49332070826805 42.5506
26.516193955675355 42.70399999999999
26.53906827888316 42.7841
26.562122397260108 42.9243
26.584998883685063 43.1327
26.607876449110325 43.4639
26.63075509460056 43.6738
26.65381357334404 43.8193
26.67669439061878 44.0045
26.699576291163382 43.9445
26.722459276044212 43.9673
26.745522132402975 43.751000000000005
26.768407297649354 43.5003
26.791293550442003 43.0626
26.814180891848974 42.6414
26.837248143099337 42.3477
26.860137673466657 42.2799
26.88302829566349 42.0013
26.90592001075963 41.8763
26.92899167420566 41.8516
26.951885586870763 41.4754
26.974780595655517 41.2091
26.99785558178161 41.2064
27.020752794605112 40.8348
27.043651106772522 40.5665
27.06655051935668 40.7285
27.089629948036183 40.5724
27.112531573292053 40.5392
27.135434302194138 40.6985
27.158338135817015 40.4587
27.181422024430987 40.3899
27.204328079372566 40.254
27.22723524226965 40.266
27.250143514198573 40.3727
27.273231880156334 40.4074
27.296142382065014 40.1536
27.319053996245536 40.1035
27.341966723775965 40.2653
27.365059584515222 40.2192
27.38797455070062 40.2307
27.410890633481237 40.1505
27.433807833936918 40.1712
27.456905206923906 40.2406
27.47982465472398 40.2092
27.502745223449743 40.2659
27.525666914182825 40.353
27.548768816912457 40.3869
27.571692763693633 40.2966
27.59461783573812 40.1066
27.617723149491244 40.1207
27.640650484125285 40.0496
27.66357894728264 40.0702
27.686508540048052 40.0496
27.709618414237887 39.9518
27.732550278321757 39.7772
27.755483275279115 39.7406
27.778417406196485 39.6592
27.801531858397514 39.7077
27.824468269376716 39.6904
27.847405817586786 39.5404
27.870344504116094 39.709
27.893463551932008 39.7749
27.916404527281053 39.948
27.93934664422563 39.9146
27.962289903855886 39.9808
27.98541356491974 40.2934
28.00835912214229 40.2608
28.03130582533231 40.3784
28.054253675581805 40.7501
28.077381967556104 40.7444
28.100332124185126 40.7541
28.123283431160893 40.6395
28.146235889577238 40.3955
28.169368830154156 40.31
28.192323603752033 40.1403
28.215279532083304 39.811
28.238415973016764 39.6647
28.261374223145094 39.4955
28.284333631303806 39.4104
28.307294198589954 39.2347
28.330435319167677 38.9579
28.353398217078915 38.6746
28.376362277420153 38.4154
28.39932750129032 38.2755
28.422473319286713 38.0357
28.44544088262495 38.0584
28.468409612800283 37.8659
28.491379510913497 37.616
28.51453004413313 37.6218
28.53750229057244 37.5764
28.56047570826344 37.4707
28.583450298308804 37.4956
28.606605564586562 37.3391
28.629582511831156 37.3191
28.65256063474956 37.2321
28.675539934446338 37.3787
28.698699951647605 37.1625
28.72168161743193 37.0623
28.74466446331978 37.1947
28.767648490417624 37.0108
28.790813276438353 36.9225
28.813799678527303 36.9009
28.836787265157085 36.9071
28.859955641890075 36.9387
28.882945610203045 36.9427
28.905936766392035 36.8706
28.928929111566863 36.7978
28.952102288520145 36.6841
28.975097024308607 36.7291
28.998092952423807 36.6985
29.021090073977508 36.5877
29.04426806913204 36.3675
29.067267590245258 36.393
29.090268308143695 36.293
29.11327022394099 36.0572
29.13645305530891 35.999
29.159457379627167 35.9619
29.18246290519685 35.8315
29.20546963313352 35.805
29.22865731875826 35.8004
29.25166646419296 35.809
29.27467681535305 35.6459
29.29768837335608 35.8678
29.320880931312562 35.7867
29.34389491580634 35.6818
29.366910110507334 35.5867
29.38992651653503 35.6555
29.41312396492981 35.6861
29.436142806456754 35.6219
29.45916286268059 35.5788
29.48236399319994 35.4663
29.50538649169417 35.3468
29.528410208259935 35.154
29.55143514402014 35.0348
29.574641196749695 34.939
29.597668583816574 34.8502
29.6206971934585 34.6154
29.64372702680042 34.6001
29.666938019934474 34.5499
29.689970313635285 34.3879
29.713003834422636 34.3654
29.73603858342347 34.4011
29.759254535188578 34.3962
29.78229175361658 34.3996
29.80533020365064 34.3134
29.82836988641968 34.3204
29.85159081507472 34.2621
29.874632976355343 34.2255
29.89767637376955 34.286
29.920721008448314 34.0308
29.9439469322847 33.9815
29.96699405457564 33.9693
29.9900424175358 34.0701
30.013092022298157 34.0773
30.03632295963995 33.8687
30.059375061131373 33.9456
30.08242840783577 33.8949
30.105483000888153 33.9715
30.128718970092244 33.9109
30.151776069006917 33.7568
30.17483441768648 33.9171
30.198074175317235 33.8558
30.221135036724256 33.8226
30.24419715131772 33.7999
30.267260520236203 33.749
30.290505341942243 33.7673
30.313571232750228 33.7885
30.336638381310948 33.7694
30.35970678876503 33.7282
30.38295669299435 33.5702
30.40602763151657 33.6493
30.429099832366074 33.5776
30.452173296685572 33.4946
30.47542830191959 33.5247
30.498504306502497 33.4968
30.521581577995562 33.6172
30.544660117543582 33.6169
30.56792024229725 33.5969
30.59100133132069 33.3856
30.614083691845494 33.4624
30.637167325018545 33.5249
30.660432587840603 33.5999
30.683518779717886 33.5742
30.70660624769615 33.7011
30.729694992924372 33.5671
30.75296541239743 33.6787
30.77605672557558 33.644
30.799149319462742 33.7208
30.8224236211637 33.4628
30.845518789950724 33.323
30.868615242910597 33.2741
30.891712981195973 33.0854
30.91499247215866 32.9766
30.938092794619365 33.0726
30.96119440587579 32.9503
30.984297307082752 32.8176
31.00758200598383 32.7042
31.030687500658694 32.711
31.053794288760695 32.6061
31.076902371446767 32.5355
31.100192296997445 32.5255
31.12330298246119 32.5446
31.14641496599209 32.3926
31.169528248749216 32.345
31.19282341969534 32.3721
31.215939314557186 32.3869
31.239056512134788 32.398
31.262175013589378 32.2994
31.28547544871168 32.2927
31.30859657161541 32.1697
31.331719001892175 32.2145
31.35484274070538 32.2729
31.378148458819545 32.2466
31.401274828443725 32.2104
31.424402510106933 32.2465
31.447712205419993 32.2756
31.470842524931633 32.0575
31.493974159989783 32.1507
31.51710711176168 32.1198
31.54042212308802 32.2547
31.563557722100917 32.2429
31.586694641341655 32.0413
31.609832881979628 31.9721
31.63315322823208 31.9488
31.656294125521327 31.7539
31.679436347728515 31.6117
31.70257989602529 31.5128
31.725905596152327 31.559
31.74905181052835 31.451
31.772199354521323 31.5407
31.79534822930507 31.4967
31.818679302290967 31.4564
31.84183085259981 31.4571
31.864983737233473 31.3978
31.88813795736804 31.4606
31.911474422233013 31.3866
31.934631327356435 31.441
31.9577895715215 31.4668
31.980949155906522 31.4478
32.004291031706956 31.4576
32.027453310562606 31.2881
32.05061693318573 31.0959
32.07396288236386 31.1282
32.09712920658542 31.0425
32.12029687812702 30.9465
32.14346589817093 30.9132
32.166817291729984 30.8729
32.18998902288583 30.8228
32.21316210610336 30.7561
32.23633654256711 30.6459
32.259693399663725 30.5429
32.282870556771144 30.4682
32.30604907069099 30.4765
32.329228942610065 30.4977
32.35259128243769 30.2442
32.375773884550505 30.2442
32.398957848235646 30.1636
32.422143174682176 30.1917
32.445511016471215 30.1067
32.468699082679954 30.0641
32.49188851523011 30.0139
32.51507931531304 29.969
32.538452678331 29.9623
32.56164622776311 29.8124
32.58484114831493 29.7677
32.60803744118015 29.9013
32.631416344731896 29.7673
32.654615396551876 29.6379
32.67781582427913 29.7321
32.701198898634416 29.6055
32.72440209253756 29.4581
32.747606665947124 29.504
32.77081262006088 29.4578
32.79420126883317 29.4623
32.81740999876112 29.4656
32.840620112999424 29.3062
32.86383161274818 29.2509
32.88722585534586 29.355999999999998
32.91044014056596 29.3659
32.933655814909734 29.2336
32.95687287957963 29.2172
32.98027273544904 29.1171
33.00349259526636 29.0861
33.026713849030116 29.1311
33.04993649794511 29.0768
33.073341986570746 29.0252
33.09656744032826 29.0011
33.11979429286444 29.0611
33.14302254538647 29.0053
33.166433686291185 28.9852
33.18966475336992 28.9445
33.212897224069096 28.897
33.23613109959831 28.8049
33.259547912343415 28.7852
33.2827846121627 28.8372
33.306022720453775 28.7221
33.32926223842861 28.5836
33.352684742614166 28.6945
33.37592709463173 28.6905
33.399170859982064 28.5927
33.422597648419426 28.4887
33.44584425514446 28.2786
33.46909227885668 28.3379
33.4923417207723 28.1707
33.51577423505344 28.256999999999998
33.539026528130385 28.1378
33.56228024307245 28.1575
33.585535381098246 27.9678
33.60897364093058 28.0054
33.63223163992385 28.0672
33.6554910656699 27.916
33.678751919389796 27.8629
33.702195944520106 27.8457
33.72545966903325 27.8286
33.74872482519663 27.6859
33.771991414233746 27.6851
33.79544122444841 27.6962
33.81871069412428 27.572
33.84198160035767 27.5536
33.86525394437455 27.5614
33.88870955949969 27.4949
33.911984794020626 27.5114
33.93526147001624 27.4147
33.958539588715006 27.3517
33.98200102861669 27.3226
34.0052820477047 27.2447
34.02856451319451 27.2845
34.05203033759056 27.1691
34.07531571090147 27.1124
34.09860253431845 27.1902
34.121890809074316 27.0742
34.145362493118924 26.9748
34.16865368561615 26.9545
34.191946333164054 26.8732
34.21524043699793 26.8492
34.23871800066799 26.8969
34.26201503218366 26.7046
34.28531352370466 26.7217
34.30861347646881 26.7454
34.33209693978188 26.7067
34.3553998301885 26.6329
34.378704185565205 26.6028
34.402010007152356 26.5102
34.42549939016683 26.5221
34.44880815937748 26.4804
34.472118398533134 26.4048
34.49543010887669 26.3582
34.51892543169198 26.233
34.54224009966052 26.3062
34.56555624255917 26.289
34.58887386163339 26.2044
34.61237514439016 26.174
34.6356957311114 26.1565
34.65901779775809 25.9907
34.68252356662995 25.983
34.705848608458616 26.043000000000003
34.72917513396849 25.9761
34.75250314440949 25.9687
34.77601490857862 25.8601
34.799345904259795 25.8273
34.82267838863559 25.8567
34.846012362958525 25.698
34.869530142679984 25.7215
34.89286711232212 25.6533
34.91620557568269 25.6998
34.93954553401677 25.704
34.9630693495876 25.5788
34.986412313340814 25.5754
35.00975677584668 25.5816
35.033102738362956 25.5086
35.05663261012228 25.4409
35.0799815881786 25.4575
35.10333207003229 25.3581
35.12668405694369 25.361
35.150220005273056 25.3611
35.17357501786656 25.363000000000003
35.19693153931268 25.3353
35.220289570874385 25.2481
35.24383161619786 25.2224
35.267192683604904 25.2653
35.290555264930376 25.1565
35.314101899412165 25.0993
35.33746752422433 25.0653
35.36083466676374 25.0601
35.38420332829803 24.9751
35.407756095629054 24.993000000000002
35.43112781085063 25.0123
35.45450104888391 24.9538
35.477875810999194 24.9781
35.50143473172161 24.9084
35.52481255774625 24.9559
35.54819191167777 24.8567
35.57157279478914 24.7897
35.595137889488406 24.8173
35.61852184675279 24.7463
35.641907337029984 24.6638
35.665294361595684 24.7382
35.68886565090076 24.6145
35.7122557598848 24.5714
35.73564740699838 24.5448
35.759040593519934 24.5055
35.78261809810353 24.5631
35.80601437933051 24.3397
35.829412203814705 24.3138
35.85281157283719 24.2697
35.876395313415884 24.3739
35.8997977874528 24.2824
35.92320180988546 24.1995
35.946790244133936 24.2236
35.97019737933222 24.0903
35.993606066789866 24.0445
36.01701630779276 24.0407
36.04061101440684 24.0123
36.06402437852291 23.9697
36.08743930005611 23.9981
36.1108557802951 23.8465
36.13445678011326 23.9034
36.15787639383515 23.8692
36.18129757014299 23.8098
36.20472031032821 23.8101
36.22832762423364 23.802
36.25175350829375 23.6851
36.275180960119776 23.5732
36.298609981005924 23.6848
36.32222362992669 23.6612
36.34565580510207 23.642
36.36908955323448 23.6169
36.39252487562093 23.3715
36.416144880530226 23.4018
36.43958336764275 23.4391
36.463023432914625 23.4609
36.486465077645676 23.316
36.51009145956204 23.3994
36.53353627947859 23.3455
36.55698268276811 23.3211
36.58043067073321 23.2619
36.60406345072071 23.241
36.62751462435344 23.1679
36.65096738658405 23.1754
36.67460498210655 23.1276
36.69806093788647 23.079
36.72151848619297 23.0568
36.744977628333636 23.0433
36.76862165890998 22.888
36.79208400512205 22.976999999999997
36.81554794910557 22.8737
36.83901349217101 22.837
36.862663978991606 22.7944
36.88613273667352 22.7495
36.90960309738324 22.7899
36.933075062434064 22.7196
36.95673202673572 22.7176
36.98020721697122 22.6091
37.003684015502365 22.612
37.027162423645365 22.5473
37.050825886711465 22.5427
37.07430753063053 22.4151
37.09779078812467 22.3989
37.121275660513014 22.4094
37.144945643673694 22.3881
37.16843376245278 22.2837
37.19192350009803 22.3601
37.215414857931435 22.3245
37.239091382563885 22.1798
37.262585997426164 22.1721
37.28608223645736 22.1774
37.309763684451696 22.1706
37.33326318851098 22.0801
37.356764320726555 22.0721
37.380267082425526 22.0793
37.40395510942588 22.0584
37.42746114683234 21.9856
37.45096881771841 21.9298
37.474478123414166 21.9609
37.49817275092816 21.8617
37.52168534303452 21.8956
37.54519957395567 21.7402
37.568715445024665 21.8206
37.592416694607714 21.6637
37.61593586281424 21.6424
37.63945667518264 21.6979
37.66297913304891 21.6217
37.68668702630454 21.631999999999998
37.710212792059274 21.4884
37.733740207334854 21.5076
37.757269273470364 21.4731
37.780983832050374 21.4314
37.80451621684926 21.4819
37.82805025654007 21.4513
37.851585952464795 21.3724
37.8753071980695 21.3451
37.89884622345676 21.2957
37.92238690911902 21.2526
37.94611318753442 21.1846
37.969657210779765 21.211
37.99320289834801 21.2256
38.016750251586465 21.1503
38.04048325513017 21.1287
38.06403395679343 21.0005
38.087586328183946 20.9231
38.11114037065203 21.0051
38.13488012115898 20.9685
38.1584375229181 20.9333
38.181996599821 20.7971
38.205557353221124 20.8296
38.229303872575656 20.761
38.2528679961576 20.7382
38.27643380031219 20.7122
38.30000128639589 20.7171
38.32375459653193 20.6937
38.34732546371299 20.6181
38.37089801690786 20.5506
38.39447225747609 20.5253
38.418232380377425 20.574
38.441810012983396 20.5822
38.46538933705673 20.5163
38.488970353960084 20.5266
38.51273731166058 20.3807
38.536321731567014 20.3422
38.55990784840681 20.3157
38.58367995004091 20.2634
38.60726947812959 20.2541
38.63086070726198 20.2979
38.654453638806274 20.2637
38.678232613930824 20.2007
38.70182896773327 20.1774
38.72542702806741 20.1017
38.7490267963045 20.0561
38.77281266709232 19.9943
38.79641586862214 20.0338
38.8200207821842 19.9864
38.843627409152944 19.9879
38.86742019782782 19.9363
38.891030269149255 19.9196
38.914642058016156 19.8731
38.938255565806124 19.8525
38.96205529464307 19.8121
38.98567225787121 19.7634
39.00929094417078 19.7564
39.03291135492255 19.79
39.05671804624804 19.6772
39.080341923549106 19.6384
39.103967529460334 19.6022
39.127594865365744 19.5367
39.15140854155791 19.5426
39.17503935514948 19.5342
39.19867190290282 19.4956
39.22249083587951 19.4656
39.24612686969409 19.4432
39.269764641845306 19.3811
39.293404153722804 19.3882
39.317230110864074 19.3064
39.34087311998506 19.3167
39.36451787301696 19.2716
39.388164371352595 19.2201
39.41199737518003 19.2042
39.43564738196752 19.1502
39.45929913825317 19.1315
39.48295264543308 19.1111
39.506792718520884 19.0865
39.530449745387216 19.0319
39.55410852735203 19.0375
39.57776906581474 19.0375
39.60161623079 18.9655
39.625280300200025 18.9395
39.64894613032202 18.8557
39.67261372255866 18.8726
39.6964680021016 18.817
39.72013913657293 18.8646
39.74381203738292 18.7664
39.76748670593756 18.803
39.79134812278169 18.8043
39.81502634488497 18.7231
39.83870633896685 18.7177
39.862388106436654 18.6195
39.88625668336918 18.5864
39.90994201572829 18.5769
39.933629125719285 18.5135
39.957503091207826 18.5289
39.9811937746168 18.5169
40.00488623990914 18.4554
40.02858048850006 18.3795
40.05246165409549 18.3461
40.076159487492085 18.332
40.099859108448875 18.3461
40.123560518384345 18.2938
40.1474489070226 18.3132
40.171153913178564 18.2892
40.194860712584955 18.2023
40.2185693066637 18.2249
40.242464941335314 18.1446
40.26617714307655 18.1369
40.289891143772046 18.139
40.3136069448471 18.0591
40.33750984859743 18.0055
40.3612292688043 17.9687
40.3849504936829 18.0251
40.40867352466194 18.0065
40.43258372059144 17.961
40.45631038219906 17.9218
40.48003885420956 17.8814
40.503769138055105 17.8416
40.52768664931955 17.8896
40.55142057531802 17.7894
40.57515631746428 17.7576
40.599079334038514 17.7812
40.62281872700477 17.6699
40.64655994043941 17.6401
40.67030297578061 17.6613
40.69423334835778 17.6143
40.71798004609188 17.6485
40.74172857006355 17.5845
40.76547892171441 17.5665
40.7894166736039 17.5264
40.813170699248566 17.49
40.83692655691388 17.4746
40.86068424804498 17.4334
40.884629402612525 17.3992
40.908390779366385 17.416
40.932153993938 17.3581
40.95591904777605 17.3452
40.979871628443995 17.3499
41.003640379561936 17.3137
41.02741097430883 17.3319
41.05118341413683 17.2795
41.075143444384416 17.195999999999998
41.098919593177826 17.213
41.1226975914255 17.1754
41.14647744058318 17.0699
41.170444943946755 17.095
41.19422851378379 17.0542
41.218013938914645 17.0022
41.24198706625173 16.9517
41.26577622087193 16.9347
41.289567235177785 16.9054
41.31336011063129 16.8668
41.337340752422875 16.9237
41.361137369129835 16.8728
41.38493585138705 16.7782
41.40873620066004 16.7711
41.43272438060107 16.7938
41.45652848292052 16.7486
41.48033445666918 16.6947
41.50414230331616 16.6713
41.528138045159764 16.6725
41.551949656675205 16.5615
41.575763145513235 16.5526
41.59957851314666 16.5727
41.62358184070442 16.5545
41.64740098505737 16.5061
41.6712220126409 16.4025
41.69504492493139 16.4169
41.71905586207357 16.4166
41.74288256296395 16.3549
41.766711153007456 16.3417
41.79054163368412 16.3156
41.814560204340054 16.3198
41.838394485526365 16.2919
41.86223066180303 16.2989
41.88625497706819 16.2518
41.910094962812 16.2298
41.93393684811168 16.1947
41.95778063445365 16.1027
41.981812625263366 16.1063
42.00566023303407 16.1026
42.029509746323676 16.0688
42.05336116662236 16.1259
42.077400857069705 16.0082
42.10125611078846 16.0196
42.12511327600405 15.9494
42.14897235421036 15.8624
42.173019768448455 15.9266
42.19688269209613 15.8811
42.22074753323349 15.8762
42.24461429335818 15.8326
42.268669455600495 15.8044
42.292540073217886 15.8343
42.31641261433284 15.7934
42.34028708044675 15.7281
42.36435001496739 15.6662
42.38822835065557 15.6646
42.41210861586426 15.6141
42.4359908120986 15.6585
42.46006154323262 15.5722
42.48394762115317 15.5067
42.507835634632315 15.573
42.531912233047436 15.5354
42.55580413732265 15.5238
42.579697981698 15.4634
42.60359376768525 15.4399
42.62767820545945 15.4133
42.65157789440821 15.4335
42.67547952952185 15.3894
42.699383112316 15.3508
42.72347541395347 15.265
42.74738291190531 15.2952
42.771292362102166 15.2665
42.795203766063516 15.2202
42.819303956130405 15.2297
42.843219287476536 15.1459
42.86713657716324 15.1061
42.89105582671383 15.1216
42.91516392983864 15.1581
42.939087119032166 15.0807
42.963012272677304 15.0985
42.98693939230129 15.0395
43.01105543317513 14.9791
43.034986504731386 14.9438
43.05891954686589 14.9681
43.08285456110972 14.9593
43.10697856448665 14.8897
43.130917542983475 14.8347
43.15485849820081 14.8413
43.17880143167367 14.7903
43.20293342237094 14.7688
43.226880332449 14.7593
43.25082922540554 14.7369
43.27496722682525 14.7354
43.29892010567796 14.6767
43.32287497204102 14.6428
43.34683182745632 14.5754
43.370977859791836 14.6206
43.39493871351105 14.6054
43.41890156092628 14.5553
43.44286640358341 14.5505
43.46702049182749 14.5314
43.49098934522816 14.4425
43.51496019852649 14.458
43.5389330532723 14.44
43.56309522248204 14.4471
43.58707210044314 14.3658
43.61105098451946 14.362
43.63503187626491 14.3325
43.659202151562134 14.2705
43.68318707902681 14.2773
43.70717401884041 14.2522
43.731162972560874 14.249
43.75534137913236 14.1924
43.779334381108384 14.1797
43.803329401683186 14.1419
43.82732644241872 14.1172
43.8515130055166 14.0691
43.87551410707659 14.0757
43.89951723350145 14.0615
43.923709934595614 14.0436
43.94771713129917 14.0268
43.97172635758096 14.020999999999999
43.99573761501002 14.0215
44.0199385169922 13.9461
44.04395385732619 13.8953
44.067971233533086 13.8925
44.09199064718605 13.8564
44.11619977548961 13.8411
44.14022328470671 13.7797
44.16424883610785 13.814
44.18827643127035 13.8072
44.21249381139513 13.7558
44.236525514814076 13.6513
44.26055926674478 13.687000000000001
44.28459506876863 13.686
44.3088207262813 13.6467
44.33286064928722 13.614
44.35690262714919 13.6001
44.38094666145278 13.5782
44.4051806219871 13.5603
44.42922879003185 13.5438
44.45327901929361 13.5017
44.477331311362136 13.5058
44.501573600619416 13.4672
44.525630039221795 13.4528
44.54968854541895 13.4779
44.573937102200176 13.4342
44.5979997645541 13.3923
44.622064499300315 13.3677
44.64613130803592 13.2982
44.67038823869318 13.2967
44.69445921643748 13.2781
44.718532272981385 13.2286
44.742607409926194 13.2
44.76687274034801 13.1997
44.79095205918753 13.1834
44.81503346325094 13.1501
44.839116954143876 13.1197
44.86339071028742 13.1232
44.88747839599524 13.0779
44.91156817336837 13.037
44.93566004401666 13.0322
44.959942251908146 12.9943
44.984038330325966 12.9818
45.00813650686762 12.9452
45.03223678314731 12.9409
45.05652746888232 12.909
45.08063196592069 12.8664
45.104738567558705 12.8166
45.128847275414856 12.7926
45.15314646515866 12.75
45.17725940679741 12.7952
45.20137445952892 12.7923
45.22568004865265 12.7591
45.24979934496396 12.7348
45.27392075725247 12.6767
45.29804428714431 12.679
45.322358426247604 12.6729
45.346486212804315 12.689
45.370616121861914 12.6512
45.39474815505086 12.6393
45.41907087049246 12.5592
45.4432071734666 12.5606
45.46734560548283 12.5329
45.49148616817604 12.5482
45.51581748638564 12.4552
45.5399623320197 12.4889
45.56410931325473 12.436
45.58825843173002 12.4366
45.61259837920865 12.4178
45.636751793816 12.3792
45.66090735060093 12.3429
45.68506505120716 12.3396
45.7094136545275 12.3189
45.73357566449271 12.2438
45.75773982322992 12.2566
45.78190613238733 12.2646
45.806263418194064 12.1853
45.83043404997326 12.231
45.85460683713677 12.1695
45.87897065658495 12.1829
45.90314777634752 12.1224
45.92732705646868 12.1132
45.9515084986045 12.0818
45.97588104735473 12.0524
46.00006683541565 12.0395
46.02425479047904 12.0111
46.04844491420549 12.0223
46.0728262191024 11.9885
46.09702070211635 11.9829
46.12121735879483 11.9489
46.14541619080294 11.9185
46.169806278764455 11.8844
46.194009483459034 11.8759
46.21821486849841 11.8362
46.24242243555223 11.8289
46.266821333570014 11.8035
46.29103328674601 11.7624
46.31524742696538 11.8044
46.33946375590237 11.7267
46.36387149104216 11.7172
46.38809221957392 11.6924
46.41231514186606 11.6972
46.436540259597464 11.697000000000001
46.460956858999374 11.6617
46.48518638983522 11.6217
46.509418121166966 11.5982
46.533652054678114 11.5518
46.55807754555709 11.5452
46.58231590571962 11.5588
46.60655647313217 11.5336
46.630988654873654 11.4665
46.655233659129024 11.457
46.67948087571551 11.4196
46.70373030632484 11.3947
46.72817142736393 11.4409
46.752425308428684 11.3975
46.77668140861147 11.3654
46.80093972960865 11.3048
46.82538981736788 11.2745
46.849652602470904 11.294
46.87391761349769 11.2825
46.8981848521493 11.3052
46.9226439341274 11.2504
46.946915650573224 11.2021
46.97118959976749 11.2136
46.99546578341598 11.1368
47.019933887188216 11.1525
47.04421456235744 11.1368
47.06849747711879 11.1355
47.09278263318286 11.0519
47.11725978640143 11.0259
47.14154944775105 11.0279
47.165841355555656 11.0194
47.1901355115306 11.0136
47.214621741924994 10.9875
47.23892041698887 10.9377
47.26322134538975 10.9009
47.28771440635075 10.9074
47.31201986422527 10.8913
47.33632758061436 10.912
47.360637557241866 10.8312
47.38513974410611 10.8363
47.40945426407847 10.8037
47.43377104948137 10.8143
47.45809010204344 10.7817
47.48260144275502 10.7975
47.506925052572285 10.7562
47.53125093475548 10.7374
47.55557909103813 10.6957
47.58009961361992 10.6645
47.60443234110732 10.6391
47.62876734791564 10.6575
47.65310463578333 10.6029
47.6776343683373 10.5766
47.7019762413987 10.5603
47.72632040075572 10.5481
47.75066684815169 10.5788
47.77520581885936 10.5063
47.799556865477655 10.4867
47.823910205386 10.4985
47.84826584033272 10.5163
47.87281407745551 10.4395
47.89717432569297 10.4674
47.92153687423484 10.3963
47.94609208429692 10.3605
47.97045925671401 10.3652
47.99482873471275 10.3709
48.01920052005013 10.3446
48.04376504619224 10.3121
48.068141469543484 10.3273
48.09252020552573 10.3021
48.11690125590099 10.2217
48.1414751266064 10.2456
48.16586082917454 10.2372
48.19024885144316 10.229
48.2146391951793 10.2229
48.239222439012764 10.2308
48.26361744916137 10.2093
48.28801478610016 10.1596
48.31241445160131 10.1311
48.337007097209366 10.0682
48.36141144338331 10.0633
48.38581812345755 10.0575
48.41022713920929 10.072000000000001
48.434829215320704 10.0328
48.45924292604658 10.0402
48.48365897780325 10.0041
48.50807737237308 9.98683
48.532688907799276 9.96825
48.55711201168574 9.88348
48.581537463754074 9.88852
48.60615611725119 9.92801
48.63058628942721 9.93672
48.65501881516546 9.91356
48.6794536962573 9.82843
48.70408185970339 9.81046
48.72852147531801 9.755460000000001
48.75296345168211 9.77891
48.77740779059232 9.799760000000001
48.80204549302823 9.81418
48.82649458091802 9.738439999999999
48.85094603676547 9.70234
48.87539986237231 9.66349
48.90004713292306 9.68016
48.92450572200832 9.647310000000001
48.94896668628025 9.64374
48.97343002754588 9.59563
48.99808689542115 9.61171
49.02255501470614 9.630469999999999
49.04702551642794 9.562289999999999
49.0714984023988 9.563189999999999
49.096164896893235 9.55715
49.120642575466796 9.55178
49.145122643748394 9.494060000000001
49.16960510355558 9.48129
49.19428125404938 9.459010000000001
49.2187685210852 9.48347
49.243258185121555 9.43562
49.26794160167084 9.414660000000001
49.2924360839405 9.3973
49.31693296869764 9.36255
49.34143225776915 9.36848
49.36612538195438 9.32103
49.39062950396021 9.33944
49.41513603578346 9.303930000000001
49.4396449792564 9.2572
49.46434784069503 9.2602
49.488861631846454 9.246189999999999
49.513377840166804 9.26131
49.537896467493745 9.24559
49.56260909589029 9.16226
49.587132585683285 9.17268
49.611658500018365 9.13622
49.636186840738596 9.133189999999999
49.66090926588511 9.13641
49.685442483902584 9.11503
49.70997813385706 9.099839999999999
49.734516217597076 9.07324
49.75924846937352 9.0977
49.7837914452858 9.049710000000001
49.80833686055187 9.01027
49.83288471702571 8.97381
49.85762682540054 9.022110000000001
49.882179588965734 8.95168
49.9067347993235 8.899280000000001
49.93129245833333 8.93365
49.95604445336378 8.93105
49.98060703442832 8.87818
50.005172069746266 8.877310000000001
50.02993150438364 8.86743
50.05450147301533 8.856119999999999
50.07907390151433 8.83225
50.10364879174981 8.80028
50.12841816587289 8.77489
50.1529980044635 8.7942
50.17758031042124 8.77401
50.20216508562089 8.72855
50.22694442953363 8.714939999999999
50.25153416817468 8.74117
50.27612638170508 8.69824
50.300721072005196 8.68192
50.325510416102105 8.65217
50.350110084975064 8.63437
50.37471223628208 8.61759
50.39931687190919 8.6288
50.424116246675766 8.611130000000001
50.44872587605249 8.60389
50.47333799543065 8.570730000000001
50.49795260670191 8.556189999999999
50.52276204271512 8.49807
50.54738166295838 8.47103
50.57200378079314 8.50455
50.596628398116835 8.46774
50.62144792604559 8.47153
50.646077567609396 8.47063
50.670709714377715 8.44329
50.69553683636198 8.40652
50.72017401885922 8.39301
50.7448137122895 8.371210000000001
50.76945591856022 8.37018
50.79429318636823 8.32735
50.818940443716784 8.35187
50.84359021965163 8.31208
50.868242516085964 8.32174
50.893089960641895 8.292710000000001
50.917747323549435 8.26628
50.94240721271973 8.22959
50.96706963007175 8.1874
50.99192728239342 8.22338
51.01659478166073 8.21288
51.04126481489051 8.17544
51.06593738400761 8.18004
51.090805275207074 8.17953
51.11548294172845 8.1339
51.14016314993547 8.11694
51.164845901758845 8.0853
51.18972406304274 8.073189999999999
51.21441192780656 8.04681
51.23910234200271 8.06434
51.2637953075678 8.02854
51.288683770237945 8.00029
51.31338186432707 7.98635
51.33808251561888 7.983169999999999
51.362978729967345 7.98315
51.387684521509755 7.965039999999999
51.41239287610203 7.94901
51.437103795691165 7.89076
51.46201036644977 7.92581
51.486726441956634 7.897189999999999
51.51144508832545 7.87719
51.536166307509156 7.85583
51.56108326624387 7.84165
51.58580965706056 7.8345899999999995
51.61053862657523 7.785360000000001
51.635270176746864 7.76173
51.66019755512065 7.78251
51.68493429268881 7.76735
51.70967361681515 7.74735
51.73441552946465 7.770160000000001
51.759353359237934 7.702189999999999
51.7841004750961 7.6982
51.80885018539685 7.684069999999999
51.833602492111254 7.64721
51.8585508051424 7.65009
51.883308330926425 7.630319999999999
51.90806845906181 7.602460000000001
51.932831191525715 7.55218
51.95779001977161 7.5495399999999995
51.98255798721516 7.55266
52.00732856494335 7.548310000000001
52.03229530577543 7.532360000000001
52.057071130455945 7.51191
52.081849571391054 7.54087
52.106630630568695 7.52855
52.13160794279417 7.46144
52.15639426492067 7.48911
52.18118321127822 7.467639999999999
52.205974783860896 7.40649
52.23096269971011 7.439260000000001
52.255759551287994 7.4267
52.280559035098186 7.393439999999999
52.30536115314103 7.383769999999999
52.33035970494467 7.35342
52.35516711807904 7.341060000000001
52.37997717147198 7.32298
52.40478986713005 7.32874
52.42979908731974 7.32748
52.454617094216 7.2754199999999996
52.47943774942214 7.28512
52.50426105495102 7.26147
52.529280976059844 7.22772
52.554109609024096 7.1995
52.57894089837482 7.244610000000001
52.60377484613117 7.180739999999999
52.62880550079408 7.18093
52.65364479223379 7.1657
52.67848674816189 7.112010000000001
52.70352547971946 7.12533
52.72837279155837 7.105630000000001
52.753222773982785 7.07873
52.778075429022984 7.0679300000000005
52.80312495150885 7.114789999999999
52.827982978797436 7.06993
52.85284368481815 7.0279300000000005
52.87770707160767 7.0204
52.90276741793998 7.01527
52.92763619336701 6.986910000000001
52.952507655698504 6.93265
52.977381806977576 6.977869999999999
53.00245301017842 6.94652
53.02733256653592 6.90798
53.052214817996074 6.94485
53.077099766608484 6.8896
53.102181859804446 6.8653699999999995
53.127072229988265 6.9016
53.15196530349892 6.86487
53.17686108239249 6.8452399999999995
53.20195409881522 6.84697
53.22685531582556 6.8548
53.25175924441303 6.8081
53.27666588664027 6.7982
53.30176985962693 6.80174
53.3266819565689 6.7656
53.35159677336455 6.7519
53.376514312083096 6.758030000000001
53.40162927507703 6.7344100000000005
53.42655228516116 6.68048
53.45147802340193 6.68602
53.47660125628886 6.653410000000001
53.50153247842639 6.67811
53.52646643496923 6.672389999999999
53.55140312799818 6.6401
53.576537409691696 6.62338
53.60147960336152 6.609610000000001
53.626424539786164 6.56474
53.65137222105307 6.558510000000001
53.67651758529126 6.53496
53.70147078399681 6.552309999999999
53.72642673383343 6.521730000000001
53.75138543689533 6.52731
53.776541917524526 6.46518
53.801506154876755 6.46185
53.826473151763246 6.46208
53.851442910284916 6.46419
53.87661054126026 6.4031
53.9015858509782 6.40433
53.92656392866066 6.42327
53.95154477641532 6.39622
53.976723591801296 6.377190000000001
54.00171000771266 6.37493
54.02669920004598 6.37057
54.051691170915745 6.32837
54.076881204886796 6.30464
54.101878760928514 6.30366
54.12687910187696 6.29536
54.152077577768296 6.3358300000000005
54.1770835166946 6.2792900000000005
54.20209224691339 6.26659
54.22710377055121 6.2455300000000005
54.25231352511594 6.2292
54.27733066384342 6.154059999999999
54.30235060239643 6.197780000000001
54.32737334290836 6.18213
54.35259441062629 6.10089
54.377622783395324 6.13638
54.40265396455061 6.09808
54.42768795623251 6.1136
54.45292037169559 6.1094800000000005
54.477960012857906 6.06989
54.50300247099511 6.033919999999999
54.52804774825457 5.9981599999999995
54.55329154616743 5.98656
54.57834249018678 5.9713400000000005
54.6033962597977 5.92915
54.6284528571545 5.89924
54.653708072335164 5.9101099999999995
54.67877035378786 5.88094
54.70383546947698 5.86485
54.72890342156389 5.8699
54.7541700889442 5.82832
54.77924374251975 5.85303
54.8043202390049 5.7888
54.82959552413022 5.76823
54.8546777351945 5.73316
54.87976279569621 5.66434
54.90485070780914 5.7389
54.930137506558005 5.65639
54.95523115074295 5.699319999999999
54.98032765308844 5.62403
55.005427015775496 5.64058
55.03072536339621 5.63295
55.05583047570572 5.61676
55.080938454927676 5.55659
55.10604930325027 5.52796
55.131359235107396 5.52871
55.15647585066083 5.46264
55.181595341907496 5.46823
55.20671771104285 5.4173800000000005
55.232039262617704 5.40602
55.25716741665048 5.4176
55.28229845518636 5.38323
55.30743238042802 5.2763599999999995
55.33276558731939 5.28581
55.357905315183636 5.29554
55.383047936390035 5.30158
55.40819345314859 5.23767
55.433538351073295 5.2426900000000005
55.458689688238415 5.1847199999999996
55.483843927614096 5.1639800000000005
55.509197623043605 5.16489
55.53435769621134 5.10422
55.55952067826466 5.062
55.5846865714265 5.07306
55.61005202069737 5.02915
55.63522376553902 5.08818
55.66039842818645 5.0286800000000005
55.68557601087004 5.00577
55.7109532500271 4.937069999999999
55.73613670233794 4.9886800000000004
