TT I
1.2716486653135266 7.182119999999999
1.2939594142134223 6.657439999999999
1.3162702121660406 6.44645
1.3385810600174564 6.575080000000001
1.3608919586137629 6.58568
1.383202908801069 6.26598
1.405513911425503 6.01375
1.4278249673332093 6.02393
1.4501343378461518 5.84417
1.4724455028545926 5.682180000000001
1.4947567236847858 5.59309
1.517068001182951 5.90422
1.5393793361953272 5.212269999999999
1.5616907295681737 5.410069999999999
1.5840021821477681 5.37745
1.60631369478041 4.3769800000000005
1.6286252683124185 5.27175
1.6509369035901333 4.17575
1.6732468618895553 4.93374
1.695558623192809 5.037640000000001
1.7178704487808514 5.41078
1.7401823395001077 4.80428
1.7625012545597203 4.56758
1.7848028405262486 4.727530000000001
1.8071218901122095 4.9968
1.8294236121921872 4.77951
1.8517427996910911 4.72759
1.8740620574440425 4.19928
1.8963639900671978 4.6792300000000004
1.9186833908139995 4.52208
1.9409854680117449 4.7523599999999995
1.9633050151394713 4.99949
1.9856246367570705 4.48266
2.0079269371922672 4.8074
2.03024671027244 3.9043
2.0525491637446027 4.15071
2.074869091674931 3.91609
2.097171701569106 4.29422
2.1194917877373847 5.06928
2.141811954326636 5.1054699999999995
2.164114805233074 4.86333
2.186435135143035 4.843780000000001
2.208738150935709 8.18423
2.231058647554722 13.0218
2.2533792288321184 9.81289
2.275682498336085 6.7634300000000005
2.298003251406138 5.55783
2.3203066942619714 5.803719999999999
2.3426276225136022 6.05173
2.3649486396617507 5.59467
2.387252348930071 5.74735
2.4095735463442893 5.95014
2.4318774374315884 6.984369999999999
2.4541988185014043 5.77018
2.476502894794693 6.78532
2.498824462909887 6.77137
2.521146125856138 7.84828
2.5434504863470337 7.8255300000000005
2.5657723414244717 7.795030000000001
2.588076895590662 8.21643
2.610398946189713 8.51868
2.6327210958598384 8.333639999999999
2.6550259469304716 8.47893
2.6773482972090137 8.105319999999999
2.6996533504259 8.35702
2.7219759047039602 9.15601
2.744298562293959 8.88746
2.7666039251246595 8.02403
2.7889267918020164 8.30375
2.8112323652516555 8.045819999999999
2.833555444408179 8.713339999999999
2.8558786311183852 8.60993
2.8781845268938557 8.98747
2.9005079311721484 9.36629
2.9228140460410397 8.86305
2.9451376712799635 9.91506
2.967444008632326 9.86559
2.9897678582247247 9.72082
3.0120918213106695 10.0767
3.0343984987899373 11.0849
3.0567226913198637 11.6745
3.079029599759726 11.4458
3.101354025127254 12.2028
3.123678568232338 12.9275
3.145985829517914 12.8507
3.16831061055229 13.3832
3.1906181112775593 14.2277
3.212943133635653 14.8654
3.2352682779763207 14.7123
3.2575761442691227 15.21
3.2799015350264273 15.9683
3.302209649240067 16.0181
3.3245352898092655 16.0813
3.3468436553365257 16.8131
3.369169549113219 17.6556
3.3914955708171384 18.1144
3.413804319727358 18.6179
3.4361305997334863 18.5711
3.4584396084414553 19.2832
3.4807661501462652 19.8793
3.503092824025881 20.0506
3.5254022288463154 21.0171
3.5477291695206588 21.6441
3.5700388426251948 21.6691
3.5923660534916446 22.7394
3.6146934007816114 28.4657
3.637003482731501 44.938
3.6593311053109985 47.1827
3.681641464033634 34.5647
3.7039693653009733 26.3399
3.726297407241705 25.2568
3.7486081875460804 25.3135
3.7709365132734978 25.87
3.793247578841633 25.7253
3.8155761917550093 26.1553
3.8378875459837216 26.8748
3.8602164494827234 27.4338
3.882545499606844 27.6634
3.9048572932539183 28.291999999999998
3.9271866390645718 28.8831
3.9494987298666713 29.4263
3.971828374764527 29.851999999999997
3.9941581705403255 30.607
4.016470713506008 31.2668
4.038800813471445 31.6015
4.061113662089144 31.934
4.0834440696459176 32.8828
4.105774632334751 33.0598
4.128087945865126 33.8427
4.150418821249301 34.2157
4.172732448931298 35.2057
4.195063640413578 36.9907
4.2173775856475215 38.7091
4.239709096631102 51.1146
4.262040768704612 106.274
4.284355196706267 132.384
4.306687193387355 94.6863
4.329001947444346 54.2203
4.35133427213731 43.5754
4.373666762177566 42.6085
4.395982011761091 43.0553
4.418314834921175 44.2749
4.44063041906622 47.6547
4.4629635787515625 51.7418
4.4852969080429785 52.356
4.5076130004776225 52.82
4.529946671403969 58.3055
4.552263106909177 63.0862
4.574597122877047 59.1788
4.596931312711224 54.638999999999996
4.619248269273446 53.6185
4.6415828092605835 54.1671
4.663900117405352 55.2827
4.686235010953232 56.8969
4.708552674085913 58.141999999999996
4.730887924602802 59.5815
4.753223354952695 61.8501
4.775541557023902 65.3777
4.797877349456786 68.8471
4.820195915032126 69.5062
4.842532072957498 67.9232
4.864868414979744 70.6467
4.88718753227192 75.6796
4.909524244902505 77.5812
4.931843734218147 76.8598
4.954180820867835 77.8113
4.976518095879839 80.6519
4.998838149695359 83.7065
5.021175803844231 86.8754
5.043496238205739 89.7803
5.065834274903528 94.0629
5.088172504230693 99.2559
5.1104935158799565 106.15700000000001
5.132832132875765 126.18700000000001
5.155153533596801 155.015
5.1774925416746225 196.517
5.199814334878411 406.528
5.2221537374521505 1020.25
5.244493338631803 2888.73
5.266815727034316 8091.51
5.289155727832427 12427.8
5.311478517248165 8127.85
5.333818921080011 2447.19
5.356159527788849 478.483
5.3784829252032536 195.092
5.400823940070432 153.906
5.423147747031976 130.028
5.445489173474152 119.645
5.467830807066149 120.141
5.490155234831516 121.009
5.512497285125229 113.23200000000001
5.534822130975162 105.889
5.557164601388673 101.57799999999999
5.579489868738879 98.6138
5.601832762690846 97.4235
5.6241758697774475 96.2115
5.646501775867269 95.6705
5.668845311622074 94.6927
5.691171647754637 93.6443
5.713515615597765 92.4713
5.735859800852677 92.3531
5.758186788542988 94.9637
5.780531411018185 98.8721
5.802858837297399 99.6125
5.825203900414495 99.4517
5.8475491852224 103.26299999999999
5.869877275883075 102.167
5.892223006467101 97.84299999999999
5.914551544266608 95.1367
5.936897724049891 97.1194
5.959244129804903 103.678
5.981573344815301 132.895
6.0039202049061 242.608
6.026249875609095 475.954
6.04859719346037 979.33
6.070927323278297 2260.26
6.093275102315365 4576.74
6.115623113320588 5201.17
6.137953938319995 2963.49
6.160302415650845 823.7810000000001
6.182633708324452 197.22799999999998
6.2049826554078376 105.87700000000001
6.227331838745022 88.6876
6.249663839443684 82.1367
6.27201349767565 79.0669
6.294345974611799 79.5354
6.316696111167083 82.0724
6.339046488263839 79.3808
6.361379686074702 73.5238
6.383730546639482 69.987
6.406064229255215 69.6906
6.428415576718203 71.1951
6.450749747566656 70.2053
6.47310158535871 67.2395
6.495453669698332 64.8067
6.517788579421056 63.7822
6.540141159237969 63.0404
6.562476565766648 62.3691
6.5848296444934045 62.467
6.607182974060425 62.7824
6.6295191323281015 62.6694
6.651872965955752 62.8379
6.6742096296068985 70.1167
6.6965639707294615 84.5811
6.71891856698715 83.2133
6.741255995248479 69.2507
6.763611104154477 60.938
6.785949046381137 58.5433
6.808304671371482 59.4582
6.8306605557940046 61.5025
6.852999275508618 60.3712
6.875355681171544 57.9633
6.897694923437771 56.4251
6.92005185377892 55.8165
6.9423916220322655 55.3513
6.964749080490181 54.8492
6.987106804399774 55.0574
7.009447368180821 55.9599
7.031805625367033 55.4846
7.054146723727803 55.0856
7.076505517631004 54.575
7.098864581288365 54.0747
7.121206488070854 54.2347
7.143566093607822 54.4672
7.165908543567245 56.0696
7.188268694426048 56.1643
7.2106291193438095 55.2188
7.232972390625943 54.8734
7.255333366030969 59.4156
7.277677189091925 76.1121
7.300038718428332 90.4357
7.322400526130865 81.8158
7.344745183422596 64.4089
7.367107550224791 55.9253
7.389452767901992 53.8049
7.411815697249891 53.8244
7.434161478756298 53.1932
7.456524974096713 53.108999999999995
7.478888753837185 52.9516
7.501235387657368 53.7952
7.523599738562711 53.9217
7.545946944825532 54.2041
7.568311870344528 54.5852
7.5906770845765665 54.4511
7.613025156078678 54.6457
7.635390950099687 55.6065
7.657739602662809 55.5389
7.680105979923558 55.7506
7.702472650212829 56.7663
7.724822180948224 56.3834
7.747189439655568 55.7822
7.769539560075357 55.5981
7.791907410653562 56.0259
7.81425812420825 55.7831
7.836626570110925 56.2327
7.858995315087906 56.7994
7.881346924933401 57.2036
7.903716270417482 57.695
7.926068482028405 58.0469
7.948438431475253 58.8184
7.9708086843180235 59.2406
7.993161805171116 59.9316
8.015532667162402 60.2758
8.037886398416653 61.6612
8.060257873014221 62.4418
8.082629655331942 62.9373
8.104984308787587 63.3221
8.127356708900503 66.1079
8.149711981398308 71.0371
8.172085002766314 72.4325
8.194458336181368 70.646
8.216814543847752 68.4552
8.23918850371002 68.8662
8.26154533906492 69.4964
8.283919928836452 71.3648
8.306277395339652 72.0621
8.328652618483376 73.6919
8.351028159736202 76.0587
8.373386579575245 78.2513
8.395762759396959 80.0793
8.418121819038275 83.2293
8.440498640894003 90.0276
8.462875785192262 101.46799999999999
8.485235811156207 126.846
8.507613602688501 178.815
8.529974277114228 259.613
8.552352719347912 383.223
8.574731488360351 657.615
8.59709314210385 1218.89
8.619472567021075 1945.44
8.64183487789147 2169.4
8.664214962183097 1718.5
8.686577933647762 831.289
8.708958680784317 316.185
8.731339760774953 147.196
8.753703729764451 106.351
8.77608547780821 96.9763
8.798450116065078 93.5292
8.820832535634787 91.6544
8.843215292401656 92.2558
8.865580941199045 92.8834
8.887964374703538 92.314
8.910330701447199 92.3957
8.932714815164482 91.9408
8.955099270424924 88.7307
8.977466620733543 86.3159
8.999851761421976 84.8593
9.022219798361645 83.9531
9.04460562795561 83.4586
9.066991803441677 83.3303
9.089360876979615 84.1508
9.111747746589993 83.7784
9.13411751544971 82.9292
9.156505082664324 81.7201
9.178875550323522 81.8756
9.20126381862328 81.2426
9.223652438908596 81.5046
9.246023961427412 81.8005
9.26841328802173 81.7454
9.290785518039224 82.0892
9.313175554425882 84.8232
9.335565947154315 86.5453
9.357939245086508 87.1159
9.380330352834827 86.3696
9.40270436697103 86.04700000000001
9.425096193225055 85.3465
9.447488380180165 84.954
9.469863475295412 84.1486
9.492256385987508 84.4606
9.514632206018318 84.6216
9.537025843935714 85.1858
9.559402392368193 86.4883
9.581796761000229 89.1844
9.604191496441521 91.8528
9.626569144158516 94.8028
9.648964615551032 95.8334
9.671343000390081 94.8886
9.693739211225699 92.9057
9.716135793237463 92.1316
9.738515290448102 92.7688
9.760912617143402 94.2871
9.783292860202891 96.9035
9.805690935076182 98.7842
9.828089385495742 99.8952
9.850470754023561 100.501
9.872869957865444 103.62100000000001
9.89525208097539 110.12
9.917652041736662 116.851
9.940052382417589 125.32700000000001
9.962435644102392 151.69899999999998
9.984836746950979 191.19299999999998
10.007220771957746 246.655
10.029622640473708 343.49
10.052007432299963 525.797
10.074410069984072 841.1260000000001
10.096813093716005 1324.27
10.119199042482517 1835.35
10.141602840636468 2003.11
10.163989564971628 1512.6
10.186394141051062 809.237
10.208799107559706 350.991
10.231187001965623 169.9
10.253592751657669 120.25200000000001
10.275981430388155 110.319
10.298387966769793 108.3
10.320794897965431 107.95100000000001
10.343184759907361 106.758
10.36559248305461 104.361
10.387983138083852 104.435
10.410391656691655 110.719
10.432800574501677 121.83200000000001
10.455192425893369 136.58
10.47760214443012 163.446
10.499994797678786 209.692
10.522405320453982 298.024
10.54479877906917 428.605
10.567210109595656 538.16
10.5896218454736 580.274
10.612016518879773 492.209
10.634429067781074 321.198
10.656824555333241 183.21099999999998
10.679237920773568 114.93700000000001
10.701651695961992 93.2363
10.724048411481384 87.6241
10.746463008485165 85.5398
10.768860546937125 83.7251
10.791275969274796 82.2589
10.81369180576079 81.4849
10.836090585366925 80.4697
10.858507252467449 78.9346
10.88090686379991 78.3065
10.903324365036394 77.8622
10.925724811614439 77.2632
10.948143150509463 77.7945
10.970561909719066 77.4283
10.992963615930844 76.4385
11.015383218085756 75.0739
11.037785768347074 73.2809
11.06020621697282 72.3223
11.082627090322113 71.5904
11.105030913430326 70.6752
11.12745263854165 70.3166
11.149857314510728 71.2841
11.172279894912576 72.9449
11.194702904450653 72.4061
11.217108866490921 70.7639
11.239532736615194 69.2267
11.26193956033512 68.2952
11.284364294577085 67.6578
11.306789462371718 66.5117
11.329197585398376 66.1972
11.351623622610898 66.1559
11.37403261614354 65.6441
11.396459526308487 65.4136
11.418869393879497 65.1664
11.441297180532617 64.8108
11.463725406927658 64.0558
11.486136592353875 63.8908
11.508565700543707 63.9967
11.530977768845315 64.6307
11.553407762368774 64.6869
11.575838200059769 64.3925
11.598251599479612 63.5132
11.620682927815501 62.9677
11.64309721895548 62.7231
11.665529441478206 62.5311
11.687962112597958 62.2676
11.710377748130886 62.3492
11.732811318753434 62.2497
11.755227854859067 62.2218
11.777662328529495 62.083999999999996
11.800079768750786 62.247
11.822515149015453 62.1544
11.844950984084935 62.6848
11.867369787303163 61.8517
11.889806534289491 61.6892
11.912226250487029 62.0034
11.934663912939751 62.393
11.9571020346363 62.5809
11.979523127133968 62.9704
12.001962169624331 64.1862
12.024384183972964 65.6314
12.046824150809913 68.4932
12.069264581333726 72.2645
12.091687985297767 78.1939
12.11412934550045 87.1652
12.136553680195208 103.245
12.158995973632788 128.849
12.181438735204349 161.941
12.20386447284199 197.995
12.226308172985636 215.363
12.24873485024193 203.0
12.271179492516982 161.736
12.293607112949127 115.904
12.316052700916226 85.8783
12.338498763250042 71.2028
12.360927805303868 65.6774
12.383374818673879 64.2593
12.405804812803074 63.1963
12.428252780773262 63.5797
12.45070122756722 63.7019
12.473132656675375 63.6289
12.49558206341869 64.1487
12.518014453510101 64.4522
12.540464823770117 64.5273
12.562915677315177 64.5431
12.58534951575545 64.7228
12.607801338171472 65.1853
12.630236146511358 67.0996
12.652688941369085 68.9306
12.675124723177234 69.5708
12.697578494048786 68.7112
12.720032754458185 67.2048
12.742470003354093 66.6566
12.764925245138771 66.9037
12.787363476431278 67.1581
12.809819703166806 67.6876
12.83227642391173 68.6578
12.854716135692716 69.3618
12.877173846755147 70.6731
12.899614549869717 71.0104
12.9220732548287 72.1181
12.94453245827299 72.5524
12.966974655289818 73.5867
12.989434858002571 74.2213
13.011878055298721 74.7775
13.034339260862497 75.8768
13.056800969391883 77.0608
13.079245674017244 79.7319
13.101708390774869 84.4959
13.12415410463411 92.4546
13.146617833206086 101.6
13.169064559883248 111.73299999999999
13.191529303857127 125.927
13.213994557076367 149.864
13.236442809902437 189.52200000000002
13.258909083908291 250.34
13.28135835851934 314.825
13.30382565690295 392.306
13.326293469022952 426.579
13.348744283242008 411.834
13.371213125129904 329.457
13.39366497011003 233.012
13.416134845360597 155.30100000000002
13.438605238843131 117.319
13.46105863690397 105.42
13.483530069144786 106.089
13.505984506951902 110.689
13.528456981549432 120.39399999999999
13.550929978879088 135.431
13.573385983253365 161.971
13.595860028340867 201.608
13.618317081455832 259.65
13.64079217790333 318.336
13.663250283359057 364.04400000000004
13.685726434770173 374.796
13.708203115221277 327.298
13.730662806148091 244.399
13.75314054697177 168.90400000000002
13.775601299246777 118.25
13.798080104050406 93.1968
13.820559442405358 83.6439
13.843021793671388 80.7471
13.865502201420897 79.2279
13.887965623051947 78.8086
13.910447103807167 77.8248
13.932929122629764 76.4995
13.955394156785959 76.1998
13.977877254034569 75.2
14.000343367582113 74.3066
14.022827546871707 73.8683
14.045294743423524 72.991
14.06778000837062 72.0916
14.090265817715476 72.1733
14.112734645763819 71.6125
14.13522154619454 71.2107
14.157691466286913 71.2937
14.180179461423874 70.9423
14.202668005486178 70.5534
14.22513957064374 69.9358
14.247629214846473 69.6989
14.270101881097517 69.3032
14.29259262906496 69.0467
14.315083930490205 69.4599
14.337558255389705 69.4037
14.360050666019726 69.1717
14.382526101071944 69.1388
14.405019624534942 68.5638
14.427513705993134 68.1884
14.449990813291825 68.0695
14.47248601302899 67.892
14.49496423954951 68.1038
14.517460561197822 68.0387
14.539939910570322 67.8787
14.562437357763558 68.2238
14.58493536931253 68.7774
14.607416409993311 69.1501
14.62991555254159 69.5621
14.652397725157423 69.4788
14.674898002342799 69.8411
14.697398848433282 70.0435
14.719882725991326 71.5153
14.74238471217934 73.4304
14.764869730765593 76.7463
14.787372860692983 79.0641
14.809876564079925 83.0574
14.83236330125751 88.6642
14.854868153850365 97.7018
14.877356041159485 112.115
14.899862046604186 132.828
14.922351087688757 160.245
14.944858249632887 189.169
14.967365991421232 217.71
14.989856770231246 228.192
15.012365673994204 218.683
15.03485761569738 186.24200000000002
15.05736768508665 140.208
15.07987833888692 106.713
15.102372032001655 85.448
15.124883856909658 74.6546
15.14737872204565 70.9695
15.169891721717274 69.7034
15.192405310371893 69.3437
15.214901940621196 69.157
15.237416709527137 68.8912
15.259914520936249 68.5057
15.282430473753607 67.8085
15.304947020131227 67.09899999999999
15.327446610371178 66.7735
15.349964346154254 66.2009
15.372465126703139 66.0921
15.394984055556009 65.7998
15.417486030076159 65.9292
15.44000615566487 65.484
15.462526881230803 65.2564
15.485030653812652 65.309
15.507552581617434 64.9791
15.530057557334603 65.0047
15.55258069104857 65.14399999999999
15.575104429329837 65.2704
15.597611216864632 65.2436
15.620136166564563 66.061
15.6426441664095 67.7159
15.665170331202765 70.0082
15.687697105158826 72.6056
15.710206930593545 75.6518
15.732734925158933 79.4998
15.755245972089478 85.87799999999999
15.77777519094324 95.708
15.800287463046663 109.729
15.822817909869592 129.77100000000002
15.84534897229804 152.82299999999998
15.867863089299354 176.862
15.890395385222186 194.877
15.912910736597423 195.826
15.935444269699861 178.27200000000002
15.957978423016485 146.013
15.980495633101265 112.78200000000001
16.003031029129367 88.9044
16.02554948280019 72.3399
16.048086125229432 65.518
16.070623392487107 63.1769
16.09314371869582 62.042
16.11568223789321 61.5525
16.13820381691126 60.911
16.160743591742527 60.1886
16.183283996022084 59.4644
16.205807461423195 58.5684
16.228349126881973 58.0723
16.25087385432698 58.0669
16.27341678466365 57.5949
16.29594277784926 57.1747
16.31848697676433 57.0472
16.341031811604868 56.8084
16.36355971058487 56.8502
16.3861058195587 56.7477
16.40863499352978 56.0059
16.431182380342005 55.7671
16.453730407713202 55.3347
16.476261501364792 55.0192
16.498810812136167 54.7078
16.52134319004079 54.8616
16.54389378792203 54.7547
16.566445031001553 54.4767
16.588979342490088 54.4769
16.61153187824822 54.3144
16.634067483263312 54.1641
16.656621315414416 54.1231
16.679175797408888 53.8271
16.701713349928728 53.931999999999995
16.72426913389191 54.0922
16.74680798922351 54.1701
16.76936507887444 54.1063
16.791905240734874 54.191
16.814463639794468 54.1713
16.837022695210294 53.9942
16.859564824093756 54.3399
16.882125194503903 54.5128
16.904668639217885 54.9099
16.927230328348003 54.8669
16.949792678493612 55.0058
16.972338104193863 54.8349
16.994901778652235 54.6643
17.017448529496576 54.9588
17.040013531998152 55.5907
17.06257920018044 55.9943
17.0851279459922 56.6193
17.107694947817667 57.4544
17.130245028099072 58.0733
17.15281336730298 59.388000000000005
17.17536478578733 61.0944
17.19793446610687 63.5778
17.220504818648422 66.5683
17.243058251703697 70.24600000000001
17.265629950971032 75.0748
17.288184731571736 80.3027
17.310757781306908 84.2157
17.33333150794385 83.7185
17.355888317140174 80.8464
17.37846339986244 75.1455
17.401021565958885 68.669
17.42359800851343 63.6777
17.44617513265564 60.6105
17.468735341390783 59.2934
17.491261035594565 58.5355
17.51396340099364 58.5443
17.536490463869136 58.5427
17.559018209820174 58.6245
17.58154663977963 58.6346
17.604251766089718 58.6412
17.626781572227713 59.0505
17.64931206518155 59.1664
17.671843245885103 59.5668
17.69455114821572 59.667
17.717083712612634 59.9354
17.739616967569667 60.126000000000005
17.762150914021706 60.8339
17.78486160749854 61.0024
17.807396945166804 61.8135
17.829932977143503 63.0194
17.85246970436452 64.6197
17.875183204129467 65.9322
17.897721330097664 67.9919
17.920260154126645 70.1005
17.942799677153296 73.1775
17.9655159983646 77.2349
17.988056927677544 83.0502
18.010598558807683 91.3402
18.033140892692916 101.70200000000001
18.05586005052525 113.6
18.07840379824407 125.44
18.10094825154059 135.85
18.12366954819864 141.267
18.146215420998306 137.30200000000002
18.16876200220057 126.59100000000001
18.191309292745153 111.219
18.214033452627167 98.5649
18.236582170236648 88.8703
18.259131600016456 84.9358
18.281681742907335 85.9519
18.304408781233683 91.3632
18.32696035875955 97.1903
18.349512652227624 101.561
18.372065662579683 105.37
18.394795594587553 104.93299999999999
18.41735004715306 99.4974
18.43990521943684 91.2583
18.46246111238171 82.1461
18.485193953325208 73.6103
18.507751296070428 67.362
18.530309362314178 64.0756
18.552868153000343 62.39
18.57560391815056 61.2107
18.59816416623245 61.0359
18.620725141597372 60.5597
18.643286845190268 60.096000000000004
18.666025549835414 59.7017
18.688588718427933 59.0788
18.711152618092243 58.9605
18.73389353884365 58.7724
18.75645890921984 58.5514
18.77902501351406 58.0587
18.801591852673102 58.1062
18.824335739722738 57.5952
18.846904057212626 57.3012
18.8694731124168 57.099
18.89204290628315 57.0628
18.914789774966803 57.0523
18.937361054791623 56.6991
18.959933076131318 56.5241
18.982505839934877 56.4045
19.00525570560582 56.4862
19.027829963004184 56.2199
19.05040496572238 56.4334
19.072980714710468 56.2774
19.095733592739563 56.6233
19.11831084296757 56.7501
19.140888842324735 57.0836
19.16346759176222 57.1542
19.18622349753803 57.7375
19.208803755869358 58.6423
19.231384767143577 59.9567
19.253966532312948 61.5965
19.276725481241822 63.9466
19.29930876296784 66.613
19.3218928014549 69.3015
19.34465404436217 72.525
19.36723960516257 75.154
19.389825925592426 75.6694
19.412413006605938 74.1882
19.43517731967805 69.8164
19.457765930683355 65.4896
19.48035530514408 60.7417
19.50294544401556 57.5366
19.525712842708348 55.1931
19.54830451925909 54.1722
19.570896963095727 53.4768
19.593490175174704 53.2882
19.616260674962184 53.3549
19.638855432416964 53.2332
19.661450960992624 53.3945
19.68404726164677 53.0189
19.706820878021247 52.7979
19.729418731756834 53.0095
19.752017360452857 52.6922
19.77461676506804 53.0642
19.797393513540218 53.1439
19.819994478951667 53.3321
19.84259622316767 53.8707
19.8651987471481 54.1388
19.887978643247177 54.2497
19.91058273574792 54.8885
19.933187610901943 55.7046
19.955969879466828 56.9537
19.97857632894404 58.5503
20.00118356396599 60.3776
20.023791585494575 62.6837
20.046577028914875 65.6344
20.069186632506966 67.8674
20.091797025500632 69.5312
20.114408208858933 69.6186
20.137196842715273 69.0104
20.159809615886765 66.9346
20.18242318232135 64.1377
20.20503754298326 62.169
20.227829382875154 61.5402
20.250445341109344 61.8094
20.27306209647285 62.726000000000006
20.29567964993108 63.9674
20.31847471147704 64.7183
20.34109387027612 65.2064
20.363713830075454 64.3488
20.386334591841646 62.4989
20.409132890679302 59.7886
20.431755265564437 56.6019
20.454378445325528 54.2544
20.477002430930366 52.3522
20.499803982716553 51.1321
20.522429589228004 50.5542
20.54505600449589 50.023999999999994
20.567683229489194 50.0208
20.590488049900088 49.8997
20.61311690359731 49.6338
20.63574656993626 49.4641
20.658553853717297 49.1495
20.681185154618298 49.1106
20.703817271080066 49.0485
20.72645020407368 48.6267
20.749260783967177 48.6
20.771895359337133 48.3489
20.794530754161617 48.4767
20.817166969412938 48.5005
20.83998086114876 48.4044
20.86261872660049 48.3532
20.885257415405402 48.1109
20.90789692853701 48.1811
20.930714147864748 48.0423
20.953355319030678 48.1561
20.97599731745334 48.1969
20.99864014410749 47.9565
21.021460706796564 47.9607
21.044105199328826 48.3347
21.06675052302631 48.4436
21.089396678865015 48.4975
21.112220600704806 48.8983
21.134868430275347 49.3082
21.15751709492456 49.6248
21.180166595629693 50.0256
21.202993892429635 50.5693
21.22564507473034 50.7472
21.24829709602816 51.06100000000001
21.27112693608965 51.0294
21.293780644891275 51.0308
21.316435195634053 50.0938
21.339090589297417 49.464
21.361923832041875 48.8428
21.384580921090404 48.2924
21.407238856007325 47.9147
21.429897637773326 47.9944
21.45273429906592 48.0099
21.475394784108598 47.887
21.498056118951983 47.9329
21.520718304578022 47.9272
21.543558400304388 48.0213
21.566222297108816 48.3958
21.58888704765135 48.6065
21.61155265291521 49.0219
21.63439619898156 49.29
21.657063523335786 49.4433
21.67973170537063 49.8882
21.7024007460706 50.3839
21.72524775840385 51.155
21.747918526116475 52.3236
21.770590155457388 53.6899
21.79326264741238 55.3992
21.816113141960237 57.1701
21.838787368860547 59.0011
21.861462461341976 60.9352
21.884315579735777 62.8789
21.90699241312273 63.7694
21.92967011506078 63.9644
21.95234868653799 63.4023
21.9752053151131 61.7176
21.997885635446785 59.5712
22.020566828293532 57.756
22.04324889464272 56.5469
22.066109049404666 55.6265
22.088792872571794 55.4376
22.111477572219204 55.7327
22.1341631493376 55.6993
22.157026846313123 55.1614
22.179714188221507 54.513000000000005
22.202402410582668 53.0733
22.22509151438863 51.5326
22.24795876962584 50.4119
22.270649646204486 49.6211
22.293341407213727 48.924
22.316034053646906 48.7311
22.338904883215342 48.4802
22.36159931041458 48.4768
22.38429462602756 48.3062
22.40699083104897 48.166000000000004
22.429865251039757 48.1612
22.452563244831367 48.1471
22.47526213102522 48.1942
22.49813925616515 48.121
22.520839937143307 48.0897
22.543541513520587 48.1042
22.56624398629403 47.8593
22.589124730075895 47.8537
22.611829005656723 48.1995
22.63453418063466 48.0978
22.657240256008077 48.3979
22.680124634582935 48.4438
22.70283252079775 48.7809
22.725541310413075 49.0295
22.74825100442868 49.1522
22.771139033969575 49.6724
22.79385054687155 49.9253
22.81656296718292 50.805
22.83927629590484 51.6182
22.862167992606945 52.6442
22.88488314827121 54.0325
22.907599215359284 55.0228
22.93031619487366 56.2431
22.953211574954405 56.9963
22.975930389478226 57.4761
22.998650119445763 57.3253
23.02137076586092 56.2944
23.044269845560063 54.8651
23.06699233506288 53.261
23.089715744034912 51.5296
23.112617610931565 50.1383
23.135342869061212 48.9941
23.158069049684816 48.5247
23.1807961538087 48.3054
23.20370174880544 48.2277
23.226430710184808 48.1777
23.249160598093425 48.4397
23.271891413539002 48.3355
23.294800752937697 48.3385
23.31753343374794 48.5077
23.340267045128353 48.6757
23.36300158808808 48.9738
23.38591468821339 49.2654
23.408651104658304 49.6819
23.431388455719986 50.4974
23.454126742409 51.4593
23.4770436196085 52.5053
23.499783787914662 53.7073
23.522524894889884 54.7233
23.54526694154616 55.9044
23.56818761219047 57.0257
23.59093154860734 57.3828
23.613676427751283 57.3879
23.636422250635754 56.1352
23.659346731118656 54.3076
23.68209445191868 52.3865
23.704843119509587 50.1159
23.72759273490623 48.4051
23.750521041644767 47.3913
23.77327256312355 46.4937
23.796025035462787 45.9051
23.818956224555475 45.5114
23.841710609113413 45.2979
23.86446594758979 45.1887
23.887222241002014 45.0174
23.910157285144578 44.8116
23.932915498962537 44.7138
23.955674670778713 44.5479
23.978434801611975 44.3394
24.001373717286125 44.1738
24.024135776723917 44.1397
24.046898798245582 43.8979
24.06966278287146 43.9238
24.092605586582614 43.7777
24.115371508023642 43.6446
24.1381383956401 43.5976
24.16090625045381 43.398999999999994
24.183852958731244 43.376000000000005
24.206622758582608 43.3171
24.229393528706886 43.0251
24.252165270127392 43.2804
24.27511589952438 43.115
24.297889594216997 42.7424
24.32066426328598 42.6091
24.34343990775613 42.7223
24.36639447485003 42.6847
24.38917208083877 42.8379
24.41195066531332 42.4433
24.43490819850244 42.6867
24.457688750692377 42.5575
24.48047028445616 42.4996
24.503252800821233 42.6111
24.526214300784112 42.6437
24.548998793132213 42.6062
24.57178427117417 42.4166
24.59457073593893 42.547
24.617536219319863 42.3366
24.64032466834748 42.3839
24.663114107195035 42.2037
24.685904536893013 42.1127
24.708874020360852 42.0687
24.731666442613744 41.9857
24.754459858818787 41.9243
24.777254270007962 41.7456
24.80022777025625 41.6794
24.82302418230472 41.7454
24.845821592443674 41.6864
24.86862000170663 41.6301
24.891597535453727 41.4586
24.914397953892728 41.8134
24.93719937456671 41.893
24.96000179851076 41.9572
24.98298338249997 42.1459
25.00578782394922 42.3962
25.028593271784167 42.3204
25.05157790644186 42.88
25.07438537804115 42.8286
25.097193859145293 43.1876
25.120003350792075 43.3155
25.142992065061257 43.8935
25.165803588823465 44.0885
25.18861612625217 44.1056
25.211429678386736 44.1413
25.234422489079968 44.1936
25.257238081693636 44.283
25.280054692141732 44.477
25.3028723214652 44.4374
25.325869245420463 44.4118
25.348688923599397 44.3536
25.371509623787006 44.2913
25.394331347025812 44.0042
25.41733240110666 43.5529
25.440156181590016 42.727
25.46298098826268 42.2952
25.48580682216873 41.7365
25.50881202326435 41.1683
25.53163992281684 40.8974
25.55446885274561 40.7832
25.577298814096377 40.4064
25.600308179121807 40.4225
25.623140214533745 40.4988
25.64597328451537 40.3326
25.66898578564376 39.9498
25.691820936010206 40.2177
25.714657124097695 40.1405
25.737494350954734 40.0337
25.760511045684957 39.8571
25.783350361364224 40.0321
25.806190718969255 39.9607
25.82903211955018 40.0414
25.852053024868923 40.1595
25.874896522722523 40.1143
25.897741066713106 40.126999999999995
25.920586657892454 40.2601
25.943611790812668 40.4321
25.966459487728237 40.5882
25.989308234998564 40.5899
26.01215803367705 41.0537
26.03518741123814 41.0559
26.05803932412957 41.1766
26.080892291600094 41.2048
26.10374631470478 41.1605
26.12677995397268 41.2324
26.14963609978026 41.1446
26.172493304397875 41.0149
26.19535156888223 40.7598
26.218389486949604 40.2787
26.241249882640123 40.0799
26.26411134137826 39.7385
26.28715248187403 39.8388
26.31001607820869 39.6639
26.3328807407756 39.3732
26.35574647063438 39.5764
26.37879191991473 39.6224
26.401659795896734 39.7334
26.424528742360263 39.8133
26.447398760366614 40.0219
26.470448535598294 39.9926
26.49332070826805 40.2854
26.516193955675355 40.6534
26.53906827888316 40.8521
26.562122397260108 41.126999999999995
26.584998883685063 41.3093
26.607876449110325 41.5987
26.63075509460056 41.7979
26.65381357334404 41.876999999999995
26.67669439061878 41.758
26.699576291163382 41.559
26.722459276044212 41.4466
26.745522132402975 41.1223
26.768407297649354 40.7955
26.791293550442003 40.6706
26.814180891848974 40.3436
26.837248143099337 40.097
26.860137673466657 39.8954
26.88302829566349 39.6962
26.90592001075963 39.4584
26.92899167420566 39.3517
26.951885586870763 39.0017
26.974780595655517 38.7476
26.99785558178161 38.6659
27.020752794605112 38.4802
27.043651106772522 38.3318
27.06655051935668 38.3097
27.089629948036183 38.2734
27.112531573292053 38.3062
27.135434302194138 38.3437
27.158338135817015 38.2045
27.181422024430987 38.219
27.204328079372566 37.9736
27.22723524226965 38.0741
27.250143514198573 38.1478
27.273231880156334 38.1019
27.296142382065014 37.9425
27.319053996245536 37.9111
27.341966723775965 38.0138
27.365059584515222 37.9929
27.38797455070062 38.1091
27.410890633481237 38.1243
27.433807833936918 38.1426
27.456905206923906 38.1475
27.47982465472398 38.0716
27.502745223449743 38.1916
27.525666914182825 38.2312
27.548768816912457 38.1322
27.571692763693633 38.1642
27.59461783573812 38.0405
27.617723149491244 37.8188
27.640650484125285 37.8324
27.66357894728264 37.6995
27.686508540048052 37.6142
27.709618414237887 37.4986
27.732550278321757 37.3978
27.755483275279115 37.3169
27.778417406196485 37.3938
27.801531858397514 37.5382
27.824468269376716 37.5813
27.847405817586786 37.5173
27.870344504116094 37.6727
27.893463551932008 37.6529
27.916404527281053 37.8316
27.93934664422563 38.1713
27.962289903855886 38.1439
27.98541356491974 38.2545
28.00835912214229 38.3918
28.03130582533231 38.6596
28.054253675581805 38.7924
28.077381967556104 38.7643
28.100332124185126 38.6571
28.123283431160893 38.5183
28.146235889577238 38.2564
28.169368830154156 38.0878
28.192323603752033 37.9652
28.215279532083304 37.5762
28.238415973016764 37.3971
28.261374223145094 37.3371
28.284333631303806 36.9788
28.307294198589954 36.9679
28.330435319167677 36.6008
28.353398217078915 36.3638
28.376362277420153 36.2235
28.39932750129032 36.0881
28.422473319286713 35.9437
28.44544088262495 36.0586
28.468409612800283 35.8573
28.491379510913497 35.6689
28.51453004413313 35.5279
28.53750229057244 35.5783
28.56047570826344 35.3803
28.583450298308804 35.4236
28.606605564586562 35.2828
28.629582511831156 35.2824
28.65256063474956 35.1412
28.675539934446338 35.1515
28.698699951647605 35.1553
28.72168161743193 35.1427
28.74466446331978 35.1198
28.767648490417624 35.1053
28.790813276438353 34.9409
28.813799678527303 35.1777
28.836787265157085 35.1216
28.859955641890075 35.0075
28.882945610203045 35.0703
28.905936766392035 34.8488
28.928929111566863 34.8938
28.952102288520145 34.8866
28.975097024308607 34.7466
28.998092952423807 34.6299
29.021090073977508 34.5222
29.04426806913204 34.4067
29.067267590245258 34.2862
29.090268308143695 34.2197
29.11327022394099 33.996
29.13645305530891 33.9495
29.159457379627167 34.0081
29.18246290519685 33.979
29.20546963313352 33.9696
29.22865731875826 33.9354
29.25166646419296 33.9675
29.27467681535305 33.8014
29.29768837335608 33.8292
29.320880931312562 33.9197
29.34389491580634 33.854
29.366910110507334 33.8105
29.38992651653503 33.8907
29.41312396492981 33.9074
29.436142806456754 33.7454
29.45916286268059 33.7769
29.48236399319994 33.6246
29.50538649169417 33.4511
29.528410208259935 33.3178
29.55143514402014 33.0963
29.574641196749695 32.9618
29.597668583816574 32.9201
29.6206971934585 32.7067
29.64372702680042 32.7555
29.666938019934474 32.6693
29.689970313635285 32.5286
29.713003834422636 32.5752
29.73603858342347 32.6615
29.759254535188578 32.446
29.78229175361658 32.506
29.80533020365064 32.4453
29.82836988641968 32.4114
29.85159081507472 32.3962
29.874632976355343 32.3022
29.89767637376955 32.4356
29.920721008448314 32.1217
29.9439469322847 32.102
29.96699405457564 32.1456
29.9900424175358 32.146
30.013092022298157 32.1539
30.03632295963995 32.0296
30.059375061131373 32.2734
30.08242840783577 32.2249
30.105483000888153 32.1711
30.128718970092244 32.0514
30.151776069006917 31.9198
30.17483441768648 32.0701
30.198074175317235 31.951999999999998
30.221135036724256 32.0604
30.24419715131772 32.0003
30.267260520236203 31.8961
30.290505341942243 31.9633
30.313571232750228 31.9652
30.336638381310948 31.8664
30.35970678876503 31.8364
30.38295669299435 31.8398
30.40602763151657 31.7665
30.429099832366074 31.76
30.452173296685572 31.6925
30.47542830191959 31.7394
30.498504306502497 31.6754
30.521581577995562 31.7161
30.544660117543582 31.8271
30.56792024229725 31.8502
30.59100133132069 31.72
30.614083691845494 31.8053
30.637167325018545 31.8471
30.660432587840603 31.8937
30.683518779717886 31.8102
30.70660624769615 31.8449
30.729694992924372 31.8942
30.75296541239743 31.8656
30.77605672557558 31.7848
30.799149319462742 31.7468
30.8224236211637 31.5968
30.845518789950724 31.4842
30.868615242910597 31.4534
30.891712981195973 31.3229
30.91499247215866 31.1646
30.938092794619365 31.1321
30.96119440587579 31.081
30.984297307082752 30.971999999999998
31.00758200598383 30.9601
31.030687500658694 30.8818
31.053794288760695 30.7477
31.076902371446767 30.6865
31.100192296997445 30.779
31.12330298246119 30.7308
31.14641496599209 30.6005
31.169528248749216 30.6289
31.19282341969534 30.5774
31.215939314557186 30.5343
31.239056512134788 30.5904
31.262175013589378 30.5897
31.28547544871168 30.5449
31.30859657161541 30.4568
31.331719001892175 30.5135
31.35484274070538 30.6112
31.378148458819545 30.5023
31.401274828443725 30.5053
31.424402510106933 30.5238
31.447712205419993 30.4976
31.470842524931633 30.4692
31.493974159989783 30.4843
31.51710711176168 30.4777
31.54042212308802 30.4833
31.563557722100917 30.3937
31.586694641341655 30.2111
31.609832881979628 30.1458
31.63315322823208 30.1282
31.656294125521327 29.9186
31.679436347728515 29.8072
31.70257989602529 29.7413
31.725905596152327 29.7552
31.74905181052835 29.7804
31.772199354521323 29.8136
31.79534822930507 29.8584
31.818679302290967 29.8779
31.84183085259981 29.868000000000002
31.864983737233473 29.8631
31.88813795736804 29.8703
31.911474422233013 29.6338
31.934631327356435 29.706
31.9577895715215 29.6192
31.980949155906522 29.6885
32.004291031706956 29.7299
32.027453310562606 29.6046
32.05061693318573 29.4625
32.07396288236386 29.4329
32.09712920658542 29.4371
32.12029687812702 29.2369
32.14346589817093 29.1743
32.166817291729984 29.1471
32.18998902288583 29.0819
32.21316210610336 28.953000000000003
32.23633654256711 28.8539
32.259693399663725 28.8507
32.282870556771144 28.729
32.30604907069099 28.8146
32.329228942610065 28.7336
32.35259128243769 28.5944
32.375773884550505 28.5577
32.398957848235646 28.5785
32.422143174682176 28.4737
32.445511016471215 28.4402
32.468699082679954 28.4032
32.49188851523011 28.3945
32.51507931531304 28.2862
32.538452678331 28.3346
32.56164622776311 28.2794
32.58484114831493 28.2002
32.60803744118015 28.1512
32.631416344731896 28.0858
32.654615396551876 28.1236
32.67781582427913 28.1974
32.701198898634416 28.014
32.72440209253756 27.9246
32.747606665947124 27.9426
32.77081262006088 27.7837
32.79420126883317 27.7751
32.81740999876112 27.7829
32.840620112999424 27.7193
32.86383161274818 27.5807
32.88722585534586 27.6047
32.91044014056596 27.7063
32.933655814909734 27.7699
32.95687287957963 27.733
32.98027273544904 27.5818
33.00349259526636 27.4904
33.026713849030116 27.6209
33.04993649794511 27.5041
33.073341986570746 27.5226
33.09656744032826 27.5169
33.11979429286444 27.4867
33.14302254538647 27.5136
33.166433686291185 27.4452
33.18966475336992 27.4461
33.212897224069096 27.2983
33.23613109959831 27.320999999999998
33.259547912343415 27.276
33.2827846121627 27.3172
33.306022720453775 27.1697
33.32926223842861 27.0602
33.352684742614166 27.1087
33.37592709463173 27.0666
33.399170859982064 27.0186
33.422597648419426 26.947
33.44584425514446 26.7769
33.46909227885668 26.6844
33.4923417207723 26.6516
33.51577423505344 26.7229
33.539026528130385 26.6212
33.56228024307245 26.5541
33.585535381098246 26.5233
33.60897364093058 26.4524
33.63223163992385 26.4404
33.6554910656699 26.4036
33.678751919389796 26.3796
33.702195944520106 26.2677
33.72545966903325 26.2821
33.74872482519663 26.1916
33.771991414233746 26.2712
33.79544122444841 26.1739
33.81871069412428 26.0578
33.84198160035767 26.086
33.86525394437455 26.1346
33.88870955949969 26.0547
33.911984794020626 25.9928
33.93526147001624 26.016
33.958539588715006 25.8538
33.98200102861669 25.8322
34.0052820477047 25.7384
34.02856451319451 25.6872
34.05203033759056 25.7239
34.07531571090147 25.6513
34.09860253431845 25.5538
34.121890809074316 25.5697
34.145362493118924 25.5338
34.16865368561615 25.5922
34.191946333164054 25.5403
34.21524043699793 25.5145
34.23871800066799 25.494
34.26201503218366 25.4082
34.28531352370466 25.3844
34.30861347646881 25.2945
34.33209693978188 25.2958
34.3553998301885 25.2604
34.378704185565205 25.1942
34.402010007152356 25.070999999999998
34.42549939016683 25.0479
34.44880815937748 24.9361
34.472118398533134 24.9908
34.49543010887669 24.9234
34.51892543169198 24.7869
34.54224009966052 24.8744
34.56555624255917 24.8026
34.58887386163339 24.7876
34.61237514439016 24.6525
34.6356957311114 24.7161
34.65901779775809 24.6022
34.68252356662995 24.5486
34.705848608458616 24.5858
34.72917513396849 24.5443
34.75250314440949 24.518
34.77601490857862 24.4757
34.799345904259795 24.4114
34.82267838863559 24.3862
34.846012362958525 24.3288
34.869530142679984 24.3472
34.89286711232212 24.3069
34.91620557568269 24.2725
34.93954553401677 24.2359
34.9630693495876 24.2372
34.986412313340814 24.2561
35.00975677584668 24.1977
35.033102738362956 24.1206
35.05663261012228 24.0826
35.0799815881786 24.0783
35.10333207003229 24.0628
35.12668405694369 24.0141
35.150220005273056 23.9813
35.17357501786656 23.9728
35.19693153931268 23.9602
35.220289570874385 23.8506
35.24383161619786 23.8713
35.267192683604904 23.8867
35.290555264930376 23.7869
35.314101899412165 23.7991
35.33746752422433 23.8341
35.36083466676374 23.7822
35.38420332829803 23.7199
35.407756095629054 23.7677
35.43112781085063 23.7196
35.45450104888391 23.6813
35.477875810999194 23.6835
35.50143473172161 23.5504
35.52481255774625 23.6175
35.54819191167777 23.5565
35.57157279478914 23.5091
35.595137889488406 23.4845
35.61852184675279 23.4894
35.641907337029984 23.3609
35.665294361595684 23.3391
35.68886565090076 23.2104
35.7122557598848 23.1926
35.73564740699838 23.2414
35.759040593519934 23.2171
35.78261809810353 23.215999999999998
35.80601437933051 23.1188
35.829412203814705 23.0004
35.85281157283719 22.8844
35.876395313415884 22.9223
35.8997977874528 22.8824
35.92320180988546 22.9121
35.946790244133936 22.8894
35.97019737933222 22.9373
35.993606066789866 22.8719
36.01701630779276 22.7948
36.04061101440684 22.7214
36.06402437852291 22.7529
36.08743930005611 22.7746
36.1108557802951 22.6617
36.13445678011326 22.6535
36.15787639383515 22.5176
36.18129757014299 22.5299
36.20472031032821 22.4907
36.22832762423364 22.4897
36.25175350829375 22.5212
36.275180960119776 22.4055
36.298609981005924 22.4538
36.32222362992669 22.4249
36.34565580510207 22.3477
36.36908955323448 22.2801
36.39252487562093 22.1808
36.416144880530226 22.1355
36.43958336764275 22.1683
36.463023432914625 22.209
36.486465077645676 22.1635
36.51009145956204 22.1977
36.53353627947859 22.1198
36.55698268276811 22.0779
36.58043067073321 21.9935
36.60406345072071 21.9339
36.62751462435344 22.026999999999997
36.65096738658405 21.9539
36.67460498210655 21.9275
36.69806093788647 21.9317
36.72151848619297 21.8369
36.744977628333636 21.862
36.76862165890998 21.7362
36.79208400512205 21.7301
36.81554794910557 21.7188
36.83901349217101 21.5399
36.862663978991606 21.5368
36.88613273667352 21.5225
36.90960309738324 21.5341
36.933075062434064 21.5191
36.95673202673572 21.4352
36.98020721697122 21.4799
37.003684015502365 21.3542
37.027162423645365 21.3276
37.050825886711465 21.316999999999997
37.07430753063053 21.2138
37.09779078812467 21.248
37.121275660513014 21.2283
37.144945643673694 21.1694
37.16843376245278 21.1497
37.19192350009803 21.1686
37.215414857931435 21.0957
37.239091382563885 21.0314
37.262585997426164 20.9953
37.28608223645736 21.0207
37.309763684451696 20.956999999999997
37.33326318851098 20.9151
37.356764320726555 20.8989
37.380267082425526 20.8759
37.40395510942588 20.8048
37.42746114683234 20.7552
37.45096881771841 20.7079
37.474478123414166 20.7478
37.49817275092816 20.71
37.52168534303452 20.6695
37.54519957395567 20.5472
37.568715445024665 20.5858
37.592416694607714 20.5175
37.61593586281424 20.5365
37.63945667518264 20.6097
37.66297913304891 20.4754
37.68668702630454 20.5016
37.710212792059274 20.3942
37.733740207334854 20.3852
37.757269273470364 20.3379
37.780983832050374 20.2346
37.80451621684926 20.2474
37.82805025654007 20.2471
37.851585952464795 20.1856
37.8753071980695 20.1858
37.89884622345676 20.0895
37.92238690911902 20.0983
37.94611318753442 20.1238
37.969657210779765 20.1039
37.99320289834801 20.0524
38.016750251586465 19.9759
38.04048325513017 19.9007
38.06403395679343 19.9545
38.087586328183946 19.8949
38.11114037065203 19.8478
38.13488012115898 19.8514
38.1584375229181 19.7998
38.181996599821 19.7212
38.205557353221124 19.8181
38.229303872575656 19.7291
38.2528679961576 19.6357
38.27643380031219 19.639
38.30000128639589 19.5499
38.32375459653193 19.5932
38.34732546371299 19.5669
38.37089801690786 19.4585
38.39447225747609 19.4763
38.418232380377425 19.4259
38.441810012983396 19.4023
38.46538933705673 19.3629
38.488970353960084 19.3292
38.51273731166058 19.3419
38.536321731567014 19.2686
38.55990784840681 19.2
38.58367995004091 19.1801
38.60726947812959 19.148
38.63086070726198 19.1794
38.654453638806274 19.1899
38.678232613930824 19.1212
38.70182896773327 19.0929
38.72542702806741 19.0214
38.7490267963045 18.9886
38.77281266709232 18.9677
38.79641586862214 18.9833
38.8200207821842 18.9122
38.843627409152944 18.9455
38.86742019782782 18.9469
38.891030269149255 18.8287
38.914642058016156 18.7743
38.938255565806124 18.7457
38.96205529464307 18.7383
38.98567225787121 18.7272
39.00929094417078 18.7055
39.03291135492255 18.7154
39.05671804624804 18.6282
39.080341923549106 18.6005
39.103967529460334 18.5295
39.127594865365744 18.5398
39.15140854155791 18.4802
39.17503935514948 18.4569
39.19867190290282 18.4322
39.22249083587951 18.4321
39.24612686969409 18.4333
39.269764641845306 18.401
39.293404153722804 18.3972
39.317230110864074 18.2263
39.34087311998506 18.209
39.36451787301696 18.1843
39.388164371352595 18.2043
39.41199737518003 18.1239
39.43564738196752 18.1582
39.45929913825317 18.1097
39.48295264543308 18.0755
39.506792718520884 18.0783
39.530449745387216 18.0168
39.55410852735203 18.0289
39.57776906581474 18.0234
39.60161623079 17.9259
39.625280300200025 17.9385
39.64894613032202 17.8311
39.67261372255866 17.8479
39.6964680021016 17.8534
39.72013913657293 17.8645
39.74381203738292 17.768
39.76748670593756 17.6916
39.79134812278169 17.7379
39.81502634488497 17.6982
39.83870633896685 17.7316
39.862388106436654 17.6442
39.88625668336918 17.6126
39.90994201572829 17.6331
39.933629125719285 17.5418
39.957503091207826 17.5268
39.9811937746168 17.5157
40.00488623990914 17.5397
40.02858048850006 17.4446
40.05246165409549 17.3985
40.076159487492085 17.348
40.099859108448875 17.4161
40.123560518384345 17.3643
40.1474489070226 17.3782
40.171153913178564 17.262999999999998
40.194860712584955 17.2362
40.2185693066637 17.2309
40.242464941335314 17.1815
40.26617714307655 17.141
40.289891143772046 17.1505
40.3136069448471 17.1
40.33750984859743 17.0943
40.3612292688043 17.0674
40.3849504936829 17.0622
40.40867352466194 17.0676
40.43258372059144 17.0003
40.45631038219906 17.022000000000002
40.48003885420956 16.902
40.503769138055105 16.9134
40.52768664931955 16.9487
40.55142057531802 16.887999999999998
40.57515631746428 16.8261
40.599079334038514 16.8095
40.62281872700477 16.7259
40.64655994043941 16.8184
40.67030297578061 16.7486
40.69423334835778 16.6734
40.71798004609188 16.6605
40.74172857006355 16.6776
40.76547892171441 16.6304
40.7894166736039 16.5915
40.813170699248566 16.5312
40.83692655691388 16.5059
40.86068424804498 16.5257
40.884629402612525 16.3701
40.908390779366385 16.4636
40.932153993938 16.4553
40.95591904777605 16.4243
40.979871628443995 16.423
41.003640379561936 16.3193
41.02741097430883 16.3253
41.05118341413683 16.2667
41.075143444384416 16.2431
41.098919593177826 16.2697
41.1226975914255 16.2492
41.14647744058318 16.1952
41.170444943946755 16.145
41.19422851378379 16.2023
41.218013938914645 16.1538
41.24198706625173 16.0778
41.26577622087193 16.1049
41.289567235177785 16.0502
41.31336011063129 16.0514
41.337340752422875 15.9406
41.361137369129835 15.9788
41.38493585138705 15.9305
41.40873620066004 15.89
41.43272438060107 15.8418
41.45652848292052 15.8862
41.48033445666918 15.8391
41.50414230331616 15.7577
41.528138045159764 15.7767
41.551949656675205 15.7197
41.575763145513235 15.7023
41.59957851314666 15.683
41.62358184070442 15.6694
41.64740098505737 15.6215
41.6712220126409 15.6189
41.69504492493139 15.5786
41.71905586207357 15.5709
41.74288256296395 15.5878
41.766711153007456 15.5655
41.79054163368412 15.4948
41.814560204340054 15.4265
41.838394485526365 15.5053
41.86223066180303 15.3455
41.88625497706819 15.3897
41.910094962812 15.3574
41.93393684811168 15.3352
41.95778063445365 15.2181
41.981812625263366 15.2442
42.00566023303407 15.2514
42.029509746323676 15.2497
42.05336116662236 15.1497
42.077400857069705 15.1262
42.10125611078846 15.1542
42.12511327600405 15.1907
42.14897235421036 15.0924
42.173019768448455 15.095
42.19688269209613 15.0343
42.22074753323349 14.9478
42.24461429335818 14.9619
42.268669455600495 14.9493
42.292540073217886 14.9471
42.31641261433284 14.9048
42.34028708044675 14.9225
42.36435001496739 14.8653
42.38822835065557 14.8562
42.41210861586426 14.7693
42.4359908120986 14.7667
42.46006154323262 14.7472
42.48394762115317 14.6652
42.507835634632315 14.6935
42.531912233047436 14.7608
42.55580413732265 14.7156
42.579697981698 14.6818
42.60359376768525 14.6565
42.62767820545945 14.5816
42.65157789440821 14.5991
42.67547952952185 14.5435
42.699383112316 14.4945
42.72347541395347 14.4426
42.74738291190531 14.4544
42.771292362102166 14.4545
42.795203766063516 14.4459
42.819303956130405 14.4192
42.843219287476536 14.392999999999999
42.86713657716324 14.3209
42.89105582671383 14.2627
42.91516392983864 14.2872
42.939087119032166 14.2925
42.963012272677304 14.2375
42.98693939230129 14.225
43.01105543317513 14.2033
43.034986504731386 14.1377
43.05891954686589 14.0787
43.08285456110972 14.1422
43.10697856448665 14.0794
43.130917542983475 14.0431
43.15485849820081 14.0985
43.17880143167367 13.994000000000002
43.20293342237094 14.0002
43.226880332449 13.9355
43.25082922540554 13.9467
43.27496722682525 13.9731
43.29892010567796 13.9442
43.32287497204102 13.8874
43.34683182745632 13.8561
43.370977859791836 13.8498
43.39493871351105 13.8357
43.41890156092628 13.8288
43.44286640358341 13.7921
43.46702049182749 13.7152
43.49098934522816 13.7077
43.51496019852649 13.718
43.5389330532723 13.7108
43.56309522248204 13.6253
43.58707210044314 13.6549
43.61105098451946 13.5773
43.63503187626491 13.565999999999999
43.659202151562134 13.5379
43.68318707902681 13.5606
43.70717401884041 13.4386
43.731162972560874 13.4062
43.75534137913236 13.4124
43.779334381108384 13.3644
43.803329401683186 13.4206
43.82732644241872 13.3946
43.8515130055166 13.347000000000001
43.87551410707659 13.3178
43.89951723350145 13.3501
43.923709934595614 13.3027
43.94771713129917 13.2928
43.97172635758096 13.2558
43.99573761501002 13.2327
44.0199385169922 13.1917
44.04395385732619 13.2144
44.067971233533086 13.1673
44.09199064718605 13.1275
44.11619977548961 13.1113
44.14022328470671 13.1128
44.16424883610785 13.1761
44.18827643127035 13.1105
44.21249381139513 13.0586
44.236525514814076 13.0022
44.26055926674478 12.987
44.28459506876863 12.9883
44.3088207262813 12.9038
44.33286064928722 12.9169
44.35690262714919 12.8963
44.38094666145278 12.8465
44.4051806219871 12.8558
44.42922879003185 12.8078
44.45327901929361 12.8253
44.477331311362136 12.8389
44.501573600619416 12.7598
44.525630039221795 12.6667
44.54968854541895 12.7076
44.573937102200176 12.7147
44.5979997645541 12.6944
44.622064499300315 12.7093
44.64613130803592 12.6449
44.67038823869318 12.6067
44.69445921643748 12.5491
44.718532272981385 12.5261
44.742607409926194 12.5348
44.76687274034801 12.5087
44.79095205918753 12.4615
44.81503346325094 12.4696
44.839116954143876 12.4469
44.86339071028742 12.4369
44.88747839599524 12.3894
44.91156817336837 12.3666
44.93566004401666 12.3574
44.959942251908146 12.3205
44.984038330325966 12.3008
45.00813650686762 12.2909
45.03223678314731 12.2569
45.05652746888232 12.2503
45.08063196592069 12.2673
45.104738567558705 12.2483
45.128847275414856 12.1858
45.15314646515866 12.100999999999999
45.17725940679741 12.1337
45.20137445952892 12.1379
45.22568004865265 12.11
45.24979934496396 12.0843
45.27392075725247 12.0259
45.29804428714431 12.0065
45.322358426247604 12.0111
45.346486212804315 11.9892
45.370616121861914 11.9939
45.39474815505086 11.9447
45.41907087049246 11.9255
45.4432071734666 11.9016
45.46734560548283 11.8976
45.49148616817604 11.8737
45.51581748638564 11.843
45.5399623320197 11.829
45.56410931325473 11.8197
45.58825843173002 11.7773
45.61259837920865 11.7504
45.636751793816 11.7229
45.66090735060093 11.7162
45.68506505120716 11.6862
45.7094136545275 11.667
45.73357566449271 11.6263
45.75773982322992 11.6213
45.78190613238733 11.630999999999998
45.806263418194064 11.57
45.83043404997326 11.5866
45.85460683713677 11.5636
45.87897065658495 11.5165
45.90314777634752 11.4673
45.92732705646868 11.4914
45.9515084986045 11.4472
45.97588104735473 11.4442
46.00006683541565 11.4411
46.02425479047904 11.4113
46.04844491420549 11.3799
46.0728262191024 11.3657
46.09702070211635 11.3476
46.12121735879483 11.3488
46.14541619080294 11.339
46.169806278764455 11.3154
46.194009483459034 11.2816
46.21821486849841 11.2748
46.24242243555223 11.2129
46.266821333570014 11.1987
46.29103328674601 11.1782
46.31524742696538 11.1842
46.33946375590237 11.1536
46.36387149104216 11.0715
46.38809221957392 11.1015
46.41231514186606 11.1028
46.436540259597464 11.0886
46.460956858999374 11.0412
46.48518638983522 11.0387
46.509418121166966 11.0007
46.533652054678114 10.9752
46.55807754555709 10.9895
46.58231590571962 10.9968
46.60655647313217 10.9061
46.630988654873654 10.8667
46.655233659129024 10.8497
46.67948087571551 10.8681
46.70373030632484 10.8502
46.72817142736393 10.8032
46.752425308428684 10.7904
46.77668140861147 10.7429
46.80093972960865 10.7508
46.82538981736788 10.7455
46.849652602470904 10.6794
46.87391761349769 10.6714
46.8981848521493 10.673
46.9226439341274 10.6358
46.946915650573224 10.6306
46.97118959976749 10.6292
46.99546578341598 10.5687
47.019933887188216 10.5509
47.04421456235744 10.5631
47.06849747711879 10.5688
47.09278263318286 10.5484
47.11725978640143 10.4836
47.14154944775105 10.4618
47.165841355555656 10.4534
47.1901355115306 10.4109
47.214621741924994 10.401
47.23892041698887 10.4529
47.26322134538975 10.3976
47.28771440635075 10.3233
47.31201986422527 10.3597
47.33632758061436 10.3459
47.360637557241866 10.2785
47.38513974410611 10.3234
47.40945426407847 10.2266
47.43377104948137 10.2557
47.45809010204344 10.2269
47.48260144275502 10.2094
47.506925052572285 10.2193
47.53125093475548 10.1764
47.55557909103813 10.1394
47.58009961361992 10.1768
47.60443234110732 10.1007
47.62876734791564 10.0735
47.65310463578333 10.0755
47.6776343683373 10.0351
47.7019762413987 10.0128
47.72632040075572 9.994539999999999
47.75066684815169 9.99075
47.77520581885936 9.98788
47.799556865477655 9.91498
47.823910205386 9.92343
47.84826584033272 9.9188
47.87281407745551 9.878210000000001
47.89717432569297 9.90521
47.92153687423484 9.8792
47.94609208429692 9.84085
47.97045925671401 9.836780000000001
47.99482873471275 9.794369999999999
48.01920052005013 9.85929
48.04376504619224 9.80568
48.068141469543484 9.77321
48.09252020552573 9.78078
48.11690125590099 9.710239999999999
48.1414751266064 9.73812
48.16586082917454 9.70912
48.19024885144316 9.67393
48.2146391951793 9.67164
48.239222439012764 9.65417
48.26361744916137 9.66505
48.28801478610016 9.63856
48.31241445160131 9.62832
48.337007097209366 9.58182
48.36141144338331 9.56847
48.38581812345755 9.53085
48.41022713920929 9.51794
48.434829215320704 9.49235
48.45924292604658 9.50773
48.48365897780325 9.49949
48.50807737237308 9.46027
48.532688907799276 9.49394
48.55711201168574 9.44765
48.581537463754074 9.39953
48.60615611725119 9.43778
48.63058628942721 9.42575
48.65501881516546 9.37087
48.6794536962573 9.36605
48.70408185970339 9.32184
48.72852147531801 9.29083
48.75296345168211 9.27668
48.77740779059232 9.27643
48.80204549302823 9.28795
48.82649458091802 9.245560000000001
48.85094603676547 9.22395
48.87539986237231 9.19341
48.90004713292306 9.16098
48.92450572200832 9.134689999999999
48.94896668628025 9.133189999999999
48.97343002754588 9.17234
48.99808689542115 9.12625
49.02255501470614 9.11047
49.04702551642794 9.10704
49.0714984023988 9.08758
49.096164896893235 9.05308
49.120642575466796 9.039530000000001
49.145122643748394 9.04187
49.16960510355558 8.98325
49.19428125404938 8.98971
49.2187685210852 9.00836
49.243258185121555 8.971689999999999
49.26794160167084 8.9359
49.2924360839405 8.94026
49.31693296869764 8.90661
49.34143225776915 8.88824
49.36612538195438 8.88585
49.39062950396021 8.86186
49.41513603578346 8.86256
49.4396449792564 8.7973
49.46434784069503 8.806239999999999
49.488861631846454 8.75243
49.513377840166804 8.74245
49.537896467493745 8.735510000000001
49.56260909589029 8.675880000000001
49.587132585683285 8.69674
49.611658500018365 8.67543
49.636186840738596 8.63113
49.66090926588511 8.685939999999999
49.685442483902584 8.667110000000001
49.70997813385706 8.64179
49.734516217597076 8.641760000000001
49.75924846937352 8.633410000000001
49.7837914452858 8.583739999999999
49.80833686055187 8.51564
49.83288471702571 8.51753
49.85762682540054 8.561869999999999
49.882179588965734 8.500589999999999
49.9067347993235 8.45935
49.93129245833333 8.470469999999999
49.95604445336378 8.47109
49.98060703442832 8.41571
50.005172069746266 8.451089999999999
50.02993150438364 8.408719999999999
50.05450147301533 8.40516
50.07907390151433 8.36854
50.10364879174981 8.36399
50.12841816587289 8.32339
50.1529980044635 8.3346
50.17758031042124 8.35483
50.20216508562089 8.30333
50.22694442953363 8.28043
50.25153416817468 8.25062
50.27612638170508 8.25061
50.300721072005196 8.211
50.325510416102105 8.21557
50.350110084975064 8.19174
50.37471223628208 8.20085
50.39931687190919 8.18131
50.424116246675766 8.14293
50.44872587605249 8.12218
50.47333799543065 8.135819999999999
50.49795260670191 8.08642
50.52276204271512 8.09265
50.54738166295838 8.07733
50.57200378079314 8.06856
50.596628398116835 8.01163
50.62144792604559 8.02365
50.646077567609396 8.01412
50.670709714377715 8.00953
50.69553683636198 7.95493
50.72017401885922 7.932860000000001
50.7448137122895 7.95757
50.76945591856022 7.94952
50.79429318636823 7.925839999999999
50.818940443716784 7.94032
50.84359021965163 7.917560000000001
50.868242516085964 7.8804
50.893089960641895 7.858569999999999
50.917747323549435 7.84549
50.94240721271973 7.81335
50.96706963007175 7.81274
50.99192728239342 7.783510000000001
51.01659478166073 7.802510000000001
51.04126481489051 7.7772
51.06593738400761 7.77988
51.090805275207074 7.76168
51.11548294172845 7.73791
51.14016314993547 7.70339
51.164845901758845 7.681080000000001
51.18972406304274 7.69278
51.21441192780656 7.6520600000000005
51.23910234200271 7.6546899999999996
51.2637953075678 7.63715
51.288683770237945 7.5889999999999995
51.31338186432707 7.58719
51.33808251561888 7.608230000000001
51.362978729967345 7.56513
51.387684521509755 7.54961
51.41239287610203 7.531039999999999
51.437103795691165 7.50662
51.46201036644977 7.5025
51.486726441956634 7.4768
51.51144508832545 7.458889999999999
51.536166307509156 7.4587699999999995
51.56108326624387 7.44538
51.58580965706056 7.4479
51.61053862657523 7.37867
51.635270176746864 7.383789999999999
51.66019755512065 7.386189999999999
51.68493429268881 7.356960000000001
51.70967361681515 7.33777
51.73441552946465 7.373530000000001
51.759353359237934 7.337000000000001
51.7841004750961 7.31995
51.80885018539685 7.297810000000001
51.833602492111254 7.25396
51.8585508051424 7.263319999999999
51.883308330926425 7.28695
51.90806845906181 7.2664
51.932831191525715 7.22288
51.95779001977161 7.22765
51.98255798721516 7.16897
52.00732856494335 7.16794
52.03229530577543 7.1590300000000004
52.057071130455945 7.1337600000000005
52.081849571391054 7.12387
52.106630630568695 7.12926
52.13160794279417 7.0841
52.15639426492067 7.1257399999999995
52.18118321127822 7.090660000000001
52.205974783860896 7.03912
52.23096269971011 6.99343
52.255759551287994 7.02175
52.280559035098186 7.001939999999999
52.30536115314103 6.99207
52.33035970494467 6.99275
52.35516711807904 6.991510000000001
52.37997717147198 6.957160000000001
52.40478986713005 6.97146
52.42979908731974 6.90687
52.454617094216 6.90135
52.47943774942214 6.88104
52.50426105495102 6.85199
52.529280976059844 6.85601
52.554109609024096 6.85261
52.57894089837482 6.82855
52.60377484613117 6.838889999999999
52.62880550079408 6.81687
52.65364479223379 6.8102100000000005
52.67848674816189 6.7577300000000005
52.70352547971946 6.77447
52.72837279155837 6.75212
52.753222773982785 6.7004
52.778075429022984 6.73186
52.80312495150885 6.71132
52.827982978797436 6.67743
52.85284368481815 6.67576
52.87770707160767 6.6901
52.90276741793998 6.6524
52.92763619336701 6.600560000000001
52.952507655698504 6.66032
52.977381806977576 6.62078
53.00245301017842 6.584639999999999
53.02733256653592 6.593660000000001
53.052214817996074 6.560569999999999
53.077099766608484 6.56137
53.102181859804446 6.560569999999999
53.127072229988265 6.54049
53.15196530349892 6.49271
53.17686108239249 6.46229
53.20195409881522 6.4859800000000005
53.22685531582556 6.5268
53.25175924441303 6.43837
53.27666588664027 6.45107
53.30176985962693 6.444780000000001
53.3266819565689 6.42734
53.35159677336455 6.42624
53.376514312083096 6.40247
53.40162927507703 6.40709
53.42655228516116 6.35519
53.45147802340193 6.29472
53.47660125628886 6.31785
53.50153247842639 6.32406
53.52646643496923 6.286230000000001
53.55140312799818 6.304209999999999
53.576537409691696 6.2647699999999995
53.60147960336152 6.27382
53.626424539786164 6.25084
53.65137222105307 6.2117
53.67651758529126 6.19741
53.70147078399681 6.1762
53.72642673383343 6.20367
53.75138543689533 6.139959999999999
53.776541917524526 6.14861
53.801506154876755 6.17042
53.826473151763246 6.13783
53.851442910284916 6.08801
53.87661054126026 6.09434
53.9015858509782 6.07613
53.92656392866066 6.08073
53.95154477641532 6.05293
53.976723591801296 6.06064
54.00171000771266 6.08547
54.02669920004598 6.07647
54.051691170915745 6.03927
54.076881204886796 5.99835
54.101878760928514 5.98107
54.12687910187696 5.99111
54.152077577768296 5.94576
54.1770835166946 5.93119
54.20209224691339 5.9467099999999995
54.22710377055121 5.95052
54.25231352511594 5.89476
54.27733066384342 5.84354
54.30235060239643 5.873819999999999
54.32737334290836 5.80638
54.35259441062629 5.82421
54.377622783395324 5.824669999999999
54.40265396455061 5.83282
54.42768795623251 5.8147199999999994
54.45292037169559 5.76997
54.477960012857906 5.79395
54.50300247099511 5.73461
54.52804774825457 5.75482
54.55329154616743 5.7471
54.57834249018678 5.6912
54.6033962597977 5.62408
54.6284528571545 5.62214
54.653708072335164 5.5966
54.67877035378786 5.6343
54.70383546947698 5.6197
54.72890342156389 5.57665
54.7541700889442 5.5854
54.77924374251975 5.509930000000001
54.8043202390049 5.46769
54.82959552413022 5.47075
54.8546777351945 5.48186
54.87976279569621 5.43473
54.90485070780914 5.46143
54.930137506558005 5.41245
54.95523115074295 5.4316699999999996
54.98032765308844 5.35073
55.005427015775496 5.3443
55.03072536339621 5.38434
55.05583047570572 5.32987
55.080938454927676 5.30259
55.10604930325027 5.29119
55.131359235107396 5.32993
55.15647585066083 5.24009
55.181595341907496 5.19335
55.20671771104285 5.16697
55.232039262617704 5.170640000000001
55.25716741665048 5.12436
55.28229845518636 5.12588
55.30743238042802 5.1205
55.33276558731939 5.0934
55.357905315183636 5.1035699999999995
55.383047936390035 5.04164
55.40819345314859 5.06229
55.433538351073295 4.9958599999999995
55.458689688238415 4.9981599999999995
55.483843927614096 4.97484
55.509197623043605 4.95919
55.53435769621134 4.92961
55.55952067826466 4.86421
55.5846865714265 4.826969999999999
55.61005202069737 4.7995
55.63522376553902 4.866680000000001
55.66039842818645 4.81027
55.68557601087004 4.81609
55.7109532500271 4.6951
55.73613670233794 4.75513
