TT I
1.2716486653135266 7.23302
1.2939594142134223 6.86039
1.3162702121660406 6.6074
1.3385810600174564 6.70764
1.3608919586137629 6.53413
1.383202908801069 6.5817
1.405513911425503 6.21675
1.4278249673332093 6.35745
1.4501343378461518 5.459230000000001
1.4724455028545926 5.61086
1.4947567236847858 5.8546
1.517068001182951 5.71551
1.5393793361953272 6.06398
1.5616907295681737 5.57273
1.5840021821477681 5.48644
1.60631369478041 4.89649
1.6286252683124185 4.85335
1.6509369035901333 4.2512099999999995
1.6732468618895553 4.61295
1.695558623192809 4.69878
1.7178704487808514 4.69683
1.7401823395001077 4.67971
1.7625012545597203 4.89775
1.7848028405262486 4.82531
1.8071218901122095 5.11269
1.8294236121921872 4.54064
1.8517427996910911 4.64302
1.8740620574440425 4.5583599999999995
1.8963639900671978 4.56473
1.9186833908139995 4.74022
1.9409854680117449 5.03446
1.9633050151394713 4.23793
1.9856246367570705 4.24485
2.0079269371922672 4.41919
2.03024671027244 4.09159
2.0525491637446027 4.3377
2.074869091674931 4.116569999999999
2.097171701569106 4.58029
2.1194917877373847 5.22129
2.141811954326636 4.949269999999999
2.164114805233074 4.28137
2.186435135143035 4.6207199999999995
2.208738150935709 5.994330000000001
2.231058647554722 7.4958800000000005
2.2533792288321184 6.31757
2.275682498336085 5.1540300000000006
2.298003251406138 5.072690000000001
2.3203066942619714 5.38086
2.3426276225136022 5.3988
2.3649486396617507 5.681690000000001
2.387252348930071 5.86589
2.4095735463442893 6.1609300000000005
2.4318774374315884 5.98389
2.4541988185014043 6.4980199999999995
2.476502894794693 6.99016
2.498824462909887 6.90039
2.521146125856138 7.000210000000001
2.5434504863470337 7.18622
2.5657723414244717 7.79978
2.588076895590662 8.533439999999999
2.610398946189713 8.180719999999999
2.6327210958598384 8.58186
2.6550259469304716 8.168
2.6773482972090137 8.28384
2.6996533504259 8.79071
2.7219759047039602 8.47363
2.744298562293959 8.775139999999999
2.7666039251246595 8.054160000000001
2.7889267918020164 8.215069999999999
2.8112323652516555 7.87449
2.833555444408179 8.1095
2.8558786311183852 7.98915
2.8781845268938557 8.37802
2.9005079311721484 8.753639999999999
2.9228140460410397 9.0914
2.9451376712799635 9.12841
2.967444008632326 9.2738
2.9897678582247247 9.902239999999999
3.0120918213106695 9.57424
3.0343984987899373 9.95841
3.0567226913198637 10.7666
3.079029599759726 11.2044
3.101354025127254 11.6992
3.123678568232338 12.1093
3.145985829517914 13.1644
3.16831061055229 13.4055
3.1906181112775593 14.083
3.212943133635653 15.0976
3.2352682779763207 14.7285
3.2575761442691227 15.0559
3.2799015350264273 14.9323
3.302209649240067 15.4278
3.3245352898092655 16.3813
3.3468436553365257 17.2659
3.369169549113219 17.1514
3.3914955708171384 17.9851
3.413804319727358 18.4028
3.4361305997334863 18.4951
3.4584396084414553 18.6349
3.4807661501462652 19.7236
3.503092824025881 20.1465
3.5254022288463154 20.2205
3.5477291695206588 20.8241
3.5700388426251948 21.2269
3.5923660534916446 22.4056
3.6146934007816114 23.8782
3.637003482731501 28.4757
3.6593311053109985 30.1814
3.681641464033634 26.1322
3.7039693653009733 24.0006
3.726297407241705 24.3004
3.7486081875460804 24.7472
3.7709365132734978 25.3116
3.793247578841633 25.8211
3.8155761917550093 25.6371
3.8378875459837216 26.2543
3.8602164494827234 27.019000000000002
3.882545499606844 27.7799
3.9048572932539183 28.2096
3.9271866390645718 28.4925
3.9494987298666713 29.0182
3.971828374764527 29.6488
3.9941581705403255 29.8058
4.016470713506008 30.4234
4.038800813471445 31.1076
4.061113662089144 31.809
4.0834440696459176 32.3449
4.105774632334751 32.8243
4.128087945865126 33.5219
4.150418821249301 34.3015
4.172732448931298 34.9194
4.195063640413578 35.5458
4.2173775856475215 36.8132
4.239709096631102 39.2887
4.262040768704612 54.3782
4.284355196706267 63.8201
4.306687193387355 55.3106
4.329001947444346 44.5982
4.35133427213731 41.876000000000005
4.373666762177566 41.9742
4.395982011761091 42.8128
4.418314834921175 43.5899
4.44063041906622 45.4234
4.4629635787515625 46.6848
4.4852969080429785 47.9761
4.5076130004776225 49.9457
4.529946671403969 54.0377
4.552263106909177 57.3177
4.574597122877047 54.9018
4.596931312711224 52.9886
4.619248269273446 53.321000000000005
4.6415828092605835 53.9235
4.663900117405352 54.9549
4.686235010953232 56.5803
4.708552674085913 58.1763
4.730887924602802 59.1458
4.753223354952695 61.3339
4.775541557023902 63.8703
4.797877349456786 66.6307
4.820195915032126 67.7872
4.842532072957498 67.6453
4.864868414979744 70.1582
4.88718753227192 74.0198
4.909524244902505 77.2099
4.931843734218147 76.4479
4.954180820867835 77.872
4.976518095879839 80.5497
4.998838149695359 83.1245
5.021175803844231 86.6104
5.043496238205739 90.1235
5.065834274903528 94.2382
5.088172504230693 97.9576
5.1104935158799565 104.301
5.132832132875765 116.53299999999999
5.155153533596801 136.384
5.1774925416746225 175.218
5.199814334878411 379.59
5.2221537374521505 1022.82
5.244493338631803 2843.97
5.266815727034316 8071.23
5.289155727832427 13957.2
5.311478517248165 8541.38
5.333818921080011 2320.21
5.356159527788849 427.94599999999997
5.3784829252032536 177.85
5.400823940070432 144.33100000000002
5.423147747031976 125.566
5.445489173474152 116.85700000000001
5.467830807066149 116.82799999999999
5.490155234831516 116.729
5.512497285125229 110.273
5.534822130975162 103.78200000000001
5.557164601388673 100.93799999999999
5.579489868738879 98.0458
5.601832762690846 96.7466
5.6241758697774475 96.0965
5.646501775867269 95.2967
5.668845311622074 93.7689
5.691171647754637 93.9815
5.713515615597765 93.0009
5.735859800852677 92.1716
5.758186788542988 93.667
5.780531411018185 96.6876
5.802858837297399 95.5132
5.825203900414495 95.5378
5.8475491852224 98.3123
5.869877275883075 97.266
5.892223006467101 95.0845
5.914551544266608 94.3622
5.936897724049891 96.7538
5.959244129804903 104.34899999999999
5.981573344815301 132.201
6.0039202049061 245.69799999999998
6.026249875609095 482.13199999999995
6.04859719346037 972.0269999999999
6.070927323278297 2282.45
6.093275102315365 4775.47
6.115623113320588 5604.81
6.137953938319995 2912.22
6.160302415650845 755.425
6.182633708324452 179.07
6.2049826554078376 101.42
6.227331838745022 86.6149
6.249663839443684 81.2938
6.27201349767565 78.3419
6.294345974611799 76.0812
6.316696111167083 75.4792
6.339046488263839 73.9376
6.361379686074702 71.0719
6.383730546639482 69.6576
6.406064229255215 68.6006
6.428415576718203 69.4449
6.450749747566656 67.9044
6.47310158535871 66.3936
6.495453669698332 64.5737
6.517788579421056 63.8355
6.540141159237969 62.7917
6.562476565766648 62.3956
6.5848296444934045 61.9431
6.607182974060425 62.166000000000004
6.6295191323281015 61.2537
6.651872965955752 60.3969
6.6742096296068985 61.7655
6.6965639707294615 65.51100000000001
6.71891856698715 65.6555
6.741255995248479 61.5323
6.763611104154477 58.5544
6.785949046381137 57.608000000000004
6.808304671371482 57.8691
6.8306605557940046 59.0838
6.852999275508618 57.7683
6.875355681171544 56.9447
6.897694923437771 56.3095
6.92005185377892 55.4953
6.9423916220322655 55.1104
6.964749080490181 54.6146
6.987106804399774 54.7263
7.009447368180821 55.0863
7.031805625367033 54.4368
7.054146723727803 54.37
7.076505517631004 53.8702
7.098864581288365 53.9675
7.121206488070854 53.878
7.143566093607822 54.0418
7.165908543567245 55.1662
7.188268694426048 54.4884
7.2106291193438095 53.7065
7.232972390625943 53.5138
7.255333366030969 54.09
7.277677189091925 58.233000000000004
7.300038718428332 64.0237
7.322400526130865 62.1459
7.344745183422596 56.3571
7.367107550224791 53.698
7.389452767901992 53.6387
7.411815697249891 53.4879
7.434161478756298 52.784
7.456524974096713 53.3162
7.478888753837185 53.0844
7.501235387657368 53.4995
7.523599738562711 54.1643
7.545946944825532 56.1915
7.568311870344528 57.0443
7.5906770845765665 55.4879
7.613025156078678 54.6693
7.635390950099687 54.8446
7.657739602662809 54.53
7.680105979923558 54.8728
7.702472650212829 55.9336
7.724822180948224 55.9033
7.747189439655568 55.893
7.769539560075357 55.3135
7.791907410653562 55.4613
7.81425812420825 55.4157
7.836626570110925 56.2312
7.858995315087906 57.0989
7.881346924933401 56.8465
7.903716270417482 57.6011
7.926068482028405 58.0408
7.948438431475253 58.3362
7.9708086843180235 58.7269
7.993161805171116 59.4532
8.015532667162402 60.1588
8.037886398416653 61.2695
8.060257873014221 61.7764
8.082629655331942 62.625
8.104984308787587 63.0423
8.127356708900503 64.4621
8.149711981398308 67.5591
8.172085002766314 68.7927
8.194458336181368 68.1406
8.216814543847752 67.6332
8.23918850371002 68.6601
8.26154533906492 69.689
8.283919928836452 71.3174
8.306277395339652 72.3774
8.328652618483376 73.5165
8.351028159736202 75.5528
8.373386579575245 77.9646
8.395762759396959 79.2754
8.418121819038275 81.8259
8.440498640894003 86.7564
8.462875785192262 96.2371
8.485235811156207 123.62299999999999
8.507613602688501 180.783
8.529974277114228 272.279
8.552352719347912 405.546
8.574731488360351 665.698
8.59709314210385 1256.46
8.619472567021075 2065.01
8.64183487789147 2383.33
8.664214962183097 1749.35
8.686577933647762 818.07
8.708958680784317 296.908
8.731339760774953 137.171
8.753703729764451 103.30799999999999
8.77608547780821 95.6687
8.798450116065078 93.03399999999999
8.820832535634787 91.1318
8.843215292401656 90.8298
8.865580941199045 90.8391
8.887964374703538 90.1358
8.910330701447199 89.7023
8.932714815164482 89.4907
8.955099270424924 86.9786
8.977466620733543 85.1403
8.999851761421976 84.4575
9.022219798361645 83.2944
9.04460562795561 83.4159
9.066991803441677 83.4043
9.089360876979615 83.7897
9.111747746589993 83.5474
9.13411751544971 82.5875
9.156505082664324 81.55199999999999
9.178875550323522 81.3659
9.20126381862328 81.7587
9.223652438908596 83.3971
9.246023961427412 85.225
9.26841328802173 85.7783
9.290785518039224 84.6341
9.313175554425882 84.9598
9.335565947154315 85.0852
9.357939245086508 85.7542
9.380330352834827 85.2581
9.40270436697103 84.76899999999999
9.425096193225055 84.4484
9.447488380180165 84.3222
9.469863475295412 83.7219
9.492256385987508 84.1647
9.514632206018318 84.51700000000001
9.537025843935714 85.0756
9.559402392368193 86.8892
9.581796761000229 88.5809
9.604191496441521 90.1244
9.626569144158516 91.6941
9.648964615551032 92.3196
9.671343000390081 91.7117
9.693739211225699 91.2451
9.716135793237463 91.5562
9.738515290448102 92.4261
9.760912617143402 93.86399999999999
9.783292860202891 96.0027
9.805690935076182 97.9596
9.828089385495742 98.7989
9.850470754023561 99.7901
9.872869957865444 101.829
9.89525208097539 105.405
9.917652041736662 110.488
9.940052382417589 121.64200000000001
9.962435644102392 151.011
9.984836746950979 195.40099999999998
10.007220771957746 261.032
10.029622640473708 367.18300000000005
10.052007432299963 549.275
10.074410069984072 850.54
10.096813093716005 1350.72
10.119199042482517 1926.77
10.141602840636468 2041.39
10.163989564971628 1472.75
10.186394141051062 737.591
10.208799107559706 308.053
10.231187001965623 158.175
10.253592751657669 117.329
10.275981430388155 108.57600000000001
10.298387966769793 105.96
10.320794897965431 105.029
10.343184759907361 104.162
10.36559248305461 102.87899999999999
10.387983138083852 104.16
10.410391656691655 111.6
10.432800574501677 123.78200000000001
10.455192425893369 140.607
10.47760214443012 167.63099999999997
10.499994797678786 213.99599999999998
10.522405320453982 297.005
10.54479877906917 424.392
10.567210109595656 557.367
10.5896218454736 603.078
10.612016518879773 477.342
10.634429067781074 294.11
10.656824555333241 168.85299999999998
10.679237920773568 111.63799999999999
10.701651695961992 92.9812
10.724048411481384 87.9788
10.746463008485165 85.0082
10.768860546937125 84.064
10.791275969274796 82.3195
10.81369180576079 81.5095
10.836090585366925 80.3702
10.858507252467449 79.2531
10.88090686379991 78.3617
10.903324365036394 77.6149
10.925724811614439 76.6525
10.948143150509463 76.851
10.970561909719066 76.2958
10.992963615930844 75.2325
11.015383218085756 74.068
11.037785768347074 72.7703
11.06020621697282 71.9102
11.082627090322113 70.9799
11.105030913430326 70.3574
11.12745263854165 69.8307
11.149857314510728 69.3346
11.172279894912576 70.2
11.194702904450653 69.6253
11.217108866490921 68.4802
11.239532736615194 67.8844
11.26193956033512 67.1212
11.284364294577085 66.8355
11.306789462371718 66.2112
11.329197585398376 66.1221
11.351623622610898 66.1237
11.37403261614354 65.2835
11.396459526308487 65.0931
11.418869393879497 64.8867
11.441297180532617 64.593
11.463725406927658 64.0597
11.486136592353875 63.6224
11.508565700543707 63.4444
11.530977768845315 63.7924
11.553407762368774 63.2049
11.575838200059769 63.1439
11.598251599479612 62.6516
11.620682927815501 62.571999999999996
11.64309721895548 62.8757
11.665529441478206 62.1739
11.687962112597958 61.9712
11.710377748130886 62.2646
11.732811318753434 62.3452
11.755227854859067 61.8525
11.777662328529495 61.6807
11.800079768750786 61.8657
11.822515149015453 61.9727
11.844950984084935 62.3566
11.867369787303163 61.8464
11.889806534289491 61.5611
11.912226250487029 62.3329
11.934663912939751 62.9957
11.9571020346363 63.46
11.979523127133968 63.7497
12.001962169624331 64.557
12.024384183972964 66.24
12.046824150809913 69.3381
12.069264581333726 73.6353
12.091687985297767 80.1041
12.11412934550045 89.5366
12.136553680195208 104.98299999999999
12.158995973632788 128.856
12.181438735204349 159.995
12.20386447284199 195.77900000000002
12.226308172985636 208.725
12.24873485024193 192.715
12.271179492516982 149.631
12.293607112949127 109.895
12.316052700916226 82.1214
12.338498763250042 68.8769
12.360927805303868 64.2885
12.383374818673879 63.493
12.405804812803074 63.049
12.428252780773262 63.0949
12.45070122756722 63.3983
12.473132656675375 63.1514
12.49558206341869 63.8604
12.518014453510101 64.2236
12.540464823770117 64.1148
12.562915677315177 63.7345
12.58534951575545 64.0071
12.607801338171472 64.2467
12.630236146511358 64.9943
12.652688941369085 66.0298
12.675124723177234 66.4064
12.697578494048786 66.6034
12.720032754458185 66.4065
12.742470003354093 66.1636
12.764925245138771 66.9272
12.787363476431278 67.1771
12.809819703166806 67.6383
12.83227642391173 68.4201
12.854716135692716 69.2168
12.877173846755147 70.48
12.899614549869717 70.949
12.9220732548287 71.7618
12.94453245827299 72.2248
12.966974655289818 73.3399
12.989434858002571 74.0862
13.011878055298721 74.6741
13.034339260862497 75.6263
13.056800969391883 77.24600000000001
13.079245674017244 80.4832
13.101708390774869 84.818
13.12415410463411 93.1943
13.146617833206086 103.28
13.169064559883248 114.56299999999999
13.191529303857127 129.931
13.213994557076367 152.597
13.236442809902437 190.497
13.258909083908291 251.053
13.28135835851934 325.647
13.30382565690295 405.23699999999997
13.326293469022952 455.476
13.348744283242008 419.713
13.371213125129904 324.538
13.39366497011003 219.90900000000002
13.416134845360597 148.127
13.438605238843131 112.85600000000001
13.46105863690397 104.01299999999999
13.483530069144786 107.081
13.505984506951902 112.756
13.528456981549432 123.639
13.550929978879088 139.441
13.573385983253365 163.99
13.595860028340867 202.763
13.618317081455832 257.962
13.64079217790333 329.62800000000004
13.663250283359057 382.74
13.685726434770173 392.401
13.708203115221277 328.75199999999995
13.730662806148091 241.612
13.75314054697177 163.135
13.775601299246777 113.895
13.798080104050406 91.3302
13.820559442405358 83.0292
13.843021793671388 80.3661
13.865502201420897 78.7186
13.887965623051947 78.6599
13.910447103807167 77.8345
13.932929122629764 76.626
13.955394156785959 76.2173
13.977877254034569 75.3212
14.000343367582113 74.4359
14.022827546871707 74.0197
14.045294743423524 73.2761
14.06778000837062 72.5729
14.090265817715476 72.2188
14.112734645763819 72.032
14.13522154619454 71.697
14.157691466286913 71.6877
14.180179461423874 71.4943
14.202668005486178 70.9298
14.22513957064374 70.0011
14.247629214846473 69.71
14.270101881097517 69.2367
14.29259262906496 69.3547
14.315083930490205 69.4392
14.337558255389705 69.2033
14.360050666019726 69.1207
14.382526101071944 68.7422
14.405019624534942 68.479
14.427513705993134 68.5091
14.449990813291825 68.4125
14.47248601302899 68.1486
14.49496423954951 68.1407
14.517460561197822 68.3391
14.539939910570322 68.1802
14.562437357763558 68.4215
14.58493536931253 68.7155
14.607416409993311 68.7621
14.62991555254159 69.0674
14.652397725157423 69.1403
14.674898002342799 69.7055
14.697398848433282 69.97800000000001
14.719882725991326 71.5691
14.74238471217934 73.8184
14.764869730765593 77.1689
14.787372860692983 80.2608
14.809876564079925 85.0392
14.83236330125751 91.1128
14.854868153850365 99.9333
14.877356041159485 114.598
14.899862046604186 133.043
14.922351087688757 160.512
14.944858249632887 195.43599999999998
14.967365991421232 223.30900000000003
14.989856770231246 231.94400000000002
15.012365673994204 215.424
15.03485761569738 176.215
15.05736768508665 131.912
15.07987833888692 101.634
15.102372032001655 82.9474
15.124883856909658 73.4509
15.14737872204565 70.72
15.169891721717274 69.6294
15.192405310371893 69.2835
15.214901940621196 68.6957
15.237416709527137 68.0008
15.259914520936249 68.0624
15.282430473753607 67.3069
15.304947020131227 66.6808
15.327446610371178 66.4353
15.349964346154254 66.3151
15.372465126703139 65.95100000000001
15.394984055556009 65.8825
15.417486030076159 65.904
15.44000615566487 65.4059
15.462526881230803 65.1075
15.485030653812652 65.2083
15.507552581617434 65.0806
15.530057557334603 64.98899999999999
15.55258069104857 65.1562
15.575104429329837 65.4909
15.597611216864632 65.3204
15.620136166564563 66.3463
15.6426441664095 67.8699
15.665170331202765 70.1689
15.687697105158826 73.2149
15.710206930593545 77.059
15.732734925158933 81.5542
15.755245972089478 88.1308
15.77777519094324 97.3019
15.800287463046663 110.367
15.822817909869592 130.363
15.84534897229804 153.377
15.867863089299354 181.102
15.890395385222186 198.27900000000002
15.912910736597423 196.975
15.935444269699861 175.9
15.957978423016485 140.733
15.980495633101265 108.988
16.003031029129367 85.09
16.02554948280019 70.6451
16.048086125229432 64.8273
16.070623392487107 62.9442
16.09314371869582 61.5785
16.11568223789321 60.7485
16.13820381691126 60.2117
16.160743591742527 59.7635
16.183283996022084 59.3565
16.205807461423195 58.4625
16.228349126881973 57.938
16.25087385432698 57.8126
16.27341678466365 57.2404
16.29594277784926 57.0508
16.31848697676433 56.8175
16.341031811604868 56.3483
16.36355971058487 56.411
16.3861058195587 56.1215
16.40863499352978 55.5408
16.431182380342005 55.5652
16.453730407713202 55.1081
16.476261501364792 54.9057
16.498810812136167 54.655
16.52134319004079 54.7317
16.54389378792203 54.5614
16.566445031001553 54.5694
16.588979342490088 54.2611
16.61153187824822 54.3076
16.634067483263312 54.2349
16.656621315414416 53.9757
16.679175797408888 53.6813
16.701713349928728 53.8559
16.72426913389191 53.9382
16.74680798922351 53.845
16.76936507887444 53.9272
16.791905240734874 54.0731
16.814463639794468 53.9707
16.837022695210294 53.8886
16.859564824093756 54.0119
16.882125194503903 54.1393
16.904668639217885 54.3598
16.927230328348003 54.4001
16.949792678493612 54.5378
16.972338104193863 54.4939
16.994901778652235 54.7074
17.017448529496576 55.0917
17.040013531998152 55.6119
17.06257920018044 55.9929
17.0851279459922 56.7538
17.107694947817667 57.6365
17.130245028099072 58.4451
17.15281336730298 59.7693
17.17536478578733 61.3948
17.19793446610687 63.7668
17.220504818648422 66.7113
17.243058251703697 70.2626
17.265629950971032 75.1201
17.288184731571736 80.1448
17.310757781306908 83.5022
17.33333150794385 83.0092
17.355888317140174 80.0929
17.37846339986244 73.3891
17.401021565958885 67.6482
17.42359800851343 62.9934
17.44617513265564 60.5856
17.468735341390783 59.2202
17.491261035594565 58.363
17.51396340099364 58.2982
17.536490463869136 58.4084
17.559018209820174 58.4094
17.58154663977963 58.4437
17.604251766089718 58.6774
17.626781572227713 59.0774
17.64931206518155 59.1456
17.671843245885103 59.4621
17.69455114821572 59.7182
17.717083712612634 60.0251
17.739616967569667 60.3492
17.762150914021706 60.9274
17.78486160749854 61.3051
17.807396945166804 62.351000000000006
17.829932977143503 63.3554
17.85246970436452 65.0606
17.875183204129467 66.7991
17.897721330097664 68.721
17.920260154126645 71.1024
17.942799677153296 74.1909
17.9655159983646 78.33
17.988056927677544 83.6368
18.010598558807683 91.5234
18.033140892692916 102.16
18.05586005052525 115.04299999999999
18.07840379824407 128.166
18.10094825154059 138.94299999999998
18.12366954819864 143.509
18.146215420998306 137.814
18.16876200220057 125.07
18.191309292745153 108.976
18.214033452627167 96.2158
18.236582170236648 87.0369
18.259131600016456 83.9608
18.281681742907335 85.6018
18.304408781233683 91.1712
18.32696035875955 97.2824
18.349512652227624 102.699
18.372065662579683 106.45
18.394795594587553 105.336
18.41735004715306 98.4135
18.43990521943684 89.8939
18.46246111238171 81.0618
18.485193953325208 72.0083
18.507751296070428 66.6829
18.530309362314178 63.9313
18.552868153000343 62.2018
18.57560391815056 61.3405
18.59816416623245 60.9987
18.620725141597372 60.3536
18.643286845190268 59.701
18.666025549835414 59.6509
18.688588718427933 58.9884
18.711152618092243 58.887
18.73389353884365 58.7115
18.75645890921984 58.2741
18.77902501351406 57.9927
18.801591852673102 57.9086
18.824335739722738 57.68600000000001
18.846904057212626 57.527
18.8694731124168 57.2582
18.89204290628315 57.3266
18.914789774966803 56.8563
18.937361054791623 56.4054
18.959933076131318 56.2752
18.982505839934877 56.3611
19.00525570560582 56.1391
19.027829963004184 56.1796
19.05040496572238 56.3479
19.072980714710468 56.4643
19.095733592739563 56.523
19.11831084296757 56.792
19.140888842324735 57.0045
19.16346759176222 57.1373
19.18622349753803 57.8645
19.208803755869358 58.6255
19.231384767143577 59.9734
19.253966532312948 61.5962
19.276725481241822 63.8665
19.29930876296784 66.8123
19.3218928014549 69.6502
19.34465404436217 72.6768
19.36723960516257 74.9936
19.389825925592426 75.4367
19.412413006605938 73.0476
19.43517731967805 68.9054
19.457765930683355 64.3169
19.48035530514408 59.8944
19.50294544401556 56.9964
19.525712842708348 54.9923
19.54830451925909 54.1287
19.570896963095727 53.2637
19.593490175174704 53.125
19.616260674962184 53.1742
19.638855432416964 53.0276
19.661450960992624 53.2732
19.68404726164677 52.8292
19.706820878021247 52.7944
19.729418731756834 53.0694
19.752017360452857 52.7522
19.77461676506804 53.0287
19.797393513540218 53.255
19.819994478951667 53.6999
19.84259622316767 54.0195
19.8651987471481 54.3878
19.887978643247177 54.5264
19.91058273574792 54.908
19.933187610901943 55.773999999999994
19.955969879466828 57.1031
19.97857632894404 58.6995
20.00118356396599 60.4809
20.023791585494575 62.8632
20.046577028914875 65.9287
20.069186632506966 68.1671
20.091797025500632 70.0829
20.114408208858933 70.1113
20.137196842715273 69.1874
20.159809615886765 66.6492
20.18242318232135 63.6644
20.20503754298326 61.8861
20.227829382875154 61.1083
20.250445341109344 61.5161
20.27306209647285 62.7534
20.29567964993108 64.3448
20.31847471147704 65.139
20.34109387027612 65.7361
20.363713830075454 64.729
20.386334591841646 62.0973
20.409132890679302 58.941
20.431755265564437 55.9443
20.454378445325528 53.5206
20.477002430930366 52.0472
20.499803982716553 50.96
20.522429589228004 50.2813
20.54505600449589 49.8716
20.567683229489194 49.8143
20.590488049900088 49.56100000000001
20.61311690359731 49.4543
20.63574656993626 49.4356
20.658553853717297 49.0317
20.681185154618298 49.092
20.703817271080066 48.8697
20.72645020407368 48.5351
20.749260783967177 48.5599
20.771895359337133 48.4948
20.794530754161617 48.483999999999995
20.817166969412938 48.4353
20.83998086114876 48.3102
20.86261872660049 48.1346
20.885257415405402 48.0257
20.90789692853701 48.2846
20.930714147864748 47.9595
20.953355319030678 47.9999
20.97599731745334 48.2403
20.99864014410749 48.026
21.021460706796564 48.0
21.044105199328826 48.1403
21.06675052302631 48.4946
21.089396678865015 48.6938
21.112220600704806 48.9372
21.134868430275347 49.4569
21.15751709492456 49.6038
21.180166595629693 49.8737
21.202993892429635 50.4171
21.22564507473034 50.8495
21.24829709602816 51.0827
21.27112693608965 50.9689
21.293780644891275 50.7464
21.316435195634053 49.7819
21.339090589297417 48.9724
21.361923832041875 48.7748
21.384580921090404 48.1344
21.407238856007325 47.6578
21.429897637773326 47.895
21.45273429906592 47.898999999999994
21.475394784108598 47.7484
21.498056118951983 47.9228
21.520718304578022 48.0341
21.543558400304388 48.1666
21.566222297108816 48.5818
21.58888704765135 48.7849
21.61155265291521 49.0401
21.63439619898156 49.3828
21.657063523335786 49.6762
21.67973170537063 50.1577
21.7024007460706 50.5978
21.72524775840385 51.4568
21.747918526116475 52.2767
21.770590155457388 53.5675
21.79326264741238 55.4313
21.816113141960237 57.2083
21.838787368860547 59.4178
21.861462461341976 61.1263
21.884315579735777 63.588
21.90699241312273 64.4792
21.92967011506078 64.3404
21.95234868653799 63.199
21.9752053151131 61.3089
21.997885635446785 59.1736
22.020566828293532 57.306000000000004
22.04324889464272 56.0682
22.066109049404666 55.5164
22.088792872571794 55.3345
22.111477572219204 55.5899
22.1341631493376 55.7557
22.157026846313123 55.2598
22.179714188221507 54.2933
22.202402410582668 52.8999
22.22509151438863 51.342
22.24795876962584 50.3408
22.270649646204486 49.3886
22.293341407213727 49.0026
22.316034053646906 48.5396
22.338904883215342 48.3324
22.36159931041458 48.1369
22.38429462602756 48.0649
22.40699083104897 47.7406
22.429865251039757 47.7678
22.452563244831367 48.0191
22.47526213102522 48.0359
22.49813925616515 47.976000000000006
22.520839937143307 47.9263
22.543541513520587 48.141000000000005
22.56624398629403 47.9601
22.589124730075895 48.114
22.611829005656723 48.2512
22.63453418063466 48.233999999999995
22.657240256008077 48.3684
22.680124634582935 48.4039
22.70283252079775 48.7361
22.725541310413075 49.1019
22.74825100442868 49.25899999999999
22.771139033969575 49.7883
22.79385054687155 50.115
22.81656296718292 50.8527
22.83927629590484 51.7912
22.862167992606945 52.7404
22.88488314827121 54.1033
22.907599215359284 55.0531
22.93031619487366 56.3999
22.953211574954405 57.2705
22.975930389478226 57.6604
22.998650119445763 57.2867
23.02137076586092 55.9246
23.044269845560063 54.3892
23.06699233506288 52.7106
23.089715744034912 51.2454
23.112617610931565 49.77
23.135342869061212 48.8387
23.158069049684816 48.4177
23.1807961538087 48.2419
23.20370174880544 48.165
23.226430710184808 48.2409
23.249160598093425 48.3122
23.271891413539002 48.3648
23.294800752937697 48.5179
23.31753343374794 48.6303
23.340267045128353 48.5752
23.36300158808808 49.0674
23.38591468821339 49.3707
23.408651104658304 49.7547
23.431388455719986 50.4708
23.454126742409 51.2809
23.4770436196085 52.3975
23.499783787914662 53.8319
23.522524894889884 55.0816
23.54526694154616 56.3839
23.56818761219047 57.4207
23.59093154860734 57.6179
23.613676427751283 57.6565
23.636422250635754 55.9448
23.659346731118656 54.0399
23.68209445191868 52.0622
23.704843119509587 49.8854
23.72759273490623 48.2933
23.750521041644767 47.1363
23.77327256312355 46.3055
23.796025035462787 45.8942
23.818956224555475 45.492
23.841710609113413 45.345
23.86446594758979 45.2015
23.887222241002014 45.0494
23.910157285144578 44.6355
23.932915498962537 44.7752
23.955674670778713 44.5274
23.978434801611975 44.3486
24.001373717286125 44.1695
24.024135776723917 44.1427
24.046898798245582 43.967
24.06966278287146 43.8265
24.092605586582614 43.4851
24.115371508023642 43.4392
24.1381383956401 43.2549
24.16090625045381 43.3242
24.183852958731244 43.2947
24.206622758582608 43.1992
24.229393528706886 42.9921
24.252165270127392 43.1089
24.27511589952438 42.9103
24.297889594216997 42.855
24.32066426328598 42.7216
24.34343990775613 42.7447
24.36639447485003 42.501000000000005
24.38917208083877 42.4981
24.41195066531332 42.4767
24.43490819850244 42.545
24.457688750692377 42.5124
24.48047028445616 42.4723
24.503252800821233 42.4886
24.526214300784112 42.6957
24.548998793132213 42.5834
24.57178427117417 42.562
24.59457073593893 42.5486
24.617536219319863 42.3548
24.64032466834748 42.4386
24.663114107195035 42.3456
24.685904536893013 41.8025
24.708874020360852 41.911
24.731666442613744 41.8422
24.754459858818787 41.8412
24.777254270007962 41.6653
24.80022777025625 41.6672
24.82302418230472 41.7322
24.845821592443674 41.8001
24.86862000170663 41.7262
24.891597535453727 41.4635
24.914397953892728 41.7845
24.93719937456671 41.7287
24.96000179851076 41.8987
24.98298338249997 42.0647
25.00578782394922 42.3696
25.028593271784167 42.4876
25.05157790644186 42.7758
25.07438537804115 43.0415
25.097193859145293 43.2357
25.120003350792075 43.5228
25.142992065061257 43.9109
25.165803588823465 43.9857
25.18861612625217 44.166000000000004
25.211429678386736 44.1165
25.234422489079968 44.0858
25.257238081693636 44.1187
25.280054692141732 44.4788
25.3028723214652 44.5006
25.325869245420463 44.5131
25.348688923599397 44.4938
25.371509623787006 44.4432
25.394331347025812 43.9117
25.41733240110666 43.3297
25.440156181590016 42.559
25.46298098826268 42.1323
25.48580682216873 41.5442
25.50881202326435 41.1841
25.53163992281684 40.739000000000004
25.55446885274561 40.4761
25.577298814096377 40.3056
25.600308179121807 40.0902
25.623140214533745 40.2563
25.64597328451537 40.2029
25.66898578564376 39.9953
25.691820936010206 40.0796
25.714657124097695 39.9695
25.737494350954734 39.9166
25.760511045684957 39.8584
25.783350361364224 40.0092
25.806190718969255 40.0087
25.82903211955018 40.0482
25.852053024868923 40.122
25.874896522722523 40.1086
25.897741066713106 40.1409
25.920586657892454 40.2568
25.943611790812668 40.3266
25.966459487728237 40.5266
25.989308234998564 40.535
26.01215803367705 40.9392
26.03518741123814 41.1729
26.05803932412957 41.3512
26.080892291600094 41.269
26.10374631470478 41.226000000000006
26.12677995397268 41.1697
26.14963609978026 41.1075
26.172493304397875 40.8405
26.19535156888223 40.5391
26.218389486949604 40.1089
26.241249882640123 39.9729
26.26411134137826 39.723
26.28715248187403 39.7764
26.31001607820869 39.6042
26.3328807407756 39.3938
26.35574647063438 39.7862
26.37879191991473 39.7176
26.401659795896734 39.7287
26.424528742360263 39.8802
26.447398760366614 39.9596
26.470448535598294 40.1037
26.49332070826805 40.1893
26.516193955675355 40.6003
26.53906827888316 40.8847
26.562122397260108 41.1077
26.584998883685063 41.4015
26.607876449110325 41.7375
26.63075509460056 41.8144
26.65381357334404 41.876999999999995
26.67669439061878 41.7449
26.699576291163382 41.6488
26.722459276044212 41.4786
26.745522132402975 41.1418
26.768407297649354 40.9453
26.791293550442003 40.5739
26.814180891848974 40.3827
26.837248143099337 40.068000000000005
26.860137673466657 40.0204
26.88302829566349 39.7862
26.90592001075963 39.527
26.92899167420566 39.2848
26.951885586870763 38.9007
26.974780595655517 38.7752
26.99785558178161 38.5867
27.020752794605112 38.5676
27.043651106772522 38.4416
27.06655051935668 38.3652
27.089629948036183 38.3213
27.112531573292053 38.2267
27.135434302194138 38.384
27.158338135817015 38.1726
27.181422024430987 38.0261
27.204328079372566 37.9699
27.22723524226965 38.0584
27.250143514198573 38.1745
27.273231880156334 38.1651
27.296142382065014 38.0241
27.319053996245536 37.8997
27.341966723775965 38.0344
27.365059584515222 38.0517
27.38797455070062 38.0172
27.410890633481237 37.967
27.433807833936918 37.8992
27.456905206923906 38.1181
27.47982465472398 38.0664
27.502745223449743 38.1669
27.525666914182825 38.2104
27.548768816912457 38.2358
27.571692763693633 38.1626
27.59461783573812 37.9062
27.617723149491244 37.6771
27.640650484125285 37.6601
27.66357894728264 37.6105
27.686508540048052 37.6621
27.709618414237887 37.5335
27.732550278321757 37.3207
27.755483275279115 37.408
27.778417406196485 37.509
27.801531858397514 37.5283
27.824468269376716 37.3831
27.847405817586786 37.2761
27.870344504116094 37.5564
27.893463551932008 37.6963
27.916404527281053 37.8052
27.93934664422563 38.0495
27.962289903855886 38.1581
27.98541356491974 38.3278
28.00835912214229 38.3996
28.03130582533231 38.7531
28.054253675581805 38.8541
28.077381967556104 38.7432
28.100332124185126 38.6093
28.123283431160893 38.3001
28.146235889577238 38.1506
28.169368830154156 38.0853
28.192323603752033 38.0058
28.215279532083304 37.5744
28.238415973016764 37.3556
28.261374223145094 37.4085
28.284333631303806 37.114000000000004
28.307294198589954 36.927
28.330435319167677 36.6443
28.353398217078915 36.4235
28.376362277420153 36.1655
28.39932750129032 36.056999999999995
28.422473319286713 35.8842
28.44544088262495 35.8692
28.468409612800283 35.6718
28.491379510913497 35.6055
28.51453004413313 35.4789
28.53750229057244 35.4061
28.56047570826344 35.3806
28.583450298308804 35.3287
28.606605564586562 35.2192
28.629582511831156 35.3217
28.65256063474956 35.2374
28.675539934446338 35.3276
28.698699951647605 35.2788
28.72168161743193 35.0913
28.74466446331978 35.1048
28.767648490417624 35.0483
28.790813276438353 35.0797
28.813799678527303 35.0544
28.836787265157085 35.0617
28.859955641890075 35.0452
28.882945610203045 34.966
28.905936766392035 34.875
28.928929111566863 34.8641
28.952102288520145 34.6892
28.975097024308607 34.7011
28.998092952423807 34.5309
29.021090073977508 34.4367
29.04426806913204 34.3959
29.067267590245258 34.2219
29.090268308143695 34.1476
29.11327022394099 34.2364
29.13645305530891 34.018
29.159457379627167 33.9102
29.18246290519685 33.8809
29.20546963313352 33.8782
29.22865731875826 33.9775
29.25166646419296 34.0103
29.27467681535305 33.7506
29.29768837335608 33.9107
29.320880931312562 33.8451
29.34389491580634 33.8399
29.366910110507334 33.9038
29.38992651653503 33.8538
29.41312396492981 33.8688
29.436142806456754 33.7558
29.45916286268059 33.631
29.48236399319994 33.5832
29.50538649169417 33.366
29.528410208259935 33.3781
29.55143514402014 33.0167
29.574641196749695 32.9181
29.597668583816574 32.9053
29.6206971934585 32.713
29.64372702680042 32.6736
29.666938019934474 32.6358
29.689970313635285 32.6133
29.713003834422636 32.5084
29.73603858342347 32.519
29.759254535188578 32.5748
29.78229175361658 32.4825
29.80533020365064 32.4696
29.82836988641968 32.4594
29.85159081507472 32.4092
29.874632976355343 32.2744
29.89767637376955 32.4046
29.920721008448314 32.1803
29.9439469322847 32.1148
29.96699405457564 32.0971
29.9900424175358 32.2985
30.013092022298157 32.1711
30.03632295963995 32.1697
30.059375061131373 32.0533
30.08242840783577 32.1462
30.105483000888153 32.1267
30.128718970092244 32.0301
30.151776069006917 31.9527
30.17483441768648 32.0769
30.198074175317235 32.0667
30.221135036724256 32.0695
30.24419715131772 31.9264
30.267260520236203 31.8919
30.290505341942243 31.8573
30.313571232750228 31.881999999999998
30.336638381310948 31.8955
30.35970678876503 31.9308
30.38295669299435 31.8239
30.40602763151657 31.7792
30.429099832366074 31.7411
30.452173296685572 31.7358
30.47542830191959 31.68
30.498504306502497 31.6807
30.521581577995562 31.7076
30.544660117543582 31.7963
30.56792024229725 31.8603
30.59100133132069 31.8076
30.614083691845494 31.8186
30.637167325018545 31.8703
30.660432587840603 31.8756
30.683518779717886 31.8632
30.70660624769615 31.9167
30.729694992924372 31.9142
30.75296541239743 31.8928
30.77605672557558 31.7919
30.799149319462742 31.6839
30.8224236211637 31.5758
30.845518789950724 31.4739
30.868615242910597 31.4584
30.891712981195973 31.2721
30.91499247215866 31.1259
30.938092794619365 31.1778
30.96119440587579 31.1724
30.984297307082752 31.0407
31.00758200598383 30.9208
31.030687500658694 30.7869
31.053794288760695 30.6751
31.076902371446767 30.6106
31.100192296997445 30.6956
31.12330298246119 30.6892
31.14641496599209 30.5477
31.169528248749216 30.6007
31.19282341969534 30.6313
31.215939314557186 30.5941
31.239056512134788 30.5464
31.262175013589378 30.6072
31.28547544871168 30.5281
31.30859657161541 30.4161
31.331719001892175 30.4236
31.35484274070538 30.5801
31.378148458819545 30.5818
31.401274828443725 30.5738
31.424402510106933 30.6257
31.447712205419993 30.6571
31.470842524931633 30.5073
31.493974159989783 30.462
31.51710711176168 30.4499
31.54042212308802 30.4253
31.563557722100917 30.2899
31.586694641341655 30.1973
31.609832881979628 30.1445
31.63315322823208 30.0397
31.656294125521327 30.0071
31.679436347728515 30.0261
31.70257989602529 29.9338
31.725905596152327 29.8129
31.74905181052835 29.7583
31.772199354521323 29.8176
31.79534822930507 29.7485
31.818679302290967 29.7335
31.84183085259981 29.7555
31.864983737233473 29.7584
31.88813795736804 29.7581
31.911474422233013 29.6636
31.934631327356435 29.7183
31.9577895715215 29.7132
31.980949155906522 29.7376
32.004291031706956 29.6539
32.027453310562606 29.5718
32.05061693318573 29.4107
32.07396288236386 29.5025
32.09712920658542 29.3775
32.12029687812702 29.2894
32.14346589817093 29.1896
32.166817291729984 29.1266
32.18998902288583 29.1417
32.21316210610336 29.0397
32.23633654256711 28.9763
32.259693399663725 29.0083
32.282870556771144 28.8939
32.30604907069099 28.8714
32.329228942610065 28.7103
32.35259128243769 28.6635
32.375773884550505 28.5425
32.398957848235646 28.4996
32.422143174682176 28.5096
32.445511016471215 28.4815
32.468699082679954 28.408
32.49188851523011 28.3352
32.51507931531304 28.3109
32.538452678331 28.3107
32.56164622776311 28.223000000000003
32.58484114831493 28.1018
32.60803744118015 28.1985
32.631416344731896 28.1397
32.654615396551876 28.0897
32.67781582427913 28.1102
32.701198898634416 28.0152
32.72440209253756 28.0164
32.747606665947124 27.9791
32.77081262006088 27.8556
32.79420126883317 27.8721
32.81740999876112 27.9295
32.840620112999424 27.7523
32.86383161274818 27.704
32.88722585534586 27.7786
32.91044014056596 27.7951
32.933655814909734 27.746
32.95687287957963 27.6983
32.98027273544904 27.5753
33.00349259526636 27.4978
33.026713849030116 27.6762
33.04993649794511 27.5129
33.073341986570746 27.4857
33.09656744032826 27.6136
33.11979429286444 27.4281
33.14302254538647 27.4589
33.166433686291185 27.4167
33.18966475336992 27.3461
33.212897224069096 27.3256
33.23613109959831 27.3198
33.259547912343415 27.2133
33.2827846121627 27.1985
33.306022720453775 27.1873
33.32926223842861 27.0683
33.352684742614166 27.1521
33.37592709463173 27.1069
33.399170859982064 26.9618
33.422597648419426 26.8506
33.44584425514446 26.8528
33.46909227885668 26.7536
33.4923417207723 26.6502
33.51577423505344 26.749000000000002
33.539026528130385 26.5694
33.56228024307245 26.5396
33.585535381098246 26.3933
33.60897364093058 26.4441
33.63223163992385 26.3601
33.6554910656699 26.2412
33.678751919389796 26.3871
33.702195944520106 26.2737
33.72545966903325 26.2511
33.74872482519663 26.2015
33.771991414233746 26.2197
33.79544122444841 26.0985
33.81871069412428 26.0644
33.84198160035767 26.0439
33.86525394437455 26.1006
33.88870955949969 26.1062
33.911984794020626 26.0081
33.93526147001624 25.9662
33.958539588715006 25.8827
33.98200102861669 25.8244
34.0052820477047 25.743000000000002
34.02856451319451 25.7424
34.05203033759056 25.6342
34.07531571090147 25.7181
34.09860253431845 25.6689
34.121890809074316 25.6165
34.145362493118924 25.5368
34.16865368561615 25.5299
34.191946333164054 25.5156
34.21524043699793 25.4987
34.23871800066799 25.4785
34.26201503218366 25.2378
34.28531352370466 25.2872
34.30861347646881 25.2546
34.33209693978188 25.3073
34.3553998301885 25.1817
34.378704185565205 25.0292
34.402010007152356 25.0473
34.42549939016683 25.0683
34.44880815937748 24.9249
34.472118398533134 25.0014
34.49543010887669 24.908
34.51892543169198 24.8202
34.54224009966052 24.8006
34.56555624255917 24.7738
34.58887386163339 24.7218
34.61237514439016 24.6906
34.6356957311114 24.6786
34.65901779775809 24.6925
34.68252356662995 24.636999999999997
34.705848608458616 24.6211
34.72917513396849 24.5014
34.75250314440949 24.4865
34.77601490857862 24.3561
34.799345904259795 24.4006
34.82267838863559 24.4909
34.846012362958525 24.3477
34.869530142679984 24.3065
34.89286711232212 24.3573
34.91620557568269 24.2769
34.93954553401677 24.2738
34.9630693495876 24.2067
34.986412313340814 24.2237
35.00975677584668 24.1561
35.033102738362956 24.116999999999997
35.05663261012228 24.033
35.0799815881786 24.0098
35.10333207003229 24.0488
35.12668405694369 24.0569
35.150220005273056 23.9907
35.17357501786656 23.9869
35.19693153931268 23.944000000000003
35.220289570874385 23.8651
35.24383161619786 23.9027
35.267192683604904 23.8732
35.290555264930376 23.8108
35.314101899412165 23.7819
35.33746752422433 23.7841
35.36083466676374 23.6954
35.38420332829803 23.6683
35.407756095629054 23.74
35.43112781085063 23.7154
35.45450104888391 23.6478
35.477875810999194 23.7007
35.50143473172161 23.5525
35.52481255774625 23.5944
35.54819191167777 23.5725
35.57157279478914 23.4797
35.595137889488406 23.4586
35.61852184675279 23.363000000000003
35.641907337029984 23.3381
35.665294361595684 23.267
35.68886565090076 23.2533
35.7122557598848 23.2084
35.73564740699838 23.1801
35.759040593519934 23.1519
35.78261809810353 23.1613
35.80601437933051 23.0582
35.829412203814705 23.0725
35.85281157283719 23.0322
35.876395313415884 22.964000000000002
35.8997977874528 22.9698
35.92320180988546 22.8881
35.946790244133936 22.8984
35.97019737933222 22.8259
35.993606066789866 22.8255
36.01701630779276 22.8227
36.04061101440684 22.8017
36.06402437852291 22.7752
36.08743930005611 22.7902
36.1108557802951 22.6616
36.13445678011326 22.6432
36.15787639383515 22.5499
36.18129757014299 22.4994
36.20472031032821 22.4297
36.22832762423364 22.4715
36.25175350829375 22.4413
36.275180960119776 22.3935
36.298609981005924 22.3981
36.32222362992669 22.3516
36.34565580510207 22.2776
36.36908955323448 22.3519
36.39252487562093 22.2238
36.416144880530226 22.2053
36.43958336764275 22.2205
36.463023432914625 22.22
36.486465077645676 22.1587
36.51009145956204 22.2054
36.53353627947859 22.1426
36.55698268276811 22.066999999999997
36.58043067073321 22.0214
36.60406345072071 21.9704
36.62751462435344 21.9516
36.65096738658405 21.9433
36.67460498210655 21.8593
36.69806093788647 21.8006
36.72151848619297 21.7486
36.744977628333636 21.733
36.76862165890998 21.6861
36.79208400512205 21.5585
36.81554794910557 21.682
36.83901349217101 21.6014
36.862663978991606 21.5797
36.88613273667352 21.587
36.90960309738324 21.5295
36.933075062434064 21.4805
36.95673202673572 21.5359
36.98020721697122 21.4577
37.003684015502365 21.3551
37.027162423645365 21.3029
37.050825886711465 21.2568
37.07430753063053 21.2132
37.09779078812467 21.2044
37.121275660513014 21.2175
37.144945643673694 21.1607
37.16843376245278 21.1277
37.19192350009803 21.1193
37.215414857931435 21.0842
37.239091382563885 21.0208
37.262585997426164 21.0093
37.28608223645736 20.9295
37.309763684451696 20.894000000000002
37.33326318851098 20.8745
37.356764320726555 20.872
37.380267082425526 20.9748
37.40395510942588 20.8668
37.42746114683234 20.7423
37.45096881771841 20.7023
37.474478123414166 20.8009
37.49817275092816 20.7018
37.52168534303452 20.7118
37.54519957395567 20.5839
37.568715445024665 20.5821
37.592416694607714 20.5139
37.61593586281424 20.5982
37.63945667518264 20.6199
37.66297913304891 20.4911
37.68668702630454 20.4646
37.710212792059274 20.3472
37.733740207334854 20.3921
37.757269273470364 20.2811
37.780983832050374 20.2674
37.80451621684926 20.2729
37.82805025654007 20.2448
37.851585952464795 20.1375
37.8753071980695 20.1798
37.89884622345676 20.1101
37.92238690911902 20.0455
37.94611318753442 20.0142
37.969657210779765 20.0532
37.99320289834801 20.0155
38.016750251586465 20.0313
38.04048325513017 19.8896
38.06403395679343 19.8527
38.087586328183946 19.8553
38.11114037065203 19.8305
38.13488012115898 19.8299
38.1584375229181 19.8022
38.181996599821 19.7268
38.205557353221124 19.7022
38.229303872575656 19.6518
38.2528679961576 19.6458
38.27643380031219 19.5719
38.30000128639589 19.6148
38.32375459653193 19.6389
38.34732546371299 19.5328
38.37089801690786 19.4871
38.39447225747609 19.4652
38.418232380377425 19.403
38.441810012983396 19.393
38.46538933705673 19.402
38.488970353960084 19.3137
38.51273731166058 19.3242
38.536321731567014 19.2735
38.55990784840681 19.3028
38.58367995004091 19.1883
38.60726947812959 19.1902
38.63086070726198 19.1247
38.654453638806274 19.1468
38.678232613930824 19.1233
38.70182896773327 19.0448
38.72542702806741 19.0274
38.7490267963045 19.0523
38.77281266709232 19.0186
38.79641586862214 18.9687
38.8200207821842 18.9048
38.843627409152944 18.9059
38.86742019782782 18.9173
38.891030269149255 18.7789
38.914642058016156 18.7453
38.938255565806124 18.7362
38.96205529464307 18.7388
38.98567225787121 18.707
39.00929094417078 18.6882
39.03291135492255 18.6744
39.05671804624804 18.6226
39.080341923549106 18.6163
39.103967529460334 18.5662
39.127594865365744 18.5293
39.15140854155791 18.4668
39.17503935514948 18.430999999999997
39.19867190290282 18.4762
39.22249083587951 18.4075
39.24612686969409 18.3668
39.269764641845306 18.4225
39.293404153722804 18.3349
39.317230110864074 18.2402
39.34087311998506 18.1745
39.36451787301696 18.2222
39.388164371352595 18.1831
39.41199737518003 18.0929
39.43564738196752 18.1864
39.45929913825317 18.1096
39.48295264543308 18.0764
39.506792718520884 18.0636
39.530449745387216 18.0508
39.55410852735203 17.9738
39.57776906581474 17.9819
39.60161623079 17.9187
39.625280300200025 17.9474
39.64894613032202 17.8744
39.67261372255866 17.8997
39.6964680021016 17.8035
39.72013913657293 17.8298
39.74381203738292 17.7962
39.76748670593756 17.7842
39.79134812278169 17.7749
39.81502634488497 17.7198
39.83870633896685 17.6541
39.862388106436654 17.6734
39.88625668336918 17.6431
39.90994201572829 17.6682
39.933629125719285 17.5213
39.957503091207826 17.5361
39.9811937746168 17.5367
40.00488623990914 17.4825
40.02858048850006 17.4567
40.05246165409549 17.4518
40.076159487492085 17.3597
40.099859108448875 17.3508
40.123560518384345 17.3298
40.1474489070226 17.3115
40.171153913178564 17.1781
40.194860712584955 17.1736
40.2185693066637 17.2206
40.242464941335314 17.1973
40.26617714307655 17.1675
40.289891143772046 17.1328
40.3136069448471 17.0975
40.33750984859743 17.1088
40.3612292688043 17.049
40.3849504936829 17.0564
40.40867352466194 17.0389
40.43258372059144 16.9996
40.45631038219906 16.9552
40.48003885420956 16.9209
40.503769138055105 16.9065
40.52768664931955 16.9177
40.55142057531802 16.8853
40.57515631746428 16.7709
40.599079334038514 16.7549
40.62281872700477 16.6946
40.64655994043941 16.7145
40.67030297578061 16.6804
40.69423334835778 16.7178
40.71798004609188 16.6877
40.74172857006355 16.5664
40.76547892171441 16.6216
40.7894166736039 16.5235
40.813170699248566 16.5203
40.83692655691388 16.5302
40.86068424804498 16.5701
40.884629402612525 16.4378
40.908390779366385 16.413
40.932153993938 16.3798
40.95591904777605 16.4009
40.979871628443995 16.3694
41.003640379561936 16.3598
41.02741097430883 16.3567
41.05118341413683 16.2806
41.075143444384416 16.2678
41.098919593177826 16.2348
41.1226975914255 16.2009
41.14647744058318 16.1748
41.170444943946755 16.1006
41.19422851378379 16.1303
41.218013938914645 16.1147
41.24198706625173 16.064
41.26577622087193 16.0566
41.289567235177785 16.0267
41.31336011063129 15.9787
41.337340752422875 15.947000000000001
41.361137369129835 15.9493
41.38493585138705 15.94
41.40873620066004 15.8578
41.43272438060107 15.8511
41.45652848292052 15.7883
41.48033445666918 15.7699
41.50414230331616 15.7572
41.528138045159764 15.7597
41.551949656675205 15.7209
41.575763145513235 15.6925
41.59957851314666 15.6642
41.62358184070442 15.6683
41.64740098505737 15.629000000000001
41.6712220126409 15.5669
41.69504492493139 15.5139
41.71905586207357 15.5771
41.74288256296395 15.5068
41.766711153007456 15.4702
41.79054163368412 15.4143
41.814560204340054 15.4142
41.838394485526365 15.4168
41.86223066180303 15.3851
41.88625497706819 15.3296
41.910094962812 15.3166
41.93393684811168 15.2602
41.95778063445365 15.2529
41.981812625263366 15.2738
42.00566023303407 15.2029
42.029509746323676 15.1777
42.05336116662236 15.2173
42.077400857069705 15.2488
42.10125611078846 15.1503
42.12511327600405 15.0943
42.14897235421036 15.062000000000001
42.173019768448455 15.0843
42.19688269209613 15.0577
42.22074753323349 15.0303
42.24461429335818 14.9843
42.268669455600495 14.937999999999999
42.292540073217886 14.8899
42.31641261433284 14.9503
42.34028708044675 14.9309
42.36435001496739 14.8316
42.38822835065557 14.829
42.41210861586426 14.825
42.4359908120986 14.7684
42.46006154323262 14.7291
42.48394762115317 14.7727
42.507835634632315 14.7206
42.531912233047436 14.6996
42.55580413732265 14.6699
42.579697981698 14.6085
42.60359376768525 14.591
42.62767820545945 14.5839
42.65157789440821 14.56
42.67547952952185 14.547
42.699383112316 14.4956
42.72347541395347 14.4682
42.74738291190531 14.4687
42.771292362102166 14.4686
42.795203766063516 14.4375
42.819303956130405 14.3617
42.843219287476536 14.3284
42.86713657716324 14.3077
42.89105582671383 14.2865
42.91516392983864 14.3052
42.939087119032166 14.2752
42.963012272677304 14.2726
42.98693939230129 14.2408
43.01105543317513 14.1874
43.034986504731386 14.1988
43.05891954686589 14.1846
43.08285456110972 14.1711
43.10697856448665 14.0814
43.130917542983475 14.0674
43.15485849820081 14.0694
43.17880143167367 14.0223
43.20293342237094 14.0059
43.226880332449 14.0015
43.25082922540554 13.9517
43.27496722682525 13.9276
43.29892010567796 13.9482
43.32287497204102 13.8894
43.34683182745632 13.8224
43.370977859791836 13.7914
43.39493871351105 13.7669
43.41890156092628 13.7733
43.44286640358341 13.7275
43.46702049182749 13.7574
43.49098934522816 13.6719
43.51496019852649 13.6544
43.5389330532723 13.6036
43.56309522248204 13.5948
43.58707210044314 13.5888
43.61105098451946 13.5973
43.63503187626491 13.5626
43.659202151562134 13.5045
43.68318707902681 13.4956
43.70717401884041 13.5057
43.731162972560874 13.452
43.75534137913236 13.4552
43.779334381108384 13.4711
43.803329401683186 13.4059
43.82732644241872 13.4073
43.8515130055166 13.3694
43.87551410707659 13.3119
43.89951723350145 13.3237
43.923709934595614 13.2845
43.94771713129917 13.2713
43.97172635758096 13.284
43.99573761501002 13.2181
44.0199385169922 13.18
44.04395385732619 13.1532
44.067971233533086 13.1641
44.09199064718605 13.1364
44.11619977548961 13.0854
44.14022328470671 13.0914
44.16424883610785 13.1004
44.18827643127035 13.0745
44.21249381139513 13.0091
44.236525514814076 13.0058
44.26055926674478 12.937000000000001
44.28459506876863 12.9636
44.3088207262813 12.952
44.33286064928722 12.8843
44.35690262714919 12.8381
44.38094666145278 12.8238
44.4051806219871 12.8567
44.42922879003185 12.8341
44.45327901929361 12.7913
44.477331311362136 12.8231
44.501573600619416 12.7734
44.525630039221795 12.7133
44.54968854541895 12.7168
44.573937102200176 12.7018
44.5979997645541 12.6346
44.622064499300315 12.6353
44.64613130803592 12.6086
44.67038823869318 12.6223
44.69445921643748 12.5703
44.718532272981385 12.5529
44.742607409926194 12.5139
44.76687274034801 12.5683
44.79095205918753 12.4764
44.81503346325094 12.4473
44.839116954143876 12.4468
44.86339071028742 12.3879
44.88747839599524 12.373
44.91156817336837 12.3482
44.93566004401666 12.341
44.959942251908146 12.3238
44.984038330325966 12.3278
45.00813650686762 12.2708
45.03223678314731 12.2355
45.05652746888232 12.2466
45.08063196592069 12.2082
45.104738567558705 12.2067
45.128847275414856 12.1784
45.15314646515866 12.1471
45.17725940679741 12.0914
45.20137445952892 12.0639
45.22568004865265 12.0462
45.24979934496396 12.034
45.27392075725247 12.0256
45.29804428714431 12.0013
45.322358426247604 11.9715
45.346486212804315 11.9898
45.370616121861914 12.0132
45.39474815505086 11.9368
45.41907087049246 11.895
45.4432071734666 11.892000000000001
45.46734560548283 11.8371
45.49148616817604 11.8336
45.51581748638564 11.8454
45.5399623320197 11.8571
45.56410931325473 11.7525
45.58825843173002 11.7609
45.61259837920865 11.7662
45.636751793816 11.7606
45.66090735060093 11.6785
45.68506505120716 11.6635
45.7094136545275 11.6808
45.73357566449271 11.6589
45.75773982322992 11.6285
45.78190613238733 11.6149
45.806263418194064 11.548
45.83043404997326 11.5725
45.85460683713677 11.5809
45.87897065658495 11.5426
45.90314777634752 11.4495
45.92732705646868 11.4672
45.9515084986045 11.5005
45.97588104735473 11.4484
46.00006683541565 11.4241
46.02425479047904 11.4227
46.04844491420549 11.427
46.0728262191024 11.3604
46.09702070211635 11.3327
46.12121735879483 11.3769
46.14541619080294 11.3304
46.169806278764455 11.3204
46.194009483459034 11.2693
46.21821486849841 11.2348
46.24242243555223 11.1884
46.266821333570014 11.2111
46.29103328674601 11.1837
46.31524742696538 11.1592
46.33946375590237 11.1212
46.36387149104216 11.1209
46.38809221957392 11.0821
46.41231514186606 11.104000000000001
46.436540259597464 11.0419
46.460956858999374 11.0124
46.48518638983522 11.0324
46.509418121166966 10.9919
46.533652054678114 10.9534
46.55807754555709 10.9636
46.58231590571962 10.9427
46.60655647313217 10.8806
46.630988654873654 10.8807
46.655233659129024 10.8584
46.67948087571551 10.8611
46.70373030632484 10.8872
46.72817142736393 10.8477
46.752425308428684 10.7807
46.77668140861147 10.7661
46.80093972960865 10.7457
46.82538981736788 10.7461
46.849652602470904 10.6987
46.87391761349769 10.7003
46.8981848521493 10.7003
46.9226439341274 10.6598
46.946915650573224 10.6284
46.97118959976749 10.6401
46.99546578341598 10.5883
47.019933887188216 10.5677
47.04421456235744 10.5603
47.06849747711879 10.5718
47.09278263318286 10.4986
47.11725978640143 10.4549
47.14154944775105 10.5002
47.165841355555656 10.4431
47.1901355115306 10.3949
47.214621741924994 10.4124
47.23892041698887 10.3954
47.26322134538975 10.3408
47.28771440635075 10.3662
47.31201986422527 10.345999999999998
47.33632758061436 10.3298
47.360637557241866 10.2837
47.38513974410611 10.2937
47.40945426407847 10.2562
47.43377104948137 10.2371
47.45809010204344 10.2302
47.48260144275502 10.2045
47.506925052572285 10.1782
47.53125093475548 10.1177
47.55557909103813 10.1628
47.58009961361992 10.162
47.60443234110732 10.1378
47.62876734791564 10.1342
47.65310463578333 10.0761
47.6776343683373 9.99498
47.7019762413987 10.0248
47.72632040075572 9.986889999999999
47.75066684815169 10.0068
47.77520581885936 9.96453
47.799556865477655 9.949119999999999
47.823910205386 9.92049
47.84826584033272 9.937439999999999
47.87281407745551 9.86899
47.89717432569297 9.88223
47.92153687423484 9.898760000000001
47.94609208429692 9.87854
47.97045925671401 9.84963
47.99482873471275 9.80743
48.01920052005013 9.80781
48.04376504619224 9.80221
48.068141469543484 9.816889999999999
48.09252020552573 9.755289999999999
48.11690125590099 9.76246
48.1414751266064 9.75624
48.16586082917454 9.71075
48.19024885144316 9.649289999999999
48.2146391951793 9.673680000000001
48.239222439012764 9.64654
48.26361744916137 9.63015
48.28801478610016 9.61612
48.31241445160131 9.608839999999999
48.337007097209366 9.58062
48.36141144338331 9.54481
48.38581812345755 9.52741
48.41022713920929 9.53918
48.434829215320704 9.50972
48.45924292604658 9.50395
48.48365897780325 9.49085
48.50807737237308 9.43414
48.532688907799276 9.43184
48.55711201168574 9.4252
48.581537463754074 9.39345
48.60615611725119 9.404910000000001
48.63058628942721 9.37175
48.65501881516546 9.36628
48.6794536962573 9.318019999999999
48.70408185970339 9.295860000000001
48.72852147531801 9.2843
48.75296345168211 9.2472
48.77740779059232 9.29963
48.80204549302823 9.26485
48.82649458091802 9.2133
48.85094603676547 9.18947
48.87539986237231 9.173010000000001
48.90004713292306 9.16521
48.92450572200832 9.17554
48.94896668628025 9.11828
48.97343002754588 9.1121
48.99808689542115 9.0933
49.02255501470614 9.12632
49.04702551642794 9.061539999999999
49.0714984023988 9.09777
49.096164896893235 9.07296
49.120642575466796 9.00042
49.145122643748394 9.03068
49.16960510355558 8.979560000000001
49.19428125404938 8.9554
49.2187685210852 8.95067
49.243258185121555 8.95473
49.26794160167084 8.93171
49.2924360839405 8.913839999999999
49.31693296869764 8.863560000000001
49.34143225776915 8.89032
49.36612538195438 8.85183
49.39062950396021 8.86103
49.41513603578346 8.866019999999999
49.4396449792564 8.81236
49.46434784069503 8.8065
49.488861631846454 8.77369
49.513377840166804 8.78288
49.537896467493745 8.74559
49.56260909589029 8.67046
49.587132585683285 8.69696
49.611658500018365 8.725710000000001
49.636186840738596 8.67422
49.66090926588511 8.66077
49.685442483902584 8.63075
49.70997813385706 8.592830000000001
49.734516217597076 8.5755
49.75924846937352 8.57881
49.7837914452858 8.5607
49.80833686055187 8.56949
49.83288471702571 8.52205
49.85762682540054 8.514330000000001
49.882179588965734 8.52932
49.9067347993235 8.4918
49.93129245833333 8.47978
49.95604445336378 8.47483
49.98060703442832 8.4261
50.005172069746266 8.44549
50.02993150438364 8.41675
50.05450147301533 8.422930000000001
50.07907390151433 8.40705
50.10364879174981 8.34093
50.12841816587289 8.31443
50.1529980044635 8.30007
50.17758031042124 8.31692
50.20216508562089 8.30299
50.22694442953363 8.29849
50.25153416817468 8.24531
50.27612638170508 8.25257
50.300721072005196 8.21504
50.325510416102105 8.173160000000001
50.350110084975064 8.18336
50.37471223628208 8.188830000000001
50.39931687190919 8.166160000000001
50.424116246675766 8.162139999999999
50.44872587605249 8.15137
50.47333799543065 8.116760000000001
50.49795260670191 8.12985
50.52276204271512 8.09567
50.54738166295838 8.0969
50.57200378079314 8.072460000000001
50.596628398116835 8.00775
50.62144792604559 8.01955
50.646077567609396 8.03196
50.670709714377715 7.999969999999999
50.69553683636198 7.97213
50.72017401885922 7.9603
50.7448137122895 7.97607
50.76945591856022 7.94605
50.79429318636823 7.934769999999999
50.818940443716784 7.914439999999999
50.84359021965163 7.8807
50.868242516085964 7.878989999999999
50.893089960641895 7.88583
50.917747323549435 7.795539999999999
50.94240721271973 7.79656
50.96706963007175 7.833660000000001
50.99192728239342 7.797619999999999
51.01659478166073 7.805739999999999
51.04126481489051 7.78095
51.06593738400761 7.77199
51.090805275207074 7.752439999999999
51.11548294172845 7.680960000000001
51.14016314993547 7.69428
51.164845901758845 7.6843
51.18972406304274 7.648389999999999
51.21441192780656 7.6658100000000005
51.23910234200271 7.6685300000000005
51.2637953075678 7.62834
51.288683770237945 7.600410000000001
51.31338186432707 7.60842
51.33808251561888 7.55607
51.362978729967345 7.56285
51.387684521509755 7.55205
51.41239287610203 7.500430000000001
51.437103795691165 7.49367
51.46201036644977 7.46243
51.486726441956634 7.45162
51.51144508832545 7.484039999999999
51.536166307509156 7.4711
51.56108326624387 7.403010000000001
51.58580965706056 7.418019999999999
51.61053862657523 7.42599
51.635270176746864 7.4100600000000005
51.66019755512065 7.3853800000000005
51.68493429268881 7.359
51.70967361681515 7.343430000000001
51.73441552946465 7.33453
51.759353359237934 7.33995
51.7841004750961 7.3233
51.80885018539685 7.30845
51.833602492111254 7.2777899999999995
51.8585508051424 7.25104
51.883308330926425 7.22163
51.90806845906181 7.2259199999999995
51.932831191525715 7.23572
51.95779001977161 7.2063
51.98255798721516 7.18797
52.00732856494335 7.16608
52.03229530577543 7.146960000000001
52.057071130455945 7.14422
52.081849571391054 7.17553
52.106630630568695 7.10579
52.13160794279417 7.05898
52.15639426492067 7.09273
52.18118321127822 7.077139999999999
52.205974783860896 7.043189999999999
52.23096269971011 7.033760000000001
52.255759551287994 7.00868
52.280559035098186 6.984610000000001
52.30536115314103 6.979939999999999
52.33035970494467 6.9542600000000006
52.35516711807904 6.965160000000001
52.37997717147198 6.931089999999999
52.40478986713005 6.971
52.42979908731974 6.90946
52.454617094216 6.90195
52.47943774942214 6.896260000000001
52.50426105495102 6.88288
52.529280976059844 6.8680699999999995
52.554109609024096 6.79905
52.57894089837482 6.837689999999999
52.60377484613117 6.82647
52.62880550079408 6.81042
52.65364479223379 6.800110000000001
52.67848674816189 6.75338
52.70352547971946 6.75898
52.72837279155837 6.76059
52.753222773982785 6.721760000000001
52.778075429022984 6.7631
52.80312495150885 6.736000000000001
52.827982978797436 6.71117
52.85284368481815 6.69948
52.87770707160767 6.621760000000001
52.90276741793998 6.641660000000001
52.92763619336701 6.6332
52.952507655698504 6.602639999999999
52.977381806977576 6.62821
53.00245301017842 6.62297
53.02733256653592 6.58177
53.052214817996074 6.54427
53.077099766608484 6.55259
53.102181859804446 6.549119999999999
53.127072229988265 6.5943
53.15196530349892 6.53076
53.17686108239249 6.49921
53.20195409881522 6.43725
53.22685531582556 6.45327
53.25175924441303 6.4488900000000005
53.27666588664027 6.478940000000001
53.30176985962693 6.4844800000000005
53.3266819565689 6.46979
53.35159677336455 6.4225
53.376514312083096 6.36955
53.40162927507703 6.35007
53.42655228516116 6.32969
53.45147802340193 6.30894
53.47660125628886 6.35898
53.50153247842639 6.3252
53.52646643496923 6.28209
53.55140312799818 6.30925
53.576537409691696 6.30808
53.60147960336152 6.28719
53.626424539786164 6.25133
53.65137222105307 6.23714
53.67651758529126 6.23082
53.70147078399681 6.1737400000000004
53.72642673383343 6.18244
53.75138543689533 6.17442
53.776541917524526 6.18401
53.801506154876755 6.178030000000001
53.826473151763246 6.11805
53.851442910284916 6.133369999999999
53.87661054126026 6.13288
53.9015858509782 6.11609
53.92656392866066 6.10084
53.95154477641532 6.05963
53.976723591801296 6.05206
54.00171000771266 6.07319
54.02669920004598 6.0442800000000005
54.051691170915745 6.02046
54.076881204886796 6.00523
54.101878760928514 5.96716
54.12687910187696 5.95545
54.152077577768296 5.96839
54.1770835166946 6.0095
54.20209224691339 5.9724900000000005
54.22710377055121 5.96021
54.25231352511594 5.904
54.27733066384342 5.86308
54.30235060239643 5.85498
54.32737334290836 5.880240000000001
54.35259441062629 5.83397
54.377622783395324 5.78624
54.40265396455061 5.80321
54.42768795623251 5.83148
54.45292037169559 5.77822
54.477960012857906 5.77848
54.50300247099511 5.73502
54.52804774825457 5.71363
54.55329154616743 5.70036
54.57834249018678 5.677980000000001
54.6033962597977 5.645630000000001
54.6284528571545 5.63309
54.653708072335164 5.60533
54.67877035378786 5.59816
54.70383546947698 5.59911
54.72890342156389 5.57143
54.7541700889442 5.53941
54.77924374251975 5.5831
54.8043202390049 5.46194
54.82959552413022 5.46807
54.8546777351945 5.48635
54.87976279569621 5.39964
54.90485070780914 5.4756599999999995
54.930137506558005 5.43216
54.95523115074295 5.39155
54.98032765308844 5.41525
55.005427015775496 5.33252
55.03072536339621 5.367000000000001
55.05583047570572 5.36782
55.080938454927676 5.337280000000001
55.10604930325027 5.27564
55.131359235107396 5.28073
55.15647585066083 5.20254
55.181595341907496 5.21729
55.20671771104285 5.1694
55.232039262617704 5.12321
55.25716741665048 5.11693
55.28229845518636 5.18341
55.30743238042802 5.0631900000000005
55.33276558731939 5.05443
55.357905315183636 5.11137
55.383047936390035 4.99859
55.40819345314859 4.9802800000000005
55.433538351073295 4.98586
55.458689688238415 5.03402
55.483843927614096 4.98904
55.509197623043605 4.93135
55.53435769621134 4.8442300000000005
55.55952067826466 4.8211699999999995
55.5846865714265 4.81905
55.61005202069737 4.86621
55.63522376553902 4.82926
55.66039842818645 4.74753
55.68557601087004 4.80962
55.7109532500271 4.72171
55.73613670233794 4.73422
