TT I
1.2716486653135266 6.875589999999999
1.2939594142134223 6.55302
1.3162702121660406 5.92971
1.3385810600174564 6.20531
1.3608919586137629 6.14749
1.383202908801069 6.06649
1.405513911425503 6.14654
1.4278249673332093 6.03033
1.4501343378461518 5.78634
1.4724455028545926 5.30891
1.4947567236847858 5.2516
1.517068001182951 5.4054199999999994
1.5393793361953272 5.6506099999999995
1.5616907295681737 4.92548
1.5840021821477681 5.12571
1.60631369478041 4.5983
1.6286252683124185 5.4516800000000005
1.6509369035901333 4.82907
1.6732468618895553 4.62649
1.695558623192809 4.346480000000001
1.7178704487808514 4.53126
1.7401823395001077 4.90118
1.7625012545597203 4.79629
1.7848028405262486 4.49578
1.8071218901122095 4.46666
1.8294236121921872 4.45585
1.8517427996910911 4.47158
1.8740620574440425 4.490130000000001
1.8963639900671978 4.42126
1.9186833908139995 4.8289
1.9409854680117449 5.102119999999999
1.9633050151394713 4.71519
1.9856246367570705 4.41556
2.0079269371922672 4.79819
2.03024671027244 3.87754
2.0525491637446027 4.3191
2.074869091674931 4.42149
2.097171701569106 4.3783199999999995
2.1194917877373847 5.0819
2.141811954326636 4.7397
2.164114805233074 3.8401699999999996
2.186435135143035 4.39626
2.208738150935709 5.16976
2.231058647554722 7.06113
2.2533792288321184 6.32892
2.275682498336085 5.00577
2.298003251406138 5.18365
2.3203066942619714 5.2701
2.3426276225136022 5.09644
2.3649486396617507 5.7659400000000005
2.387252348930071 6.1710400000000005
2.4095735463442893 6.16021
2.4318774374315884 5.31291
2.4541988185014043 6.20258
2.476502894794693 6.963889999999999
2.498824462909887 7.45418
2.521146125856138 7.0483899999999995
2.5434504863470337 7.84748
2.5657723414244717 7.58683
2.588076895590662 8.59764
2.610398946189713 8.61102
2.6327210958598384 8.48367
2.6550259469304716 8.41644
2.6773482972090137 8.33575
2.6996533504259 8.38995
2.7219759047039602 8.27994
2.744298562293959 8.17878
2.7666039251246595 8.4904
2.7889267918020164 7.7459
2.8112323652516555 7.96338
2.833555444408179 8.37325
2.8558786311183852 8.20625
2.8781845268938557 8.235669999999999
2.9005079311721484 9.46836
2.9228140460410397 9.1585
2.9451376712799635 9.1247
2.967444008632326 9.78933
2.9897678582247247 9.8348
3.0120918213106695 10.595999999999998
3.0343984987899373 10.5393
3.0567226913198637 10.8467
3.079029599759726 11.706
3.101354025127254 11.8339
3.123678568232338 12.4489
3.145985829517914 12.9252
3.16831061055229 13.097000000000001
3.1906181112775593 14.4522
3.212943133635653 14.5324
3.2352682779763207 14.389000000000001
3.2575761442691227 14.7505
3.2799015350264273 15.3137
3.302209649240067 15.9415
3.3245352898092655 16.4704
3.3468436553365257 16.4725
3.369169549113219 16.9659
3.3914955708171384 17.9027
3.413804319727358 17.8845
3.4361305997334863 18.0169
3.4584396084414553 18.9012
3.4807661501462652 19.3729
3.503092824025881 19.7967
3.5254022288463154 20.1685
3.5477291695206588 20.4009
3.5700388426251948 21.3033
3.5923660534916446 22.0223
3.6146934007816114 23.3789
3.637003482731501 28.0392
3.6593311053109985 29.2855
3.681641464033634 26.4175
3.7039693653009733 24.4669
3.726297407241705 24.6456
3.7486081875460804 24.6421
3.7709365132734978 24.9602
3.793247578841633 25.8781
3.8155761917550093 26.0852
3.8378875459837216 26.0665
3.8602164494827234 26.6376
3.882545499606844 27.7409
3.9048572932539183 28.7017
3.9271866390645718 28.265
3.9494987298666713 28.9143
3.971828374764527 29.3474
3.9941581705403255 29.7339
4.016470713506008 30.414
4.038800813471445 31.3816
4.061113662089144 31.5277
4.0834440696459176 32.1898
4.105774632334751 32.5705
4.128087945865126 33.4877
4.150418821249301 33.916
4.172732448931298 34.5831
4.195063640413578 35.3639
4.2173775856475215 36.4641
4.239709096631102 39.4347
4.262040768704612 54.7465
4.284355196706267 64.0371
4.306687193387355 54.9889
4.329001947444346 44.1837
4.35133427213731 41.6738
4.373666762177566 42.0262
4.395982011761091 42.6444
4.418314834921175 43.1568
4.44063041906622 44.9857
4.4629635787515625 47.0642
4.4852969080429785 47.8237
4.5076130004776225 49.6385
4.529946671403969 54.9117
4.552263106909177 57.7466
4.574597122877047 55.15
4.596931312711224 53.0435
4.619248269273446 53.202
4.6415828092605835 53.7225
4.663900117405352 54.8012
4.686235010953232 56.507
4.708552674085913 57.733999999999995
4.730887924602802 59.4334
4.753223354952695 61.1156
4.775541557023902 63.83
4.797877349456786 66.5128
4.820195915032126 67.2035
4.842532072957498 67.6499
4.864868414979744 70.4974
4.88718753227192 74.4954
4.909524244902505 76.454
4.931843734218147 76.3166
4.954180820867835 77.2941
4.976518095879839 80.0871
4.998838149695359 83.0229
5.021175803844231 86.0605
5.043496238205739 89.4617
5.065834274903528 93.2774
5.088172504230693 97.4024
5.1104935158799565 103.619
5.132832132875765 116.95700000000001
5.155153533596801 136.491
5.1774925416746225 176.075
5.199814334878411 378.714
5.2221537374521505 1001.7
5.244493338631803 2826.74
5.266815727034316 8073.72
5.289155727832427 13885.9
5.311478517248165 8335.21
5.333818921080011 2235.71
5.356159527788849 416.725
5.3784829252032536 176.88299999999998
5.400823940070432 143.148
5.423147747031976 124.56200000000001
5.445489173474152 116.539
5.467830807066149 116.72200000000001
5.490155234831516 116.851
5.512497285125229 110.195
5.534822130975162 104.323
5.557164601388673 100.68299999999999
5.579489868738879 97.6709
5.601832762690846 96.2283
5.6241758697774475 95.2925
5.646501775867269 94.3714
5.668845311622074 93.7909
5.691171647754637 93.4003
5.713515615597765 92.2367
5.735859800852677 91.7483
5.758186788542988 93.5474
5.780531411018185 96.6485
5.802858837297399 95.9775
5.825203900414495 96.086
5.8475491852224 98.1634
5.869877275883075 97.8136
5.892223006467101 94.8065
5.914551544266608 93.1668
5.936897724049891 96.0131
5.959244129804903 103.419
5.981573344815301 131.96200000000002
6.0039202049061 242.206
6.026249875609095 473.04900000000004
6.04859719346037 963.6010000000001
6.070927323278297 2225.01
6.093275102315365 4799.39
6.115623113320588 5642.48
6.137953938319995 2987.86
6.160302415650845 810.568
6.182633708324452 192.27700000000002
6.2049826554078376 101.931
6.227331838745022 86.1953
6.249663839443684 80.5396
6.27201349767565 77.1967
6.294345974611799 76.2323
6.316696111167083 75.2604
6.339046488263839 73.34899999999999
6.361379686074702 70.7562
6.383730546639482 69.0399
6.406064229255215 68.4577
6.428415576718203 69.0044
6.450749747566656 67.8608
6.47310158535871 65.7691
6.495453669698332 64.1958
6.517788579421056 63.0323
6.540141159237969 62.0265
6.562476565766648 61.6229
6.5848296444934045 61.5255
6.607182974060425 61.7084
6.6295191323281015 61.1897
6.651872965955752 60.1595
6.6742096296068985 61.246
6.6965639707294615 65.7121
6.71891856698715 65.5377
6.741255995248479 61.0768
6.763611104154477 58.0584
6.785949046381137 57.0305
6.808304671371482 57.6082
6.8306605557940046 59.0917
6.852999275508618 58.2557
6.875355681171544 56.7224
6.897694923437771 55.4661
6.92005185377892 54.5949
6.9423916220322655 54.8517
6.964749080490181 54.7434
6.987106804399774 54.3672
7.009447368180821 54.7389
7.031805625367033 54.5469
7.054146723727803 53.985
7.076505517631004 53.7654
7.098864581288365 53.698
7.121206488070854 53.4907
7.143566093607822 53.9586
7.165908543567245 54.7832
7.188268694426048 55.0052
7.2106291193438095 53.5451
7.232972390625943 53.0428
7.255333366030969 53.8305
7.277677189091925 57.7934
7.300038718428332 62.6556
7.322400526130865 61.0618
7.344745183422596 56.5779
7.367107550224791 53.1954
7.389452767901992 52.8366
7.411815697249891 52.9244
7.434161478756298 52.8504
7.456524974096713 52.5663
7.478888753837185 52.4601
7.501235387657368 53.3849
7.523599738562711 53.6431
7.545946944825532 54.498999999999995
7.568311870344528 54.861000000000004
7.5906770845765665 54.3376
7.613025156078678 54.3126
7.635390950099687 54.4694
7.657739602662809 54.5102
7.680105979923558 55.0425
7.702472650212829 55.6869
7.724822180948224 55.5992
7.747189439655568 55.3836
7.769539560075357 54.9596
7.791907410653562 55.4198
7.81425812420825 55.0818
7.836626570110925 55.4839
7.858995315087906 56.5953
7.881346924933401 56.7461
7.903716270417482 57.3564
7.926068482028405 57.6688
7.948438431475253 58.2397
7.9708086843180235 58.8863
7.993161805171116 59.6337
8.015532667162402 59.9391
8.037886398416653 61.1509
8.060257873014221 61.8044
8.082629655331942 62.5267
8.104984308787587 62.9271
8.127356708900503 64.6024
8.149711981398308 67.3345
8.172085002766314 68.7582
8.194458336181368 68.4334
8.216814543847752 67.9422
8.23918850371002 68.2869
8.26154533906492 68.8098
8.283919928836452 70.6903
8.306277395339652 71.8929
8.328652618483376 73.2521
8.351028159736202 75.1092
8.373386579575245 77.4538
8.395762759396959 79.2354
8.418121819038275 81.9402
8.440498640894003 86.176
8.462875785192262 95.9329
8.485235811156207 123.90799999999999
8.507613602688501 178.00400000000002
8.529974277114228 266.905
8.552352719347912 397.541
8.574731488360351 664.632
8.59709314210385 1239.1
8.619472567021075 2037.66
8.64183487789147 2417.11
8.664214962183097 1766.49
8.686577933647762 808.878
8.708958680784317 302.89099999999996
8.731339760774953 139.69799999999998
8.753703729764451 103.022
8.77608547780821 95.4093
8.798450116065078 92.9779
8.820832535634787 91.1165
8.843215292401656 90.6829
8.865580941199045 90.3275
8.887964374703538 89.6654
8.910330701447199 89.7016
8.932714815164482 88.8156
8.955099270424924 86.5277
8.977466620733543 84.9768
8.999851761421976 83.9359
9.022219798361645 83.4578
9.04460562795561 83.1385
9.066991803441677 83.1364
9.089360876979615 83.4389
9.111747746589993 83.7952
9.13411751544971 82.0376
9.156505082664324 81.0372
9.178875550323522 81.157
9.20126381862328 81.2923
9.223652438908596 81.7748
9.246023961427412 82.1653
9.26841328802173 82.5708
9.290785518039224 82.4045
9.313175554425882 83.9689
9.335565947154315 85.49
9.357939245086508 85.7761
9.380330352834827 84.7077
9.40270436697103 84.6781
9.425096193225055 83.9409
9.447488380180165 84.2723
9.469863475295412 83.8981
9.492256385987508 83.6093
9.514632206018318 84.4077
9.537025843935714 84.7983
9.559402392368193 85.9232
9.581796761000229 88.5263
9.604191496441521 90.23100000000001
9.626569144158516 92.3219
9.648964615551032 92.5423
9.671343000390081 91.7103
9.693739211225699 91.4533
9.716135793237463 91.3222
9.738515290448102 91.8185
9.760912617143402 93.5621
9.783292860202891 95.9316
9.805690935076182 97.6102
9.828089385495742 98.8545
9.850470754023561 99.4853
9.872869957865444 100.788
9.89525208097539 104.348
9.917652041736662 110.109
9.940052382417589 121.27799999999999
9.962435644102392 149.844
9.984836746950979 192.89700000000002
10.007220771957746 255.543
10.029622640473708 359.85900000000004
10.052007432299963 538.562
10.074410069984072 849.2589999999999
10.096813093716005 1355.53
10.119199042482517 1893.96
10.141602840636468 2098.18
10.163989564971628 1469.33
10.186394141051062 725.113
10.208799107559706 297.85900000000004
10.231187001965623 154.439
10.253592751657669 116.131
10.275981430388155 107.74799999999999
10.298387966769793 104.973
10.320794897965431 104.742
10.343184759907361 103.743
10.36559248305461 102.37
10.387983138083852 104.228
10.410391656691655 110.781
10.432800574501677 122.54700000000001
10.455192425893369 138.953
10.47760214443012 165.054
10.499994797678786 211.403
10.522405320453982 294.243
10.54479877906917 414.721
10.567210109595656 548.974
10.5896218454736 589.15
10.612016518879773 466.077
10.634429067781074 290.56
10.656824555333241 168.477
10.679237920773568 111.337
10.701651695961992 92.0541
10.724048411481384 87.3782
10.746463008485165 84.8138
10.768860546937125 83.164
10.791275969274796 81.495
10.81369180576079 80.5022
10.836090585366925 79.7001
10.858507252467449 78.5762
10.88090686379991 77.6877
10.903324365036394 77.1387
10.925724811614439 76.2299
10.948143150509463 76.3308
10.970561909719066 76.0596
10.992963615930844 75.0085
11.015383218085756 73.7356
11.037785768347074 72.2846
11.06020621697282 71.5822
11.082627090322113 70.8186
11.105030913430326 70.1158
11.12745263854165 69.52600000000001
11.149857314510728 68.9822
11.172279894912576 69.4632
11.194702904450653 68.8339
11.217108866490921 68.0329
11.239532736615194 67.2682
11.26193956033512 67.0809
11.284364294577085 66.5874
11.306789462371718 66.1636
11.329197585398376 65.6104
11.351623622610898 65.6277
11.37403261614354 65.008
11.396459526308487 64.7455
11.418869393879497 64.7742
11.441297180532617 64.0889
11.463725406927658 63.7701
11.486136592353875 63.3868
11.508565700543707 63.0494
11.530977768845315 63.3197
11.553407762368774 63.0847
11.575838200059769 63.003
11.598251599479612 62.6711
11.620682927815501 62.4401
11.64309721895548 62.4071
11.665529441478206 62.257
11.687962112597958 61.8984
11.710377748130886 61.8626
11.732811318753434 61.751000000000005
11.755227854859067 61.7403
11.777662328529495 61.7866
11.800079768750786 61.8521
11.822515149015453 61.5313
11.844950984084935 61.8424
11.867369787303163 61.4947
11.889806534289491 61.4167
11.912226250487029 61.3734
11.934663912939751 61.6913
11.9571020346363 62.4463
11.979523127133968 62.7471
12.001962169624331 63.8528
12.024384183972964 65.3463
12.046824150809913 68.8481
12.069264581333726 73.2991
12.091687985297767 79.3964
12.11412934550045 88.4716
12.136553680195208 103.476
12.158995973632788 125.109
12.181438735204349 157.906
12.20386447284199 192.704
12.226308172985636 206.023
12.24873485024193 193.50900000000001
12.271179492516982 151.061
12.293607112949127 108.242
12.316052700916226 81.9132
12.338498763250042 68.7276
12.360927805303868 64.1339
12.383374818673879 63.1686
12.405804812803074 62.5352
12.428252780773262 62.8004
12.45070122756722 63.0504
12.473132656675375 63.0297
12.49558206341869 63.4033
12.518014453510101 63.8956
12.540464823770117 63.9801
12.562915677315177 63.9125
12.58534951575545 63.989
12.607801338171472 63.9117
12.630236146511358 64.6078
12.652688941369085 65.678
12.675124723177234 65.8778
12.697578494048786 66.0372
12.720032754458185 65.821
12.742470003354093 66.0821
12.764925245138771 66.5285
12.787363476431278 66.9255
12.809819703166806 67.2882
12.83227642391173 68.1307
12.854716135692716 68.6289
12.877173846755147 69.81
12.899614549869717 70.4296
12.9220732548287 71.6114
12.94453245827299 72.2257
12.966974655289818 72.9222
12.989434858002571 73.4981
13.011878055298721 74.2394
13.034339260862497 75.259
13.056800969391883 76.6514
13.079245674017244 80.2031
13.101708390774869 84.4296
13.12415410463411 92.6414
13.146617833206086 102.43700000000001
13.169064559883248 113.132
13.191529303857127 128.459
13.213994557076367 151.803
13.236442809902437 189.49099999999999
13.258909083908291 250.26
13.28135835851934 325.612
13.30382565690295 400.017
13.326293469022952 452.87199999999996
13.348744283242008 417.74199999999996
13.371213125129904 319.985
13.39366497011003 216.71200000000002
13.416134845360597 145.737
13.438605238843131 111.803
13.46105863690397 103.645
13.483530069144786 106.225
13.505984506951902 112.381
13.528456981549432 122.42299999999999
13.550929978879088 137.967
13.573385983253365 162.607
13.595860028340867 202.696
13.618317081455832 257.97700000000003
13.64079217790333 327.23900000000003
13.663250283359057 383.695
13.685726434770173 385.663
13.708203115221277 325.657
13.730662806148091 239.588
13.75314054697177 161.476
13.775601299246777 113.993
13.798080104050406 90.9239
13.820559442405358 82.5225
13.843021793671388 79.806
13.865502201420897 78.459
13.887965623051947 78.2719
13.910447103807167 77.2227
13.932929122629764 75.8801
13.955394156785959 75.6734
13.977877254034569 74.6647
14.000343367582113 73.9076
14.022827546871707 73.3212
14.045294743423524 72.7689
14.06778000837062 71.8262
14.090265817715476 71.8286
14.112734645763819 71.671
14.13522154619454 70.9734
14.157691466286913 70.7808
14.180179461423874 70.7911
14.202668005486178 70.2924
14.22513957064374 69.7846
14.247629214846473 69.3744
14.270101881097517 68.8824
14.29259262906496 68.5956
14.315083930490205 68.6145
14.337558255389705 68.5027
14.360050666019726 68.5348
14.382526101071944 68.393
14.405019624534942 68.1942
14.427513705993134 67.9824
14.449990813291825 67.5943
14.47248601302899 67.7775
14.49496423954951 67.7522
14.517460561197822 68.0548
14.539939910570322 67.6285
14.562437357763558 67.6345
14.58493536931253 68.1974
14.607416409993311 68.3683
14.62991555254159 68.6428
14.652397725157423 68.8062
14.674898002342799 69.1062
14.697398848433282 69.5446
14.719882725991326 71.4638
14.74238471217934 73.3479
14.764869730765593 76.436
14.787372860692983 79.3006
14.809876564079925 84.0211
14.83236330125751 90.3873
14.854868153850365 99.007
14.877356041159485 113.691
14.899862046604186 132.549
14.922351087688757 160.29
14.944858249632887 194.40599999999998
14.967365991421232 223.753
14.989856770231246 233.668
15.012365673994204 216.762
15.03485761569738 175.642
15.05736768508665 132.262
15.07987833888692 100.806
15.102372032001655 82.6787
15.124883856909658 73.301
15.14737872204565 70.2866
15.169891721717274 69.0824
15.192405310371893 68.6454
15.214901940621196 68.2651
15.237416709527137 67.7082
15.259914520936249 67.4586
15.282430473753607 66.6553
15.304947020131227 66.131
15.327446610371178 66.1644
15.349964346154254 65.819
15.372465126703139 65.7138
15.394984055556009 65.4729
15.417486030076159 65.4988
15.44000615566487 64.9862
15.462526881230803 64.7578
15.485030653812652 64.844
15.507552581617434 64.7706
15.530057557334603 64.6469
15.55258069104857 64.9149
15.575104429329837 65.0083
15.597611216864632 64.8705
15.620136166564563 65.8591
15.6426441664095 67.6218
15.665170331202765 69.8429
15.687697105158826 72.6506
15.710206930593545 76.0389
15.732734925158933 80.3685
15.755245972089478 86.9487
15.77777519094324 96.1104
15.800287463046663 109.47200000000001
15.822817909869592 129.332
15.84534897229804 151.953
15.867863089299354 180.016
15.890395385222186 198.535
15.912910736597423 195.74
15.935444269699861 175.657
15.957978423016485 139.19299999999998
15.980495633101265 108.31700000000001
16.003031029129367 84.5115
16.02554948280019 70.4838
16.048086125229432 64.4784
16.070623392487107 62.1873
16.09314371869582 61.3279
16.11568223789321 60.2968
16.13820381691126 59.6944
16.160743591742527 59.3551
16.183283996022084 58.8879
16.205807461423195 58.0025
16.228349126881973 57.7933
16.25087385432698 57.622
16.27341678466365 57.1356
16.29594277784926 56.8121
16.31848697676433 56.6214
16.341031811604868 56.1141
16.36355971058487 55.9726
16.3861058195587 55.7763
16.40863499352978 55.077
16.431182380342005 55.07
16.453730407713202 54.9399
16.476261501364792 54.6047
16.498810812136167 54.3935
16.52134319004079 54.6815
16.54389378792203 54.5322
16.566445031001553 54.1292
16.588979342490088 54.1518
16.61153187824822 53.9355
16.634067483263312 53.9509
16.656621315414416 53.698
16.679175797408888 53.4227
16.701713349928728 53.4781
16.72426913389191 53.6804
16.74680798922351 53.5393
16.76936507887444 53.4657
16.791905240734874 53.6248
16.814463639794468 53.4776
16.837022695210294 53.6746
16.859564824093756 53.7768
16.882125194503903 54.0261
16.904668639217885 54.0573
16.927230328348003 54.0438
16.949792678493612 54.3844
16.972338104193863 54.278
16.994901778652235 54.1552
17.017448529496576 54.5298
17.040013531998152 55.1502
17.06257920018044 55.5651
17.0851279459922 56.2762
17.107694947817667 57.0965
17.130245028099072 57.9596
17.15281336730298 59.4599
17.17536478578733 61.1819
17.19793446610687 63.297
17.220504818648422 66.6453
17.243058251703697 70.1788
17.265629950971032 75.1268
17.288184731571736 80.8902
17.310757781306908 83.4702
17.33333150794385 82.5464
17.355888317140174 78.9712
17.37846339986244 72.7935
17.401021565958885 66.8383
17.42359800851343 62.3431
17.44617513265564 59.7233
17.468735341390783 58.9026
17.491261035594565 58.2087
17.51396340099364 58.023
17.536490463869136 58.042
17.559018209820174 58.3098
17.58154663977963 58.3988
17.604251766089718 58.5806
17.626781572227713 58.8338
17.64931206518155 58.7204
17.671843245885103 58.9467
17.69455114821572 59.3132
17.717083712612634 59.6498
17.739616967569667 60.0052
17.762150914021706 60.4385
17.78486160749854 60.8094
17.807396945166804 61.9976
17.829932977143503 63.2872
17.85246970436452 64.8056
17.875183204129467 66.096
17.897721330097664 68.3095
17.920260154126645 70.6555
17.942799677153296 73.6303
17.9655159983646 77.5677
17.988056927677544 83.0427
18.010598558807683 90.9752
18.033140892692916 101.63
18.05586005052525 114.448
18.07840379824407 127.801
18.10094825154059 138.377
18.12366954819864 142.322
18.146215420998306 137.325
18.16876200220057 123.928
18.191309292745153 108.38600000000001
18.214033452627167 94.9589
18.236582170236648 86.4691
18.259131600016456 83.4855
18.281681742907335 85.2427
18.304408781233683 90.5386
18.32696035875955 96.9656
18.349512652227624 102.117
18.372065662579683 106.09899999999999
18.394795594587553 104.436
18.41735004715306 97.78299999999999
18.43990521943684 88.9628
18.46246111238171 80.0475
18.485193953325208 71.7003
18.507751296070428 66.0816
18.530309362314178 63.4543
18.552868153000343 61.8439
18.57560391815056 60.9784
18.59816416623245 60.5519
18.620725141597372 60.1636
18.643286845190268 59.5359
18.666025549835414 59.1384
18.688588718427933 58.6762
18.711152618092243 58.5734
18.73389353884365 58.326
18.75645890921984 57.9241
18.77902501351406 57.7352
18.801591852673102 57.6939
18.824335739722738 57.0447
18.846904057212626 57.125
18.8694731124168 56.7851
18.89204290628315 56.7442
18.914789774966803 56.6428
18.937361054791623 56.3637
18.959933076131318 56.1523
18.982505839934877 55.9855
19.00525570560582 55.9439
19.027829963004184 55.699
19.05040496572238 55.9813
19.072980714710468 56.0434
19.095733592739563 56.2378
19.11831084296757 56.177
19.140888842324735 56.5651
19.16346759176222 56.7739
19.18622349753803 57.3648
19.208803755869358 58.4371
19.231384767143577 59.8689
19.253966532312948 61.4308
19.276725481241822 63.611000000000004
19.29930876296784 66.3782
19.3218928014549 69.7396
19.34465404436217 72.4416
19.36723960516257 74.89399999999999
19.389825925592426 75.024
19.412413006605938 72.5471
19.43517731967805 68.4794
19.457765930683355 64.1269
19.48035530514408 59.7579
19.50294544401556 56.6332
19.525712842708348 54.7774
19.54830451925909 53.6904
19.570896963095727 53.1858
19.593490175174704 52.8114
19.616260674962184 52.9874
19.638855432416964 52.6763
19.661450960992624 52.7666
19.68404726164677 52.7186
19.706820878021247 52.3966
19.729418731756834 52.778999999999996
19.752017360452857 52.3334
19.77461676506804 52.735
19.797393513540218 52.851000000000006
19.819994478951667 52.9569
19.84259622316767 53.5611
19.8651987471481 53.8307
19.887978643247177 54.092
19.91058273574792 54.82899999999999
19.933187610901943 55.6061
19.955969879466828 56.7666
19.97857632894404 58.3173
20.00118356396599 59.9914
20.023791585494575 62.4098
20.046577028914875 65.6988
20.069186632506966 68.1484
20.091797025500632 69.8505
20.114408208858933 69.8856
20.137196842715273 68.541
20.159809615886765 66.2762
20.18242318232135 63.2055
20.20503754298326 61.2335
20.227829382875154 60.6155
20.250445341109344 61.2279
20.27306209647285 62.4524
20.29567964993108 64.059
20.31847471147704 64.9104
20.34109387027612 65.2548
20.363713830075454 64.3857
20.386334591841646 62.115
20.409132890679302 58.808
20.431755265564437 55.7281
20.454378445325528 53.3588
20.477002430930366 51.6894
20.499803982716553 50.5798
20.522429589228004 50.0229
20.54505600449589 49.6814
20.567683229489194 49.5081
20.590488049900088 49.3147
20.61311690359731 49.1469
20.63574656993626 49.0924
20.658553853717297 48.6843
20.681185154618298 48.7839
20.703817271080066 48.6421
20.72645020407368 48.3861
20.749260783967177 48.2741
20.771895359337133 48.0353
20.794530754161617 48.2224
20.817166969412938 48.007
20.83998086114876 47.9835
20.86261872660049 47.7619
20.885257415405402 47.865
20.90789692853701 47.8916
20.930714147864748 47.6461
20.953355319030678 47.8725
20.97599731745334 47.9769
20.99864014410749 47.635
21.021460706796564 47.6941
21.044105199328826 47.9356
21.06675052302631 48.2439
21.089396678865015 48.3701
21.112220600704806 48.6561
21.134868430275347 48.9108
21.15751709492456 49.3165
21.180166595629693 49.6624
21.202993892429635 50.2955
21.22564507473034 50.7059
21.24829709602816 50.8832
21.27112693608965 50.9131
21.293780644891275 50.4493
21.316435195634053 49.5942
21.339090589297417 48.9025
21.361923832041875 48.4738
21.384580921090404 47.9313
21.407238856007325 47.4855
21.429897637773326 47.56
21.45273429906592 47.7336
21.475394784108598 47.6605
21.498056118951983 47.5664
21.520718304578022 47.9053
21.543558400304388 47.9778
21.566222297108816 48.3541
21.58888704765135 48.4334
21.61155265291521 48.6856
21.63439619898156 49.0884
21.657063523335786 49.2877
21.67973170537063 49.8067
21.7024007460706 50.1604
21.72524775840385 51.0562
21.747918526116475 52.022
21.770590155457388 53.419
21.79326264741238 55.1094
21.816113141960237 57.0632
21.838787368860547 59.0677
21.861462461341976 61.4696
21.884315579735777 63.5744
21.90699241312273 64.4988
21.92967011506078 64.1639
21.95234868653799 62.8293
21.9752053151131 60.7588
21.997885635446785 58.4404
22.020566828293532 56.8382
22.04324889464272 55.7651
22.066109049404666 55.2921
22.088792872571794 55.166000000000004
22.111477572219204 55.3396
22.1341631493376 55.5904
22.157026846313123 54.9143
22.179714188221507 53.8853
22.202402410582668 52.4855
22.22509151438863 50.9755
22.24795876962584 49.9632
22.270649646204486 49.1723
22.293341407213727 48.622
22.316034053646906 48.2662
22.338904883215342 48.0578
22.36159931041458 48.0104
22.38429462602756 47.9214
22.40699083104897 47.553000000000004
22.429865251039757 47.6896
22.452563244831367 47.7519
22.47526213102522 47.6742
22.49813925616515 47.6735
22.520839937143307 47.7827
22.543541513520587 47.8974
22.56624398629403 47.6491
22.589124730075895 47.5785
22.611829005656723 47.8951
22.63453418063466 48.1145
22.657240256008077 48.1666
22.680124634582935 48.1774
22.70283252079775 48.4925
22.725541310413075 48.6638
22.74825100442868 48.9176
22.771139033969575 49.4388
22.79385054687155 49.7638
22.81656296718292 50.5506
22.83927629590484 51.2768
22.862167992606945 52.3555
22.88488314827121 53.8512
22.907599215359284 54.9133
22.93031619487366 56.2688
22.953211574954405 57.0116
22.975930389478226 57.1564
22.998650119445763 57.0374
23.02137076586092 55.6864
23.044269845560063 53.9786
23.06699233506288 52.2744
23.089715744034912 50.6903
23.112617610931565 49.3746
23.135342869061212 48.669
23.158069049684816 48.0939
23.1807961538087 47.8166
23.20370174880544 47.9956
23.226430710184808 48.0852
23.249160598093425 48.2538
23.271891413539002 48.0999
23.294800752937697 48.0851
23.31753343374794 48.2894
23.340267045128353 48.3999
23.36300158808808 48.8467
23.38591468821339 49.1566
23.408651104658304 49.5238
23.431388455719986 50.2292
23.454126742409 51.1591
23.4770436196085 52.0402
23.499783787914662 53.4836
23.522524894889884 54.7538
23.54526694154616 56.1499
23.56818761219047 57.4165
23.59093154860734 57.5935
23.613676427751283 57.2212
23.636422250635754 55.6297
23.659346731118656 53.4612
23.68209445191868 51.4919
23.704843119509587 49.3956
23.72759273490623 47.7945
23.750521041644767 46.7769
23.77327256312355 45.9944
23.796025035462787 45.4918
23.818956224555475 45.1487
23.841710609113413 44.9913
23.86446594758979 44.9392
23.887222241002014 44.6674
23.910157285144578 44.3345
23.932915498962537 44.3551
23.955674670778713 44.3304
23.978434801611975 44.0588
24.001373717286125 43.9382
24.024135776723917 43.7838
24.046898798245582 43.6653
24.06966278287146 43.6155
24.092605586582614 43.4129
24.115371508023642 43.3004
24.1381383956401 43.238
24.16090625045381 43.0389
24.183852958731244 43.0177
24.206622758582608 42.8893
24.229393528706886 42.8308
24.252165270127392 42.9145
24.27511589952438 42.803000000000004
24.297889594216997 42.6408
24.32066426328598 42.5522
24.34343990775613 42.5411
24.36639447485003 42.4762
24.38917208083877 42.2421
24.41195066531332 42.228
24.43490819850244 42.3952
24.457688750692377 42.1624
24.48047028445616 42.2761
24.503252800821233 42.28
24.526214300784112 42.3146
24.548998793132213 42.1713
24.57178427117417 42.3825
24.59457073593893 42.3454
24.617536219319863 42.0799
24.64032466834748 42.0524
24.663114107195035 41.9854
24.685904536893013 41.7385
24.708874020360852 41.6501
24.731666442613744 41.638000000000005
24.754459858818787 41.6452
24.777254270007962 41.6214
24.80022777025625 41.3412
24.82302418230472 41.4422
24.845821592443674 41.5592
24.86862000170663 41.5998
24.891597535453727 41.4482
24.914397953892728 41.5184
24.93719937456671 41.4874
24.96000179851076 41.5802
24.98298338249997 41.9771
25.00578782394922 42.0688
25.028593271784167 42.2385
25.05157790644186 42.5825
25.07438537804115 42.6898
25.097193859145293 43.093999999999994
25.120003350792075 43.3636
25.142992065061257 43.6255
25.165803588823465 43.7796
25.18861612625217 43.9886
25.211429678386736 43.9102
25.234422489079968 43.9619
25.257238081693636 44.0045
25.280054692141732 44.1793
25.3028723214652 44.2322
25.325869245420463 44.248000000000005
25.348688923599397 44.1869
25.371509623787006 44.1558
25.394331347025812 43.5932
25.41733240110666 43.0249
25.440156181590016 42.3737
25.46298098826268 41.8319
25.48580682216873 41.3197
25.50881202326435 40.9529
25.53163992281684 40.4502
25.55446885274561 40.2218
25.577298814096377 40.0953
25.600308179121807 40.0242
25.623140214533745 40.228
25.64597328451537 40.1211
25.66898578564376 39.7345
25.691820936010206 39.8238
25.714657124097695 39.7982
25.737494350954734 39.794000000000004
25.760511045684957 39.7005
25.783350361364224 39.6673
25.806190718969255 39.7122
25.82903211955018 39.8752
25.852053024868923 39.8986
25.874896522722523 39.9696
25.897741066713106 39.8099
25.920586657892454 40.056
25.943611790812668 40.2003
25.966459487728237 40.3618
25.989308234998564 40.3734
26.01215803367705 40.7627
26.03518741123814 41.0124
26.05803932412957 41.0615
26.080892291600094 41.0572
26.10374631470478 41.0698
26.12677995397268 41.1022
26.14963609978026 40.9349
26.172493304397875 40.4527
26.19535156888223 40.2062
26.218389486949604 39.8969
26.241249882640123 39.8116
26.26411134137826 39.5004
26.28715248187403 39.4432
26.31001607820869 39.3441
26.3328807407756 39.2139
26.35574647063438 39.3678
26.37879191991473 39.4541
26.401659795896734 39.4304
26.424528742360263 39.6835
26.447398760366614 39.8391
26.470448535598294 39.8435
26.49332070826805 40.0607
26.516193955675355 40.3663
26.53906827888316 40.6894
26.562122397260108 40.8006
26.584998883685063 41.0509
26.607876449110325 41.558
26.63075509460056 41.6728
26.65381357334404 41.6972
26.67669439061878 41.6125
26.699576291163382 41.2278
26.722459276044212 41.1505
26.745522132402975 40.8293
26.768407297649354 40.5786
26.791293550442003 40.2698
26.814180891848974 40.0254
26.837248143099337 39.8803
26.860137673466657 39.7706
26.88302829566349 39.3897
26.90592001075963 39.2884
26.92899167420566 39.1444
26.951885586870763 38.6965
26.974780595655517 38.5855
26.99785558178161 38.4091
27.020752794605112 38.3587
27.043651106772522 38.2612
27.06655051935668 38.1777
27.089629948036183 38.0789
27.112531573292053 38.032
27.135434302194138 38.0751
27.158338135817015 37.9047
27.181422024430987 37.9945
27.204328079372566 37.7282
27.22723524226965 37.9713
27.250143514198573 37.9502
27.273231880156334 37.912
27.296142382065014 37.7484
27.319053996245536 37.8178
27.341966723775965 37.8469
27.365059584515222 37.829
27.38797455070062 37.9335
27.410890633481237 37.6389
27.433807833936918 37.7365
27.456905206923906 37.8442
27.47982465472398 37.8686
27.502745223449743 38.0422
27.525666914182825 38.0966
27.548768816912457 38.0167
27.571692763693633 37.8804
27.59461783573812 37.7726
27.617723149491244 37.5154
27.640650484125285 37.4721
27.66357894728264 37.4692
27.686508540048052 37.4612
27.709618414237887 37.361999999999995
27.732550278321757 37.2003
27.755483275279115 37.1747
27.778417406196485 37.2716
27.801531858397514 37.2633
27.824468269376716 37.1049
27.847405817586786 37.2876
27.870344504116094 37.4114
27.893463551932008 37.5497
27.916404527281053 37.7878
27.93934664422563 37.8401
27.962289903855886 37.9829
27.98541356491974 38.1771
28.00835912214229 38.2295
28.03130582533231 38.4746
28.054253675581805 38.5325
28.077381967556104 38.506
28.100332124185126 38.3571
28.123283431160893 38.2454
28.146235889577238 38.0051
28.169368830154156 37.8808
28.192323603752033 37.6929
28.215279532083304 37.4601
28.238415973016764 37.3858
28.261374223145094 37.2363
28.284333631303806 36.8993
28.307294198589954 36.7285
28.330435319167677 36.3923
28.353398217078915 36.2337
28.376362277420153 36.0454
28.39932750129032 35.8493
28.422473319286713 35.847
28.44544088262495 35.7383
28.468409612800283 35.5967
28.491379510913497 35.3626
28.51453004413313 35.3452
28.53750229057244 35.2597
28.56047570826344 35.2694
28.583450298308804 35.1395
28.606605564586562 35.0951
28.629582511831156 35.2099
28.65256063474956 34.9926
28.675539934446338 35.0168
28.698699951647605 34.9989
28.72168161743193 34.8696
28.74466446331978 34.8464
28.767648490417624 34.8657
28.790813276438353 34.8891
28.813799678527303 34.8855
28.836787265157085 34.879
28.859955641890075 34.8798
28.882945610203045 34.7686
28.905936766392035 34.7382
28.928929111566863 34.7021
28.952102288520145 34.6502
28.975097024308607 34.5087
28.998092952423807 34.2176
29.021090073977508 34.2788
29.04426806913204 34.234
29.067267590245258 34.0836
29.090268308143695 34.0251
29.11327022394099 33.8856
29.13645305530891 34.0141
29.159457379627167 33.9114
29.18246290519685 33.6606
29.20546963313352 33.7032
29.22865731875826 33.7794
29.25166646419296 33.808
29.27467681535305 33.5901
29.29768837335608 33.7889
29.320880931312562 33.7304
29.34389491580634 33.6261
29.366910110507334 33.6807
29.38992651653503 33.7956
29.41312396492981 33.6945
29.436142806456754 33.4876
29.45916286268059 33.3829
29.48236399319994 33.3604
29.50538649169417 33.1771
29.528410208259935 33.0441
29.55143514402014 32.9221
29.574641196749695 32.7779
29.597668583816574 32.8411
29.6206971934585 32.5917
29.64372702680042 32.5749
29.666938019934474 32.541
29.689970313635285 32.4046
29.713003834422636 32.3926
29.73603858342347 32.3894
29.759254535188578 32.2632
29.78229175361658 32.2575
29.80533020365064 32.3189
29.82836988641968 32.312
29.85159081507472 32.1775
29.874632976355343 32.1858
29.89767637376955 32.2095
29.920721008448314 32.0545
29.9439469322847 32.0282
29.96699405457564 31.9475
29.9900424175358 32.0073
30.013092022298157 31.8967
30.03632295963995 31.9456
30.059375061131373 31.930999999999997
30.08242840783577 31.9852
30.105483000888153 31.912
30.128718970092244 31.8277
30.151776069006917 31.7485
30.17483441768648 31.881999999999998
30.198074175317235 31.8154
30.221135036724256 31.9265
30.24419715131772 31.8603
30.267260520236203 31.771
30.290505341942243 31.8236
30.313571232750228 31.9125
30.336638381310948 31.7773
30.35970678876503 31.7564
30.38295669299435 31.5511
30.40602763151657 31.514
30.429099832366074 31.5075
30.452173296685572 31.5317
30.47542830191959 31.6013
30.498504306502497 31.5732
30.521581577995562 31.5295
30.544660117543582 31.6358
30.56792024229725 31.6367
30.59100133132069 31.6815
30.614083691845494 31.7442
30.637167325018545 31.7641
30.660432587840603 31.7762
30.683518779717886 31.71
30.70660624769615 31.6894
30.729694992924372 31.6317
30.75296541239743 31.7275
30.77605672557558 31.643
30.799149319462742 31.5218
30.8224236211637 31.3755
30.845518789950724 31.2265
30.868615242910597 31.255
30.891712981195973 31.0377
30.91499247215866 30.9309
30.938092794619365 30.933000000000003
30.96119440587579 30.9428
30.984297307082752 30.8454
31.00758200598383 30.8571
31.030687500658694 30.6998
31.053794288760695 30.708000000000002
31.076902371446767 30.5969
31.100192296997445 30.7131
31.12330298246119 30.6302
31.14641496599209 30.3714
31.169528248749216 30.3278
31.19282341969534 30.443
31.215939314557186 30.3452
31.239056512134788 30.3878
31.262175013589378 30.3017
31.28547544871168 30.3311
31.30859657161541 30.1698
31.331719001892175 30.3698
31.35484274070538 30.4691
31.378148458819545 30.4445
31.401274828443725 30.2775
31.424402510106933 30.3676
31.447712205419993 30.441
31.470842524931633 30.3183
31.493974159989783 30.334
31.51710711176168 30.2915
31.54042212308802 30.3289
31.563557722100917 30.206999999999997
31.586694641341655 30.0601
31.609832881979628 29.9257
31.63315322823208 29.929000000000002
31.656294125521327 29.7755
31.679436347728515 29.7131
31.70257989602529 29.7078
31.725905596152327 29.6873
31.74905181052835 29.6723
31.772199354521323 29.7617
31.79534822930507 29.664
31.818679302290967 29.6826
31.84183085259981 29.5671
31.864983737233473 29.5867
31.88813795736804 29.6462
31.911474422233013 29.5418
31.934631327356435 29.5388
31.9577895715215 29.5343
31.980949155906522 29.5873
32.004291031706956 29.5817
32.027453310562606 29.44
32.05061693318573 29.2867
32.07396288236386 29.2968
32.09712920658542 29.1044
32.12029687812702 29.0376
32.14346589817093 28.9708
32.166817291729984 28.921
32.18998902288583 28.9294
32.21316210610336 28.913
32.23633654256711 28.6895
32.259693399663725 28.7053
32.282870556771144 28.6951
32.30604907069099 28.6474
32.329228942610065 28.5976
32.35259128243769 28.4582
32.375773884550505 28.4884
32.398957848235646 28.4473
32.422143174682176 28.3884
32.445511016471215 28.298000000000002
32.468699082679954 28.2439
32.49188851523011 28.2133
32.51507931531304 28.088
32.538452678331 28.1878
32.56164622776311 28.1341
32.58484114831493 27.9851
32.60803744118015 28.0139
32.631416344731896 27.9144
32.654615396551876 27.916999999999998
32.67781582427913 27.9013
32.701198898634416 27.8827
32.72440209253756 27.7984
32.747606665947124 27.9033
32.77081262006088 27.663
32.79420126883317 27.612
32.81740999876112 27.6519
32.840620112999424 27.6151
32.86383161274818 27.484
32.88722585534586 27.5885
32.91044014056596 27.6062
32.933655814909734 27.5379
32.95687287957963 27.5341
32.98027273544904 27.43
33.00349259526636 27.345
33.026713849030116 27.3918
33.04993649794511 27.3662
33.073341986570746 27.3838
33.09656744032826 27.3524
33.11979429286444 27.3724
33.14302254538647 27.2901
33.166433686291185 27.2558
33.18966475336992 27.2221
33.212897224069096 27.0814
33.23613109959831 27.0888
33.259547912343415 27.0556
33.2827846121627 27.0875
33.306022720453775 27.0453
33.32926223842861 26.9169
33.352684742614166 26.987
33.37592709463173 26.9186
33.399170859982064 26.8626
33.422597648419426 26.7488
33.44584425514446 26.6235
33.46909227885668 26.6396
33.4923417207723 26.4386
33.51577423505344 26.4184
33.539026528130385 26.4713
33.56228024307245 26.5006
33.585535381098246 26.3887
33.60897364093058 26.2733
33.63223163992385 26.2969
33.6554910656699 26.2201
33.678751919389796 26.2452
33.702195944520106 26.1863
33.72545966903325 26.1688
33.74872482519663 26.0786
33.771991414233746 26.070999999999998
33.79544122444841 25.9841
33.81871069412428 25.8614
33.84198160035767 25.9649
33.86525394437455 25.9304
33.88870955949969 25.8392
33.911984794020626 25.8065
33.93526147001624 25.7946
33.958539588715006 25.7928
33.98200102861669 25.671
34.0052820477047 25.5989
34.02856451319451 25.5847
34.05203033759056 25.5132
34.07531571090147 25.4165
34.09860253431845 25.4387
34.121890809074316 25.4103
34.145362493118924 25.3978
34.16865368561615 25.4254
34.191946333164054 25.3484
34.21524043699793 25.3387
34.23871800066799 25.3919
34.26201503218366 25.1456
34.28531352370466 25.1941
34.30861347646881 25.1707
34.33209693978188 25.0967
34.3553998301885 25.0786
34.378704185565205 24.9623
34.402010007152356 24.8706
34.42549939016683 24.9063
34.44880815937748 24.8515
34.472118398533134 24.8575
34.49543010887669 24.7947
34.51892543169198 24.6149
34.54224009966052 24.6582
34.56555624255917 24.6959
34.58887386163339 24.6192
34.61237514439016 24.5614
34.6356957311114 24.5254
34.65901779775809 24.4865
34.68252356662995 24.5163
34.705848608458616 24.5033
34.72917513396849 24.4389
34.75250314440949 24.403000000000002
34.77601490857862 24.3765
34.799345904259795 24.3685
34.82267838863559 24.2736
34.846012362958525 24.204
34.869530142679984 24.2066
34.89286711232212 24.0922
34.91620557568269 24.1057
34.93954553401677 24.1138
34.9630693495876 24.0081
34.986412313340814 24.0954
35.00975677584668 24.045
35.033102738362956 23.9941
35.05663261012228 23.9219
35.0799815881786 23.9061
35.10333207003229 23.9031
35.12668405694369 23.9207
35.150220005273056 23.8311
35.17357501786656 23.8537
35.19693153931268 23.8199
35.220289570874385 23.8006
35.24383161619786 23.8201
35.267192683604904 23.7536
35.290555264930376 23.69
35.314101899412165 23.6926
35.33746752422433 23.7045
35.36083466676374 23.6582
35.38420332829803 23.6152
35.407756095629054 23.6182
35.43112781085063 23.5922
35.45450104888391 23.5524
35.477875810999194 23.5356
35.50143473172161 23.4374
35.52481255774625 23.4652
35.54819191167777 23.3957
35.57157279478914 23.3808
35.595137889488406 23.2958
35.61852184675279 23.281999999999996
35.641907337029984 23.2364
35.665294361595684 23.1951
35.68886565090076 23.1771
35.7122557598848 23.1712
35.73564740699838 23.026
35.759040593519934 23.0374
35.78261809810353 23.0464
35.80601437933051 22.9848
35.829412203814705 22.8969
35.85281157283719 22.8756
35.876395313415884 22.8948
35.8997977874528 22.8546
35.92320180988546 22.8315
35.946790244133936 22.7663
35.97019737933222 22.7943
35.993606066789866 22.6435
36.01701630779276 22.6201
36.04061101440684 22.5441
36.06402437852291 22.6354
36.08743930005611 22.6013
36.1108557802951 22.5303
36.13445678011326 22.4977
36.15787639383515 22.4606
36.18129757014299 22.3851
36.20472031032821 22.4081
36.22832762423364 22.2294
36.25175350829375 22.2922
36.275180960119776 22.201
36.298609981005924 22.2715
36.32222362992669 22.2706
36.34565580510207 22.2348
36.36908955323448 22.1633
36.39252487562093 22.0012
36.416144880530226 22.0413
36.43958336764275 22.0348
36.463023432914625 22.019000000000002
36.486465077645676 21.9828
36.51009145956204 22.076
36.53353627947859 22.0593
36.55698268276811 21.9835
36.58043067073321 21.8698
36.60406345072071 21.8053
36.62751462435344 21.8659
36.65096738658405 21.8023
36.67460498210655 21.7451
36.69806093788647 21.7514
36.72151848619297 21.6695
36.744977628333636 21.6484
36.76862165890998 21.5882
36.79208400512205 21.601
36.81554794910557 21.5981
36.83901349217101 21.4302
36.862663978991606 21.4458
36.88613273667352 21.448
36.90960309738324 21.401
36.933075062434064 21.3407
36.95673202673572 21.3053
36.98020721697122 21.2538
37.003684015502365 21.2265
37.027162423645365 21.1386
37.050825886711465 21.1836
37.07430753063053 21.0384
37.09779078812467 21.1
37.121275660513014 21.1171
37.144945643673694 21.0449
37.16843376245278 21.0442
37.19192350009803 20.9884
37.215414857931435 20.9488
37.239091382563885 20.8764
37.262585997426164 20.9051
37.28608223645736 20.9111
37.309763684451696 20.811
37.33326318851098 20.8461
37.356764320726555 20.8016
37.380267082425526 20.7418
37.40395510942588 20.7566
37.42746114683234 20.6674
37.45096881771841 20.5848
37.474478123414166 20.6302
37.49817275092816 20.6295
37.52168534303452 20.554000000000002
37.54519957395567 20.4921
37.568715445024665 20.4477
37.592416694607714 20.4816
37.61593586281424 20.4603
37.63945667518264 20.4448
37.66297913304891 20.4032
37.68668702630454 20.3399
37.710212792059274 20.2442
37.733740207334854 20.2376
37.757269273470364 20.2104
37.780983832050374 20.192999999999998
37.80451621684926 20.1464
37.82805025654007 20.0479
37.851585952464795 20.0676
37.8753071980695 19.9653
37.89884622345676 19.9777
37.92238690911902 19.9282
37.94611318753442 19.9331
37.969657210779765 19.9311
37.99320289834801 19.8654
38.016750251586465 19.8453
38.04048325513017 19.8592
38.06403395679343 19.8044
38.087586328183946 19.7145
38.11114037065203 19.7626
38.13488012115898 19.742
38.1584375229181 19.6798
38.181996599821 19.6345
38.205557353221124 19.5546
38.229303872575656 19.5575
38.2528679961576 19.5135
38.27643380031219 19.562
38.30000128639589 19.5129
38.32375459653193 19.4915
38.34732546371299 19.4863
38.37089801690786 19.3965
38.39447225747609 19.3849
38.418232380377425 19.317999999999998
38.441810012983396 19.2667
38.46538933705673 19.3023
38.488970353960084 19.2665
38.51273731166058 19.1781
38.536321731567014 19.1374
38.55990784840681 19.145
38.58367995004091 19.0603
38.60726947812959 19.0275
38.63086070726198 19.1429
38.654453638806274 19.074
38.678232613930824 18.9377
38.70182896773327 18.9536
38.72542702806741 18.9521
38.7490267963045 18.9174
38.77281266709232 18.844
38.79641586862214 18.8552
38.8200207821842 18.8355
38.843627409152944 18.8259
38.86742019782782 18.7512
38.891030269149255 18.7168
38.914642058016156 18.7227
38.938255565806124 18.6786
38.96205529464307 18.6655
38.98567225787121 18.619
39.00929094417078 18.6269
39.03291135492255 18.5414
39.05671804624804 18.5137
39.080341923549106 18.4606
39.103967529460334 18.5309
39.127594865365744 18.4676
39.15140854155791 18.4116
39.17503935514948 18.3623
39.19867190290282 18.2838
39.22249083587951 18.2935
39.24612686969409 18.3378
39.269764641845306 18.2908
39.293404153722804 18.2467
39.317230110864074 18.1423
39.34087311998506 18.1325
39.36451787301696 18.1502
39.388164371352595 18.0366
39.41199737518003 18.0469
39.43564738196752 18.0455
39.45929913825317 18.0514
39.48295264543308 17.9473
39.506792718520884 17.9496
39.530449745387216 17.906
39.55410852735203 17.9052
39.57776906581474 17.8936
39.60161623079 17.8438
39.625280300200025 17.8376
39.64894613032202 17.7878
39.67261372255866 17.749000000000002
39.6964680021016 17.7701
39.72013913657293 17.781
39.74381203738292 17.7029
39.76748670593756 17.6613
39.79134812278169 17.6115
39.81502634488497 17.6474
39.83870633896685 17.5914
39.862388106436654 17.5249
39.88625668336918 17.4835
39.90994201572829 17.5417
39.933629125719285 17.4669
39.957503091207826 17.4382
39.9811937746168 17.4125
40.00488623990914 17.3927
40.02858048850006 17.3219
40.05246165409549 17.3171
40.076159487492085 17.2035
40.099859108448875 17.2822
40.123560518384345 17.2087
40.1474489070226 17.2428
40.171153913178564 17.1873
40.194860712584955 17.1629
40.2185693066637 17.1821
40.242464941335314 17.0955
40.26617714307655 17.0723
40.289891143772046 17.0571
40.3136069448471 17.0121
40.33750984859743 17.0382
40.3612292688043 16.9163
40.3849504936829 16.9108
40.40867352466194 16.926
40.43258372059144 16.8485
40.45631038219906 16.844
40.48003885420956 16.7926
40.503769138055105 16.7564
40.52768664931955 16.795
40.55142057531802 16.7582
40.57515631746428 16.7275
40.599079334038514 16.7285
40.62281872700477 16.6171
40.64655994043941 16.6126
40.67030297578061 16.6111
40.69423334835778 16.5586
40.71798004609188 16.5576
40.74172857006355 16.558
40.76547892171441 16.5668
40.7894166736039 16.4618
40.813170699248566 16.4376
40.83692655691388 16.3874
40.86068424804498 16.4517
40.884629402612525 16.3637
40.908390779366385 16.3533
40.932153993938 16.2652
40.95591904777605 16.2708
40.979871628443995 16.2715
41.003640379561936 16.2472
41.02741097430883 16.1866
41.05118341413683 16.1529
41.075143444384416 16.1806
41.098919593177826 16.1933
41.1226975914255 16.1689
41.14647744058318 16.1413
41.170444943946755 16.0647
41.19422851378379 16.0911
41.218013938914645 16.0102
41.24198706625173 15.9856
41.26577622087193 15.9762
41.289567235177785 15.9392
41.31336011063129 15.9005
41.337340752422875 15.8569
41.361137369129835 15.8918
41.38493585138705 15.8742
41.40873620066004 15.8122
41.43272438060107 15.7613
41.45652848292052 15.7399
41.48033445666918 15.7164
41.50414230331616 15.6366
41.528138045159764 15.6639
41.551949656675205 15.6637
41.575763145513235 15.6462
41.59957851314666 15.6021
41.62358184070442 15.5307
41.64740098505737 15.5089
41.6712220126409 15.4769
41.69504492493139 15.4751
41.71905586207357 15.4674
41.74288256296395 15.4089
41.766711153007456 15.3895
41.79054163368412 15.3591
41.814560204340054 15.3766
41.838394485526365 15.3757
41.86223066180303 15.3047
41.88625497706819 15.2944
41.910094962812 15.2553
41.93393684811168 15.2827
41.95778063445365 15.1551
41.981812625263366 15.1709
42.00566023303407 15.1667
42.029509746323676 15.1293
42.05336116662236 15.0888
42.077400857069705 15.055
42.10125611078846 15.0216
42.12511327600405 15.0498
42.14897235421036 14.9675
42.173019768448455 14.9623
42.19688269209613 14.9191
42.22074753323349 14.8973
42.24461429335818 14.8541
42.268669455600495 14.8995
42.292540073217886 14.8879
42.31641261433284 14.8427
42.34028708044675 14.7972
42.36435001496739 14.7797
42.38822835065557 14.7792
42.41210861586426 14.7163
42.4359908120986 14.7356
42.46006154323262 14.6402
42.48394762115317 14.6497
42.507835634632315 14.6478
42.531912233047436 14.6147
42.55580413732265 14.5682
42.579697981698 14.5392
42.60359376768525 14.5283
42.62767820545945 14.4755
42.65157789440821 14.46
42.67547952952185 14.4769
42.699383112316 14.4237
42.72347541395347 14.4191
42.74738291190531 14.3764
42.771292362102166 14.350999999999999
42.795203766063516 14.297
42.819303956130405 14.3564
42.843219287476536 14.3175
42.86713657716324 14.2668
42.89105582671383 14.2475
42.91516392983864 14.2212
42.939087119032166 14.2169
42.963012272677304 14.1747
42.98693939230129 14.1101
43.01105543317513 14.1244
43.034986504731386 14.057
43.05891954686589 14.05
43.08285456110972 14.0582
43.10697856448665 14.0202
43.130917542983475 13.923
43.15485849820081 13.9509
43.17880143167367 13.9511
43.20293342237094 13.8797
43.226880332449 13.9065
43.25082922540554 13.8578
43.27496722682525 13.8491
43.29892010567796 13.8184
43.32287497204102 13.8031
43.34683182745632 13.7398
43.370977859791836 13.7559
43.39493871351105 13.7325
43.41890156092628 13.6885
43.44286640358341 13.6656
43.46702049182749 13.6628
43.49098934522816 13.6034
43.51496019852649 13.6017
43.5389330532723 13.5992
43.56309522248204 13.5536
43.58707210044314 13.511
43.61105098451946 13.5002
43.63503187626491 13.509
43.659202151562134 13.4932
43.68318707902681 13.429
43.70717401884041 13.434000000000001
43.731162972560874 13.4423
43.75534137913236 13.3911
43.779334381108384 13.3485
43.803329401683186 13.3556
43.82732644241872 13.3083
43.8515130055166 13.2607
43.87551410707659 13.2224
43.89951723350145 13.2814
43.923709934595614 13.2267
43.94771713129917 13.2389
43.97172635758096 13.2277
43.99573761501002 13.1701
44.0199385169922 13.136
44.04395385732619 13.102
44.067971233533086 13.0721
44.09199064718605 13.0585
44.11619977548961 13.0108
44.14022328470671 13.0379
44.16424883610785 12.9812
44.18827643127035 12.979000000000001
44.21249381139513 12.9577
44.236525514814076 12.8831
44.26055926674478 12.8601
44.28459506876863 12.8455
44.3088207262813 12.8486
44.33286064928722 12.806
44.35690262714919 12.7844
44.38094666145278 12.7363
44.4051806219871 12.7883
44.42922879003185 12.7649
44.45327901929361 12.6963
44.477331311362136 12.6924
44.501573600619416 12.6397
44.525630039221795 12.6752
44.54968854541895 12.6345
44.573937102200176 12.6337
44.5979997645541 12.6127
44.622064499300315 12.5743
44.64613130803592 12.562000000000001
44.67038823869318 12.5163
44.69445921643748 12.499
44.718532272981385 12.4707
44.742607409926194 12.4273
44.76687274034801 12.4686
44.79095205918753 12.452
44.81503346325094 12.3627
44.839116954143876 12.3516
44.86339071028742 12.3369
44.88747839599524 12.3166
44.91156817336837 12.2555
44.93566004401666 12.2985
44.959942251908146 12.2624
44.984038330325966 12.2693
45.00813650686762 12.2091
45.03223678314731 12.1498
45.05652746888232 12.1461
45.08063196592069 12.1152
45.104738567558705 12.1084
45.128847275414856 12.0601
45.15314646515866 12.0665
45.17725940679741 12.0669
45.20137445952892 12.0373
45.22568004865265 12.0014
45.24979934496396 11.9811
45.27392075725247 12.0206
45.29804428714431 11.9981
45.322358426247604 11.9356
45.346486212804315 11.9325
45.370616121861914 11.9092
45.39474815505086 11.8858
45.41907087049246 11.8556
45.4432071734666 11.7887
45.46734560548283 11.800999999999998
45.49148616817604 11.8225
45.51581748638564 11.8083
45.5399623320197 11.7459
45.56410931325473 11.7056
45.58825843173002 11.7654
45.61259837920865 11.6983
45.636751793816 11.6653
45.66090735060093 11.6419
45.68506505120716 11.6379
45.7094136545275 11.5863
45.73357566449271 11.569
45.75773982322992 11.5472
45.78190613238733 11.52
45.806263418194064 11.5211
45.83043404997326 11.5339
45.85460683713677 11.4961
45.87897065658495 11.4459
45.90314777634752 11.4216
45.92732705646868 11.4084
45.9515084986045 11.3365
45.97588104735473 11.3548
46.00006683541565 11.329
46.02425479047904 11.3028
46.04844491420549 11.3417
46.0728262191024 11.3075
46.09702070211635 11.2727
46.12121735879483 11.267000000000001
46.14541619080294 11.2563
46.169806278764455 11.2265
46.194009483459034 11.2034
46.21821486849841 11.1774
46.24242243555223 11.1081
46.266821333570014 11.1025
46.29103328674601 11.1129
46.31524742696538 11.1156
46.33946375590237 11.0644
46.36387149104216 11.0881
46.38809221957392 11.0041
46.41231514186606 11.0273
46.436540259597464 11.0138
46.460956858999374 10.995
46.48518638983522 10.9361
46.509418121166966 10.9099
46.533652054678114 10.8457
46.55807754555709 10.835
46.58231590571962 10.8969
46.60655647313217 10.8884
46.630988654873654 10.8349
46.655233659129024 10.7815
46.67948087571551 10.785
46.70373030632484 10.7676
46.72817142736393 10.7652
46.752425308428684 10.7378
46.77668140861147 10.7243
46.80093972960865 10.717
46.82538981736788 10.6459
46.849652602470904 10.6215
46.87391761349769 10.6094
46.8981848521493 10.5835
46.9226439341274 10.5827
46.946915650573224 10.5541
46.97118959976749 10.5893
46.99546578341598 10.5405
47.019933887188216 10.5106
47.04421456235744 10.5088
47.06849747711879 10.5564
47.09278263318286 10.4851
47.11725978640143 10.4487
47.14154944775105 10.3709
47.165841355555656 10.3835
47.1901355115306 10.3485
47.214621741924994 10.3634
47.23892041698887 10.3561
47.26322134538975 10.3074
47.28771440635075 10.2678
47.31201986422527 10.2804
47.33632758061436 10.2627
47.360637557241866 10.270999999999999
47.38513974410611 10.2301
47.40945426407847 10.1904
47.43377104948137 10.1835
47.45809010204344 10.1779
47.48260144275502 10.1736
47.506925052572285 10.1686
47.53125093475548 10.1193
47.55557909103813 10.1367
47.58009961361992 10.0726
47.60443234110732 10.0464
47.62876734791564 10.0501
47.65310463578333 10.0006
47.6776343683373 9.994530000000001
47.7019762413987 9.98279
47.72632040075572 9.91563
47.75066684815169 9.98597
47.77520581885936 9.92678
47.799556865477655 9.88275
47.823910205386 9.89488
47.84826584033272 9.91156
47.87281407745551 9.83301
47.89717432569297 9.78589
47.92153687423484 9.81961
47.94609208429692 9.823
47.97045925671401 9.77249
47.99482873471275 9.7498
48.01920052005013 9.760010000000001
48.04376504619224 9.73172
48.068141469543484 9.75178
48.09252020552573 9.6928
48.11690125590099 9.698189999999999
48.1414751266064 9.64228
48.16586082917454 9.65475
48.19024885144316 9.60623
48.2146391951793 9.59708
48.239222439012764 9.60292
48.26361744916137 9.5662
48.28801478610016 9.57192
48.31241445160131 9.55609
48.337007097209366 9.545639999999999
48.36141144338331 9.50575
48.38581812345755 9.50238
48.41022713920929 9.47557
48.434829215320704 9.46808
48.45924292604658 9.42137
48.48365897780325 9.45876
48.50807737237308 9.425239999999999
48.532688907799276 9.39676
48.55711201168574 9.35665
48.581537463754074 9.32903
48.60615611725119 9.36853
48.63058628942721 9.30377
48.65501881516546 9.30495
48.6794536962573 9.25962
48.70408185970339 9.21998
48.72852147531801 9.21697
48.75296345168211 9.20467
48.77740779059232 9.20805
48.80204549302823 9.19392
48.82649458091802 9.18183
48.85094603676547 9.16244
48.87539986237231 9.15725
48.90004713292306 9.146139999999999
48.92450572200832 9.124130000000001
48.94896668628025 9.09055
48.97343002754588 9.06787
48.99808689542115 9.04751
49.02255501470614 9.05693
49.04702551642794 9.03623
49.0714984023988 8.998339999999999
49.096164896893235 8.98402
49.120642575466796 8.92174
49.145122643748394 8.991710000000001
49.16960510355558 8.93319
49.19428125404938 8.93972
49.2187685210852 8.87021
49.243258185121555 8.925460000000001
49.26794160167084 8.858239999999999
49.2924360839405 8.84838
49.31693296869764 8.833269999999999
49.34143225776915 8.8215
49.36612538195438 8.782810000000001
49.39062950396021 8.76698
49.41513603578346 8.77855
49.4396449792564 8.76423
49.46434784069503 8.75112
49.488861631846454 8.71847
49.513377840166804 8.700619999999999
49.537896467493745 8.66566
49.56260909589029 8.627460000000001
49.587132585683285 8.67595
49.611658500018365 8.63746
49.636186840738596 8.59746
49.66090926588511 8.61117
49.685442483902584 8.55107
49.70997813385706 8.54893
49.734516217597076 8.5329
49.75924846937352 8.51281
49.7837914452858 8.47875
49.80833686055187 8.452580000000001
49.83288471702571 8.453
49.85762682540054 8.4922
49.882179588965734 8.46183
49.9067347993235 8.44793
49.93129245833333 8.45235
49.95604445336378 8.40605
49.98060703442832 8.36159
50.005172069746266 8.37725
50.02993150438364 8.36427
50.05450147301533 8.35625
50.07907390151433 8.32644
50.10364879174981 8.28984
50.12841816587289 8.277239999999999
50.1529980044635 8.25045
50.17758031042124 8.247710000000001
50.20216508562089 8.22316
50.22694442953363 8.24071
50.25153416817468 8.24157
50.27612638170508 8.19989
50.300721072005196 8.16813
50.325510416102105 8.15879
50.350110084975064 8.16188
50.37471223628208 8.16248
50.39931687190919 8.10525
50.424116246675766 8.088610000000001
50.44872587605249 8.09324
50.47333799543065 8.099860000000001
50.49795260670191 8.00944
50.52276204271512 8.00429
50.54738166295838 8.010760000000001
50.57200378079314 8.02621
50.596628398116835 8.002189999999999
50.62144792604559 7.98568
50.646077567609396 7.9485600000000005
50.670709714377715 7.955089999999999
50.69553683636198 7.958639999999999
50.72017401885922 7.8898399999999995
50.7448137122895 7.89618
50.76945591856022 7.90205
50.79429318636823 7.85393
50.818940443716784 7.86585
50.84359021965163 7.83096
50.868242516085964 7.830939999999999
50.893089960641895 7.831510000000001
50.917747323549435 7.8049800000000005
50.94240721271973 7.7615300000000005
50.96706963007175 7.77517
50.99192728239342 7.78033
51.01659478166073 7.75208
51.04126481489051 7.7004600000000005
51.06593738400761 7.7192300000000005
51.090805275207074 7.69612
51.11548294172845 7.668989999999999
51.14016314993547 7.671189999999999
51.164845901758845 7.673710000000001
51.18972406304274 7.63258
51.21441192780656 7.63035
51.23910234200271 7.5984
51.2637953075678 7.60186
51.288683770237945 7.5770100000000005
51.31338186432707 7.567019999999999
51.33808251561888 7.52528
51.362978729967345 7.5176
51.387684521509755 7.5484100000000005
51.41239287610203 7.5012300000000005
51.437103795691165 7.44832
51.46201036644977 7.46375
51.486726441956634 7.444089999999999
51.51144508832545 7.414339999999999
51.536166307509156 7.43916
51.56108326624387 7.419630000000001
51.58580965706056 7.3814
51.61053862657523 7.39429
51.635270176746864 7.325639999999999
51.66019755512065 7.33891
51.68493429268881 7.29793
51.70967361681515 7.27375
51.73441552946465 7.29696
51.759353359237934 7.28135
51.7841004750961 7.27945
51.80885018539685 7.2785
51.833602492111254 7.2474
51.8585508051424 7.19641
51.883308330926425 7.1934
51.90806845906181 7.17324
51.932831191525715 7.142289999999999
51.95779001977161 7.11655
51.98255798721516 7.12965
52.00732856494335 7.10898
52.03229530577543 7.106339999999999
52.057071130455945 7.0738199999999996
52.081849571391054 7.049339999999999
52.106630630568695 7.07385
52.13160794279417 7.03227
52.15639426492067 7.038139999999999
52.18118321127822 7.041360000000001
52.205974783860896 7.01139
52.23096269971011 7.01346
52.255759551287994 7.0076
52.280559035098186 6.959860000000001
52.30536115314103 6.92793
52.33035970494467 6.9191199999999995
52.35516711807904 6.92391
52.37997717147198 6.90683
52.40478986713005 6.8633
52.42979908731974 6.8235
52.454617094216 6.8591
52.47943774942214 6.862430000000001
52.50426105495102 6.824269999999999
52.529280976059844 6.84448
52.554109609024096 6.812410000000001
52.57894089837482 6.78004
52.60377484613117 6.7914699999999995
52.62880550079408 6.7602
52.65364479223379 6.75581
52.67848674816189 6.707610000000001
52.70352547971946 6.73107
52.72837279155837 6.6928600000000005
52.753222773982785 6.70901
52.778075429022984 6.6711
52.80312495150885 6.6745399999999995
52.827982978797436 6.66315
52.85284368481815 6.62224
52.87770707160767 6.6104199999999995
52.90276741793998 6.58692
52.92763619336701 6.56698
52.952507655698504 6.582000000000001
52.977381806977576 6.571060000000001
53.00245301017842 6.55772
53.02733256653592 6.529319999999999
53.052214817996074 6.52158
53.077099766608484 6.50973
53.102181859804446 6.49929
53.127072229988265 6.51026
53.15196530349892 6.49633
53.17686108239249 6.46258
53.20195409881522 6.44787
53.22685531582556 6.44574
53.25175924441303 6.442419999999999
53.27666588664027 6.36983
53.30176985962693 6.40107
53.3266819565689 6.4092
53.35159677336455 6.38975
53.376514312083096 6.35878
53.40162927507703 6.3224800000000005
53.42655228516116 6.3226
53.45147802340193 6.3383199999999995
53.47660125628886 6.3077
53.50153247842639 6.2756300000000005
53.52646643496923 6.2466800000000005
53.55140312799818 6.21331
53.576537409691696 6.218719999999999
53.60147960336152 6.19393
53.626424539786164 6.202319999999999
53.65137222105307 6.1927900000000005
53.67651758529126 6.2304
53.70147078399681 6.18633
53.72642673383343 6.15983
53.75138543689533 6.15013
53.776541917524526 6.1421
53.801506154876755 6.09165
53.826473151763246 6.07489
53.851442910284916 6.04502
53.87661054126026 6.09269
53.9015858509782 6.0483199999999995
53.92656392866066 6.054069999999999
53.95154477641532 6.03158
53.976723591801296 6.04646
54.00171000771266 5.99273
54.02669920004598 6.0048900000000005
54.051691170915745 5.9958
54.076881204886796 5.9886099999999995
54.101878760928514 5.9459
54.12687910187696 5.93541
54.152077577768296 5.95742
54.1770835166946 5.90019
54.20209224691339 5.88786
54.22710377055121 5.85283
54.25231352511594 5.89582
54.27733066384342 5.86493
54.30235060239643 5.83856
54.32737334290836 5.83905
54.35259441062629 5.7851300000000005
54.377622783395324 5.77911
54.40265396455061 5.749140000000001
54.42768795623251 5.73169
54.45292037169559 5.70464
54.477960012857906 5.71435
54.50300247099511 5.69677
54.52804774825457 5.67574
54.55329154616743 5.6595
54.57834249018678 5.667999999999999
54.6033962597977 5.62416
54.6284528571545 5.63166
54.653708072335164 5.56874
54.67877035378786 5.56701
54.70383546947698 5.54265
54.72890342156389 5.58059
54.7541700889442 5.48694
54.77924374251975 5.51157
54.8043202390049 5.48381
54.82959552413022 5.42242
54.8546777351945 5.42523
54.87976279569621 5.40451
54.90485070780914 5.426819999999999
54.930137506558005 5.3602099999999995
54.95523115074295 5.36354
54.98032765308844 5.32916
55.005427015775496 5.34258
55.03072536339621 5.3246199999999995
55.05583047570572 5.2811699999999995
55.080938454927676 5.23358
55.10604930325027 5.2503400000000005
55.131359235107396 5.24924
55.15647585066083 5.20867
55.181595341907496 5.19897
55.20671771104285 5.1689099999999994
55.232039262617704 5.14049
55.25716741665048 5.10976
55.28229845518636 5.06886
55.30743238042802 5.0384400000000005
55.33276558731939 5.05044
55.357905315183636 5.06947
55.383047936390035 5.0429699999999995
55.40819345314859 5.00875
55.433538351073295 4.97463
55.458689688238415 5.0187800000000005
55.483843927614096 4.95172
55.509197623043605 4.86889
55.53435769621134 4.860040000000001
55.55952067826466 4.85236
55.5846865714265 4.79839
55.61005202069737 4.81805
55.63522376553902 4.80138
55.66039842818645 4.73541
55.68557601087004 4.76785
55.7109532500271 4.71784
55.73613670233794 4.75125
