TT I
1.2716486653135266 7.25708
1.2939594142134223 7.7098
1.3162702121660406 6.66633
1.3385810600174564 6.41575
1.3608919586137629 6.11543
1.383202908801069 5.839919999999999
1.405513911425503 5.8567
1.4278249673332093 6.257000000000001
1.4501343378461518 6.007630000000001
1.4724455028545926 5.33016
1.4947567236847858 5.690169999999999
1.517068001182951 6.1020199999999996
1.5393793361953272 5.3859699999999995
1.5616907295681737 5.68973
1.5840021821477681 5.57575
1.60631369478041 5.5353699999999995
1.6286252683124185 5.6959599999999995
1.6509369035901333 4.700019999999999
1.6732468618895553 5.16058
1.695558623192809 4.94937
1.7178704487808514 5.117030000000001
1.7401823395001077 5.1143
1.7625012545597203 4.65408
1.7848028405262486 5.17314
1.8071218901122095 4.8697
1.8294236121921872 4.65302
1.8517427996910911 4.38503
1.8740620574440425 4.85452
1.8963639900671978 4.487369999999999
1.9186833908139995 4.45173
1.9409854680117449 4.31067
1.9633050151394713 5.18813
1.9856246367570705 4.620019999999999
2.0079269371922672 4.41429
2.03024671027244 4.39951
2.0525491637446027 4.3494
2.074869091674931 4.43993
2.097171701569106 4.52436
2.1194917877373847 4.8108699999999995
2.141811954326636 4.77184
2.164114805233074 4.84034
2.186435135143035 6.2149
2.208738150935709 10.0403
2.231058647554722 17.8127
2.2533792288321184 13.5922
2.275682498336085 7.99966
2.298003251406138 5.90019
2.3203066942619714 5.2647699999999995
2.3426276225136022 5.30536
2.3649486396617507 5.0801
2.387252348930071 5.80755
2.4095735463442893 5.72235
2.4318774374315884 5.96893
2.4541988185014043 6.16575
2.476502894794693 7.1344199999999995
2.498824462909887 6.6592
2.521146125856138 6.67128
2.5434504863470337 7.2794300000000005
2.5657723414244717 7.751060000000001
2.588076895590662 8.26483
2.610398946189713 8.25961
2.6327210958598384 8.09698
2.6550259469304716 7.78408
2.6773482972090137 8.38894
2.6996533504259 8.8545
2.7219759047039602 8.62646
2.744298562293959 7.7339
2.7666039251246595 7.74746
2.7889267918020164 8.07944
2.8112323652516555 7.6694
2.833555444408179 7.90994
2.8558786311183852 8.07979
2.8781845268938557 8.28721
2.9005079311721484 8.62438
2.9228140460410397 9.363010000000001
2.9451376712799635 9.21378
2.967444008632326 9.26329
2.9897678582247247 9.73955
3.0120918213106695 10.6496
3.0343984987899373 11.1273
3.0567226913198637 10.6838
3.079029599759726 11.1054
3.101354025127254 11.5112
3.123678568232338 12.6237
3.145985829517914 12.6167
3.16831061055229 13.4029
3.1906181112775593 13.6902
3.212943133635653 14.797
3.2352682779763207 15.1656
3.2575761442691227 15.2142
3.2799015350264273 15.6358
3.302209649240067 15.9955
3.3245352898092655 16.5867
3.3468436553365257 17.1854
3.369169549113219 17.7061
3.3914955708171384 18.4555
3.413804319727358 18.8479
3.4361305997334863 19.1445
3.4584396084414553 19.6625
3.4807661501462652 20.4652
3.503092824025881 20.9649
3.5254022288463154 20.9751
3.5477291695206588 21.2989
3.5700388426251948 22.1917
3.5923660534916446 23.1308
3.6146934007816114 31.9685
3.637003482731501 60.1311
3.6593311053109985 64.9487
3.681641464033634 41.2265
3.7039693653009733 27.5255
3.726297407241705 25.2042
3.7486081875460804 25.2423
3.7709365132734978 25.9412
3.793247578841633 26.3116
3.8155761917550093 26.2865
3.8378875459837216 26.6252
3.8602164494827234 27.4508
3.882545499606844 27.8787
3.9048572932539183 28.448
3.9271866390645718 29.2264
3.9494987298666713 29.7032
3.971828374764527 30.3669
3.9941581705403255 30.5448
4.016470713506008 31.355
4.038800813471445 31.5998
4.061113662089144 32.7575
4.0834440696459176 33.374
4.105774632334751 33.6689
4.128087945865126 34.3468
4.150418821249301 35.464
4.172732448931298 35.6915
4.195063640413578 37.2388
4.2173775856475215 39.7716
4.239709096631102 58.3348
4.262040768704612 147.13299999999998
4.284355196706267 190.18900000000002
4.306687193387355 126.86
4.329001947444346 61.8633
4.35133427213731 45.138000000000005
4.373666762177566 43.6429
4.395982011761091 43.9115
4.418314834921175 44.9545
4.44063041906622 49.8982
4.4629635787515625 56.0371
4.4852969080429785 56.4955
4.5076130004776225 52.5654
4.529946671403969 53.6371
4.552263106909177 55.4137
4.574597122877047 54.7082
4.596931312711224 53.5597
4.619248269273446 53.7478
4.6415828092605835 54.4504
4.663900117405352 55.6856
4.686235010953232 56.958
4.708552674085913 58.3557
4.730887924602802 59.5932
4.753223354952695 61.6024
4.775541557023902 64.2895
4.797877349456786 67.0638
4.820195915032126 67.9086
4.842532072957498 68.4526
4.864868414979744 70.4177
4.88718753227192 73.8573
4.909524244902505 75.763
4.931843734218147 76.5894
4.954180820867835 78.7991
4.976518095879839 81.1478
4.998838149695359 84.1408
5.021175803844231 87.8783
5.043496238205739 91.1014
5.065834274903528 95.676
5.088172504230693 100.765
5.1104935158799565 107.1
5.132832132875765 126.256
5.155153533596801 159.257
5.1774925416746225 202.957
5.199814334878411 424.035
5.2221537374521505 1116.64
5.244493338631803 3051.68
5.266815727034316 7913.91
5.289155727832427 12574.5
5.311478517248165 8631.44
5.333818921080011 2727.08
5.356159527788849 535.092
5.3784829252032536 191.31
5.400823940070432 149.54399999999998
5.423147747031976 129.632
5.445489173474152 119.557
5.467830807066149 116.985
5.490155234831516 114.87299999999999
5.512497285125229 109.609
5.534822130975162 105.165
5.557164601388673 102.27799999999999
5.579489868738879 99.4047
5.601832762690846 98.0102
5.6241758697774475 97.5637
5.646501775867269 97.0512
5.668845311622074 95.3037
5.691171647754637 94.6907
5.713515615597765 93.7778
5.735859800852677 93.096
5.758186788542988 93.09299999999999
5.780531411018185 95.3416
5.802858837297399 95.39299999999999
5.825203900414495 95.2379
5.8475491852224 96.8876
5.869877275883075 96.8237
5.892223006467101 95.7114
5.914551544266608 95.0585
5.936897724049891 98.4789
5.959244129804903 105.586
5.981573344815301 133.47799999999998
6.0039202049061 247.023
6.026249875609095 504.575
6.04859719346037 1020.75
6.070927323278297 2263.77
6.093275102315365 4561.51
6.115623113320588 5059.96
6.137953938319995 3100.4
6.160302415650845 920.788
6.182633708324452 218.24900000000002
6.2049826554078376 110.786
6.227331838745022 91.1836
6.249663839443684 84.4374
6.27201349767565 81.39
6.294345974611799 83.7077
6.316696111167083 88.958
6.339046488263839 85.0321
6.361379686074702 75.6994
6.383730546639482 71.2494
6.406064229255215 69.2759
6.428415576718203 69.4455
6.450749747566656 68.4324
6.47310158535871 66.3293
6.495453669698332 65.1858
6.517788579421056 64.635
6.540141159237969 63.6144
6.562476565766648 63.2355
6.5848296444934045 62.8918
6.607182974060425 62.7406
6.6295191323281015 62.4901
6.651872965955752 63.7177
6.6742096296068985 77.9749
6.6965639707294615 102.535
6.71891856698715 101.884
6.741255995248479 78.0907
6.763611104154477 62.9999
6.785949046381137 59.4098
6.808304671371482 59.0202
6.8306605557940046 59.431000000000004
6.852999275508618 58.5861
6.875355681171544 57.183
6.897694923437771 57.0112
6.92005185377892 56.2425
6.9423916220322655 56.0169
6.964749080490181 55.6767
6.987106804399774 55.3949
7.009447368180821 55.9178
7.031805625367033 55.4421
7.054146723727803 55.5246
7.076505517631004 54.887
7.098864581288365 54.9232
7.121206488070854 54.8435
7.143566093607822 54.95
7.165908543567245 55.3895
7.188268694426048 55.5051
7.2106291193438095 55.027
7.232972390625943 55.3316
7.255333366030969 62.6395
7.277677189091925 92.2853
7.300038718428332 117.228
7.322400526130865 102.47
7.344745183422596 72.3399
7.367107550224791 58.3174
7.389452767901992 55.4197
7.411815697249891 54.6036
7.434161478756298 53.7593
7.456524974096713 53.8249
7.478888753837185 54.0591
7.501235387657368 54.3174
7.523599738562711 54.5007
7.545946944825532 54.2543
7.568311870344528 55.1418
7.5906770845765665 55.0823
7.613025156078678 55.8168
7.635390950099687 56.6597
7.657739602662809 56.2896
7.680105979923558 56.1486
7.702472650212829 56.4993
7.724822180948224 56.4365
7.747189439655568 56.4896
7.769539560075357 56.167
7.791907410653562 56.46
7.81425812420825 56.6874
7.836626570110925 56.7912
7.858995315087906 57.4005
7.881346924933401 57.4884
7.903716270417482 58.3345
7.926068482028405 58.6778
7.948438431475253 59.2774
7.9708086843180235 59.763999999999996
7.993161805171116 60.36600000000001
8.015532667162402 60.8666
8.037886398416653 61.7778
8.060257873014221 62.8031
8.082629655331942 63.1007
8.104984308787587 63.7871
8.127356708900503 66.5639
8.149711981398308 70.8043
8.172085002766314 72.7628
8.194458336181368 70.6967
8.216814543847752 69.0187
8.23918850371002 69.7185
8.26154533906492 70.4122
8.283919928836452 71.9604
8.306277395339652 72.8351
8.328652618483376 74.1114
8.351028159736202 76.2545
8.373386579575245 78.4536
8.395762759396959 80.3107
8.418121819038275 84.6214
8.440498640894003 93.8551
8.462875785192262 106.652
8.485235811156207 130.475
8.507613602688501 186.02200000000002
8.529974277114228 274.503
8.552352719347912 412.168
8.574731488360351 685.695
8.59709314210385 1230.78
8.619472567021075 1933.81
8.64183487789147 2207.4
8.664214962183097 1741.2
8.686577933647762 867.368
8.708958680784317 346.365
8.731339760774953 154.015
8.753703729764451 108.575
8.77608547780821 98.0808
8.798450116065078 94.5016
8.820832535634787 92.1989
8.843215292401656 91.6849
8.865580941199045 91.2824
8.887964374703538 90.6069
8.910330701447199 90.6207
8.932714815164482 91.1656
8.955099270424924 89.459
8.977466620733543 86.7746
8.999851761421976 84.6647
9.022219798361645 83.6484
9.04460562795561 83.5906
9.066991803441677 83.352
9.089360876979615 83.3612
9.111747746589993 83.1105
9.13411751544971 82.641
9.156505082664324 82.2122
9.178875550323522 82.2459
9.20126381862328 82.1906
9.223652438908596 82.07799999999999
9.246023961427412 82.4095
9.26841328802173 82.2365
9.290785518039224 82.5596
9.313175554425882 83.7077
9.335565947154315 84.4876
9.357939245086508 84.7607
9.380330352834827 84.5608
9.40270436697103 84.6561
9.425096193225055 84.0595
9.447488380180165 84.7168
9.469863475295412 84.3626
9.492256385987508 84.9211
9.514632206018318 85.3432
9.537025843935714 85.8449
9.559402392368193 86.7772
9.581796761000229 88.7725
9.604191496441521 90.2153
9.626569144158516 92.9417
9.648964615551032 95.2604
9.671343000390081 95.5617
9.693739211225699 94.3029
9.716135793237463 93.3426
9.738515290448102 93.2586
9.760912617143402 94.5858
9.783292860202891 96.572
9.805690935076182 97.9649
9.828089385495742 98.757
9.850470754023561 100.339
9.872869957865444 105.292
9.89525208097539 114.64200000000001
9.917652041736662 123.87200000000001
9.940052382417589 130.455
9.962435644102392 153.281
9.984836746950979 198.43400000000003
10.007220771957746 260.91200000000003
10.029622640473708 367.282
10.052007432299963 552.325
10.074410069984072 855.0089999999999
10.096813093716005 1301.78
10.119199042482517 1789.06
10.141602840636468 1991.06
10.163989564971628 1553.7
10.186394141051062 838.742
10.208799107559706 359.027
10.231187001965623 174.04
10.253592751657669 122.32600000000001
10.275981430388155 111.581
10.298387966769793 110.181
10.320794897965431 110.835
10.343184759907361 109.516
10.36559248305461 106.64299999999999
10.387983138083852 105.601
10.410391656691655 112.015
10.432800574501677 124.45100000000001
10.455192425893369 140.944
10.47760214443012 167.294
10.499994797678786 213.709
10.522405320453982 294.423
10.54479877906917 412.434
10.567210109595656 514.1
10.5896218454736 572.564
10.612016518879773 495.38599999999997
10.634429067781074 331.96
10.656824555333241 193.985
10.679237920773568 118.891
10.701651695961992 94.421
10.724048411481384 89.0283
10.746463008485165 86.2701
10.768860546937125 84.8498
10.791275969274796 83.1144
10.81369180576079 82.0188
10.836090585366925 80.8379
10.858507252467449 79.7738
10.88090686379991 78.6375
10.903324365036394 78.2611
10.925724811614439 77.6457
10.948143150509463 78.6784
10.970561909719066 77.8579
10.992963615930844 76.8472
11.015383218085756 74.7564
11.037785768347074 73.34899999999999
11.06020621697282 72.8232
11.082627090322113 72.2935
11.105030913430326 71.5919
11.12745263854165 71.6096
11.149857314510728 72.8611
11.172279894912576 76.3568
11.194702904450653 76.2104
11.217108866490921 73.7487
11.239532736615194 71.3272
11.26193956033512 69.9214
11.284364294577085 69.0264
11.306789462371718 67.819
11.329197585398376 67.017
11.351623622610898 66.7785
11.37403261614354 65.9398
11.396459526308487 65.7418
11.418869393879497 65.5627
11.441297180532617 65.0375
11.463725406927658 64.8609
11.486136592353875 64.8812
11.508565700543707 64.9376
11.530977768845315 65.8647
11.553407762368774 65.9422
11.575838200059769 65.3287
11.598251599479612 64.6006
11.620682927815501 63.9387
11.64309721895548 63.591
11.665529441478206 63.1993
11.687962112597958 62.8401
11.710377748130886 62.7055
11.732811318753434 62.7064
11.755227854859067 62.5766
11.777662328529495 62.7787
11.800079768750786 62.6763
11.822515149015453 62.5859
11.844950984084935 62.6382
11.867369787303163 62.3951
11.889806534289491 62.3534
11.912226250487029 62.6722
11.934663912939751 62.968
11.9571020346363 63.0484
11.979523127133968 63.1933
12.001962169624331 64.1648
12.024384183972964 66.0971
12.046824150809913 69.2675
12.069264581333726 74.0234
12.091687985297767 79.6821
12.11412934550045 89.0893
12.136553680195208 105.102
12.158995973632788 128.33700000000002
12.181438735204349 155.649
12.20386447284199 183.416
12.226308172985636 205.6
12.24873485024193 197.638
12.271179492516982 157.634
12.293607112949127 120.227
12.316052700916226 89.0041
12.338498763250042 74.0546
12.360927805303868 67.4867
12.383374818673879 65.3053
12.405804812803074 64.2148
12.428252780773262 64.1044
12.45070122756722 64.0746
12.473132656675375 63.9713
12.49558206341869 64.342
12.518014453510101 64.5769
12.540464823770117 64.734
12.562915677315177 64.8741
12.58534951575545 65.2639
12.607801338171472 66.0274
12.630236146511358 68.9839
12.652688941369085 71.9333
12.675124723177234 72.3941
12.697578494048786 70.6848
12.720032754458185 68.2699
12.742470003354093 67.7011
12.764925245138771 67.6239
12.787363476431278 68.0013
12.809819703166806 68.2335
12.83227642391173 68.9123
12.854716135692716 69.6173
12.877173846755147 70.8315
12.899614549869717 71.1193
12.9220732548287 72.0192
12.94453245827299 72.7917
12.966974655289818 73.6604
12.989434858002571 74.5762
13.011878055298721 75.0951
13.034339260862497 76.0432
13.056800969391883 77.4461
13.079245674017244 80.4529
13.101708390774869 84.4196
13.12415410463411 93.1055
13.146617833206086 103.838
13.169064559883248 114.574
13.191529303857127 129.94899999999998
13.213994557076367 153.94899999999998
13.236442809902437 192.512
13.258909083908291 250.486
13.28135835851934 316.795
13.30382565690295 382.43699999999995
13.326293469022952 428.849
13.348744283242008 419.325
13.371213125129904 338.727
13.39366497011003 245.94099999999997
13.416134845360597 163.435
13.438605238843131 120.50299999999999
13.46105863690397 107.352
13.483530069144786 108.345
13.505984506951902 113.469
13.528456981549432 123.098
13.550929978879088 139.063
13.573385983253365 164.22299999999998
13.595860028340867 204.225
13.618317081455832 256.442
13.64079217790333 313.996
13.663250283359057 356.20300000000003
13.685726434770173 371.51
13.708203115221277 327.339
13.730662806148091 246.424
13.75314054697177 171.46200000000002
13.775601299246777 118.962
13.798080104050406 93.5028
13.820559442405358 84.48100000000001
13.843021793671388 81.3973
13.865502201420897 79.9582
13.887965623051947 79.3108
13.910447103807167 78.4097
13.932929122629764 76.7861
13.955394156785959 76.7086
13.977877254034569 75.7829
14.000343367582113 74.9115
14.022827546871707 74.5814
14.045294743423524 73.5495
14.06778000837062 72.9423
14.090265817715476 72.9212
14.112734645763819 72.4664
14.13522154619454 72.00399999999999
14.157691466286913 72.0631
14.180179461423874 71.7291
14.202668005486178 71.2941
14.22513957064374 70.8642
14.247629214846473 70.3619
14.270101881097517 70.0137
14.29259262906496 70.0107
14.315083930490205 70.3806
14.337558255389705 70.792
14.360050666019726 70.5554
14.382526101071944 70.0468
14.405019624534942 69.289
14.427513705993134 68.8774
14.449990813291825 68.7451
14.47248601302899 68.6012
14.49496423954951 68.5774
14.517460561197822 68.6096
14.539939910570322 68.6073
14.562437357763558 68.8564
14.58493536931253 69.7988
14.607416409993311 70.3876
14.62991555254159 70.7678
14.652397725157423 70.8025
14.674898002342799 70.7335
14.697398848433282 70.5287
14.719882725991326 71.9701
14.74238471217934 73.9171
14.764869730765593 77.6767
14.787372860692983 80.5173
14.809876564079925 84.8969
14.83236330125751 90.8391
14.854868153850365 99.6123
14.877356041159485 113.945
14.899862046604186 133.454
14.922351087688757 159.291
14.944858249632887 189.393
14.967365991421232 212.293
14.989856770231246 226.46200000000002
15.012365673994204 216.021
15.03485761569738 182.58900000000003
15.05736768508665 140.358
15.07987833888692 108.725
15.102372032001655 86.8761
15.124883856909658 75.4924
15.14737872204565 71.7226
15.169891721717274 70.1447
15.192405310371893 70.0308
15.214901940621196 70.1475
15.237416709527137 70.0324
15.259914520936249 69.8071
15.282430473753607 68.8689
15.304947020131227 68.1983
15.327446610371178 67.5499
15.349964346154254 67.0169
15.372465126703139 67.0358
15.394984055556009 66.6251
15.417486030076159 66.2125
15.44000615566487 66.1623
15.462526881230803 65.6791
15.485030653812652 65.887
15.507552581617434 65.8178
15.530057557334603 66.0348
15.55258069104857 66.0925
15.575104429329837 66.1965
15.597611216864632 65.8702
15.620136166564563 66.6039
15.6426441664095 68.0875
15.665170331202765 70.8497
15.687697105158826 73.6886
15.710206930593545 76.8502
15.732734925158933 80.8434
15.755245972089478 87.7139
15.77777519094324 97.1391
15.800287463046663 111.25299999999999
15.822817909869592 130.19
15.84534897229804 151.405
15.867863089299354 175.81
15.890395385222186 191.088
15.912910736597423 195.127
15.935444269699861 177.59400000000002
15.957978423016485 150.309
15.980495633101265 116.431
16.003031029129367 91.4378
16.02554948280019 74.0309
16.048086125229432 66.4991
16.070623392487107 64.243
16.09314371869582 63.4763
16.11568223789321 62.2092
16.13820381691126 61.7892
16.160743591742527 61.0672
16.183283996022084 60.1495
16.205807461423195 59.282
16.228349126881973 58.7973
16.25087385432698 58.7225
16.27341678466365 58.1348
16.29594277784926 57.9587
16.31848697676433 58.0847
16.341031811604868 58.0134
16.36355971058487 58.0386
16.3861058195587 57.7573
16.40863499352978 56.8115
16.431182380342005 56.3631
16.453730407713202 56.0338
16.476261501364792 55.5185
16.498810812136167 55.0914
16.52134319004079 55.3671
16.54389378792203 55.3484
16.566445031001553 55.2009
16.588979342490088 55.0007
16.61153187824822 54.823
16.634067483263312 54.8103
16.656621315414416 54.7463
16.679175797408888 54.3605
16.701713349928728 54.6435
16.72426913389191 54.8282
16.74680798922351 54.7082
16.76936507887444 54.5941
16.791905240734874 54.7117
16.814463639794468 54.4646
16.837022695210294 54.6628
16.859564824093756 54.9241
16.882125194503903 55.263999999999996
16.904668639217885 55.8165
16.927230328348003 56.0203
16.949792678493612 56.0044
16.972338104193863 55.6287
16.994901778652235 55.3612
17.017448529496576 55.6673
17.040013531998152 55.9024
17.06257920018044 56.5501
17.0851279459922 57.3186
17.107694947817667 58.1351
17.130245028099072 58.9017
17.15281336730298 60.2211
17.17536478578733 61.9798
17.19793446610687 64.3392
17.220504818648422 67.2681
17.243058251703697 70.8399
17.265629950971032 75.4446
17.288184731571736 79.4987
17.310757781306908 83.3337
17.33333150794385 84.0736
17.355888317140174 81.2466
17.37846339986244 75.5507
17.401021565958885 69.8606
17.42359800851343 64.6029
17.44617513265564 61.4677
17.468735341390783 59.9073
17.491261035594565 59.1002
17.51396340099364 58.9423
17.536490463869136 59.1009
17.559018209820174 59.085
17.58154663977963 59.1878
17.604251766089718 59.4373
17.626781572227713 59.6755
17.64931206518155 59.7874
17.671843245885103 60.1421
17.69455114821572 60.3524
17.717083712612634 60.7018
17.739616967569667 60.9523
17.762150914021706 61.3251
17.78486160749854 61.5543
17.807396945166804 62.4568
17.829932977143503 63.6433
17.85246970436452 65.5047
17.875183204129467 66.8817
17.897721330097664 68.7365
17.920260154126645 71.5308
17.942799677153296 74.5589
17.9655159983646 78.3943
17.988056927677544 84.1303
18.010598558807683 92.3317
18.033140892692916 102.338
18.05586005052525 113.555
18.07840379824407 124.825
18.10094825154059 136.089
18.12366954819864 142.713
18.146215420998306 139.976
18.16876200220057 130.253
18.191309292745153 114.681
18.214033452627167 100.75399999999999
18.236582170236648 90.083
18.259131600016456 86.1824
18.281681742907335 87.0003
18.304408781233683 91.5989
18.32696035875955 96.5353
18.349512652227624 101.666
18.372065662579683 105.137
18.394795594587553 106.149
18.41735004715306 101.507
18.43990521943684 94.3581
18.46246111238171 83.9401
18.485193953325208 75.08
18.507751296070428 68.695
18.530309362314178 65.3359
18.552868153000343 63.2636
18.57560391815056 61.9879
18.59816416623245 61.626999999999995
18.620725141597372 61.1143
18.643286845190268 60.4305
18.666025549835414 60.2831
18.688588718427933 59.8279
18.711152618092243 59.7331
18.73389353884365 59.4092
18.75645890921984 58.922
18.77902501351406 58.4394
18.801591852673102 58.4647
18.824335739722738 57.8927
18.846904057212626 57.7781
18.8694731124168 57.6766
18.89204290628315 57.6945
18.914789774966803 57.3132
18.937361054791623 57.1478
18.959933076131318 57.1643
18.982505839934877 56.9934
19.00525570560582 56.965
19.027829963004184 56.9264
19.05040496572238 56.9676
19.072980714710468 56.8456
19.095733592739563 57.2365
19.11831084296757 57.5985
19.140888842324735 57.6506
19.16346759176222 57.825
19.18622349753803 58.6101
19.208803755869358 59.4117
19.231384767143577 60.8443
19.253966532312948 62.4643
19.276725481241822 64.6528
19.29930876296784 67.3896
19.3218928014549 70.25
19.34465404436217 73.1679
19.36723960516257 75.4697
19.389825925592426 76.2642
19.412413006605938 74.8072
19.43517731967805 71.1132
19.457765930683355 66.5703
19.48035530514408 62.0178
19.50294544401556 58.4726
19.525712842708348 56.2396
19.54830451925909 54.8886
19.570896963095727 54.1007
19.593490175174704 53.7575
19.616260674962184 53.7986
19.638855432416964 53.3957
19.661450960992624 53.4743
19.68404726164677 53.2616
19.706820878021247 53.201
19.729418731756834 53.576
19.752017360452857 53.2348
19.77461676506804 53.5608
19.797393513540218 53.7291
19.819994478951667 53.9495
19.84259622316767 54.4729
19.8651987471481 54.7884
19.887978643247177 54.9174
19.91058273574792 55.5285
19.933187610901943 56.4551
19.955969879466828 57.6241
19.97857632894404 59.3579
20.00118356396599 60.8784
20.023791585494575 63.0467
20.046577028914875 65.7196
20.069186632506966 67.8053
20.091797025500632 69.5541
20.114408208858933 69.8744
20.137196842715273 69.328
20.159809615886765 67.8189
20.18242318232135 65.0166
20.20503754298326 63.1883
20.227829382875154 62.2246
20.250445341109344 62.3937
20.27306209647285 62.8266
20.29567964993108 64.0323
20.31847471147704 65.021
20.34109387027612 65.5246
20.363713830075454 64.8832
20.386334591841646 63.2592
20.409132890679302 60.5781
20.431755265564437 57.4045
20.454378445325528 54.6988
20.477002430930366 52.9793
20.499803982716553 51.8044
20.522429589228004 50.8872
20.54505600449589 50.5337
20.567683229489194 50.8078
20.590488049900088 50.3938
20.61311690359731 50.1274
20.63574656993626 49.8976
20.658553853717297 49.6397
20.681185154618298 49.4778
20.703817271080066 49.4002
20.72645020407368 49.0321
20.749260783967177 48.8998
20.771895359337133 49.0153
20.794530754161617 49.0484
20.817166969412938 48.805
20.83998086114876 48.853
20.86261872660049 48.7116
20.885257415405402 48.6178
20.90789692853701 48.6642
20.930714147864748 48.5467
20.953355319030678 48.5348
20.97599731745334 48.6301
20.99864014410749 48.5475
21.021460706796564 48.5516
21.044105199328826 48.8019
21.06675052302631 48.7978
21.089396678865015 49.0975
21.112220600704806 49.3758
21.134868430275347 49.8317
21.15751709492456 50.2539
21.180166595629693 50.4778
21.202993892429635 50.7383
21.22564507473034 51.0892
21.24829709602816 51.3679
21.27112693608965 51.3338
21.293780644891275 51.3053
21.316435195634053 50.5344
21.339090589297417 49.927
21.361923832041875 49.5032
21.384580921090404 48.8595
21.407238856007325 48.4913
21.429897637773326 48.3376
21.45273429906592 48.5172
21.475394784108598 48.3025
21.498056118951983 48.3917
21.520718304578022 48.4338
21.543558400304388 48.6197
21.566222297108816 48.9674
21.58888704765135 49.1618
21.61155265291521 49.5511
21.63439619898156 49.7714
21.657063523335786 50.0147
21.67973170537063 50.5536
21.7024007460706 50.9003
21.72524775840385 51.7563
21.747918526116475 52.8801
21.770590155457388 54.0695
21.79326264741238 55.8591
21.816113141960237 57.6096
21.838787368860547 59.5646
21.861462461341976 61.3411
21.884315579735777 63.163999999999994
21.90699241312273 64.2808
21.92967011506078 64.7239
21.95234868653799 64.3079
21.9752053151131 62.8611
21.997885635446785 60.713
22.020566828293532 58.9311
22.04324889464272 57.2798
22.066109049404666 56.3072
22.088792872571794 55.9866
22.111477572219204 55.9397
22.1341631493376 56.1021
22.157026846313123 55.8083
22.179714188221507 55.1954
22.202402410582668 53.8808
22.22509151438863 52.435
22.24795876962584 50.9563
22.270649646204486 50.1784
22.293341407213727 49.7138
22.316034053646906 49.0974
22.338904883215342 48.8978
22.36159931041458 49.0
22.38429462602756 48.7481
22.40699083104897 48.6515
22.429865251039757 48.8053
22.452563244831367 48.7331
22.47526213102522 48.7568
22.49813925616515 48.4776
22.520839937143307 48.3664
22.543541513520587 48.5955
22.56624398629403 48.5166
22.589124730075895 48.5358
22.611829005656723 48.6648
22.63453418063466 48.7773
22.657240256008077 49.0023
22.680124634582935 49.2414
22.70283252079775 49.4961
22.725541310413075 49.6753
22.74825100442868 49.7385
22.771139033969575 50.31100000000001
22.79385054687155 50.4717
22.81656296718292 51.3617
22.83927629590484 52.1011
22.862167992606945 53.2329
22.88488314827121 54.4854
22.907599215359284 55.3257
22.93031619487366 56.3812
22.953211574954405 57.4119
22.975930389478226 58.1164
22.998650119445763 57.9186
23.02137076586092 56.9569
23.044269845560063 55.5612
23.06699233506288 53.9458
23.089715744034912 52.3303
23.112617610931565 50.6631
23.135342869061212 49.6436
23.158069049684816 48.9861
23.1807961538087 48.6619
23.20370174880544 48.715
23.226430710184808 48.8776
23.249160598093425 48.8322
23.271891413539002 48.9198
23.294800752937697 48.8488
23.31753343374794 49.1057
23.340267045128353 49.2052
23.36300158808808 49.5086
23.38591468821339 49.9023
23.408651104658304 50.3384
23.431388455719986 51.0124
23.454126742409 51.7342
23.4770436196085 52.9664
23.499783787914662 54.32
23.522524894889884 55.157
23.54526694154616 56.2158
23.56818761219047 57.3796
23.59093154860734 57.6986
23.613676427751283 57.8582
23.636422250635754 56.8355
23.659346731118656 54.9095
23.68209445191868 52.9869
23.704843119509587 50.8847
23.72759273490623 49.2034
23.750521041644767 47.8976
23.77327256312355 46.8143
23.796025035462787 46.3592
23.818956224555475 45.9366
23.841710609113413 45.9591
23.86446594758979 45.7238
23.887222241002014 45.2987
23.910157285144578 45.0526
23.932915498962537 45.0903
23.955674670778713 44.9226
23.978434801611975 44.9111
24.001373717286125 44.6787
24.024135776723917 44.5461
24.046898798245582 44.4526
24.06966278287146 44.3969
24.092605586582614 44.1046
24.115371508023642 43.9839
24.1381383956401 43.8234
24.16090625045381 43.8997
24.183852958731244 43.7609
24.206622758582608 43.648
24.229393528706886 43.4341
24.252165270127392 43.4981
24.27511589952438 43.5287
24.297889594216997 43.4618
24.32066426328598 43.0142
24.34343990775613 43.1774
24.36639447485003 43.131
24.38917208083877 43.0245
24.41195066531332 43.0313
24.43490819850244 43.1346
24.457688750692377 42.8754
24.48047028445616 42.8393
24.503252800821233 42.9434
24.526214300784112 43.0597
24.548998793132213 43.0157
24.57178427117417 42.7896
24.59457073593893 42.8654
24.617536219319863 42.7928
24.64032466834748 42.8964
24.663114107195035 42.6879
24.685904536893013 42.4619
24.708874020360852 42.386
24.731666442613744 42.3278
24.754459858818787 42.3977
24.777254270007962 42.2861
24.80022777025625 42.1746
24.82302418230472 42.1865
24.845821592443674 42.273
24.86862000170663 42.203
24.891597535453727 42.068000000000005
24.914397953892728 42.3233
24.93719937456671 42.2003
24.96000179851076 42.4697
24.98298338249997 42.6352
25.00578782394922 42.8615
25.028593271784167 42.8692
25.05157790644186 43.2092
25.07438537804115 43.3081
25.097193859145293 43.5885
25.120003350792075 43.7314
25.142992065061257 44.2064
25.165803588823465 44.3589
25.18861612625217 44.6283
25.211429678386736 44.5363
25.234422489079968 44.6111
25.257238081693636 44.7702
25.280054692141732 44.9212
25.3028723214652 44.8615
25.325869245420463 44.9407
25.348688923599397 44.9001
25.371509623787006 44.797
25.394331347025812 44.3866
25.41733240110666 43.9666
25.440156181590016 43.3283
25.46298098826268 42.7636
25.48580682216873 42.2906
25.50881202326435 41.641000000000005
25.53163992281684 41.3761
25.55446885274561 41.0843
25.577298814096377 40.754
25.600308179121807 40.7609
25.623140214533745 40.8809
25.64597328451537 40.7355
25.66898578564376 40.5569
25.691820936010206 40.4938
25.714657124097695 40.4364
25.737494350954734 40.3775
25.760511045684957 40.3998
25.783350361364224 40.5101
25.806190718969255 40.3945
25.82903211955018 40.5146
25.852053024868923 40.6105
25.874896522722523 40.6078
25.897741066713106 40.4299
25.920586657892454 40.6245
25.943611790812668 40.8533
25.966459487728237 40.834
25.989308234998564 41.0878
26.01215803367705 41.4323
26.03518741123814 41.5229
26.05803932412957 41.5785
26.080892291600094 41.5779
26.10374631470478 41.5629
26.12677995397268 41.5781
26.14963609978026 41.6017
26.172493304397875 41.2129
26.19535156888223 41.035
26.218389486949604 40.5853
26.241249882640123 40.330999999999996
26.26411134137826 40.1185
26.28715248187403 40.0701
26.31001607820869 39.9703
26.3328807407756 39.8714
26.35574647063438 40.010999999999996
26.37879191991473 39.982
26.401659795896734 40.0987
26.424528742360263 40.1406
26.447398760366614 40.396
26.470448535598294 40.5218
26.49332070826805 40.6891
26.516193955675355 41.0547
26.53906827888316 41.2521
26.562122397260108 41.4208
26.584998883685063 41.7937
26.607876449110325 42.0935
26.63075509460056 42.1308
26.65381357334404 42.0405
26.67669439061878 42.0565
26.699576291163382 41.8852
26.722459276044212 41.8357
26.745522132402975 41.5599
26.768407297649354 41.3851
26.791293550442003 40.9155
26.814180891848974 40.7088
26.837248143099337 40.4513
26.860137673466657 40.2744
26.88302829566349 39.9991
26.90592001075963 39.8235
26.92899167420566 39.7218
26.951885586870763 39.3843
26.974780595655517 39.1242
26.99785558178161 39.1681
27.020752794605112 38.913000000000004
27.043651106772522 38.8899
27.06655051935668 38.7875
27.089629948036183 38.6114
27.112531573292053 38.6006
27.135434302194138 38.6353
27.158338135817015 38.5651
27.181422024430987 38.644
27.204328079372566 38.4144
27.22723524226965 38.4537
27.250143514198573 38.4339
27.273231880156334 38.4273
27.296142382065014 38.389
27.319053996245536 38.3914
27.341966723775965 38.3104
27.365059584515222 38.4354
27.38797455070062 38.4409
27.410890633481237 38.3993
27.433807833936918 38.4796
27.456905206923906 38.405
27.47982465472398 38.4916
27.502745223449743 38.5732
27.525666914182825 38.5545
27.548768816912457 38.5111
27.571692763693633 38.4558
27.59461783573812 38.3594
27.617723149491244 38.1503
27.640650484125285 38.0839
27.66357894728264 38.0264
27.686508540048052 38.0525
27.709618414237887 37.8583
27.732550278321757 37.7559
27.755483275279115 37.7754
27.778417406196485 37.7672
27.801531858397514 37.7651
27.824468269376716 37.6444
27.847405817586786 37.7084
27.870344504116094 38.0195
27.893463551932008 38.2583
27.916404527281053 38.3531
27.93934664422563 38.5273
27.962289903855886 38.5489
27.98541356491974 38.7974
28.00835912214229 38.6867
28.03130582533231 38.9655
28.054253675581805 39.1608
28.077381967556104 39.1042
28.100332124185126 38.9173
28.123283431160893 38.8612
28.146235889577238 38.8388
28.169368830154156 38.6236
28.192323603752033 38.3111
28.215279532083304 38.0077
28.238415973016764 37.8168
28.261374223145094 37.6831
28.284333631303806 37.4274
28.307294198589954 37.3957
28.330435319167677 37.0459
28.353398217078915 36.9429
28.376362277420153 36.6387
28.39932750129032 36.4941
28.422473319286713 36.2972
28.44544088262495 36.4224
28.468409612800283 36.1473
28.491379510913497 36.0156
28.51453004413313 35.9818
28.53750229057244 35.8428
28.56047570826344 35.7615
28.583450298308804 35.7651
28.606605564586562 35.5773
28.629582511831156 35.5021
28.65256063474956 35.4238
28.675539934446338 35.6371
28.698699951647605 35.6275
28.72168161743193 35.3841
28.74466446331978 35.4523
28.767648490417624 35.4009
28.790813276438353 35.391
28.813799678527303 35.4552
28.836787265157085 35.4546
28.859955641890075 35.5245
28.882945610203045 35.3837
28.905936766392035 35.2311
28.928929111566863 35.2836
28.952102288520145 35.097
28.975097024308607 34.9176
28.998092952423807 34.7589
29.021090073977508 34.9099
29.04426806913204 34.8795
29.067267590245258 34.6286
29.090268308143695 34.5346
29.11327022394099 34.5033
29.13645305530891 34.4025
29.159457379627167 34.4144
29.18246290519685 34.3571
29.20546963313352 34.2345
29.22865731875826 34.3455
29.25166646419296 34.2313
29.27467681535305 34.1011
29.29768837335608 34.2007
29.320880931312562 34.1789
29.34389491580634 34.0657
29.366910110507334 34.2148
29.38992651653503 34.2075
29.41312396492981 34.1895
29.436142806456754 34.1044
29.45916286268059 34.0579
29.48236399319994 33.8906
29.50538649169417 33.6437
29.528410208259935 33.7
29.55143514402014 33.3126
29.574641196749695 33.2705
29.597668583816574 33.2208
29.6206971934585 33.1356
29.64372702680042 33.0316
29.666938019934474 32.9441
29.689970313635285 33.0136
29.713003834422636 32.917
29.73603858342347 32.8831
29.759254535188578 32.7973
29.78229175361658 32.8142
29.80533020365064 32.7849
29.82836988641968 32.7686
29.85159081507472 32.6267
29.874632976355343 32.5729
29.89767637376955 32.6864
29.920721008448314 32.6412
29.9439469322847 32.5653
29.96699405457564 32.3764
29.9900424175358 32.4559
30.013092022298157 32.4885
30.03632295963995 32.4811
30.059375061131373 32.4229
30.08242840783577 32.5301
30.105483000888153 32.3961
30.128718970092244 32.2671
30.151776069006917 32.323
30.17483441768648 32.4658
30.198074175317235 32.3695
30.221135036724256 32.4098
30.24419715131772 32.3418
30.267260520236203 32.2078
30.290505341942243 32.2541
30.313571232750228 32.2783
30.336638381310948 32.2834
30.35970678876503 32.1878
30.38295669299435 32.1291
30.40602763151657 32.0791
30.429099832366074 32.1085
30.452173296685572 31.9825
30.47542830191959 32.0559
30.498504306502497 32.0334
30.521581577995562 32.1104
30.544660117543582 32.1133
30.56792024229725 32.1728
30.59100133132069 32.1131
30.614083691845494 32.1456
30.637167325018545 32.1886
30.660432587840603 32.1381
30.683518779717886 32.1549
30.70660624769615 32.216
30.729694992924372 32.1119
30.75296541239743 32.2039
30.77605672557558 32.0213
30.799149319462742 32.0763
30.8224236211637 31.871
30.845518789950724 31.8623
30.868615242910597 31.7943
30.891712981195973 31.584
30.91499247215866 31.6121
30.938092794619365 31.6027
30.96119440587579 31.4794
30.984297307082752 31.3744
31.00758200598383 31.1892
31.030687500658694 31.166999999999998
31.053794288760695 31.0905
31.076902371446767 31.0266
31.100192296997445 31.2059
31.12330298246119 31.0272
31.14641496599209 31.0428
31.169528248749216 31.0445
31.19282341969534 30.9501
31.215939314557186 31.0199
31.239056512134788 30.9873
31.262175013589378 30.863000000000003
31.28547544871168 30.7782
31.30859657161541 30.8969
31.331719001892175 30.9107
31.35484274070538 30.9267
31.378148458819545 30.8976
31.401274828443725 30.8056
31.424402510106933 30.8957
31.447712205419993 30.9441
31.470842524931633 30.8535
31.493974159989783 30.9093
31.51710711176168 30.8372
31.54042212308802 30.7321
31.563557722100917 30.8233
31.586694641341655 30.5545
31.609832881979628 30.4475
31.63315322823208 30.3896
31.656294125521327 30.2023
31.679436347728515 30.296999999999997
31.70257989602529 30.2112
31.725905596152327 30.1267
31.74905181052835 30.1068
31.772199354521323 30.1363
31.79534822930507 30.1873
31.818679302290967 30.1261
31.84183085259981 30.0759
31.864983737233473 30.0646
31.88813795736804 30.1249
31.911474422233013 29.9732
31.934631327356435 29.9716
31.9577895715215 29.9146
31.980949155906522 29.9457
32.004291031706956 29.9058
32.027453310562606 29.868000000000002
32.05061693318573 29.7135
32.07396288236386 29.7224
32.09712920658542 29.7396
32.12029687812702 29.5989
32.14346589817093 29.4909
32.166817291729984 29.419
32.18998902288583 29.4095
32.21316210610336 29.3399
32.23633654256711 29.1684
32.259693399663725 29.1716
32.282870556771144 29.1781
32.30604907069099 29.1742
32.329228942610065 28.9973
32.35259128243769 28.9355
32.375773884550505 28.9558
32.398957848235646 28.8223
32.422143174682176 28.7845
32.445511016471215 28.750999999999998
32.468699082679954 28.6664
32.49188851523011 28.6613
32.51507931531304 28.5339
32.538452678331 28.6275
32.56164622776311 28.4463
32.58484114831493 28.4622
32.60803744118015 28.5463
32.631416344731896 28.4156
32.654615396551876 28.4263
32.67781582427913 28.4146
32.701198898634416 28.2211
32.72440209253756 28.1739
32.747606665947124 28.2287
32.77081262006088 28.1405
32.79420126883317 28.1343
32.81740999876112 28.1757
32.840620112999424 28.0537
32.86383161274818 28.0302
32.88722585534586 28.0552
32.91044014056596 28.0706
32.933655814909734 27.8514
32.95687287957963 27.9152
32.98027273544904 27.8598
33.00349259526636 27.725
33.026713849030116 27.835
33.04993649794511 27.7812
33.073341986570746 27.7609
33.09656744032826 27.7565
33.11979429286444 27.7278
33.14302254538647 27.7687
33.166433686291185 27.712
33.18966475336992 27.6245
33.212897224069096 27.6081
33.23613109959831 27.4671
33.259547912343415 27.4761
33.2827846121627 27.5894
33.306022720453775 27.4846
33.32926223842861 27.383000000000003
33.352684742614166 27.430999999999997
33.37592709463173 27.2986
33.399170859982064 27.1769
33.422597648419426 27.146
33.44584425514446 27.1011
33.46909227885668 26.975
33.4923417207723 26.9744
33.51577423505344 27.0121
33.539026528130385 26.8623
33.56228024307245 26.9268
33.585535381098246 26.7629
33.60897364093058 26.7131
33.63223163992385 26.7286
33.6554910656699 26.6367
33.678751919389796 26.5704
33.702195944520106 26.5548
33.72545966903325 26.5588
33.74872482519663 26.4544
33.771991414233746 26.4332
33.79544122444841 26.4118
33.81871069412428 26.3395
33.84198160035767 26.301
33.86525394437455 26.2961
33.88870955949969 26.2656
33.911984794020626 26.3015
33.93526147001624 26.2478
33.958539588715006 26.147
33.98200102861669 26.0545
34.0052820477047 26.0215
34.02856451319451 26.0493
34.05203033759056 25.9496
34.07531571090147 25.9827
34.09860253431845 25.9449
34.121890809074316 25.8364
34.145362493118924 25.8491
34.16865368561615 25.828000000000003
34.191946333164054 25.66
34.21524043699793 25.6496
34.23871800066799 25.7196
34.26201503218366 25.6504
34.28531352370466 25.6205
34.30861347646881 25.5831
34.33209693978188 25.4742
34.3553998301885 25.4786
34.378704185565205 25.4314
34.402010007152356 25.3589
34.42549939016683 25.3256
34.44880815937748 25.2218
34.472118398533134 25.2062
34.49543010887669 25.1377
34.51892543169198 25.0612
34.54224009966052 25.156999999999996
34.56555624255917 25.1353
34.58887386163339 25.0234
34.61237514439016 24.9484
34.6356957311114 24.9184
34.65901779775809 24.9518
34.68252356662995 24.9084
34.705848608458616 24.8755
34.72917513396849 24.7881
34.75250314440949 24.7231
34.77601490857862 24.6619
34.799345904259795 24.5437
34.82267838863559 24.6225
34.846012362958525 24.6267
34.869530142679984 24.6571
34.89286711232212 24.6117
34.91620557568269 24.6239
34.93954553401677 24.5752
34.9630693495876 24.4867
34.986412313340814 24.5007
35.00975677584668 24.4976
35.033102738362956 24.3935
35.05663261012228 24.2891
35.0799815881786 24.4093
35.10333207003229 24.2793
35.12668405694369 24.2391
35.150220005273056 24.2282
35.17357501786656 24.1319
35.19693153931268 24.2221
35.220289570874385 24.1433
35.24383161619786 24.1267
35.267192683604904 24.1003
35.290555264930376 24.0832
35.314101899412165 23.9818
35.33746752422433 23.9915
35.36083466676374 24.0308
35.38420332829803 23.9169
35.407756095629054 24.0646
35.43112781085063 24.0139
35.45450104888391 23.9026
35.477875810999194 23.8899
35.50143473172161 23.7966
35.52481255774625 23.8041
35.54819191167777 23.7659
35.57157279478914 23.7662
35.595137889488406 23.6956
35.61852184675279 23.6693
35.641907337029984 23.6267
35.665294361595684 23.5592
35.68886565090076 23.4693
35.7122557598848 23.5513
35.73564740699838 23.513
35.759040593519934 23.4415
35.78261809810353 23.4928
35.80601437933051 23.3397
35.829412203814705 23.3096
35.85281157283719 23.2658
35.876395313415884 23.2063
35.8997977874528 23.1766
35.92320180988546 23.1993
35.946790244133936 23.1376
35.97019737933222 23.1422
35.993606066789866 23.0861
36.01701630779276 22.9841
36.04061101440684 23.0126
36.06402437852291 23.0459
36.08743930005611 23.0151
36.1108557802951 22.8114
36.13445678011326 22.8342
36.15787639383515 22.8215
36.18129757014299 22.8071
36.20472031032821 22.6613
36.22832762423364 22.7075
36.25175350829375 22.7316
36.275180960119776 22.6039
36.298609981005924 22.6033
36.32222362992669 22.6125
36.34565580510207 22.5205
36.36908955323448 22.5253
36.39252487562093 22.4411
36.416144880530226 22.5033
36.43958336764275 22.4527
36.463023432914625 22.4401
36.486465077645676 22.3277
36.51009145956204 22.3646
36.53353627947859 22.4002
36.55698268276811 22.3572
36.58043067073321 22.3014
36.60406345072071 22.1309
36.62751462435344 22.1439
36.65096738658405 22.195999999999998
36.67460498210655 22.1624
36.69806093788647 22.1204
36.72151848619297 22.0132
36.744977628333636 22.0159
36.76862165890998 21.8938
36.79208400512205 21.9087
36.81554794910557 21.8706
36.83901349217101 21.8932
36.862663978991606 21.7936
36.88613273667352 21.8012
36.90960309738324 21.7602
36.933075062434064 21.7264
36.95673202673572 21.6934
36.98020721697122 21.6625
37.003684015502365 21.5756
37.027162423645365 21.5121
37.050825886711465 21.5016
37.07430753063053 21.3869
37.09779078812467 21.3901
37.121275660513014 21.4458
37.144945643673694 21.3555
37.16843376245278 21.4131
37.19192350009803 21.3939
37.215414857931435 21.3072
37.239091382563885 21.2476
37.262585997426164 21.1995
37.28608223645736 21.2253
37.309763684451696 21.1328
37.33326318851098 21.1741
37.356764320726555 21.1178
37.380267082425526 21.0969
37.40395510942588 20.9978
37.42746114683234 21.0053
37.45096881771841 20.9125
37.474478123414166 20.9894
37.49817275092816 20.9048
37.52168534303452 20.915
37.54519957395567 20.8619
37.568715445024665 20.8062
37.592416694607714 20.7786
37.61593586281424 20.8076
37.63945667518264 20.7595
37.66297913304891 20.6955
37.68668702630454 20.6577
37.710212792059274 20.585
37.733740207334854 20.5906
37.757269273470364 20.5087
37.780983832050374 20.4665
37.80451621684926 20.4906
37.82805025654007 20.4856
37.851585952464795 20.3966
37.8753071980695 20.320999999999998
37.89884622345676 20.3239
37.92238690911902 20.3518
37.94611318753442 20.2582
37.969657210779765 20.230999999999998
37.99320289834801 20.2282
38.016750251586465 20.1765
38.04048325513017 20.1438
38.06403395679343 20.1087
38.087586328183946 20.0916
38.11114037065203 20.1091
38.13488012115898 20.0719
38.1584375229181 19.9918
38.181996599821 19.9384
38.205557353221124 19.9401
38.229303872575656 19.8779
38.2528679961576 19.9204
38.27643380031219 19.8617
38.30000128639589 19.7593
38.32375459653193 19.8014
38.34732546371299 19.7889
38.37089801690786 19.6519
38.39447225747609 19.6054
38.418232380377425 19.6263
38.441810012983396 19.6404
38.46538933705673 19.63
38.488970353960084 19.611
38.51273731166058 19.528
38.536321731567014 19.5048
38.55990784840681 19.375999999999998
38.58367995004091 19.4304
38.60726947812959 19.3892
38.63086070726198 19.3896
38.654453638806274 19.3251
38.678232613930824 19.2803
38.70182896773327 19.2373
38.72542702806741 19.2321
38.7490267963045 19.2154
38.77281266709232 19.108
38.79641586862214 19.1228
38.8200207821842 19.1449
38.843627409152944 19.1225
38.86742019782782 19.1286
38.891030269149255 19.0136
38.914642058016156 18.9529
38.938255565806124 19.0233
38.96205529464307 18.9527
38.98567225787121 18.9073
39.00929094417078 18.8395
39.03291135492255 18.8951
39.05671804624804 18.8647
39.080341923549106 18.7931
39.103967529460334 18.7732
39.127594865365744 18.7031
39.15140854155791 18.6633
39.17503935514948 18.7214
39.19867190290282 18.6432
39.22249083587951 18.6526
39.24612686969409 18.6499
39.269764641845306 18.552
39.293404153722804 18.5109
39.317230110864074 18.5006
39.34087311998506 18.4193
39.36451787301696 18.4397
39.388164371352595 18.3171
39.41199737518003 18.2743
39.43564738196752 18.3023
39.45929913825317 18.3372
39.48295264543308 18.3701
39.506792718520884 18.2688
39.530449745387216 18.3141
39.55410852735203 18.2484
39.57776906581474 18.2451
39.60161623079 18.1497
39.625280300200025 18.1213
39.64894613032202 18.057000000000002
39.67261372255866 18.016
39.6964680021016 17.9983
39.72013913657293 18.0358
39.74381203738292 18.0194
39.76748670593756 17.9703
39.79134812278169 17.9189
39.81502634488497 17.8817
39.83870633896685 17.8209
39.862388106436654 17.8406
39.88625668336918 17.8673
39.90994201572829 17.8306
39.933629125719285 17.7798
39.957503091207826 17.7318
39.9811937746168 17.777
40.00488623990914 17.7338
40.02858048850006 17.6398
40.05246165409549 17.6057
40.076159487492085 17.5498
40.099859108448875 17.6073
40.123560518384345 17.557000000000002
40.1474489070226 17.4982
40.171153913178564 17.439
40.194860712584955 17.4971
40.2185693066637 17.4046
40.242464941335314 17.3452
40.26617714307655 17.3153
40.289891143772046 17.3189
40.3136069448471 17.2651
40.33750984859743 17.2962
40.3612292688043 17.2507
40.3849504936829 17.2207
40.40867352466194 17.2056
40.43258372059144 17.1719
40.45631038219906 17.168
40.48003885420956 17.0914
40.503769138055105 17.1147
40.52768664931955 17.1077
40.55142057531802 17.0501
40.57515631746428 16.9849
40.599079334038514 16.9684
40.62281872700477 16.9372
40.64655994043941 16.8901
40.67030297578061 16.9031
40.69423334835778 16.8764
40.71798004609188 16.837
40.74172857006355 16.8026
40.76547892171441 16.7916
40.7894166736039 16.7848
40.813170699248566 16.7224
40.83692655691388 16.6945
40.86068424804498 16.6997
40.884629402612525 16.6869
40.908390779366385 16.6375
40.932153993938 16.5647
40.95591904777605 16.6028
40.979871628443995 16.5741
41.003640379561936 16.6023
41.02741097430883 16.5563
41.05118341413683 16.5234
41.075143444384416 16.4145
41.098919593177826 16.4287
41.1226975914255 16.4001
41.14647744058318 16.3603
41.170444943946755 16.3024
41.19422851378379 16.2821
41.218013938914645 16.2686
41.24198706625173 16.2033
41.26577622087193 16.2162
41.289567235177785 16.2099
41.31336011063129 16.1563
41.337340752422875 16.1475
41.361137369129835 16.1198
41.38493585138705 16.1123
41.40873620066004 16.0587
41.43272438060107 15.9896
41.45652848292052 15.9981
41.48033445666918 15.9503
41.50414230331616 15.9382
41.528138045159764 15.8945
41.551949656675205 15.8761
41.575763145513235 15.8979
41.59957851314666 15.8618
41.62358184070442 15.7785
41.64740098505737 15.7871
41.6712220126409 15.7823
41.69504492493139 15.7536
41.71905586207357 15.7524
41.74288256296395 15.689
41.766711153007456 15.6682
41.79054163368412 15.6374
41.814560204340054 15.6624
41.838394485526365 15.6391
41.86223066180303 15.5372
41.88625497706819 15.5192
41.910094962812 15.4834
41.93393684811168 15.4836
41.95778063445365 15.4611
41.981812625263366 15.3998
42.00566023303407 15.4146
42.029509746323676 15.4005
42.05336116662236 15.3821
42.077400857069705 15.3315
42.10125611078846 15.2736
42.12511327600405 15.2113
42.14897235421036 15.2326
42.173019768448455 15.1759
42.19688269209613 15.185
42.22074753323349 15.1857
42.24461429335818 15.1903
42.268669455600495 15.1205
42.292540073217886 15.0567
42.31641261433284 15.1047
42.34028708044675 15.0323
42.36435001496739 15.0256
42.38822835065557 15.0427
42.41210861586426 14.9645
42.4359908120986 14.9129
42.46006154323262 14.9468
42.48394762115317 14.8655
42.507835634632315 14.8675
42.531912233047436 14.8925
42.55580413732265 14.8344
42.579697981698 14.812999999999999
42.60359376768525 14.7814
42.62767820545945 14.7582
42.65157789440821 14.7376
42.67547952952185 14.7176
42.699383112316 14.6843
42.72347541395347 14.6511
42.74738291190531 14.6553
42.771292362102166 14.6059
42.795203766063516 14.6024
42.819303956130405 14.5828
42.843219287476536 14.4921
42.86713657716324 14.4587
42.89105582671383 14.4988
42.91516392983864 14.4034
42.939087119032166 14.448
42.963012272677304 14.3958
42.98693939230129 14.4135
43.01105543317513 14.3006
43.034986504731386 14.322000000000001
43.05891954686589 14.2923
43.08285456110972 14.2772
43.10697856448665 14.2305
43.130917542983475 14.2291
43.15485849820081 14.1849
43.17880143167367 14.1935
43.20293342237094 14.1423
43.226880332449 14.1171
43.25082922540554 14.1588
43.27496722682525 14.1026
43.29892010567796 14.0782
43.32287497204102 14.0425
43.34683182745632 13.9338
43.370977859791836 14.0048
43.39493871351105 13.9792
43.41890156092628 13.9685
43.44286640358341 13.9606
43.46702049182749 13.9054
43.49098934522816 13.8403
43.51496019852649 13.8466
43.5389330532723 13.774000000000001
43.56309522248204 13.7713
43.58707210044314 13.7588
43.61105098451946 13.7187
43.63503187626491 13.7268
43.659202151562134 13.7447
43.68318707902681 13.7231
43.70717401884041 13.6328
43.731162972560874 13.5555
43.75534137913236 13.583
43.779334381108384 13.5832
43.803329401683186 13.5953
43.82732644241872 13.569
43.8515130055166 13.5285
43.87551410707659 13.4823
43.89951723350145 13.4806
43.923709934595614 13.4551
43.94771713129917 13.436
43.97172635758096 13.4131
43.99573761501002 13.4237
44.0199385169922 13.3192
44.04395385732619 13.2919
44.067971233533086 13.3276
44.09199064718605 13.2756
44.11619977548961 13.2444
44.14022328470671 13.2398
44.16424883610785 13.2116
44.18827643127035 13.2168
44.21249381139513 13.1962
44.236525514814076 13.1361
44.26055926674478 13.139000000000001
44.28459506876863 13.1127
44.3088207262813 13.0675
44.33286064928722 13.0286
44.35690262714919 13.0022
44.38094666145278 12.9684
44.4051806219871 12.9891
44.42922879003185 12.9666
44.45327901929361 12.9283
44.477331311362136 12.9465
44.501573600619416 12.885
44.525630039221795 12.8334
44.54968854541895 12.8471
44.573937102200176 12.8367
44.5979997645541 12.8072
44.622064499300315 12.7906
44.64613130803592 12.7229
44.67038823869318 12.7784
44.69445921643748 12.6945
44.718532272981385 12.6667
44.742607409926194 12.669
44.76687274034801 12.6236
44.79095205918753 12.5872
44.81503346325094 12.645999999999999
44.839116954143876 12.5867
44.86339071028742 12.5535
44.88747839599524 12.5325
44.91156817336837 12.5006
44.93566004401666 12.5136
44.959942251908146 12.4957
44.984038330325966 12.4488
45.00813650686762 12.4386
45.03223678314731 12.3968
45.05652746888232 12.3952
45.08063196592069 12.3435
45.104738567558705 12.3282
45.128847275414856 12.3243
45.15314646515866 12.2562
45.17725940679741 12.2536
45.20137445952892 12.2316
45.22568004865265 12.2022
45.24979934496396 12.1523
45.27392075725247 12.1891
45.29804428714431 12.1391
45.322358426247604 12.2055
45.346486212804315 12.1341
45.370616121861914 12.0859
45.39474815505086 12.0416
45.41907087049246 12.0185
45.4432071734666 11.9873
45.46734560548283 12.0054
45.49148616817604 12.071
45.51581748638564 11.9996
45.5399623320197 11.9745
45.56410931325473 11.9409
45.58825843173002 11.9136
45.61259837920865 11.8909
45.636751793816 11.8939
45.66090735060093 11.8378
45.68506505120716 11.8099
45.7094136545275 11.8222
45.73357566449271 11.807
45.75773982322992 11.7324
45.78190613238733 11.7241
45.806263418194064 11.703
45.83043404997326 11.6857
45.85460683713677 11.6588
45.87897065658495 11.6492
45.90314777634752 11.6188
45.92732705646868 11.6254
45.9515084986045 11.6097
45.97588104735473 11.6154
46.00006683541565 11.5706
46.02425479047904 11.499
46.04844491420549 11.5294
46.0728262191024 11.4461
46.09702070211635 11.4901
46.12121735879483 11.4799
46.14541619080294 11.4465
46.169806278764455 11.4282
46.194009483459034 11.3628
46.21821486849841 11.3885
46.24242243555223 11.3668
46.266821333570014 11.3157
46.29103328674601 11.3163
46.31524742696538 11.3251
46.33946375590237 11.2653
46.36387149104216 11.245
46.38809221957392 11.225
46.41231514186606 11.2339
46.436540259597464 11.1931
46.460956858999374 11.152000000000001
46.48518638983522 11.1199
46.509418121166966 11.0668
46.533652054678114 11.0816
46.55807754555709 11.0826
46.58231590571962 11.1072
46.60655647313217 11.0384
46.630988654873654 11.0039
46.655233659129024 10.9726
46.67948087571551 10.9575
46.70373030632484 10.9879
46.72817142736393 10.9155
46.752425308428684 10.9516
46.77668140861147 10.9277
46.80093972960865 10.8586
46.82538981736788 10.847000000000001
46.849652602470904 10.8325
46.87391761349769 10.8158
46.8981848521493 10.8069
46.9226439341274 10.7736
46.946915650573224 10.7836
46.97118959976749 10.7073
46.99546578341598 10.7241
47.019933887188216 10.6817
47.04421456235744 10.6832
47.06849747711879 10.6806
47.09278263318286 10.6523
47.11725978640143 10.5916
47.14154944775105 10.5914
47.165841355555656 10.6117
47.1901355115306 10.5704
47.214621741924994 10.5574
47.23892041698887 10.5377
47.26322134538975 10.4728
47.28771440635075 10.4662
47.31201986422527 10.4528
47.33632758061436 10.4502
47.360637557241866 10.4588
47.38513974410611 10.4123
47.40945426407847 10.3884
47.43377104948137 10.3566
47.45809010204344 10.3401
47.48260144275502 10.3584
47.506925052572285 10.2933
47.53125093475548 10.2793
47.55557909103813 10.2704
47.58009961361992 10.2645
47.60443234110732 10.2709
47.62876734791564 10.2136
47.65310463578333 10.2074
47.6776343683373 10.1779
47.7019762413987 10.117
47.72632040075572 10.1281
47.75066684815169 10.103
47.77520581885936 10.0949
47.799556865477655 10.0828
47.823910205386 10.0578
47.84826584033272 10.0613
47.87281407745551 10.0148
47.89717432569297 10.0558
47.92153687423484 10.0356
47.94609208429692 10.0255
47.97045925671401 9.9748
47.99482873471275 9.92872
48.01920052005013 9.929680000000001
48.04376504619224 9.91704
48.068141469543484 9.9365
48.09252020552573 9.88574
48.11690125590099 9.86848
48.1414751266064 9.86806
48.16586082917454 9.83122
48.19024885144316 9.78544
48.2146391951793 9.79141
48.239222439012764 9.77562
48.26361744916137 9.72378
48.28801478610016 9.723360000000001
48.31241445160131 9.73365
48.337007097209366 9.70145
48.36141144338331 9.67803
48.38581812345755 9.66517
48.41022713920929 9.68304
48.434829215320704 9.61941
48.45924292604658 9.60189
48.48365897780325 9.609639999999999
48.50807737237308 9.56724
48.532688907799276 9.57591
48.55711201168574 9.55589
48.581537463754074 9.50633
48.60615611725119 9.502839999999999
48.63058628942721 9.48809
48.65501881516546 9.43699
48.6794536962573 9.44234
48.70408185970339 9.44218
48.72852147531801 9.3866
48.75296345168211 9.372530000000001
48.77740779059232 9.39408
48.80204549302823 9.38643
48.82649458091802 9.35965
48.85094603676547 9.36483
48.87539986237231 9.30454
48.90004713292306 9.27398
48.92450572200832 9.26297
48.94896668628025 9.277330000000001
48.97343002754588 9.25975
48.99808689542115 9.19541
49.02255501470614 9.22969
49.04702551642794 9.207310000000001
49.0714984023988 9.17913
49.096164896893235 9.14138
49.120642575466796 9.10662
49.145122643748394 9.1051
49.16960510355558 9.08255
49.19428125404938 9.07312
49.2187685210852 9.093110000000001
49.243258185121555 9.08878
49.26794160167084 9.04319
49.2924360839405 8.97456
49.31693296869764 8.90546
49.34143225776915 8.966610000000001
49.36612538195438 8.95182
49.39062950396021 8.97007
49.41513603578346 8.9323
49.4396449792564 8.88097
49.46434784069503 8.877460000000001
49.488861631846454 8.83905
49.513377840166804 8.8626
49.537896467493745 8.82195
49.56260909589029 8.84116
49.587132585683285 8.80401
49.611658500018365 8.7746
49.636186840738596 8.7897
49.66090926588511 8.782689999999999
49.685442483902584 8.715819999999999
49.70997813385706 8.70365
49.734516217597076 8.68319
49.75924846937352 8.695739999999999
49.7837914452858 8.6666
49.80833686055187 8.66662
49.83288471702571 8.630289999999999
49.85762682540054 8.63686
49.882179588965734 8.57826
49.9067347993235 8.59366
49.93129245833333 8.57323
49.95604445336378 8.55414
49.98060703442832 8.53759
50.005172069746266 8.49645
50.02993150438364 8.49735
50.05450147301533 8.50408
50.07907390151433 8.47136
50.10364879174981 8.45862
50.12841816587289 8.45498
50.1529980044635 8.404589999999999
50.17758031042124 8.391810000000001
50.20216508562089 8.379539999999999
50.22694442953363 8.37835
50.25153416817468 8.356589999999999
50.27612638170508 8.35539
50.300721072005196 8.32373
50.325510416102105 8.27661
50.350110084975064 8.28152
50.37471223628208 8.27708
50.39931687190919 8.252189999999999
50.424116246675766 8.25564
50.44872587605249 8.214360000000001
50.47333799543065 8.23086
50.49795260670191 8.17382
50.52276204271512 8.1619
50.54738166295838 8.17565
50.57200378079314 8.143930000000001
50.596628398116835 8.12717
50.62144792604559 8.114889999999999
50.646077567609396 8.0691
50.670709714377715 8.0905
50.69553683636198 8.06265
50.72017401885922 8.056389999999999
50.7448137122895 8.07572
50.76945591856022 8.062380000000001
50.79429318636823 8.02703
50.818940443716784 8.0226
50.84359021965163 8.00315
50.868242516085964 7.986960000000001
50.893089960641895 7.94678
50.917747323549435 7.92748
50.94240721271973 7.91953
50.96706963007175 7.86982
50.99192728239342 7.89187
51.01659478166073 7.87783
51.04126481489051 7.8476300000000005
51.06593738400761 7.83874
51.090805275207074 7.80254
51.11548294172845 7.8117600000000005
51.14016314993547 7.81755
51.164845901758845 7.7941899999999995
51.18972406304274 7.8106
51.21441192780656 7.7316899999999995
51.23910234200271 7.723160000000001
51.2637953075678 7.72147
51.288683770237945 7.702030000000001
51.31338186432707 7.6863399999999995
51.33808251561888 7.6419
51.362978729967345 7.64195
51.387684521509755 7.64195
51.41239287610203 7.59324
51.437103795691165 7.5986899999999995
51.46201036644977 7.568039999999999
51.486726441956634 7.5452
51.51144508832545 7.5461
51.536166307509156 7.51353
51.56108326624387 7.47923
51.58580965706056 7.483439999999999
51.61053862657523 7.53256
51.635270176746864 7.50895
51.66019755512065 7.47784
51.68493429268881 7.432919999999999
51.70967361681515 7.45131
51.73441552946465 7.40262
51.759353359237934 7.438110000000001
51.7841004750961 7.390639999999999
51.80885018539685 7.38178
51.833602492111254 7.3586100000000005
51.8585508051424 7.341360000000001
51.883308330926425 7.352
51.90806845906181 7.2964199999999995
51.932831191525715 7.26613
51.95779001977161 7.27531
51.98255798721516 7.28717
52.00732856494335 7.2493
52.03229530577543 7.262239999999999
52.057071130455945 7.2298100000000005
52.081849571391054 7.174519999999999
52.106630630568695 7.188160000000001
52.13160794279417 7.12684
52.15639426492067 7.1429800000000006
52.18118321127822 7.13
52.205974783860896 7.121560000000001
52.23096269971011 7.11947
52.255759551287994 7.09897
52.280559035098186 7.06765
52.30536115314103 7.07561
52.33035970494467 7.06913
52.35516711807904 7.0618
52.37997717147198 7.02305
52.40478986713005 7.01538
52.42979908731974 7.00537
52.454617094216 6.99025
52.47943774942214 6.96033
52.50426105495102 6.9717899999999995
52.529280976059844 6.93047
52.554109609024096 6.93169
52.57894089837482 6.91507
52.60377484613117 6.90482
52.62880550079408 6.8920699999999995
52.65364479223379 6.83667
52.67848674816189 6.898739999999999
52.70352547971946 6.858289999999999
52.72837279155837 6.84008
52.753222773982785 6.81845
52.778075429022984 6.847810000000001
52.80312495150885 6.796119999999999
52.827982978797436 6.74728
52.85284368481815 6.7565100000000005
52.87770707160767 6.703810000000001
52.90276741793998 6.722760000000001
52.92763619336701 6.69753
52.952507655698504 6.703639999999999
52.977381806977576 6.69353
53.00245301017842 6.71772
53.02733256653592 6.6813899999999995
53.052214817996074 6.67023
53.077099766608484 6.6816699999999996
53.102181859804446 6.64767
53.127072229988265 6.5923300000000005
53.15196530349892 6.57856
53.17686108239249 6.5749
53.20195409881522 6.54571
53.22685531582556 6.5815
53.25175924441303 6.52784
53.27666588664027 6.53673
53.30176985962693 6.49886
53.3266819565689 6.46863
53.35159677336455 6.44372
53.376514312083096 6.4503699999999995
53.40162927507703 6.46395
53.42655228516116 6.43481
53.45147802340193 6.4092400000000005
53.47660125628886 6.38425
53.50153247842639 6.38654
53.52646643496923 6.39531
53.55140312799818 6.362830000000001
53.576537409691696 6.344119999999999
53.60147960336152 6.34005
53.626424539786164 6.31845
53.65137222105307 6.25946
53.67651758529126 6.25917
53.70147078399681 6.24709
53.72642673383343 6.2647699999999995
53.75138543689533 6.288469999999999
53.776541917524526 6.24634
53.801506154876755 6.26888
53.826473151763246 6.20456
53.851442910284916 6.18356
53.87661054126026 6.15854
53.9015858509782 6.19561
53.92656392866066 6.15537
53.95154477641532 6.1538699999999995
53.976723591801296 6.0954
54.00171000771266 6.11877
54.02669920004598 6.059
54.051691170915745 6.07003
54.076881204886796 6.07337
54.101878760928514 6.04671
54.12687910187696 6.03752
54.152077577768296 6.02832
54.1770835166946 6.0384400000000005
54.20209224691339 6.01892
54.22710377055121 5.99667
54.25231352511594 5.99792
54.27733066384342 5.946000000000001
54.30235060239643 5.97352
54.32737334290836 5.934019999999999
54.35259441062629 5.891719999999999
54.377622783395324 5.86421
54.40265396455061 5.89763
54.42768795623251 5.8650400000000005
54.45292037169559 5.87467
54.477960012857906 5.85255
54.50300247099511 5.84779
54.52804774825457 5.78517
54.55329154616743 5.78594
54.57834249018678 5.80577
54.6033962597977 5.73908
54.6284528571545 5.70821
54.653708072335164 5.66301
54.67877035378786 5.672969999999999
54.70383546947698 5.64836
54.72890342156389 5.632219999999999
54.7541700889442 5.59049
54.77924374251975 5.626930000000001
54.8043202390049 5.6003
54.82959552413022 5.5587800000000005
54.8546777351945 5.52538
54.87976279569621 5.50502
54.90485070780914 5.47858
54.930137506558005 5.42577
54.95523115074295 5.473990000000001
54.98032765308844 5.43556
55.005427015775496 5.390630000000001
55.03072536339621 5.44791
55.05583047570572 5.366619999999999
55.080938454927676 5.41294
55.10604930325027 5.3463
55.131359235107396 5.3768
55.15647585066083 5.30468
55.181595341907496 5.26968
55.20671771104285 5.21497
55.232039262617704 5.22297
55.25716741665048 5.16103
55.28229845518636 5.17906
55.30743238042802 5.11229
55.33276558731939 5.181769999999999
55.357905315183636 5.15758
55.383047936390035 5.07412
55.40819345314859 5.03733
55.433538351073295 5.06385
55.458689688238415 5.05019
55.483843927614096 5.030930000000001
55.509197623043605 4.99655
55.53435769621134 4.90845
55.55952067826466 4.92376
55.5846865714265 4.94358
55.61005202069737 4.9080699999999995
55.63522376553902 4.86747
55.66039842818645 4.84401
55.68557601087004 4.882619999999999
55.7109532500271 4.77917
55.73613670233794 4.8238
