TT I
1.2716486653135266 7.4108
1.2939594142134223 6.86067
1.3162702121660406 6.86977
1.3385810600174564 6.91485
1.3608919586137629 6.57025
1.383202908801069 6.29116
1.405513911425503 6.80386
1.4278249673332093 6.3289
1.4501343378461518 6.12321
1.4724455028545926 6.18567
1.4947567236847858 5.238919999999999
1.517068001182951 5.5603
1.5393793361953272 5.94371
1.5616907295681737 5.66403
1.5840021821477681 5.33734
1.60631369478041 4.9000699999999995
1.6286252683124185 5.5257
1.6509369035901333 4.74429
1.6732468618895553 4.9185300000000005
1.695558623192809 4.710459999999999
1.7178704487808514 5.03791
1.7401823395001077 4.456169999999999
1.7625012545597203 4.6828
1.7848028405262486 4.99828
1.8071218901122095 4.150440000000001
1.8294236121921872 4.09595
1.8517427996910911 4.648219999999999
1.8740620574440425 4.74465
1.8963639900671978 4.79261
1.9186833908139995 4.98136
1.9409854680117449 4.5295
1.9633050151394713 4.42557
1.9856246367570705 4.2007699999999994
2.0079269371922672 4.4679400000000005
2.03024671027244 4.66487
2.0525491637446027 4.27968
2.074869091674931 4.506880000000001
2.097171701569106 4.17769
2.1194917877373847 4.70244
2.141811954326636 5.05543
2.164114805233074 4.60161
2.186435135143035 5.2590900000000005
2.208738150935709 10.5952
2.231058647554722 19.2947
2.2533792288321184 15.2843
2.275682498336085 7.97763
2.298003251406138 5.04634
2.3203066942619714 5.0780400000000006
2.3426276225136022 5.16605
2.3649486396617507 4.80361
2.387252348930071 5.43571
2.4095735463442893 5.67011
2.4318774374315884 5.69039
2.4541988185014043 6.0638
2.476502894794693 6.46439
2.498824462909887 6.0531
2.521146125856138 6.2989999999999995
2.5434504863470337 6.632280000000001
2.5657723414244717 6.85274
2.588076895590662 7.325010000000001
2.610398946189713 8.10848
2.6327210958598384 7.2137
2.6550259469304716 7.011080000000001
2.6773482972090137 7.77965
2.6996533504259 7.881139999999999
2.7219759047039602 7.894419999999999
2.744298562293959 7.54846
2.7666039251246595 8.17648
2.7889267918020164 8.077639999999999
2.8112323652516555 7.860810000000001
2.833555444408179 8.04895
2.8558786311183852 8.22756
2.8781845268938557 8.796610000000001
2.9005079311721484 9.01946
2.9228140460410397 8.804969999999999
2.9451376712799635 8.81997
2.967444008632326 9.154869999999999
2.9897678582247247 9.49119
3.0120918213106695 10.1144
3.0343984987899373 10.2784
3.0567226913198637 11.0573
3.079029599759726 11.8826
3.101354025127254 12.4017
3.123678568232338 12.5432
3.145985829517914 12.7153
3.16831061055229 13.2997
3.1906181112775593 14.5638
3.212943133635653 15.134
3.2352682779763207 14.7854
3.2575761442691227 14.7583
3.2799015350264273 15.3535
3.302209649240067 16.2904
3.3245352898092655 17.054000000000002
3.3468436553365257 17.2032
3.369169549113219 17.6112
3.3914955708171384 18.3049
3.413804319727358 18.7641
3.4361305997334863 19.0968
3.4584396084414553 19.5227
3.4807661501462652 20.2009
3.503092824025881 20.9541
3.5254022288463154 21.1683
3.5477291695206588 21.3699
3.5700388426251948 22.4948
3.5923660534916446 23.3992
3.6146934007816114 32.8222
3.637003482731501 63.0667
3.6593311053109985 68.7565
3.681641464033634 43.8053
3.7039693653009733 28.0311
3.726297407241705 25.6992
3.7486081875460804 25.3454
3.7709365132734978 25.8929
3.793247578841633 26.3161
3.8155761917550093 26.9603
3.8378875459837216 27.0368
3.8602164494827234 27.5145
3.882545499606844 27.8209
3.9048572932539183 28.1615
3.9271866390645718 28.7185
3.9494987298666713 29.8524
3.971828374764527 30.2599
3.9941581705403255 30.7047
4.016470713506008 31.6368
4.038800813471445 31.7703
4.061113662089144 32.6819
4.0834440696459176 33.2792
4.105774632334751 33.4652
4.128087945865126 34.2993
4.150418821249301 35.1636
4.172732448931298 36.3791
4.195063640413578 37.6716
4.2173775856475215 40.619
4.239709096631102 61.2118
4.262040768704612 161.946
4.284355196706267 209.854
4.306687193387355 138.54399999999998
4.329001947444346 64.5966
4.35133427213731 45.8173
4.373666762177566 43.6068
4.395982011761091 44.5134
4.418314834921175 45.5253
4.44063041906622 50.2963
4.4629635787515625 57.8043
4.4852969080429785 58.3079
4.5076130004776225 52.4341
4.529946671403969 51.6285
4.552263106909177 52.3933
4.574597122877047 52.9299
4.596931312711224 52.9487
4.619248269273446 53.9094
4.6415828092605835 54.8077
4.663900117405352 56.1417
4.686235010953232 56.9907
4.708552674085913 58.4538
4.730887924602802 59.6237
4.753223354952695 61.4469
4.775541557023902 63.5399
4.797877349456786 65.5102
4.820195915032126 66.9255
4.842532072957498 67.9164
4.864868414979744 70.3803
4.88718753227192 72.9806
4.909524244902505 74.8196
4.931843734218147 76.589
4.954180820867835 78.8982
4.976518095879839 81.5199
4.998838149695359 84.9772
5.021175803844231 88.7078
5.043496238205739 91.9063
5.065834274903528 96.4239
5.088172504230693 101.963
5.1104935158799565 108.787
5.132832132875765 128.517
5.155153533596801 163.937
5.1774925416746225 211.554
5.199814334878411 450.249
5.2221537374521505 1246.68
5.244493338631803 3211.3
5.266815727034316 7815.92
5.289155727832427 12299.5
5.311478517248165 8446.23
5.333818921080011 2837.02
5.356159527788849 590.443
5.3784829252032536 196.856
5.400823940070432 149.29399999999998
5.423147747031976 131.042
5.445489173474152 121.367
5.467830807066149 115.84200000000001
5.490155234831516 112.895
5.512497285125229 108.036
5.534822130975162 105.848
5.557164601388673 103.307
5.579489868738879 100.29700000000001
5.601832762690846 99.0774
5.6241758697774475 98.3221
5.646501775867269 97.5599
5.668845311622074 96.3257
5.691171647754637 95.6269
5.713515615597765 94.8942
5.735859800852677 93.9423
5.758186788542988 93.61
5.780531411018185 94.6552
5.802858837297399 93.9103
5.825203900414495 94.1627
5.8475491852224 95.1969
5.869877275883075 96.1334
5.892223006467101 95.7244
5.914551544266608 96.8257
5.936897724049891 100.137
5.959244129804903 108.21
5.981573344815301 137.447
6.0039202049061 261.507
6.026249875609095 547.145
6.04859719346037 1110.85
6.070927323278297 2354.84
6.093275102315365 4483.07
6.115623113320588 5469.2
6.137953938319995 3374.22
6.160302415650845 1065.18
6.182633708324452 250.146
6.2049826554078376 115.571
6.227331838745022 93.8829
6.249663839443684 85.8938
6.27201349767565 82.5284
6.294345974611799 85.1922
6.316696111167083 91.309
6.339046488263839 87.0119
6.361379686074702 77.1083
6.383730546639482 71.8504
6.406064229255215 69.4419
6.428415576718203 69.4709
6.450749747566656 67.9531
6.47310158535871 66.3401
6.495453669698332 65.7073
6.517788579421056 64.9823
6.540141159237969 64.2098
6.562476565766648 64.1177
6.5848296444934045 62.9963
6.607182974060425 62.3719
6.6295191323281015 62.6333
6.651872965955752 64.8115
6.6742096296068985 80.8015
6.6965639707294615 109.344
6.71891856698715 108.565
6.741255995248479 80.9158
6.763611104154477 64.5673
6.785949046381137 59.5891
6.808304671371482 58.5124
6.8306605557940046 58.9909
6.852999275508618 57.8921
6.875355681171544 57.1521
6.897694923437771 56.8515
6.92005185377892 56.9685
6.9423916220322655 56.8774
6.964749080490181 55.8945
6.987106804399774 55.8667
7.009447368180821 55.8029
7.031805625367033 55.6045
7.054146723727803 55.705
7.076505517631004 55.4981
7.098864581288365 55.2265
7.121206488070854 54.8511
7.143566093607822 54.7401
7.165908543567245 55.455
7.188268694426048 55.5225
7.2106291193438095 55.165
7.232972390625943 55.7819
7.255333366030969 64.2802
7.277677189091925 97.4615
7.300038718428332 127.619
7.322400526130865 110.11399999999999
7.344745183422596 76.02
7.367107550224791 59.0827
7.389452767901992 55.5577
7.411815697249891 55.205
7.434161478756298 54.2969
7.456524974096713 54.2961
7.478888753837185 54.3393
7.501235387657368 54.6449
7.523599738562711 54.7081
7.545946944825532 54.9788
7.568311870344528 55.5352
7.5906770845765665 55.4898
7.613025156078678 56.1929
7.635390950099687 57.525
7.657739602662809 57.1679
7.680105979923558 56.0385
7.702472650212829 56.2777
7.724822180948224 56.24
7.747189439655568 56.3718
7.769539560075357 56.3606
7.791907410653562 56.7342
7.81425812420825 56.6926
7.836626570110925 57.2684
7.858995315087906 57.8693
7.881346924933401 58.0895
7.903716270417482 58.5518
7.926068482028405 58.8722
7.948438431475253 59.867
7.9708086843180235 60.1361
7.993161805171116 60.7638
8.015532667162402 60.9692
8.037886398416653 62.3236
8.060257873014221 62.523999999999994
8.082629655331942 63.4494
8.104984308787587 64.2417
8.127356708900503 66.8112
8.149711981398308 70.8553
8.172085002766314 72.9455
8.194458336181368 70.903
8.216814543847752 69.5398
8.23918850371002 69.9301
8.26154533906492 71.0978
8.283919928836452 72.9327
8.306277395339652 73.5099
8.328652618483376 74.6381
8.351028159736202 76.9677
8.373386579575245 79.0627
8.395762759396959 80.9367
8.418121819038275 85.4819
8.440498640894003 95.4688
8.462875785192262 108.913
8.485235811156207 132.109
8.507613602688501 191.457
8.529974277114228 291.481
8.552352719347912 437.57099999999997
8.574731488360351 715.824
8.59709314210385 1233.38
8.619472567021075 1870.36
8.64183487789147 2172.57
8.664214962183097 1761.75
8.686577933647762 946.49
8.708958680784317 359.45
8.731339760774953 159.444
8.753703729764451 111.19200000000001
8.77608547780821 99.7303
8.798450116065078 96.0542
8.820832535634787 93.6321
8.843215292401656 92.4384
8.865580941199045 90.5825
8.887964374703538 89.7615
8.910330701447199 90.2567
8.932714815164482 91.1728
8.955099270424924 89.85799999999999
8.977466620733543 87.2795
8.999851761421976 85.5883
9.022219798361645 84.6711
9.04460562795561 84.3897
9.066991803441677 83.92
9.089360876979615 83.8131
9.111747746589993 83.4657
9.13411751544971 82.5824
9.156505082664324 82.4742
9.178875550323522 82.9287
9.20126381862328 83.2456
9.223652438908596 83.2828
9.246023961427412 83.6911
9.26841328802173 82.925
9.290785518039224 82.5687
9.313175554425882 83.5846
9.335565947154315 84.1779
9.357939245086508 84.1889
9.380330352834827 84.0304
9.40270436697103 84.4497
9.425096193225055 84.4289
9.447488380180165 84.9829
9.469863475295412 85.0197
9.492256385987508 85.5005
9.514632206018318 85.9553
9.537025843935714 86.4383
9.559402392368193 87.3404
9.581796761000229 88.4327
9.604191496441521 89.4
9.626569144158516 92.3093
9.648964615551032 95.7504
9.671343000390081 96.1607
9.693739211225699 95.2017
9.716135793237463 94.1389
9.738515290448102 94.1124
9.760912617143402 95.04299999999999
9.783292860202891 96.554
9.805690935076182 98.1232
9.828089385495742 99.1909
9.850470754023561 101.17399999999999
9.872869957865444 106.79700000000001
9.89525208097539 116.956
9.917652041736662 127.31
9.940052382417589 132.761
9.962435644102392 155.384
9.984836746950979 205.412
10.007220771957746 273.319
10.029622640473708 380.865
10.052007432299963 570.004
10.074410069984072 857.176
10.096813093716005 1277.49
10.119199042482517 1704.28
10.141602840636468 1884.63
10.163989564971628 1510.54
10.186394141051062 851.863
10.208799107559706 372.345
10.231187001965623 180.6
10.253592751657669 125.762
10.275981430388155 113.601
10.298387966769793 112.01899999999999
10.320794897965431 112.75299999999999
10.343184759907361 111.81200000000001
10.36559248305461 107.723
10.387983138083852 106.29899999999999
10.410391656691655 112.93700000000001
10.432800574501677 126.421
10.455192425893369 144.447
10.47760214443012 171.108
10.499994797678786 217.25900000000001
10.522405320453982 298.36400000000003
10.54479877906917 414.30300000000005
10.567210109595656 524.506
10.5896218454736 570.561
10.612016518879773 504.545
10.634429067781074 334.173
10.656824555333241 192.511
10.679237920773568 120.12100000000001
10.701651695961992 95.7987
10.724048411481384 89.6908
10.746463008485165 87.0947
10.768860546937125 85.2052
10.791275969274796 83.6525
10.81369180576079 82.6613
10.836090585366925 81.2008
10.858507252467449 79.796
10.88090686379991 79.4061
10.903324365036394 78.9822
10.925724811614439 78.3276
10.948143150509463 79.2338
10.970561909719066 78.1267
10.992963615930844 76.4049
11.015383218085756 74.925
11.037785768347074 73.8383
11.06020621697282 73.145
11.082627090322113 72.7154
11.105030913430326 72.0595
11.12745263854165 72.2251
11.149857314510728 74.0668
11.172279894912576 77.8829
11.194702904450653 77.6304
11.217108866490921 74.7766
11.239532736615194 72.0131
11.26193956033512 70.6217
11.284364294577085 69.6381
11.306789462371718 68.078
11.329197585398376 67.6206
11.351623622610898 67.3268
11.37403261614354 66.4477
11.396459526308487 66.5937
11.418869393879497 66.1457
11.441297180532617 65.5947
11.463725406927658 65.2441
11.486136592353875 64.9559
11.508565700543707 65.2534
11.530977768845315 66.5335
11.553407762368774 66.7118
11.575838200059769 66.4988
11.598251599479612 65.1148
11.620682927815501 63.8494
11.64309721895548 63.7075
11.665529441478206 63.5246
11.687962112597958 63.1812
11.710377748130886 63.1679
11.732811318753434 63.2914
11.755227854859067 63.0237
11.777662328529495 62.9301
11.800079768750786 63.4076
11.822515149015453 63.0622
11.844950984084935 62.9914
11.867369787303163 62.7977
11.889806534289491 62.5813
11.912226250487029 63.2129
11.934663912939751 63.2789
11.9571020346363 63.4246
11.979523127133968 63.7857
12.001962169624331 64.8189
12.024384183972964 66.322
12.046824150809913 70.0663
12.069264581333726 75.639
12.091687985297767 81.8312
12.11412934550045 91.2672
12.136553680195208 106.588
12.158995973632788 129.033
12.181438735204349 156.342
12.20386447284199 185.795
12.226308172985636 201.735
12.24873485024193 196.84599999999998
12.271179492516982 159.417
12.293607112949127 119.62100000000001
12.316052700916226 90.1455
12.338498763250042 74.8744
12.360927805303868 68.4047
12.383374818673879 65.9428
12.405804812803074 64.8198
12.428252780773262 64.4783
12.45070122756722 64.5884
12.473132656675375 64.6314
12.49558206341869 64.9414
12.518014453510101 64.6962
12.540464823770117 65.029
12.562915677315177 65.1004
12.58534951575545 65.6461
12.607801338171472 66.9348
12.630236146511358 70.3088
12.652688941369085 73.056
12.675124723177234 73.8119
12.697578494048786 71.82300000000001
12.720032754458185 68.9416
12.742470003354093 68.1443
12.764925245138771 68.1
12.787363476431278 68.6027
12.809819703166806 68.9589
12.83227642391173 69.3401
12.854716135692716 70.0824
12.877173846755147 71.3796
12.899614549869717 71.4691
12.9220732548287 72.6555
12.94453245827299 73.2508
12.966974655289818 74.0141
12.989434858002571 75.2311
13.011878055298721 75.8054
13.034339260862497 76.8749
13.056800969391883 78.0267
13.079245674017244 80.9062
13.101708390774869 84.6427
13.12415410463411 93.7826
13.146617833206086 105.71700000000001
13.169064559883248 117.439
13.191529303857127 133.483
13.213994557076367 158.03799999999998
13.236442809902437 197.058
13.258909083908291 250.64
13.28135835851934 309.459
13.30382565690295 373.72
13.326293469022952 424.92
13.348744283242008 422.61400000000003
13.371213125129904 347.51800000000003
13.39366497011003 252.639
13.416134845360597 166.98
13.438605238843131 121.59899999999999
13.46105863690397 108.382
13.483530069144786 110.323
13.505984506951902 116.27
13.528456981549432 126.541
13.550929978879088 142.546
13.573385983253365 167.62900000000002
13.595860028340867 206.71099999999998
13.618317081455832 257.20599999999996
13.64079217790333 309.43
13.663250283359057 354.43699999999995
13.685726434770173 368.27099999999996
13.708203115221277 335.524
13.730662806148091 256.672
13.75314054697177 181.25099999999998
13.775601299246777 125.486
13.798080104050406 96.6677
13.820559442405358 85.5522
13.843021793671388 82.3636
13.865502201420897 80.73899999999999
13.887965623051947 80.1252
13.910447103807167 79.1683
13.932929122629764 77.8474
13.955394156785959 77.4168
13.977877254034569 76.4307
14.000343367582113 75.5478
14.022827546871707 74.9246
14.045294743423524 74.4507
14.06778000837062 73.6482
14.090265817715476 73.5157
14.112734645763819 73.2262
14.13522154619454 72.6195
14.157691466286913 72.4145
14.180179461423874 72.2664
14.202668005486178 71.6086
14.22513957064374 71.1684
14.247629214846473 70.9985
14.270101881097517 70.6259
14.29259262906496 70.6766
14.315083930490205 71.2113
14.337558255389705 71.4289
14.360050666019726 71.1633
14.382526101071944 70.3963
14.405019624534942 69.9215
14.427513705993134 69.3071
14.449990813291825 69.4105
14.47248601302899 69.3103
14.49496423954951 69.3409
14.517460561197822 69.2728
14.539939910570322 69.221
14.562437357763558 69.4155
14.58493536931253 70.1897
14.607416409993311 70.8636
14.62991555254159 71.4286
14.652397725157423 71.6036
14.674898002342799 71.3315
14.697398848433282 71.0501
14.719882725991326 72.436
14.74238471217934 74.4797
14.764869730765593 78.4555
14.787372860692983 81.8029
14.809876564079925 86.4404
14.83236330125751 92.5986
14.854868153850365 101.76299999999999
14.877356041159485 116.00200000000001
14.899862046604186 134.69799999999998
14.922351087688757 157.888
14.944858249632887 184.942
14.967365991421232 209.297
14.989856770231246 222.30599999999998
15.012365673994204 217.24599999999998
15.03485761569738 185.342
15.05736768508665 144.614
15.07987833888692 110.464
15.102372032001655 88.7144
15.124883856909658 76.5907
15.14737872204565 72.6365
15.169891721717274 71.0133
15.192405310371893 70.8191
15.214901940621196 70.7353
15.237416709527137 70.5819
15.259914520936249 70.4968
15.282430473753607 69.9394
15.304947020131227 69.0119
15.327446610371178 68.1825
15.349964346154254 67.4158
15.372465126703139 67.2457
15.394984055556009 67.1342
15.417486030076159 66.7575
15.44000615566487 66.3955
15.462526881230803 66.4135
15.485030653812652 66.6316
15.507552581617434 66.71300000000001
15.530057557334603 66.5128
15.55258069104857 66.7779
15.575104429329837 66.6039
15.597611216864632 66.6311
15.620136166564563 67.263
15.6426441664095 68.7879
15.665170331202765 71.7697
15.687697105158826 74.7231
15.710206930593545 78.4494
15.732734925158933 82.6974
15.755245972089478 89.4496
15.77777519094324 99.0743
15.800287463046663 112.492
15.822817909869592 131.042
15.84534897229804 150.382
15.867863089299354 172.495
15.890395385222186 189.525
15.912910736597423 194.31799999999998
15.935444269699861 180.928
15.957978423016485 151.596
15.980495633101265 120.01799999999999
16.003031029129367 94.3142
16.02554948280019 75.4751
16.048086125229432 67.6451
16.070623392487107 64.9115
16.09314371869582 63.79600000000001
16.11568223789321 63.0097
16.13820381691126 62.1631
16.160743591742527 61.4229
16.183283996022084 60.6663
16.205807461423195 59.9745
16.228349126881973 59.3544
16.25087385432698 59.1375
16.27341678466365 58.7241
16.29594277784926 58.6685
16.31848697676433 58.5686
16.341031811604868 58.6319
16.36355971058487 58.7057
16.3861058195587 58.4405
16.40863499352978 57.6573
16.431182380342005 56.9631
16.453730407713202 56.6448
16.476261501364792 56.0953
16.498810812136167 55.7956
16.52134319004079 55.8583
16.54389378792203 55.6272
16.566445031001553 55.5867
16.588979342490088 55.5425
16.61153187824822 55.4578
16.634067483263312 55.294
16.656621315414416 55.2038
16.679175797408888 54.8097
16.701713349928728 55.0472
16.72426913389191 55.162
16.74680798922351 55.1809
16.76936507887444 55.1143
16.791905240734874 55.04
16.814463639794468 55.0206
16.837022695210294 55.2616
16.859564824093756 55.4217
16.882125194503903 55.8444
16.904668639217885 56.298
16.927230328348003 56.5953
16.949792678493612 56.5364
16.972338104193863 56.1741
16.994901778652235 56.0267
17.017448529496576 55.8813
17.040013531998152 56.5974
17.06257920018044 57.0646
17.0851279459922 57.8429
17.107694947817667 58.7299
17.130245028099072 59.5495
17.15281336730298 60.8254
17.17536478578733 62.6184
17.19793446610687 64.9694
17.220504818648422 67.8918
17.243058251703697 71.0268
17.265629950971032 75.2056
17.288184731571736 79.2177
17.310757781306908 82.7467
17.33333150794385 83.7374
17.355888317140174 82.0906
17.37846339986244 77.1573
17.401021565958885 71.0443
17.42359800851343 65.8279
17.44617513265564 62.2338
17.468735341390783 60.5574
17.491261035594565 59.5834
17.51396340099364 59.4593
17.536490463869136 59.5772
17.559018209820174 59.5651
17.58154663977963 59.6342
17.604251766089718 59.8802
17.626781572227713 60.0833
17.64931206518155 60.2359
17.671843245885103 60.6788
17.69455114821572 60.9974
17.717083712612634 61.3404
17.739616967569667 61.5402
17.762150914021706 61.9231
17.78486160749854 62.0714
17.807396945166804 62.9997
17.829932977143503 64.1811
17.85246970436452 65.9715
17.875183204129467 67.8086
17.897721330097664 69.8699
17.920260154126645 72.484
17.942799677153296 75.7327
17.9655159983646 79.5226
17.988056927677544 85.1505
18.010598558807683 93.0576
18.033140892692916 102.646
18.05586005052525 112.49
18.07840379824407 123.811
18.10094825154059 134.939
18.12366954819864 141.486
18.146215420998306 141.564
18.16876200220057 133.08100000000002
18.191309292745153 117.70200000000001
18.214033452627167 102.898
18.236582170236648 91.9604
18.259131600016456 87.3352
18.281681742907335 87.8009
18.304408781233683 92.0059
18.32696035875955 96.729
18.349512652227624 101.37700000000001
18.372065662579683 105.535
18.394795594587553 106.238
18.41735004715306 102.759
18.43990521943684 95.3916
18.46246111238171 86.4558
18.485193953325208 76.8065
18.507751296070428 69.7539
18.530309362314178 65.9496
18.552868153000343 63.6829
18.57560391815056 62.5237
18.59816416623245 62.1423
18.620725141597372 61.6433
18.643286845190268 61.1209
18.666025549835414 60.7684
18.688588718427933 60.196999999999996
18.711152618092243 60.1285
18.73389353884365 59.8195
18.75645890921984 59.1698
18.77902501351406 59.0496
18.801591852673102 59.193999999999996
18.824335739722738 58.5026
18.846904057212626 58.5506
18.8694731124168 58.1838
18.89204290628315 58.0428
18.914789774966803 57.9973
18.937361054791623 57.632
18.959933076131318 57.3866
18.982505839934877 57.4989
19.00525570560582 57.4356
19.027829963004184 57.0651
19.05040496572238 57.4106
19.072980714710468 57.5907
19.095733592739563 57.7924
19.11831084296757 57.8783
19.140888842324735 58.3382
19.16346759176222 58.6196
19.18622349753803 59.1655
19.208803755869358 60.2011
19.231384767143577 61.4635
19.253966532312948 63.0244
19.276725481241822 65.1692
19.29930876296784 67.41199999999999
19.3218928014549 70.032
19.34465404436217 72.915
19.36723960516257 75.0401
19.389825925592426 76.4472
19.412413006605938 75.419
19.43517731967805 72.0162
19.457765930683355 67.3283
19.48035530514408 63.2051
19.50294544401556 59.2885
19.525712842708348 56.7052
19.54830451925909 55.4274
19.570896963095727 54.4644
19.593490175174704 54.2665
19.616260674962184 54.4907
19.638855432416964 54.1222
19.661450960992624 54.125
19.68404726164677 53.8888
19.706820878021247 53.5404
19.729418731756834 53.8853
19.752017360452857 53.7305
19.77461676506804 53.9168
19.797393513540218 54.0365
19.819994478951667 54.4591
19.84259622316767 54.9571
19.8651987471481 55.2506
19.887978643247177 55.5091
19.91058273574792 56.1803
19.933187610901943 57.0892
19.955969879466828 58.0478
19.97857632894404 59.5468
20.00118356396599 61.2925
20.023791585494575 63.4609
20.046577028914875 66.0062
20.069186632506966 67.9239
20.091797025500632 69.7164
20.114408208858933 70.5757
20.137196842715273 70.05199999999999
20.159809615886765 68.5444
20.18242318232135 66.0589
20.20503754298326 63.973
20.227829382875154 62.6331
20.250445341109344 62.6521
20.27306209647285 63.1225
20.29567964993108 64.15
20.31847471147704 65.3155
20.34109387027612 65.887
20.363713830075454 65.5317
20.386334591841646 64.1352
20.409132890679302 61.4923
20.431755265564437 58.2403
20.454378445325528 55.4413
20.477002430930366 53.5315
20.499803982716553 52.4711
20.522429589228004 51.766000000000005
20.54505600449589 51.4465
20.567683229489194 51.1601
20.590488049900088 50.7024
20.61311690359731 50.5147
20.63574656993626 50.413000000000004
20.658553853717297 50.192
20.681185154618298 49.9072
20.703817271080066 49.6544
20.72645020407368 49.4675
20.749260783967177 49.4714
20.771895359337133 49.3233
20.794530754161617 49.2351
20.817166969412938 49.2846
20.83998086114876 49.0756
20.86261872660049 49.0989
20.885257415405402 49.0618
20.90789692853701 49.0167
20.930714147864748 48.9679
20.953355319030678 49.0374
20.97599731745334 49.1365
20.99864014410749 48.9477
21.021460706796564 49.1222
21.044105199328826 49.1947
21.06675052302631 49.3461
21.089396678865015 49.662
21.112220600704806 49.8104
21.134868430275347 50.1393
21.15751709492456 50.4609
21.180166595629693 50.7504
21.202993892429635 51.0898
21.22564507473034 51.4451
21.24829709602816 51.6858
21.27112693608965 51.773
21.293780644891275 51.7104
21.316435195634053 51.0542
21.339090589297417 50.2305
21.361923832041875 49.9415
21.384580921090404 49.33
21.407238856007325 48.9592
21.429897637773326 48.8712
21.45273429906592 48.8014
21.475394784108598 48.8767
21.498056118951983 48.7758
21.520718304578022 49.2592
21.543558400304388 49.1492
21.566222297108816 49.1921
21.58888704765135 49.7059
21.61155265291521 49.8454
21.63439619898156 50.2888
21.657063523335786 50.6014
21.67973170537063 51.1667
21.7024007460706 51.6148
21.72524775840385 52.3741
21.747918526116475 53.5231
21.770590155457388 54.6536
21.79326264741238 56.132
21.816113141960237 57.9222
21.838787368860547 59.6727
21.861462461341976 61.3935
21.884315579735777 63.2791
21.90699241312273 64.5144
21.92967011506078 65.1063
21.95234868653799 64.727
21.9752053151131 63.4354
21.997885635446785 61.4687
22.020566828293532 59.7987
22.04324889464272 57.8897
22.066109049404666 56.718999999999994
22.088792872571794 56.4066
22.111477572219204 56.3536
22.1341631493376 56.3309
22.157026846313123 56.0557
22.179714188221507 55.5147
22.202402410582668 54.3798
22.22509151438863 52.9429
22.24795876962584 51.6918
22.270649646204486 50.7583
22.293341407213727 50.1558
22.316034053646906 49.5512
22.338904883215342 49.3125
22.36159931041458 49.2599
22.38429462602756 49.1878
22.40699083104897 49.0799
22.429865251039757 48.998000000000005
22.452563244831367 49.0375
22.47526213102522 49.0683
22.49813925616515 48.9347
22.520839937143307 48.851000000000006
22.543541513520587 48.9436
22.56624398629403 48.7852
22.589124730075895 48.891999999999996
22.611829005656723 49.1844
22.63453418063466 48.9557
22.657240256008077 49.4661
22.680124634582935 49.4289
22.70283252079775 49.7825
22.725541310413075 50.1132
22.74825100442868 50.2164
22.771139033969575 50.8012
22.79385054687155 51.007
22.81656296718292 51.9541
22.83927629590484 52.7552
22.862167992606945 53.388999999999996
22.88488314827121 54.6968
22.907599215359284 55.5483
22.93031619487366 56.6805
22.953211574954405 57.4308
22.975930389478226 58.2732
22.998650119445763 58.3578
23.02137076586092 57.6869
23.044269845560063 56.1989
23.06699233506288 54.4878
23.089715744034912 52.8543
23.112617610931565 51.2704
23.135342869061212 49.9906
23.158069049684816 49.4036
23.1807961538087 49.1119
23.20370174880544 49.1426
23.226430710184808 49.1395
23.249160598093425 49.2895
23.271891413539002 49.2116
23.294800752937697 49.2827
23.31753343374794 49.5948
23.340267045128353 49.6004
23.36300158808808 49.9568
23.38591468821339 50.4043
23.408651104658304 50.9602
23.431388455719986 51.4681
23.454126742409 52.2961
23.4770436196085 53.3562
23.499783787914662 54.4733
23.522524894889884 55.3588
23.54526694154616 56.3181
23.56818761219047 57.3784
23.59093154860734 57.7387
23.613676427751283 58.0393
23.636422250635754 57.1468
23.659346731118656 55.7446
23.68209445191868 53.7993
23.704843119509587 51.4931
23.72759273490623 49.5553
23.750521041644767 48.4469
23.77327256312355 47.5062
23.796025035462787 46.9171
23.818956224555475 46.4064
23.841710609113413 46.2676
23.86446594758979 46.1461
23.887222241002014 45.7671
23.910157285144578 45.5751
23.932915498962537 45.6736
23.955674670778713 45.3009
23.978434801611975 45.3046
24.001373717286125 45.1588
24.024135776723917 44.9878
24.046898798245582 44.8047
24.06966278287146 44.7339
24.092605586582614 44.5294
24.115371508023642 44.4165
24.1381383956401 44.1978
24.16090625045381 44.2851
24.183852958731244 44.1474
24.206622758582608 44.20399999999999
24.229393528706886 43.9585
24.252165270127392 44.1604
24.27511589952438 43.9609
24.297889594216997 43.6023
24.32066426328598 43.5279
24.34343990775613 43.6641
24.36639447485003 43.4045
24.38917208083877 43.3282
24.41195066531332 43.3766
24.43490819850244 43.4138
24.457688750692377 43.2811
24.48047028445616 43.1357
24.503252800821233 43.3359
24.526214300784112 43.3802
24.548998793132213 43.4917
24.57178427117417 43.1805
24.59457073593893 43.2143
24.617536219319863 43.2304
24.64032466834748 43.1353
24.663114107195035 43.0566
24.685904536893013 42.8173
24.708874020360852 42.6618
24.731666442613744 42.7375
24.754459858818787 42.7166
24.777254270007962 42.6895
24.80022777025625 42.6329
24.82302418230472 42.5078
24.845821592443674 42.5454
24.86862000170663 42.5283
24.891597535453727 42.342
24.914397953892728 42.6032
24.93719937456671 42.5111
24.96000179851076 42.8103
24.98298338249997 42.988
25.00578782394922 43.2181
25.028593271784167 43.285
25.05157790644186 43.6567
25.07438537804115 43.8011
25.097193859145293 43.9249
25.120003350792075 44.1212
25.142992065061257 44.4643
25.165803588823465 44.607
25.18861612625217 44.9333
25.211429678386736 44.9257
25.234422489079968 45.0788
25.257238081693636 45.0185
25.280054692141732 45.2212
25.3028723214652 45.1969
25.325869245420463 45.0995
25.348688923599397 45.1284
25.371509623787006 45.103
25.394331347025812 44.8517
25.41733240110666 44.3052
25.440156181590016 43.6257
25.46298098826268 43.2211
25.48580682216873 42.7661
25.50881202326435 42.1883
25.53163992281684 41.6012
25.55446885274561 41.3756
25.577298814096377 41.1007
25.600308179121807 41.062
25.623140214533745 41.1112
25.64597328451537 41.0858
25.66898578564376 40.7514
25.691820936010206 40.7864
25.714657124097695 40.8245
25.737494350954734 40.8189
25.760511045684957 40.7673
25.783350361364224 40.718
25.806190718969255 40.6463
25.82903211955018 40.8367
25.852053024868923 40.9656
25.874896522722523 41.1015
25.897741066713106 40.8713
25.920586657892454 41.0319
25.943611790812668 41.2552
25.966459487728237 41.3527
25.989308234998564 41.4691
26.01215803367705 41.711999999999996
26.03518741123814 41.8658
26.05803932412957 41.8911
26.080892291600094 41.8532
26.10374631470478 41.9014
26.12677995397268 42.0419
26.14963609978026 41.9799
26.172493304397875 41.5495
26.19535156888223 41.4378
26.218389486949604 40.9626
26.241249882640123 40.8441
26.26411134137826 40.5615
26.28715248187403 40.4523
26.31001607820869 40.4007
26.3328807407756 40.2473
26.35574647063438 40.4728
26.37879191991473 40.4618
26.401659795896734 40.4512
26.424528742360263 40.6818
26.447398760366614 40.7535
26.470448535598294 40.8402
26.49332070826805 41.0458
26.516193955675355 41.5209
26.53906827888316 41.5612
26.562122397260108 41.6629
26.584998883685063 42.1504
26.607876449110325 42.2375
26.63075509460056 42.4115
26.65381357334404 42.5177
26.67669439061878 42.4696
26.699576291163382 42.3371
26.722459276044212 42.2437
26.745522132402975 41.8498
26.768407297649354 41.6106
26.791293550442003 41.1528
26.814180891848974 41.1342
26.837248143099337 40.8838
26.860137673466657 40.7217
26.88302829566349 40.4498
26.90592001075963 40.2575
26.92899167420566 40.0681
26.951885586870763 39.814
26.974780595655517 39.5433
26.99785558178161 39.3426
27.020752794605112 39.3009
27.043651106772522 39.201
27.06655051935668 39.2254
27.089629948036183 39.0734
27.112531573292053 38.9377
27.135434302194138 39.0424
27.158338135817015 38.9268
27.181422024430987 39.0039
27.204328079372566 38.7666
27.22723524226965 38.8675
27.250143514198573 38.8782
27.273231880156334 38.7408
27.296142382065014 38.7618
27.319053996245536 38.6334
27.341966723775965 38.7387
27.365059584515222 38.6878
27.38797455070062 38.8143
27.410890633481237 38.6487
27.433807833936918 38.7448
27.456905206923906 38.8136
27.47982465472398 38.7144
27.502745223449743 38.7735
27.525666914182825 38.8837
27.548768816912457 38.7979
27.571692763693633 38.7876
27.59461783573812 38.6357
27.617723149491244 38.5441
27.640650484125285 38.4686
27.66357894728264 38.441
27.686508540048052 38.3442
27.709618414237887 38.3161
27.732550278321757 38.0856
27.755483275279115 38.0929
27.778417406196485 38.1531
27.801531858397514 38.0746
27.824468269376716 38.0282
27.847405817586786 38.0579
27.870344504116094 38.245
27.893463551932008 38.3028
27.916404527281053 38.5825
27.93934664422563 38.6859
27.962289903855886 38.7964
27.98541356491974 38.9783
28.00835912214229 39.0218
28.03130582533231 39.1248
28.054253675581805 39.2885
28.077381967556104 39.2854
28.100332124185126 39.196999999999996
28.123283431160893 39.1122
28.146235889577238 38.949
28.169368830154156 38.7364
28.192323603752033 38.6815
28.215279532083304 38.3868
28.238415973016764 38.1905
28.261374223145094 38.1855
28.284333631303806 37.8849
28.307294198589954 37.7391
28.330435319167677 37.474000000000004
28.353398217078915 37.2336
28.376362277420153 36.8837
28.39932750129032 36.7999
28.422473319286713 36.5806
28.44544088262495 36.5712
28.468409612800283 36.549
28.491379510913497 36.2163
28.51453004413313 36.2449
28.53750229057244 36.1236
28.56047570826344 36.1133
28.583450298308804 36.1768
28.606605564586562 35.9024
28.629582511831156 35.9773
28.65256063474956 35.8971
28.675539934446338 35.9232
28.698699951647605 35.8763
28.72168161743193 35.7286
28.74466446331978 35.7976
28.767648490417624 35.7785
28.790813276438353 35.6432
28.813799678527303 35.6233
28.836787265157085 35.6261
28.859955641890075 35.7095
28.882945610203045 35.5289
28.905936766392035 35.574
28.928929111566863 35.5421
28.952102288520145 35.5826
28.975097024308607 35.4102
28.998092952423807 35.1711
29.021090073977508 35.258
29.04426806913204 35.0618
29.067267590245258 34.8292
29.090268308143695 34.8291
29.11327022394099 34.8129
29.13645305530891 34.7516
29.159457379627167 34.5572
29.18246290519685 34.5835
29.20546963313352 34.6372
29.22865731875826 34.5901
29.25166646419296 34.6542
29.27467681535305 34.4709
29.29768837335608 34.595
29.320880931312562 34.5831
29.34389491580634 34.4336
29.366910110507334 34.3958
29.38992651653503 34.4081
29.41312396492981 34.3914
29.436142806456754 34.3387
29.45916286268059 34.2948
29.48236399319994 34.1752
29.50538649169417 34.0552
29.528410208259935 33.9726
29.55143514402014 33.8128
29.574641196749695 33.6749
29.597668583816574 33.6034
29.6206971934585 33.2987
29.64372702680042 33.532
29.666938019934474 33.3488
29.689970313635285 33.2572
29.713003834422636 33.18
29.73603858342347 33.1708
29.759254535188578 33.0604
29.78229175361658 33.0156
29.80533020365064 33.1571
29.82836988641968 33.1071
29.85159081507472 33.0312
29.874632976355343 32.961999999999996
29.89767637376955 32.977
29.920721008448314 32.9153
29.9439469322847 32.8247
29.96699405457564 32.7954
29.9900424175358 32.8963
30.013092022298157 32.808
30.03632295963995 32.6891
30.059375061131373 32.7837
30.08242840783577 32.7962
30.105483000888153 32.6575
30.128718970092244 32.5038
30.151776069006917 32.6535
30.17483441768648 32.7035
30.198074175317235 32.5832
30.221135036724256 32.7687
30.24419715131772 32.6521
30.267260520236203 32.5142
30.290505341942243 32.5197
30.313571232750228 32.641
30.336638381310948 32.5979
30.35970678876503 32.4524
30.38295669299435 32.3898
30.40602763151657 32.3145
30.429099832366074 32.4439
30.452173296685572 32.3491
30.47542830191959 32.3012
30.498504306502497 32.2171
30.521581577995562 32.3072
30.544660117543582 32.3964
30.56792024229725 32.4598
30.59100133132069 32.399
30.614083691845494 32.3897
30.637167325018545 32.3773
30.660432587840603 32.5153
30.683518779717886 32.4022
30.70660624769615 32.4361
30.729694992924372 32.4172
30.75296541239743 32.4369
30.77605672557558 32.3774
30.799149319462742 32.2244
30.8224236211637 32.257
30.845518789950724 32.1088
30.868615242910597 31.9981
30.891712981195973 31.8791
30.91499247215866 31.7993
30.938092794619365 31.7852
30.96119440587579 31.7187
30.984297307082752 31.5548
31.00758200598383 31.5446
31.030687500658694 31.3424
31.053794288760695 31.3795
31.076902371446767 31.3389
31.100192296997445 31.4011
31.12330298246119 31.3259
31.14641496599209 31.1393
31.169528248749216 31.1723
31.19282341969534 31.2106
31.215939314557186 31.209
31.239056512134788 31.2519
31.262175013589378 31.0598
31.28547544871168 31.0313
31.30859657161541 31.0572
31.331719001892175 31.115
31.35484274070538 31.1571
31.378148458819545 31.1693
31.401274828443725 31.1216
31.424402510106933 31.0565
31.447712205419993 31.1765
31.470842524931633 31.0082
31.493974159989783 31.0326
31.51710711176168 30.999000000000002
31.54042212308802 31.0453
31.563557722100917 30.9929
31.586694641341655 30.7783
31.609832881979628 30.7418
31.63315322823208 30.6979
31.656294125521327 30.5247
31.679436347728515 30.4529
31.70257989602529 30.4345
31.725905596152327 30.4936
31.74905181052835 30.3859
31.772199354521323 30.3309
31.79534822930507 30.2809
31.818679302290967 30.4264
31.84183085259981 30.3737
31.864983737233473 30.3395
31.88813795736804 30.3474
31.911474422233013 30.2597
31.934631327356435 30.2859
31.9577895715215 30.293000000000003
31.980949155906522 30.155
32.004291031706956 30.1431
32.027453310562606 30.1489
32.05061693318573 30.1125
32.07396288236386 30.0134
32.09712920658542 29.8659
32.12029687812702 29.8236
32.14346589817093 29.7065
32.166817291729984 29.6992
32.18998902288583 29.6083
32.21316210610336 29.5683
32.23633654256711 29.4705
32.259693399663725 29.4213
32.282870556771144 29.3301
32.30604907069099 29.3866
32.329228942610065 29.271
32.35259128243769 29.1644
32.375773884550505 29.089000000000002
32.398957848235646 29.174
32.422143174682176 29.0393
32.445511016471215 28.8843
32.468699082679954 28.9413
32.49188851523011 28.9247
32.51507931531304 28.9035
32.538452678331 28.8262
32.56164622776311 28.7976
32.58484114831493 28.7375
32.60803744118015 28.6852
32.631416344731896 28.6849
32.654615396551876 28.639
32.67781582427913 28.6753
32.701198898634416 28.5703
32.72440209253756 28.4446
32.747606665947124 28.4657
32.77081262006088 28.3315
32.79420126883317 28.3083
32.81740999876112 28.3969
32.840620112999424 28.2166
32.86383161274818 28.1891
32.88722585534586 28.2796
32.91044014056596 28.2586
32.933655814909734 28.146
32.95687287957963 28.1638
32.98027273544904 28.1024
33.00349259526636 28.0649
33.026713849030116 28.1471
33.04993649794511 27.9615
33.073341986570746 27.9481
33.09656744032826 27.9388
33.11979429286444 27.9279
33.14302254538647 28.0111
33.166433686291185 27.8892
33.18966475336992 27.8282
33.212897224069096 27.7695
33.23613109959831 27.9208
33.259547912343415 27.8357
33.2827846121627 27.7789
33.306022720453775 27.7145
33.32926223842861 27.4974
33.352684742614166 27.535
33.37592709463173 27.5713
33.399170859982064 27.4299
33.422597648419426 27.4076
33.44584425514446 27.261999999999997
33.46909227885668 27.2973
33.4923417207723 27.1765
33.51577423505344 27.2469
33.539026528130385 27.0674
33.56228024307245 27.0744
33.585535381098246 26.9414
33.60897364093058 26.9436
33.63223163992385 26.961
33.6554910656699 26.8679
33.678751919389796 26.8848
33.702195944520106 26.7943
33.72545966903325 26.7798
33.74872482519663 26.6565
33.771991414233746 26.7102
33.79544122444841 26.6505
33.81871069412428 26.5635
33.84198160035767 26.5928
33.86525394437455 26.6393
33.88870955949969 26.4776
33.911984794020626 26.4828
33.93526147001624 26.4651
33.958539588715006 26.3942
33.98200102861669 26.2923
34.0052820477047 26.1989
34.02856451319451 26.1473
34.05203033759056 26.2276
34.07531571090147 26.145
34.09860253431845 26.1323
34.121890809074316 26.0744
34.145362493118924 26.0705
34.16865368561615 25.9653
34.191946333164054 25.9607
34.21524043699793 26.0317
34.23871800066799 25.9458
34.26201503218366 25.8313
34.28531352370466 25.7595
34.30861347646881 25.7272
34.33209693978188 25.6717
34.3553998301885 25.7514
34.378704185565205 25.5596
34.402010007152356 25.5518
34.42549939016683 25.5172
34.44880815937748 25.4185
34.472118398533134 25.4303
34.49543010887669 25.4158
34.51892543169198 25.2496
34.54224009966052 25.3375
34.56555624255917 25.3107
34.58887386163339 25.1874
34.61237514439016 25.2197
34.6356957311114 25.2128
34.65901779775809 25.1873
34.68252356662995 25.0972
34.705848608458616 25.0304
34.72917513396849 24.9639
34.75250314440949 24.9837
34.77601490857862 24.9467
34.799345904259795 24.8003
34.82267838863559 24.7797
34.846012362958525 24.7915
34.869530142679984 24.8083
34.89286711232212 24.7836
34.91620557568269 24.6495
34.93954553401677 24.6508
34.9630693495876 24.6187
34.986412313340814 24.6798
35.00975677584668 24.678
35.033102738362956 24.549
35.05663261012228 24.4912
35.0799815881786 24.509
35.10333207003229 24.4274
35.12668405694369 24.4766
35.150220005273056 24.4217
35.17357501786656 24.3927
35.19693153931268 24.362
35.220289570874385 24.3275
35.24383161619786 24.3488
35.267192683604904 24.3175
35.290555264930376 24.2617
35.314101899412165 24.2434
35.33746752422433 24.1752
35.36083466676374 24.1881
35.38420332829803 24.125999999999998
35.407756095629054 24.1981
35.43112781085063 24.0667
35.45450104888391 24.0635
35.477875810999194 24.0989
35.50143473172161 24.0006
35.52481255774625 24.0297
35.54819191167777 23.9801
35.57157279478914 23.9456
35.595137889488406 23.8761
35.61852184675279 23.8854
35.641907337029984 23.7787
35.665294361595684 23.8017
35.68886565090076 23.6783
35.7122557598848 23.6935
35.73564740699838 23.6551
35.759040593519934 23.6723
35.78261809810353 23.5618
35.80601437933051 23.4774
35.829412203814705 23.4583
35.85281157283719 23.3232
35.876395313415884 23.5026
35.8997977874528 23.3541
35.92320180988546 23.3583
35.946790244133936 23.3092
35.97019737933222 23.3526
35.993606066789866 23.2034
36.01701630779276 23.1911
36.04061101440684 23.0512
36.06402437852291 23.1137
36.08743930005611 23.0943
36.1108557802951 22.9739
36.13445678011326 23.026
36.15787639383515 23.0011
36.18129757014299 22.9939
36.20472031032821 22.9448
36.22832762423364 22.8963
36.25175350829375 22.8685
36.275180960119776 22.7676
36.298609981005924 22.8641
36.32222362992669 22.784000000000002
36.34565580510207 22.7484
36.36908955323448 22.6881
36.39252487562093 22.6215
36.416144880530226 22.595
36.43958336764275 22.5923
36.463023432914625 22.6594
36.486465077645676 22.5456
36.51009145956204 22.6043
36.53353627947859 22.5859
36.55698268276811 22.4983
36.58043067073321 22.3853
36.60406345072071 22.3327
36.62751462435344 22.3891
36.65096738658405 22.3569
36.67460498210655 22.3078
36.69806093788647 22.1948
36.72151848619297 22.1525
36.744977628333636 22.1892
36.76862165890998 22.1342
36.79208400512205 22.1457
36.81554794910557 22.0507
36.83901349217101 21.9926
36.862663978991606 21.97
36.88613273667352 21.9402
36.90960309738324 21.9571
36.933075062434064 21.8781
36.95673202673572 21.9386
36.98020721697122 21.8293
37.003684015502365 21.7775
37.027162423645365 21.6673
37.050825886711465 21.7502
37.07430753063053 21.58
37.09779078812467 21.6222
37.121275660513014 21.6279
37.144945643673694 21.5602
37.16843376245278 21.554000000000002
37.19192350009803 21.4528
37.215414857931435 21.4059
37.239091382563885 21.3681
37.262585997426164 21.4244
37.28608223645736 21.4514
37.309763684451696 21.3405
37.33326318851098 21.2623
37.356764320726555 21.3213
37.380267082425526 21.2844
37.40395510942588 21.2766
37.42746114683234 21.1359
37.45096881771841 21.1091
37.474478123414166 21.1162
37.49817275092816 21.0662
37.52168534303452 21.0621
37.54519957395567 20.9716
37.568715445024665 20.9805
37.592416694607714 20.8862
37.61593586281424 20.956
37.63945667518264 20.954
37.66297913304891 20.8561
37.68668702630454 20.8566
37.710212792059274 20.7554
37.733740207334854 20.7169
37.757269273470364 20.6792
37.780983832050374 20.6831
37.80451621684926 20.6676
37.82805025654007 20.5918
37.851585952464795 20.5947
37.8753071980695 20.4845
37.89884622345676 20.4865
37.92238690911902 20.4442
37.94611318753442 20.4518
37.969657210779765 20.5003
37.99320289834801 20.3689
38.016750251586465 20.2566
38.04048325513017 20.2859
38.06403395679343 20.222
38.087586328183946 20.1926
38.11114037065203 20.2565
38.13488012115898 20.1926
38.1584375229181 20.1198
38.181996599821 20.0405
38.205557353221124 20.0387
38.229303872575656 20.0078
38.2528679961576 19.9966
38.27643380031219 19.9732
38.30000128639589 19.9445
38.32375459653193 19.9227
38.34732546371299 19.9361
38.37089801690786 19.8122
38.39447225747609 19.8335
38.418232380377425 19.8384
38.441810012983396 19.7193
38.46538933705673 19.7703
38.488970353960084 19.7159
38.51273731166058 19.6877
38.536321731567014 19.6206
38.55990784840681 19.5996
38.58367995004091 19.5512
38.60726947812959 19.5419
38.63086070726198 19.4835
38.654453638806274 19.5347
38.678232613930824 19.4575
38.70182896773327 19.38
38.72542702806741 19.3684
38.7490267963045 19.3851
38.77281266709232 19.3273
38.79641586862214 19.2341
38.8200207821842 19.2089
38.843627409152944 19.2815
38.86742019782782 19.2355
38.891030269149255 19.1641
38.914642058016156 19.176
38.938255565806124 19.1293
38.96205529464307 19.101
38.98567225787121 19.074
39.00929094417078 19.0154
39.03291135492255 19.0131
39.05671804624804 18.9854
39.080341923549106 18.9003
39.103967529460334 18.8738
39.127594865365744 18.8248
39.15140854155791 18.8366
39.17503935514948 18.7933
39.19867190290282 18.753
39.22249083587951 18.7558
39.24612686969409 18.713
39.269764641845306 18.7113
39.293404153722804 18.7032
39.317230110864074 18.6414
39.34087311998506 18.6075
39.36451787301696 18.5733
39.388164371352595 18.5022
39.41199737518003 18.4521
39.43564738196752 18.4454
39.45929913825317 18.4422
39.48295264543308 18.401
39.506792718520884 18.3282
39.530449745387216 18.3596
39.55410852735203 18.3419
39.57776906581474 18.3334
39.60161623079 18.3005
39.625280300200025 18.2585
39.64894613032202 18.2262
39.67261372255866 18.1606
39.6964680021016 18.2243
39.72013913657293 18.2199
39.74381203738292 18.1708
39.76748670593756 18.1157
39.79134812278169 18.0286
39.81502634488497 18.0967
39.83870633896685 18.0092
39.862388106436654 17.89
39.88625668336918 17.8838
39.90994201572829 17.891
39.933629125719285 17.8761
39.957503091207826 17.835
39.9811937746168 17.8971
40.00488623990914 17.8193
40.02858048850006 17.7588
40.05246165409549 17.6697
40.076159487492085 17.6484
40.099859108448875 17.7366
40.123560518384345 17.6336
40.1474489070226 17.6138
40.171153913178564 17.5282
40.194860712584955 17.5586
40.2185693066637 17.4961
40.242464941335314 17.486
40.26617714307655 17.5149
40.289891143772046 17.4758
40.3136069448471 17.4067
40.33750984859743 17.4229
40.3612292688043 17.3801
40.3849504936829 17.36
40.40867352466194 17.4024
40.43258372059144 17.3458
40.45631038219906 17.2899
40.48003885420956 17.219
40.503769138055105 17.1976
40.52768664931955 17.1922
40.55142057531802 17.1454
40.57515631746428 17.1539
40.599079334038514 17.0926
40.62281872700477 17.0586
40.64655994043941 17.044
40.67030297578061 17.0136
40.69423334835778 16.9666
40.71798004609188 16.9314
40.74172857006355 16.9121
40.76547892171441 16.9427
40.7894166736039 16.9135
40.813170699248566 16.862000000000002
40.83692655691388 16.852999999999998
40.86068424804498 16.8512
40.884629402612525 16.7915
40.908390779366385 16.7595
40.932153993938 16.7558
40.95591904777605 16.6906
40.979871628443995 16.6798
41.003640379561936 16.6438
41.02741097430883 16.6712
41.05118341413683 16.629
41.075143444384416 16.5766
41.098919593177826 16.5606
41.1226975914255 16.5558
41.14647744058318 16.4973
41.170444943946755 16.4638
41.19422851378379 16.4614
41.218013938914645 16.3827
41.24198706625173 16.3492
41.26577622087193 16.33
41.289567235177785 16.3265
41.31336011063129 16.3321
41.337340752422875 16.3054
41.361137369129835 16.3325
41.38493585138705 16.1731
41.40873620066004 16.194000000000003
41.43272438060107 16.2075
41.45652848292052 16.1435
41.48033445666918 16.0563
41.50414230331616 16.0909
41.528138045159764 16.0417
41.551949656675205 15.9905
41.575763145513235 15.9937
41.59957851314666 15.9574
41.62358184070442 15.913
41.64740098505737 15.9348
41.6712220126409 15.8786
41.69504492493139 15.8638
41.71905586207357 15.8395
41.74288256296395 15.8289
41.766711153007456 15.7527
41.79054163368412 15.7725
41.814560204340054 15.7449
41.838394485526365 15.7041
41.86223066180303 15.7014
41.88625497706819 15.6781
41.910094962812 15.6449
41.93393684811168 15.61
41.95778063445365 15.4975
41.981812625263366 15.479000000000001
42.00566023303407 15.5145
42.029509746323676 15.5121
42.05336116662236 15.4672
42.077400857069705 15.472000000000001
42.10125611078846 15.4159
42.12511327600405 15.4153
42.14897235421036 15.3743
42.173019768448455 15.3749
42.19688269209613 15.3179
42.22074753323349 15.3057
42.24461429335818 15.2515
42.268669455600495 15.2406
42.292540073217886 15.2692
42.31641261433284 15.2364
42.34028708044675 15.109000000000002
42.36435001496739 15.1405
42.38822835065557 15.1496
42.41210861586426 15.1251
42.4359908120986 15.0962
42.46006154323262 15.0361
42.48394762115317 15.0074
42.507835634632315 15.0709
42.531912233047436 14.9602
42.55580413732265 14.9105
42.579697981698 14.9215
42.60359376768525 14.8396
42.62767820545945 14.8933
42.65157789440821 14.8526
42.67547952952185 14.8216
42.699383112316 14.806
42.72347541395347 14.7529
42.74738291190531 14.7097
42.771292362102166 14.7285
42.795203766063516 14.6801
42.819303956130405 14.6562
42.843219287476536 14.5873
42.86713657716324 14.6252
42.89105582671383 14.6089
42.91516392983864 14.5591
42.939087119032166 14.579
42.963012272677304 14.5212
42.98693939230129 14.4655
43.01105543317513 14.4344
43.034986504731386 14.4717
43.05891954686589 14.4225
43.08285456110972 14.3601
43.10697856448665 14.3076
43.130917542983475 14.3136
43.15485849820081 14.3046
43.17880143167367 14.2653
43.20293342237094 14.2805
43.226880332449 14.2387
43.25082922540554 14.1903
43.27496722682525 14.1675
43.29892010567796 14.1055
43.32287497204102 14.1367
43.34683182745632 14.0721
43.370977859791836 14.0966
43.39493871351105 14.1012
43.41890156092628 14.0902
43.44286640358341 14.0381
43.46702049182749 14.0322
43.49098934522816 13.9592
43.51496019852649 13.972000000000001
43.5389330532723 13.9431
43.56309522248204 13.931
43.58707210044314 13.8897
43.61105098451946 13.8138
43.63503187626491 13.8271
43.659202151562134 13.8136
43.68318707902681 13.794
43.70717401884041 13.7763
43.731162972560874 13.7215
43.75534137913236 13.704
43.779334381108384 13.7017
43.803329401683186 13.6719
43.82732644241872 13.6174
43.8515130055166 13.6653
43.87551410707659 13.5822
43.89951723350145 13.5563
43.923709934595614 13.5079
43.94771713129917 13.5031
43.97172635758096 13.5278
43.99573761501002 13.4996
44.0199385169922 13.4687
44.04395385732619 13.4296
44.067971233533086 13.4031
44.09199064718605 13.3624
44.11619977548961 13.3502
44.14022328470671 13.3286
44.16424883610785 13.3028
44.18827643127035 13.3134
44.21249381139513 13.255999999999998
44.236525514814076 13.2096
44.26055926674478 13.173
44.28459506876863 13.2023
44.3088207262813 13.1781
44.33286064928722 13.1327
44.35690262714919 13.085
44.38094666145278 13.0759
44.4051806219871 13.0821
44.42922879003185 13.0364
44.45327901929361 13.0484
44.477331311362136 13.0348
44.501573600619416 12.9611
44.525630039221795 12.9613
44.54968854541895 12.978
44.573937102200176 12.9548
44.5979997645541 12.9547
44.622064499300315 12.8736
44.64613130803592 12.857999999999999
44.67038823869318 12.7977
44.69445921643748 12.8407
44.718532272981385 12.7762
44.742607409926194 12.7888
44.76687274034801 12.7608
44.79095205918753 12.7226
44.81503346325094 12.6867
44.839116954143876 12.6831
44.86339071028742 12.633
44.88747839599524 12.6248
44.91156817336837 12.5678
44.93566004401666 12.5878
44.959942251908146 12.5615
44.984038330325966 12.5339
45.00813650686762 12.527999999999999
45.03223678314731 12.4668
45.05652746888232 12.5038
45.08063196592069 12.456
45.104738567558705 12.3961
45.128847275414856 12.3839
45.15314646515866 12.3446
45.17725940679741 12.3606
45.20137445952892 12.3046
45.22568004865265 12.3005
45.24979934496396 12.3146
45.27392075725247 12.2774
45.29804428714431 12.2383
45.322358426247604 12.2261
45.346486212804315 12.2248
45.370616121861914 12.2298
45.39474815505086 12.2261
45.41907087049246 12.1084
45.4432071734666 12.1396
45.46734560548283 12.1035
45.49148616817604 12.1298
45.51581748638564 12.0849
45.5399623320197 12.0344
45.56410931325473 12.0106
45.58825843173002 11.9881
45.61259837920865 11.9395
45.636751793816 11.9305
45.66090735060093 11.9017
45.68506505120716 11.9085
45.7094136545275 11.9015
45.73357566449271 11.8458
45.75773982322992 11.837
45.78190613238733 11.8604
45.806263418194064 11.7385
45.83043404997326 11.7723
45.85460683713677 11.7697
45.87897065658495 11.7572
45.90314777634752 11.6974
45.92732705646868 11.7118
45.9515084986045 11.6903
45.97588104735473 11.6963
46.00006683541565 11.6415
46.02425479047904 11.58
46.04844491420549 11.5929
46.0728262191024 11.6155
46.09702070211635 11.5797
46.12121735879483 11.5822
46.14541619080294 11.5272
46.169806278764455 11.509
46.194009483459034 11.4715
46.21821486849841 11.4666
46.24242243555223 11.4801
46.266821333570014 11.4337
46.29103328674601 11.3748
46.31524742696538 11.3975
46.33946375590237 11.3563
46.36387149104216 11.3195
46.38809221957392 11.32
46.41231514186606 11.2845
46.436540259597464 11.2955
46.460956858999374 11.2703
46.48518638983522 11.2371
46.509418121166966 11.2123
46.533652054678114 11.1377
46.55807754555709 11.1345
46.58231590571962 11.1681
46.60655647313217 11.1199
46.630988654873654 11.0881
46.655233659129024 11.0702
46.67948087571551 11.0537
46.70373030632484 11.0044
46.72817142736393 11.0394
46.752425308428684 11.0007
46.77668140861147 10.9556
46.80093972960865 10.9204
46.82538981736788 10.908
46.849652602470904 10.9215
46.87391761349769 10.9256
46.8981848521493 10.8958
46.9226439341274 10.8764
46.946915650573224 10.8118
46.97118959976749 10.7761
46.99546578341598 10.8107
47.019933887188216 10.7774
47.04421456235744 10.7997
47.06849747711879 10.7352
47.09278263318286 10.7201
47.11725978640143 10.6684
47.14154944775105 10.6618
47.165841355555656 10.6445
47.1901355115306 10.6412
47.214621741924994 10.6012
47.23892041698887 10.5835
47.26322134538975 10.5555
47.28771440635075 10.5899
47.31201986422527 10.5823
47.33632758061436 10.5534
47.360637557241866 10.5092
47.38513974410611 10.4823
47.40945426407847 10.4537
47.43377104948137 10.427
47.45809010204344 10.4227
47.48260144275502 10.3934
47.506925052572285 10.3771
47.53125093475548 10.359000000000002
47.55557909103813 10.3832
47.58009961361992 10.3139
47.60443234110732 10.3083
47.62876734791564 10.3261
47.65310463578333 10.2877
47.6776343683373 10.2377
47.7019762413987 10.2047
47.72632040075572 10.1915
47.75066684815169 10.1637
47.77520581885936 10.1676
47.799556865477655 10.1297
47.823910205386 10.151
47.84826584033272 10.1231
47.87281407745551 10.0864
47.89717432569297 10.0812
47.92153687423484 10.0619
47.94609208429692 10.0282
47.97045925671401 10.0236
47.99482873471275 10.0019
48.01920052005013 9.94184
48.04376504619224 9.960460000000001
48.068141469543484 9.97948
48.09252020552573 9.92838
48.11690125590099 9.92723
48.1414751266064 9.91591
48.16586082917454 9.861
48.19024885144316 9.85335
48.2146391951793 9.84804
48.239222439012764 9.83067
48.26361744916137 9.80166
48.28801478610016 9.82734
48.31241445160131 9.77988
48.337007097209366 9.74225
48.36141144338331 9.7399
48.38581812345755 9.67147
48.41022713920929 9.71711
48.434829215320704 9.6947
48.45924292604658 9.66516
48.48365897780325 9.6795
48.50807737237308 9.67043
48.532688907799276 9.62883
48.55711201168574 9.61537
48.581537463754074 9.572330000000001
48.60615611725119 9.576989999999999
48.63058628942721 9.57405
48.65501881516546 9.54022
48.6794536962573 9.55578
48.70408185970339 9.50688
48.72852147531801 9.464310000000001
48.75296345168211 9.45648
48.77740779059232 9.45261
48.80204549302823 9.44561
48.82649458091802 9.4009
48.85094603676547 9.3791
48.87539986237231 9.35126
48.90004713292306 9.3429
48.92450572200832 9.33788
48.94896668628025 9.312000000000001
48.97343002754588 9.296289999999999
48.99808689542115 9.3006
49.02255501470614 9.31204
49.04702551642794 9.277569999999999
49.0714984023988 9.23108
49.096164896893235 9.22766
49.120642575466796 9.22677
49.145122643748394 9.196810000000001
49.16960510355558 9.17394
49.19428125404938 9.13435
49.2187685210852 9.15575
49.243258185121555 9.12412
49.26794160167084 9.08173
49.2924360839405 9.03844
49.31693296869764 9.05743
49.34143225776915 9.00965
49.36612538195438 9.00703
49.39062950396021 8.99078
49.41513603578346 8.9879
49.4396449792564 8.937330000000001
49.46434784069503 8.94317
49.488861631846454 8.87987
49.513377840166804 8.92833
49.537896467493745 8.86632
49.56260909589029 8.84645
49.587132585683285 8.84586
49.611658500018365 8.880980000000001
49.636186840738596 8.82116
49.66090926588511 8.81398
49.685442483902584 8.76939
49.70997813385706 8.76426
49.734516217597076 8.75689
49.75924846937352 8.72237
49.7837914452858 8.727210000000001
49.80833686055187 8.698889999999999
49.83288471702571 8.687560000000001
49.85762682540054 8.706669999999999
49.882179588965734 8.68131
49.9067347993235 8.64247
49.93129245833333 8.62354
49.95604445336378 8.64897
49.98060703442832 8.582189999999999
50.005172069746266 8.57445
50.02993150438364 8.5706
50.05450147301533 8.52824
50.07907390151433 8.48537
50.10364879174981 8.50698
50.12841816587289 8.49434
50.1529980044635 8.53248
50.17758031042124 8.44945
50.20216508562089 8.42104
50.22694442953363 8.41655
50.25153416817468 8.44088
50.27612638170508 8.387939999999999
50.300721072005196 8.40044
50.325510416102105 8.32915
50.350110084975064 8.33352
50.37471223628208 8.31478
50.39931687190919 8.318760000000001
50.424116246675766 8.3252
50.44872587605249 8.238389999999999
50.47333799543065 8.25578
50.49795260670191 8.26384
50.52276204271512 8.260689999999999
50.54738166295838 8.22673
50.57200378079314 8.21434
50.596628398116835 8.14145
50.62144792604559 8.175839999999999
50.646077567609396 8.19581
50.670709714377715 8.15385
50.69553683636198 8.12974
50.72017401885922 8.146410000000001
50.7448137122895 8.10701
50.76945591856022 8.08399
50.79429318636823 8.07975
50.818940443716784 8.07368
50.84359021965163 8.017330000000001
50.868242516085964 8.02035
50.893089960641895 8.003689999999999
50.917747323549435 7.980810000000001
50.94240721271973 7.9477899999999995
50.96706963007175 7.95688
50.99192728239342 7.94751
51.01659478166073 7.965
51.04126481489051 7.92535
51.06593738400761 7.903580000000001
51.090805275207074 7.87365
51.11548294172845 7.83582
51.14016314993547 7.861680000000001
51.164845901758845 7.8343300000000005
51.18972406304274 7.80214
51.21441192780656 7.78532
51.23910234200271 7.79559
51.2637953075678 7.78068
51.288683770237945 7.744560000000001
51.31338186432707 7.74797
51.33808251561888 7.706
51.362978729967345 7.72342
51.387684521509755 7.72115
51.41239287610203 7.68778
51.437103795691165 7.66829
51.46201036644977 7.6131899999999995
51.486726441956634 7.600210000000001
51.51144508832545 7.61295
51.536166307509156 7.5743100000000005
51.56108326624387 7.57845
51.58580965706056 7.54016
51.61053862657523 7.54285
51.635270176746864 7.53633
51.66019755512065 7.52658
51.68493429268881 7.4557899999999995
51.70967361681515 7.4976199999999995
51.73441552946465 7.49206
51.759353359237934 7.4576199999999995
51.7841004750961 7.449089999999999
51.80885018539685 7.44469
51.833602492111254 7.383780000000001
51.8585508051424 7.40463
51.883308330926425 7.376639999999999
51.90806845906181 7.384930000000001
51.932831191525715 7.3585
51.95779001977161 7.331
51.98255798721516 7.30748
52.00732856494335 7.275810000000001
52.03229530577543 7.3093
52.057071130455945 7.28397
52.081849571391054 7.25588
52.106630630568695 7.23723
52.13160794279417 7.183269999999999
52.15639426492067 7.2026
52.18118321127822 7.17053
52.205974783860896 7.151860000000001
52.23096269971011 7.17019
52.255759551287994 7.14003
52.280559035098186 7.1469
52.30536115314103 7.09622
52.33035970494467 7.11808
52.35516711807904 7.10532
52.37997717147198 7.09547
52.40478986713005 7.052739999999999
52.42979908731974 7.05333
52.454617094216 7.04272
52.47943774942214 6.9945699999999995
52.50426105495102 6.99377
52.529280976059844 6.987
52.554109609024096 6.97227
52.57894089837482 6.987
52.60377484613117 6.96082
52.62880550079408 6.93682
52.65364479223379 6.943060000000001
52.67848674816189 6.9097
52.70352547971946 6.910589999999999
52.72837279155837 6.88025
52.753222773982785 6.86877
52.778075429022984 6.8716800000000005
52.80312495150885 6.836060000000001
52.827982978797436 6.79219
52.85284368481815 6.79085
52.87770707160767 6.795489999999999
52.90276741793998 6.80174
52.92763619336701 6.7704
52.952507655698504 6.748710000000001
52.977381806977576 6.7648399999999995
53.00245301017842 6.71333
53.02733256653592 6.7191399999999994
53.052214817996074 6.6974100000000005
53.077099766608484 6.67097
53.102181859804446 6.67558
53.127072229988265 6.675839999999999
53.15196530349892 6.6386899999999995
53.17686108239249 6.6176699999999995
53.20195409881522 6.630489999999999
53.22685531582556 6.614910000000001
53.25175924441303 6.58569
53.27666588664027 6.5674
53.30176985962693 6.54986
53.3266819565689 6.48876
53.35159677336455 6.5452900000000005
53.376514312083096 6.51498
53.40162927507703 6.50145
53.42655228516116 6.5062
53.45147802340193 6.456230000000001
53.47660125628886 6.43743
53.50153247842639 6.42837
53.52646643496923 6.43341
53.55140312799818 6.42961
53.576537409691696 6.41365
53.60147960336152 6.38673
53.626424539786164 6.3786
53.65137222105307 6.35424
53.67651758529126 6.3314900000000005
53.70147078399681 6.29243
53.72642673383343 6.311030000000001
53.75138543689533 6.27985
53.776541917524526 6.25229
53.801506154876755 6.26777
53.826473151763246 6.2420800000000005
53.851442910284916 6.238659999999999
53.87661054126026 6.20909
53.9015858509782 6.20855
53.92656392866066 6.22265
53.95154477641532 6.22359
53.976723591801296 6.19152
54.00171000771266 6.19489
54.02669920004598 6.12973
54.051691170915745 6.12197
54.076881204886796 6.14492
54.101878760928514 6.14578
54.12687910187696 6.13388
54.152077577768296 6.09711
54.1770835166946 6.02568
54.20209224691339 6.08047
54.22710377055121 6.0292699999999995
54.25231352511594 6.02462
54.27733066384342 5.9955300000000005
54.30235060239643 5.98902
54.32737334290836 5.95826
54.35259441062629 5.928730000000001
54.377622783395324 5.96106
54.40265396455061 5.9219800000000005
54.42768795623251 5.87639
54.45292037169559 5.89687
54.477960012857906 5.8724300000000005
54.50300247099511 5.833469999999999
54.52804774825457 5.82715
54.55329154616743 5.83924
54.57834249018678 5.83026
54.6033962597977 5.7771300000000005
54.6284528571545 5.78808
54.653708072335164 5.72419
54.67877035378786 5.7177
54.70383546947698 5.672219999999999
54.72890342156389 5.72427
54.7541700889442 5.6580699999999995
54.77924374251975 5.60724
54.8043202390049 5.6455
54.82959552413022 5.581580000000001
54.8546777351945 5.57581
54.87976279569621 5.5625599999999995
54.90485070780914 5.56595
54.930137506558005 5.5319400000000005
54.95523115074295 5.52867
54.98032765308844 5.475219999999999
55.005427015775496 5.47642
55.03072536339621 5.45526
55.05583047570572 5.463419999999999
55.080938454927676 5.42537
55.10604930325027 5.46172
55.131359235107396 5.41009
55.15647585066083 5.26905
55.181595341907496 5.32562
55.20671771104285 5.30492
55.232039262617704 5.30145
55.25716741665048 5.26615
55.28229845518636 5.22501
55.30743238042802 5.1810599999999996
55.33276558731939 5.18118
55.357905315183636 5.15683
55.383047936390035 5.109319999999999
55.40819345314859 5.13959
55.433538351073295 5.1075099999999996
55.458689688238415 5.02876
55.483843927614096 5.06152
55.509197623043605 5.01837
55.53435769621134 5.00976
55.55952067826466 4.97235
55.5846865714265 4.93372
55.61005202069737 4.92309
55.63522376553902 4.9108
55.66039842818645 4.863659999999999
55.68557601087004 4.86768
55.7109532500271 4.853190000000001
55.73613670233794 4.87666
