TT I
1.2716486653135266 7.354889999999999
1.2939594142134223 6.47706
1.3162702121660406 6.680680000000001
1.3385810600174564 6.6953
1.3608919586137629 6.744260000000001
1.383202908801069 5.91251
1.405513911425503 6.32849
1.4278249673332093 6.0873800000000005
1.4501343378461518 6.2947
1.4724455028545926 6.18424
1.4947567236847858 5.92108
1.517068001182951 6.13546
1.5393793361953272 5.71876
1.5616907295681737 5.39304
1.5840021821477681 5.680540000000001
1.60631369478041 5.49648
1.6286252683124185 4.96295
1.6509369035901333 5.05772
1.6732468618895553 5.0353900000000005
1.695558623192809 4.710780000000001
1.7178704487808514 5.37459
1.7401823395001077 5.06299
1.7625012545597203 4.72001
1.7848028405262486 4.7608
1.8071218901122095 4.78351
1.8294236121921872 4.06191
1.8517427996910911 4.12001
1.8740620574440425 4.55031
1.8963639900671978 4.392180000000001
1.9186833908139995 4.32561
1.9409854680117449 4.72834
1.9633050151394713 5.21914
1.9856246367570705 4.49386
2.0079269371922672 5.15969
2.03024671027244 5.036969999999999
2.0525491637446027 4.38044
2.074869091674931 4.4389400000000006
2.097171701569106 4.572769999999999
2.1194917877373847 5.09859
2.141811954326636 4.29471
2.164114805233074 4.65589
2.186435135143035 5.4828
2.208738150935709 10.9963
2.231058647554722 20.6205
2.2533792288321184 15.6876
2.275682498336085 7.94465
2.298003251406138 5.18395
2.3203066942619714 5.51429
2.3426276225136022 5.07224
2.3649486396617507 5.7594
2.387252348930071 6.08063
2.4095735463442893 5.58007
2.4318774374315884 6.40318
2.4541988185014043 6.38246
2.476502894794693 6.655310000000001
2.498824462909887 6.86315
2.521146125856138 7.304939999999999
2.5434504863470337 6.74633
2.5657723414244717 7.24045
2.588076895590662 8.01014
2.610398946189713 8.53774
2.6327210958598384 7.9416899999999995
2.6550259469304716 7.21013
2.6773482972090137 7.679469999999999
2.6996533504259 7.5780899999999995
2.7219759047039602 8.164069999999999
2.744298562293959 7.83778
2.7666039251246595 7.799189999999999
2.7889267918020164 7.862010000000001
2.8112323652516555 7.85571
2.833555444408179 8.62982
2.8558786311183852 8.32818
2.8781845268938557 8.16831
2.9005079311721484 8.80317
2.9228140460410397 9.25376
2.9451376712799635 8.877
2.967444008632326 9.86655
2.9897678582247247 9.471039999999999
3.0120918213106695 10.074
3.0343984987899373 11.2219
3.0567226913198637 11.3603
3.079029599759726 11.6413
3.101354025127254 12.0109
3.123678568232338 12.8413
3.145985829517914 12.9118
3.16831061055229 13.4749
3.1906181112775593 14.8888
3.212943133635653 15.1974
3.2352682779763207 15.2535
3.2575761442691227 15.0229
3.2799015350264273 15.7778
3.302209649240067 16.3961
3.3245352898092655 16.4998
3.3468436553365257 17.4683
3.369169549113219 17.4797
3.3914955708171384 18.6214
3.413804319727358 18.9715
3.4361305997334863 19.0701
3.4584396084414553 19.2878
3.4807661501462652 20.0941
3.503092824025881 20.5375
3.5254022288463154 20.9843
3.5477291695206588 21.3777
3.5700388426251948 22.5874
3.5923660534916446 23.195999999999998
3.6146934007816114 33.5485
3.637003482731501 67.24
3.6593311053109985 73.7517
3.681641464033634 45.2046
3.7039693653009733 28.1863
3.726297407241705 25.2374
3.7486081875460804 25.1829
3.7709365132734978 25.8002
3.793247578841633 26.589000000000002
3.8155761917550093 26.7412
3.8378875459837216 26.921
3.8602164494827234 27.4877
3.882545499606844 28.0117
3.9048572932539183 28.4964
3.9271866390645718 28.7606
3.9494987298666713 29.3091
3.971828374764527 30.2522
3.9941581705403255 30.8878
4.016470713506008 30.9968
4.038800813471445 31.2248
4.061113662089144 32.2762
4.0834440696459176 33.0165
4.105774632334751 33.3382
4.128087945865126 34.6236
4.150418821249301 35.0451
4.172732448931298 36.0151
4.195063640413578 37.4762
4.2173775856475215 40.6952
4.239709096631102 62.7566
4.262040768704612 172.32299999999998
4.284355196706267 223.195
4.306687193387355 148.158
4.329001947444346 67.1492
4.35133427213731 45.9241
4.373666762177566 43.7149
4.395982011761091 44.1748
4.418314834921175 45.6598
4.44063041906622 51.0452
4.4629635787515625 57.6752
4.4852969080429785 57.9264
4.5076130004776225 52.2748
4.529946671403969 51.1657
4.552263106909177 52.2139
4.574597122877047 52.2662
4.596931312711224 52.7879
4.619248269273446 53.2453
4.6415828092605835 54.3294
4.663900117405352 55.5019
4.686235010953232 56.9695
4.708552674085913 58.2594
4.730887924602802 59.9364
4.753223354952695 61.2452
4.775541557023902 63.196000000000005
4.797877349456786 65.3943
4.820195915032126 66.8601
4.842532072957498 67.3335
4.864868414979744 69.3839
4.88718753227192 72.4026
4.909524244902505 74.0861
4.931843734218147 75.6339
4.954180820867835 77.988
4.976518095879839 81.22399999999999
4.998838149695359 83.2436
5.021175803844231 87.3302
5.043496238205739 90.8168
5.065834274903528 95.4586
5.088172504230693 100.34899999999999
5.1104935158799565 106.68799999999999
5.132832132875765 126.568
5.155153533596801 161.11700000000002
5.1774925416746225 200.829
5.199814334878411 399.315
5.2221537374521505 1095.72
5.244493338631803 3010.61
5.266815727034316 7864.88
5.289155727832427 12399.1
5.311478517248165 8666.83
5.333818921080011 2685.37
5.356159527788849 512.658
5.3784829252032536 184.541
5.400823940070432 144.599
5.423147747031976 128.16299999999998
5.445489173474152 118.785
5.467830807066149 114.575
5.490155234831516 111.20700000000001
5.512497285125229 107.24600000000001
5.534822130975162 104.67299999999999
5.557164601388673 101.978
5.579489868738879 99.1376
5.601832762690846 98.264
5.6241758697774475 97.2848
5.646501775867269 96.5145
5.668845311622074 95.3659
5.691171647754637 94.2437
5.713515615597765 93.485
5.735859800852677 92.82799999999999
5.758186788542988 92.4594
5.780531411018185 93.1339
5.802858837297399 92.6762
5.825203900414495 92.9997
5.8475491852224 94.0578
5.869877275883075 94.0068
5.892223006467101 94.2682
5.914551544266608 95.1693
5.936897724049891 98.0107
5.959244129804903 104.82600000000001
5.981573344815301 129.44899999999998
6.0039202049061 235.468
6.026249875609095 497.788
6.04859719346037 1013.58
6.070927323278297 2265.44
6.093275102315365 4548.73
6.115623113320588 5170.59
6.137953938319995 3152.18
6.160302415650845 931.1089999999999
6.182633708324452 220.91
6.2049826554078376 111.221
6.227331838745022 91.6054
6.249663839443684 84.1784
6.27201349767565 81.5795
6.294345974611799 85.2768
6.316696111167083 91.7953
6.339046488263839 87.3324
6.361379686074702 76.8932
6.383730546639482 71.563
6.406064229255215 68.9289
6.428415576718203 68.771
6.450749747566656 67.2991
6.47310158535871 66.1567
6.495453669698332 65.5042
6.517788579421056 64.5405
6.540141159237969 63.6328
6.562476565766648 62.8554
6.5848296444934045 62.4371
6.607182974060425 62.3741
6.6295191323281015 62.265
6.651872965955752 64.2928
6.6742096296068985 81.898
6.6965639707294615 112.18299999999999
6.71891856698715 112.085
6.741255995248479 81.8911
6.763611104154477 64.4161
6.785949046381137 59.3242
6.808304671371482 58.538000000000004
6.8306605557940046 58.3851
6.852999275508618 57.4655
6.875355681171544 56.8324
6.897694923437771 56.2762
6.92005185377892 56.3193
6.9423916220322655 56.1605
6.964749080490181 55.6756
6.987106804399774 55.7832
7.009447368180821 55.6206
7.031805625367033 55.4742
7.054146723727803 55.2445
7.076505517631004 55.1229
7.098864581288365 55.104
7.121206488070854 54.8603
7.143566093607822 54.7149
7.165908543567245 55.2518
7.188268694426048 54.8889
7.2106291193438095 54.9741
7.232972390625943 55.9226
7.255333366030969 64.7073
7.277677189091925 101.64399999999999
7.300038718428332 132.08700000000002
7.322400526130865 113.706
7.344745183422596 77.0918
7.367107550224791 58.9588
7.389452767901992 55.5028
7.411815697249891 54.9321
7.434161478756298 54.1292
7.456524974096713 54.0991
7.478888753837185 53.9401
7.501235387657368 54.3156
7.523599738562711 54.5181
7.545946944825532 54.8978
7.568311870344528 55.1213
7.5906770845765665 55.3349
7.613025156078678 55.9787
7.635390950099687 57.1628
7.657739602662809 56.5078
7.680105979923558 56.1876
7.702472650212829 56.0482
7.724822180948224 55.9217
7.747189439655568 56.1082
7.769539560075357 56.2438
7.791907410653562 56.4508
7.81425812420825 56.2285
7.836626570110925 56.692
7.858995315087906 57.3092
7.881346924933401 57.3093
7.903716270417482 58.0784
7.926068482028405 58.3955
7.948438431475253 59.1942
7.9708086843180235 59.5157
7.993161805171116 60.2396
8.015532667162402 60.6961
8.037886398416653 61.8452
8.060257873014221 62.1101
8.082629655331942 62.7096
8.104984308787587 63.8475
8.127356708900503 66.4936
8.149711981398308 70.7911
8.172085002766314 72.6633
8.194458336181368 70.4954
8.216814543847752 69.0949
8.23918850371002 69.8678
8.26154533906492 70.4306
8.283919928836452 72.1253
8.306277395339652 73.2181
8.328652618483376 74.1466
8.351028159736202 76.1332
8.373386579575245 78.7088
8.395762759396959 80.5473
8.418121819038275 85.2476
8.440498640894003 95.6243
8.462875785192262 107.83200000000001
8.485235811156207 127.421
8.507613602688501 180.765
8.529974277114228 271.903
8.552352719347912 409.19599999999997
8.574731488360351 684.132
8.59709314210385 1237.48
8.619472567021075 1928.55
8.64183487789147 2233.91
8.664214962183097 1762.74
8.686577933647762 891.6210000000001
8.708958680784317 347.296
8.731339760774953 153.47899999999998
8.753703729764451 108.456
8.77608547780821 98.2667
8.798450116065078 94.8563
8.820832535634787 92.12799999999999
8.843215292401656 91.5839
8.865580941199045 90.0601
8.887964374703538 88.7445
8.910330701447199 89.5397
8.932714815164482 90.3931
8.955099270424924 89.3122
8.977466620733543 86.7658
8.999851761421976 84.4271
9.022219798361645 83.4283
9.04460562795561 83.3624
9.066991803441677 82.8088
9.089360876979615 83.0292
9.111747746589993 82.9552
9.13411751544971 82.3997
9.156505082664324 81.9684
9.178875550323522 82.0534
9.20126381862328 82.1192
9.223652438908596 82.4857
9.246023961427412 82.5665
9.26841328802173 82.1271
9.290785518039224 81.9321
9.313175554425882 82.9889
9.335565947154315 82.9994
9.357939245086508 83.3298
9.380330352834827 83.5325
9.40270436697103 83.8431
9.425096193225055 83.8457
9.447488380180165 84.6968
9.469863475295412 84.116
9.492256385987508 84.3719
9.514632206018318 85.3028
9.537025843935714 85.3873
9.559402392368193 86.3815
9.581796761000229 87.6885
9.604191496441521 88.7747
9.626569144158516 91.8875
9.648964615551032 94.67399999999999
9.671343000390081 95.7451
9.693739211225699 94.3397
9.716135793237463 93.2288
9.738515290448102 93.1235
9.760912617143402 94.38
9.783292860202891 95.8722
9.805690935076182 97.0695
9.828089385495742 98.1381
9.850470754023561 100.485
9.872869957865444 105.889
9.89525208097539 116.99600000000001
9.917652041736662 126.831
9.940052382417589 131.41899999999998
9.962435644102392 148.513
9.984836746950979 192.572
10.007220771957746 258.534
10.029622640473708 364.901
10.052007432299963 544.503
10.074410069984072 847.505
10.096813093716005 1299.44
10.119199042482517 1796.08
10.141602840636468 2015.38
10.163989564971628 1563.58
10.186394141051062 846.575
10.208799107559706 367.298
10.231187001965623 175.063
10.253592751657669 122.74700000000001
10.275981430388155 112.037
10.298387966769793 110.85799999999999
10.320794897965431 112.05799999999999
10.343184759907361 110.33
10.36559248305461 106.65700000000001
10.387983138083852 104.914
10.410391656691655 110.223
10.432800574501677 122.777
10.455192425893369 140.571
10.47760214443012 165.80599999999998
10.499994797678786 212.65599999999998
10.522405320453982 292.698
10.54479877906917 410.033
10.567210109595656 510.92400000000004
10.5896218454736 564.283
10.612016518879773 498.798
10.634429067781074 335.086
10.656824555333241 193.253
10.679237920773568 120.014
10.701651695961992 94.7279
10.724048411481384 88.6221
10.746463008485165 86.4219
10.768860546937125 84.6539
10.791275969274796 83.0278
10.81369180576079 82.0224
10.836090585366925 80.8759
10.858507252467449 79.4867
10.88090686379991 78.4784
10.903324365036394 77.9924
10.925724811614439 77.6224
10.948143150509463 78.4035
10.970561909719066 77.8439
10.992963615930844 76.3341
11.015383218085756 74.4939
11.037785768347074 73.2284
11.06020621697282 72.4762
11.082627090322113 72.1545
11.105030913430326 71.5501
11.12745263854165 72.0013
11.149857314510728 74.1965
11.172279894912576 77.5881
11.194702904450653 77.8659
11.217108866490921 74.8443
11.239532736615194 71.7869
11.26193956033512 70.2852
11.284364294577085 69.2217
11.306789462371718 67.4711
11.329197585398376 66.8971
11.351623622610898 66.8505
11.37403261614354 66.14
11.396459526308487 65.9424
11.418869393879497 65.4281
11.441297180532617 65.0576
11.463725406927658 64.583
11.486136592353875 64.6206
11.508565700543707 64.8352
11.530977768845315 66.1921
11.553407762368774 66.4376
11.575838200059769 66.1638
11.598251599479612 64.6625
11.620682927815501 63.4935
11.64309721895548 63.2772
11.665529441478206 62.9659
11.687962112597958 62.7764
11.710377748130886 62.9066
11.732811318753434 62.6975
11.755227854859067 62.6969
11.777662328529495 62.403
11.800079768750786 62.3251
11.822515149015453 62.3167
11.844950984084935 62.9001
11.867369787303163 62.2439
11.889806534289491 62.2331
11.912226250487029 62.7685
11.934663912939751 62.9187
11.9571020346363 62.8904
11.979523127133968 63.0449
12.001962169624331 64.1306
12.024384183972964 65.4217
12.046824150809913 68.844
12.069264581333726 73.71300000000001
12.091687985297767 79.6168
12.11412934550045 89.0553
12.136553680195208 104.611
12.158995973632788 127.057
12.181438735204349 154.01
12.20386447284199 182.78
12.226308172985636 203.729
12.24873485024193 197.632
12.271179492516982 160.102
12.293607112949127 121.891
12.316052700916226 89.9734
12.338498763250042 74.75399999999999
12.360927805303868 68.1719
12.383374818673879 65.6788
12.405804812803074 63.9722
12.428252780773262 64.0982
12.45070122756722 63.9523
12.473132656675375 63.9162
12.49558206341869 64.1087
12.518014453510101 64.223
12.540464823770117 64.3799
12.562915677315177 64.675
12.58534951575545 65.4511
12.607801338171472 66.6185
12.630236146511358 70.0557
12.652688941369085 73.2419
12.675124723177234 73.8907
12.697578494048786 71.6542
12.720032754458185 68.612
12.742470003354093 67.4753
12.764925245138771 67.7988
12.787363476431278 68.0521
12.809819703166806 68.37899999999999
12.83227642391173 69.0107
12.854716135692716 69.8032
12.877173846755147 70.6999
12.899614549869717 70.8428
12.9220732548287 71.8943
12.94453245827299 72.4266
12.966974655289818 73.4366
12.989434858002571 74.3186
13.011878055298721 75.0368
13.034339260862497 75.9225
13.056800969391883 77.399
13.079245674017244 79.6352
13.101708390774869 82.8654
13.12415410463411 91.4851
13.146617833206086 103.31
13.169064559883248 114.65700000000001
13.191529303857127 129.031
13.213994557076367 152.934
13.236442809902437 190.864
13.258909083908291 248.653
13.28135835851934 315.847
13.30382565690295 379.088
13.326293469022952 432.4
13.348744283242008 419.66
13.371213125129904 346.093
13.39366497011003 251.138
13.416134845360597 165.273
13.438605238843131 120.28
13.46105863690397 106.31200000000001
13.483530069144786 108.03
13.505984506951902 113.37200000000001
13.528456981549432 123.096
13.550929978879088 138.41899999999998
13.573385983253365 163.317
13.595860028340867 203.653
13.618317081455832 255.127
13.64079217790333 313.63
13.663250283359057 356.423
13.685726434770173 372.336
13.708203115221277 326.811
13.730662806148091 246.24900000000002
13.75314054697177 170.335
13.775601299246777 119.506
13.798080104050406 93.2905
13.820559442405358 84.3561
13.843021793671388 81.3939
13.865502201420897 79.8977
13.887965623051947 79.2785
13.910447103807167 78.2871
13.932929122629764 77.027
13.955394156785959 76.5792
13.977877254034569 75.7322
14.000343367582113 74.8463
14.022827546871707 74.1836
14.045294743423524 73.6399
14.06778000837062 72.6931
14.090265817715476 72.604
14.112734645763819 72.332
14.13522154619454 71.9981
14.157691466286913 72.1999
14.180179461423874 71.7823
14.202668005486178 71.2773
14.22513957064374 70.6111
14.247629214846473 70.3682
14.270101881097517 70.2142
14.29259262906496 70.2388
14.315083930490205 70.8007
14.337558255389705 70.7601
14.360050666019726 70.6868
14.382526101071944 69.8015
14.405019624534942 69.086
14.427513705993134 68.6393
14.449990813291825 68.7975
14.47248601302899 68.5513
14.49496423954951 68.6942
14.517460561197822 68.6457
14.539939910570322 68.524
14.562437357763558 68.8883
14.58493536931253 69.9177
14.607416409993311 70.3448
14.62991555254159 70.9021
14.652397725157423 70.8857
14.674898002342799 70.5129
14.697398848433282 70.5668
14.719882725991326 71.8135
14.74238471217934 73.0528
14.764869730765593 76.6904
14.787372860692983 80.2188
14.809876564079925 84.6392
14.83236330125751 90.367
14.854868153850365 99.2155
14.877356041159485 113.273
14.899862046604186 132.509
14.922351087688757 158.174
14.944858249632887 189.24
14.967365991421232 213.017
14.989856770231246 227.143
15.012365673994204 216.40400000000002
15.03485761569738 183.985
15.05736768508665 140.691
15.07987833888692 108.48700000000001
15.102372032001655 86.9061
15.124883856909658 75.5096
15.14737872204565 71.7416
15.169891721717274 69.9912
15.192405310371893 70.2032
15.214901940621196 70.2334
15.237416709527137 70.016
15.259914520936249 70.0328
15.282430473753607 69.2977
15.304947020131227 68.5141
15.327446610371178 67.7846
15.349964346154254 67.2143
15.372465126703139 66.5846
15.394984055556009 66.4306
15.417486030076159 66.4769
15.44000615566487 66.1824
15.462526881230803 65.8312
15.485030653812652 66.066
15.507552581617434 65.9131
15.530057557334603 65.9721
15.55258069104857 66.1699
15.575104429329837 66.32300000000001
15.597611216864632 66.0225
15.620136166564563 66.1235
15.6426441664095 67.5467
15.665170331202765 70.4313
15.687697105158826 73.4745
15.710206930593545 76.6953
15.732734925158933 80.7462
15.755245972089478 87.3338
15.77777519094324 96.5657
15.800287463046663 109.87
15.822817909869592 129.376
15.84534897229804 150.599
15.867863089299354 175.375
15.890395385222186 190.21900000000002
15.912910736597423 194.801
15.935444269699861 177.511
15.957978423016485 150.961
15.980495633101265 116.962
16.003031029129367 91.7954
16.02554948280019 74.5845
16.048086125229432 66.4696
16.070623392487107 64.3513
16.09314371869582 63.4858
16.11568223789321 62.6398
16.13820381691126 61.9426
16.160743591742527 60.8624
16.183283996022084 60.2926
16.205807461423195 59.2362
16.228349126881973 58.6062
16.25087385432698 58.6525
16.27341678466365 58.1995
16.29594277784926 58.1798
16.31848697676433 58.0309
16.341031811604868 58.1987
16.36355971058487 58.3346
16.3861058195587 58.0325
16.40863499352978 57.1346
16.431182380342005 56.5175
16.453730407713202 56.0276
16.476261501364792 55.6806
16.498810812136167 55.3975
16.52134319004079 55.4513
16.54389378792203 55.2056
16.566445031001553 55.01
16.588979342490088 55.1931
16.61153187824822 54.9901
16.634067483263312 54.8166
16.656621315414416 54.6121
16.679175797408888 54.1838
16.701713349928728 54.4268
16.72426913389191 54.758
16.74680798922351 54.7469
16.76936507887444 54.7841
16.791905240734874 54.9179
16.814463639794468 54.7218
16.837022695210294 54.6531
16.859564824093756 54.9038
16.882125194503903 55.4487
16.904668639217885 55.6824
16.927230328348003 55.8069
16.949792678493612 56.1675
16.972338104193863 55.7347
16.994901778652235 55.4121
17.017448529496576 55.3227
17.040013531998152 55.8321
17.06257920018044 56.3961
17.0851279459922 57.207
17.107694947817667 57.9673
17.130245028099072 58.6725
17.15281336730298 60.1728
17.17536478578733 61.7954
17.19793446610687 64.148
17.220504818648422 67.3727
17.243058251703697 70.6354
17.265629950971032 75.2678
17.288184731571736 79.3052
17.310757781306908 83.3971
17.33333150794385 83.7141
17.355888317140174 81.7212
17.37846339986244 75.7885
17.401021565958885 69.883
17.42359800851343 64.727
17.44617513265564 61.2562
17.468735341390783 59.7156
17.491261035594565 58.9516
17.51396340099364 58.93
17.536490463869136 59.0716
17.559018209820174 58.9159
17.58154663977963 59.2219
17.604251766089718 59.3342
17.626781572227713 59.4762
17.64931206518155 59.83
17.671843245885103 60.3664
17.69455114821572 60.443000000000005
17.717083712612634 60.7703
17.739616967569667 61.0641
17.762150914021706 61.2856
17.78486160749854 61.2351
17.807396945166804 62.0785
17.829932977143503 63.3994
17.85246970436452 65.0859
17.875183204129467 66.7911
17.897721330097664 68.6324
17.920260154126645 71.0733
17.942799677153296 74.4719
17.9655159983646 78.3107
17.988056927677544 83.9833
18.010598558807683 91.7552
18.033140892692916 102.01
18.05586005052525 113.145
18.07840379824407 124.61200000000001
18.10094825154059 135.05700000000002
18.12366954819864 142.595
18.146215420998306 140.315
18.16876200220057 130.666
18.191309292745153 115.29
18.214033452627167 101.116
18.236582170236648 90.2674
18.259131600016456 85.8052
18.281681742907335 86.9782
18.304408781233683 91.3637
18.32696035875955 96.5046
18.349512652227624 101.098
18.372065662579683 104.891
18.394795594587553 105.794
18.41735004715306 101.29
18.43990521943684 94.4674
18.46246111238171 84.8403
18.485193953325208 75.5907
18.507751296070428 69.0506
18.530309362314178 65.00399999999999
18.552868153000343 63.0723
18.57560391815056 61.9562
18.59816416623245 61.5708
18.620725141597372 60.9398
18.643286845190268 60.4784
18.666025549835414 60.3206
18.688588718427933 59.5494
18.711152618092243 59.5164
18.73389353884365 59.3218
18.75645890921984 58.7017
18.77902501351406 58.5734
18.801591852673102 58.5926
18.824335739722738 57.8903
18.846904057212626 57.7959
18.8694731124168 57.5537
18.89204290628315 57.5366
18.914789774966803 57.3606
18.937361054791623 57.1332
18.959933076131318 57.0934
18.982505839934877 57.0123
19.00525570560582 56.9699
19.027829963004184 56.8158
19.05040496572238 56.873999999999995
19.072980714710468 57.0877
19.095733592739563 57.3363
19.11831084296757 57.5313
19.140888842324735 57.898999999999994
19.16346759176222 58.0476
19.18622349753803 58.628
19.208803755869358 59.4896
19.231384767143577 60.604
19.253966532312948 62.3321
19.276725481241822 64.5201
19.29930876296784 66.9638
19.3218928014549 70.3623
19.34465404436217 73.314
19.36723960516257 75.6071
19.389825925592426 76.2706
19.412413006605938 74.8394
19.43517731967805 71.3957
19.457765930683355 66.6818
19.48035530514408 62.1969
19.50294544401556 58.7797
19.525712842708348 56.2084
19.54830451925909 55.0684
19.570896963095727 54.0529
19.593490175174704 53.8592
19.616260674962184 53.8802
19.638855432416964 53.6254
19.661450960992624 53.6036
19.68404726164677 53.5958
19.706820878021247 53.1814
19.729418731756834 53.4153
19.752017360452857 53.2495
19.77461676506804 53.5333
19.797393513540218 53.7937
19.819994478951667 54.0813
19.84259622316767 54.4038
19.8651987471481 54.8183
19.887978643247177 55.0542
19.91058273574792 55.3421
19.933187610901943 56.3168
19.955969879466828 57.68899999999999
19.97857632894404 59.1271
20.00118356396599 60.8133
20.023791585494575 63.0316
20.046577028914875 65.7104
20.069186632506966 67.9369
20.091797025500632 69.3451
20.114408208858933 69.8705
20.137196842715273 69.4609
20.159809615886765 67.6775
20.18242318232135 64.9712
20.20503754298326 62.9985
20.227829382875154 62.0519
20.250445341109344 61.9559
20.27306209647285 62.7376
20.29567964993108 64.1247
20.31847471147704 64.9981
20.34109387027612 65.486
20.363713830075454 64.8504
20.386334591841646 63.207
20.409132890679302 60.6975
20.431755265564437 57.4721
20.454378445325528 54.85
20.477002430930366 52.9477
20.499803982716553 51.9613
20.522429589228004 51.2469
20.54505600449589 50.7314
20.567683229489194 50.6845
20.590488049900088 50.461000000000006
20.61311690359731 50.0308
20.63574656993626 49.8194
20.658553853717297 49.5253
20.681185154618298 49.5277
20.703817271080066 49.4814
20.72645020407368 49.0214
20.749260783967177 49.0294
20.771895359337133 48.9226
20.794530754161617 48.7253
20.817166969412938 48.8045
20.83998086114876 48.8782
20.86261872660049 48.8139
20.885257415405402 48.4796
20.90789692853701 48.4043
20.930714147864748 48.4615
20.953355319030678 48.4874
20.97599731745334 48.7458
20.99864014410749 48.5152
21.021460706796564 48.6206
21.044105199328826 48.8358
21.06675052302631 48.8819
21.089396678865015 48.9927
21.112220600704806 49.4405
21.134868430275347 49.9599
21.15751709492456 50.1105
21.180166595629693 50.2891
21.202993892429635 50.9845
21.22564507473034 51.2076
21.24829709602816 51.3492
21.27112693608965 51.2742
21.293780644891275 51.472
21.316435195634053 50.7068
21.339090589297417 49.9111
21.361923832041875 49.3178
21.384580921090404 48.7969
21.407238856007325 48.3434
21.429897637773326 48.3106
21.45273429906592 48.2853
21.475394784108598 48.2056
21.498056118951983 48.2405
21.520718304578022 48.5568
21.543558400304388 48.742
21.566222297108816 48.9482
21.58888704765135 48.9511
21.61155265291521 49.4085
21.63439619898156 49.8265
21.657063523335786 50.053999999999995
21.67973170537063 50.4438
21.7024007460706 50.7964
21.72524775840385 51.7706
21.747918526116475 52.9366
21.770590155457388 54.0959
21.79326264741238 55.7342
21.816113141960237 57.6351
21.838787368860547 59.518
21.861462461341976 61.2677
21.884315579735777 63.0814
21.90699241312273 64.2431
21.92967011506078 64.7258
21.95234868653799 64.3071
21.9752053151131 62.8438
21.997885635446785 60.848
22.020566828293532 59.0624
22.04324889464272 57.3723
22.066109049404666 56.3504
22.088792872571794 55.8962
22.111477572219204 56.091
22.1341631493376 56.1611
22.157026846313123 56.0938
22.179714188221507 55.1681
22.202402410582668 53.8901
22.22509151438863 52.2427
22.24795876962584 51.143
22.270649646204486 50.1893
22.293341407213727 49.6326
22.316034053646906 49.1386
22.338904883215342 48.8717
22.36159931041458 48.9757
22.38429462602756 48.845
22.40699083104897 48.6849
22.429865251039757 48.6162
22.452563244831367 48.6884
22.47526213102522 48.721000000000004
22.49813925616515 48.7242
22.520839937143307 48.5174
22.543541513520587 48.6884
22.56624398629403 48.4542
22.589124730075895 48.3048
22.611829005656723 48.4653
22.63453418063466 48.7553
22.657240256008077 48.8093
22.680124634582935 48.9889
22.70283252079775 49.4721
22.725541310413075 49.6346
22.74825100442868 49.876999999999995
22.771139033969575 50.2852
22.79385054687155 50.4955
22.81656296718292 51.1875
22.83927629590484 52.1664
22.862167992606945 53.2438
22.88488314827121 54.2933
22.907599215359284 55.244
22.93031619487366 56.3152
22.953211574954405 57.1779
22.975930389478226 57.8907
22.998650119445763 58.1424
23.02137076586092 57.1656
23.044269845560063 55.7974
23.06699233506288 54.1138
23.089715744034912 52.3803
23.112617610931565 50.9045
23.135342869061212 49.9068
23.158069049684816 49.2586
23.1807961538087 48.5175
23.20370174880544 48.702
23.226430710184808 48.7275
23.249160598093425 48.7909
23.271891413539002 48.7852
23.294800752937697 48.7494
23.31753343374794 48.965
23.340267045128353 48.9692
23.36300158808808 49.4145
23.38591468821339 49.8363
23.408651104658304 50.3931
23.431388455719986 50.9371
23.454126742409 51.7409
23.4770436196085 52.8183
23.499783787914662 54.1079
23.522524894889884 55.1626
23.54526694154616 56.2525
23.56818761219047 57.2472
23.59093154860734 57.6824
23.613676427751283 57.6569
23.636422250635754 56.6049
23.659346731118656 54.9562
23.68209445191868 53.0526
23.704843119509587 51.0474
23.72759273490623 49.2577
23.750521041644767 47.7813
23.77327256312355 46.9248
23.796025035462787 46.4415
23.818956224555475 45.8907
23.841710609113413 45.9697
23.86446594758979 45.8204
23.887222241002014 45.2836
23.910157285144578 45.1401
23.932915498962537 45.232
23.955674670778713 44.9673
23.978434801611975 44.6961
24.001373717286125 44.5404
24.024135776723917 44.5186
24.046898798245582 44.3761
24.06966278287146 44.3124
24.092605586582614 44.1833
24.115371508023642 44.0402
24.1381383956401 43.9658
24.16090625045381 43.9381
24.183852958731244 43.8969
24.206622758582608 43.6304
24.229393528706886 43.5477
24.252165270127392 43.573
24.27511589952438 43.6962
24.297889594216997 43.4801
24.32066426328598 43.3056
24.34343990775613 43.3672
24.36639447485003 43.1956
24.38917208083877 43.0148
24.41195066531332 42.9579
24.43490819850244 43.0232
24.457688750692377 42.9827
24.48047028445616 42.9186
24.503252800821233 43.0618
24.526214300784112 43.0813
24.548998793132213 43.0208
24.57178427117417 42.8711
24.59457073593893 42.9242
24.617536219319863 42.8042
24.64032466834748 42.8503
24.663114107195035 42.7062
24.685904536893013 42.4123
24.708874020360852 42.4117
24.731666442613744 42.3485
24.754459858818787 42.2836
24.777254270007962 42.2255
24.80022777025625 42.0873
24.82302418230472 42.1146
24.845821592443674 42.2897
24.86862000170663 42.2177
24.891597535453727 42.0693
24.914397953892728 42.1296
24.93719937456671 42.0617
24.96000179851076 42.3377
24.98298338249997 42.6123
25.00578782394922 42.898999999999994
25.028593271784167 42.9911
25.05157790644186 43.3195
25.07438537804115 43.4158
25.097193859145293 43.6493
25.120003350792075 43.5825
25.142992065061257 44.1885
25.165803588823465 44.4827
25.18861612625217 44.6841
25.211429678386736 44.6654
25.234422489079968 44.7215
25.257238081693636 44.8134
25.280054692141732 44.9041
25.3028723214652 44.8461
25.325869245420463 44.9067
25.348688923599397 44.728
25.371509623787006 44.9514
25.394331347025812 44.4571
25.41733240110666 44.0003
25.440156181590016 43.3343
25.46298098826268 42.832
25.48580682216873 42.2743
25.50881202326435 41.7028
25.53163992281684 41.4361
25.55446885274561 41.0586
25.577298814096377 40.8036
25.600308179121807 40.6759
25.623140214533745 40.7926
25.64597328451537 40.7381
25.66898578564376 40.4646
25.691820936010206 40.5159
25.714657124097695 40.4472
25.737494350954734 40.4439
25.760511045684957 40.3763
25.783350361364224 40.4971
25.806190718969255 40.4531
25.82903211955018 40.5128
25.852053024868923 40.5126
25.874896522722523 40.4946
25.897741066713106 40.4895
25.920586657892454 40.7343
25.943611790812668 40.8054
25.966459487728237 41.06
25.989308234998564 40.9709
26.01215803367705 41.3597
26.03518741123814 41.4186
26.05803932412957 41.5131
26.080892291600094 41.5764
26.10374631470478 41.5315
26.12677995397268 41.6854
26.14963609978026 41.5816
26.172493304397875 41.2569
26.19535156888223 41.0822
26.218389486949604 40.6627
26.241249882640123 40.4371
26.26411134137826 40.2767
26.28715248187403 40.2594
26.31001607820869 39.9749
26.3328807407756 39.9204
26.35574647063438 40.1519
26.37879191991473 39.9805
26.401659795896734 39.9789
26.424528742360263 40.3118
26.447398760366614 40.4064
26.470448535598294 40.5925
26.49332070826805 40.839
26.516193955675355 41.1566
26.53906827888316 41.2078
26.562122397260108 41.5694
26.584998883685063 41.7342
26.607876449110325 42.027
26.63075509460056 42.051
26.65381357334404 42.1753
26.67669439061878 42.1781
26.699576291163382 42.1165
26.722459276044212 41.79
26.745522132402975 41.5857
26.768407297649354 41.3281
26.791293550442003 40.9827
26.814180891848974 40.7902
26.837248143099337 40.5089
26.860137673466657 40.4109
26.88302829566349 40.1246
26.90592001075963 39.9849
26.92899167420566 39.8346
26.951885586870763 39.3387
26.974780595655517 39.178000000000004
26.99785558178161 39.0932
27.020752794605112 38.9823
27.043651106772522 38.8052
27.06655051935668 38.8018
27.089629948036183 38.6842
27.112531573292053 38.66
27.135434302194138 38.6876
27.158338135817015 38.5236
27.181422024430987 38.5814
27.204328079372566 38.5109
27.22723524226965 38.5331
27.250143514198573 38.6639
27.273231880156334 38.4498
27.296142382065014 38.3468
27.319053996245536 38.2498
27.341966723775965 38.3607
27.365059584515222 38.4223
27.38797455070062 38.4176
27.410890633481237 38.2645
27.433807833936918 38.4104
27.456905206923906 38.6234
27.47982465472398 38.5007
27.502745223449743 38.5129
27.525666914182825 38.5819
27.548768816912457 38.5776
27.571692763693633 38.3592
27.59461783573812 38.2947
27.617723149491244 38.0403
27.640650484125285 38.0701
27.66357894728264 37.9589
27.686508540048052 37.9735
27.709618414237887 37.9194
27.732550278321757 37.7577
27.755483275279115 37.7515
27.778417406196485 37.9682
27.801531858397514 37.9337
27.824468269376716 37.9232
27.847405817586786 37.7243
27.870344504116094 37.9804
27.893463551932008 38.198
27.916404527281053 38.2016
27.93934664422563 38.3432
27.962289903855886 38.5086
27.98541356491974 38.6341
28.00835912214229 38.760999999999996
28.03130582533231 39.0231
28.054253675581805 39.0853
28.077381967556104 39.0866
28.100332124185126 38.9661
28.123283431160893 38.9025
28.146235889577238 38.7419
28.169368830154156 38.6035
28.192323603752033 38.4614
28.215279532083304 38.024
28.238415973016764 37.9599
28.261374223145094 37.891999999999996
28.284333631303806 37.5853
28.307294198589954 37.3283
28.330435319167677 36.9591
28.353398217078915 36.773
28.376362277420153 36.6611
28.39932750129032 36.5066
28.422473319286713 36.3894
28.44544088262495 36.3687
28.468409612800283 36.1406
28.491379510913497 35.9725
28.51453004413313 35.8692
28.53750229057244 35.874
28.56047570826344 35.8442
28.583450298308804 35.8871
28.606605564586562 35.5636
28.629582511831156 35.6564
28.65256063474956 35.5915
28.675539934446338 35.5525
28.698699951647605 35.5868
28.72168161743193 35.5135
28.74466446331978 35.5059
28.767648490417624 35.4203
28.790813276438353 35.4251
28.813799678527303 35.4672
28.836787265157085 35.3566
28.859955641890075 35.4449
28.882945610203045 35.3732
28.905936766392035 35.1759
28.928929111566863 35.3017
28.952102288520145 35.3233
28.975097024308607 35.0995
28.998092952423807 34.872
29.021090073977508 34.8287
29.04426806913204 34.7606
29.067267590245258 34.6355
29.090268308143695 34.4375
29.11327022394099 34.3841
29.13645305530891 34.4089
29.159457379627167 34.3553
29.18246290519685 34.3126
29.20546963313352 34.2579
29.22865731875826 34.3075
29.25166646419296 34.3618
29.27467681535305 34.2135
29.29768837335608 34.3765
29.320880931312562 34.2859
29.34389491580634 34.181
29.366910110507334 34.2299
29.38992651653503 34.2552
29.41312396492981 34.2146
29.436142806456754 34.0718
29.45916286268059 34.0398
29.48236399319994 34.0012
29.50538649169417 33.7592
29.528410208259935 33.6525
29.55143514402014 33.4245
29.574641196749695 33.3313
29.597668583816574 33.2542
29.6206971934585 33.1778
29.64372702680042 33.1006
29.666938019934474 33.0083
29.689970313635285 33.0201
29.713003834422636 32.899
29.73603858342347 32.845
29.759254535188578 32.84
29.78229175361658 32.7287
29.80533020365064 32.8375
29.82836988641968 32.8789
29.85159081507472 32.723
29.874632976355343 32.5807
29.89767637376955 32.6152
29.920721008448314 32.5318
29.9439469322847 32.5935
29.96699405457564 32.5343
29.9900424175358 32.468
30.013092022298157 32.4567
30.03632295963995 32.4127
30.059375061131373 32.4864
30.08242840783577 32.3918
30.105483000888153 32.5005
30.128718970092244 32.5318
30.151776069006917 32.355
30.17483441768648 32.3579
30.198074175317235 32.4195
30.221135036724256 32.2773
30.24419715131772 32.3025
30.267260520236203 32.2989
30.290505341942243 32.3437
30.313571232750228 32.4252
30.336638381310948 32.2973
30.35970678876503 32.1685
30.38295669299435 32.16
30.40602763151657 32.134
30.429099832366074 32.0705
30.452173296685572 32.0467
30.47542830191959 32.0807
30.498504306502497 32.0072
30.521581577995562 32.0294
30.544660117543582 32.2258
30.56792024229725 32.2481
30.59100133132069 32.1211
30.614083691845494 32.1176
30.637167325018545 32.1718
30.660432587840603 32.2285
30.683518779717886 32.1736
30.70660624769615 32.2243
30.729694992924372 32.2548
30.75296541239743 32.217
30.77605672557558 32.1412
30.799149319462742 32.1702
30.8224236211637 31.9811
30.845518789950724 31.8623
30.868615242910597 31.7707
30.891712981195973 31.6578
30.91499247215866 31.5422
30.938092794619365 31.5793
30.96119440587579 31.4972
30.984297307082752 31.3464
31.00758200598383 31.3412
31.030687500658694 31.2043
31.053794288760695 31.1955
31.076902371446767 31.0358
31.100192296997445 31.0581
31.12330298246119 31.0336
31.14641496599209 31.0006
31.169528248749216 30.964000000000002
31.19282341969534 30.9285
31.215939314557186 30.9675
31.239056512134788 31.0113
31.262175013589378 30.8765
31.28547544871168 30.7975
31.30859657161541 30.7754
31.331719001892175 30.8308
31.35484274070538 30.8783
31.378148458819545 30.9264
31.401274828443725 30.8338
31.424402510106933 30.9495
31.447712205419993 30.9899
31.470842524931633 30.8424
31.493974159989783 30.7467
31.51710711176168 30.7006
31.54042212308802 30.7733
31.563557722100917 30.7808
31.586694641341655 30.5835
31.609832881979628 30.4775
31.63315322823208 30.519000000000002
31.656294125521327 30.3939
31.679436347728515 30.2709
31.70257989602529 30.2243
31.725905596152327 30.142
31.74905181052835 30.0138
31.772199354521323 30.1462
31.79534822930507 30.1327
31.818679302290967 30.1036
31.84183085259981 30.1399
31.864983737233473 30.0584
31.88813795736804 30.1035
31.911474422233013 30.0617
31.934631327356435 30.1426
31.9577895715215 30.0258
31.980949155906522 30.0354
32.004291031706956 30.0534
32.027453310562606 29.9615
32.05061693318573 29.7854
32.07396288236386 29.8149
32.09712920658542 29.6231
32.12029687812702 29.5689
32.14346589817093 29.5912
32.166817291729984 29.5433
32.18998902288583 29.3856
32.21316210610336 29.3755
32.23633654256711 29.2782
32.259693399663725 29.1533
32.282870556771144 29.0907
32.30604907069099 29.1292
32.329228942610065 29.0937
32.35259128243769 29.0245
32.375773884550505 28.8964
32.398957848235646 28.9504
32.422143174682176 28.8511
32.445511016471215 28.7561
32.468699082679954 28.7089
32.49188851523011 28.5969
32.51507931531304 28.623
32.538452678331 28.6255
32.56164622776311 28.5855
32.58484114831493 28.511999999999997
32.60803744118015 28.4521
32.631416344731896 28.3965
32.654615396551876 28.4636
32.67781582427913 28.3266
32.701198898634416 28.2592
32.72440209253756 28.2056
32.747606665947124 28.1992
32.77081262006088 28.1378
32.79420126883317 28.1629
32.81740999876112 28.1131
32.840620112999424 27.9716
32.86383161274818 27.9771
32.88722585534586 27.9924
32.91044014056596 28.0376
32.933655814909734 27.9572
32.95687287957963 27.8972
32.98027273544904 27.8317
33.00349259526636 27.9016
33.026713849030116 27.9515
33.04993649794511 27.8174
33.073341986570746 27.7695
33.09656744032826 27.793000000000003
33.11979429286444 27.6793
33.14302254538647 27.7724
33.166433686291185 27.7014
33.18966475336992 27.6774
33.212897224069096 27.4853
33.23613109959831 27.5067
33.259547912343415 27.5135
33.2827846121627 27.5597
33.306022720453775 27.4185
33.32926223842861 27.3156
33.352684742614166 27.4498
33.37592709463173 27.2852
33.399170859982064 27.2373
33.422597648419426 27.1251
33.44584425514446 27.0288
33.46909227885668 26.978
33.4923417207723 26.978
33.51577423505344 26.9979
33.539026528130385 26.8937
33.56228024307245 26.8858
33.585535381098246 26.7213
33.60897364093058 26.6828
33.63223163992385 26.7176
33.6554910656699 26.6537
33.678751919389796 26.733
33.702195944520106 26.5958
33.72545966903325 26.5998
33.74872482519663 26.4876
33.771991414233746 26.5147
33.79544122444841 26.4672
33.81871069412428 26.4186
33.84198160035767 26.344
33.86525394437455 26.3191
33.88870955949969 26.2549
33.911984794020626 26.2919
33.93526147001624 26.1947
33.958539588715006 26.1158
33.98200102861669 26.0333
34.0052820477047 25.9279
34.02856451319451 26.0751
34.05203033759056 25.9295
34.07531571090147 25.9118
34.09860253431845 25.9445
34.121890809074316 25.9422
34.145362493118924 25.8262
34.16865368561615 25.8077
34.191946333164054 25.7623
34.21524043699793 25.7801
34.23871800066799 25.7429
34.26201503218366 25.7293
34.28531352370466 25.6104
34.30861347646881 25.5326
34.33209693978188 25.5206
34.3553998301885 25.5799
34.378704185565205 25.4487
34.402010007152356 25.3152
34.42549939016683 25.4042
34.44880815937748 25.2114
34.472118398533134 25.1792
34.49543010887669 25.2281
34.51892543169198 25.0277
34.54224009966052 25.1392
34.56555624255917 25.1364
34.58887386163339 25.0431
34.61237514439016 24.9399
34.6356957311114 24.9407
34.65901779775809 24.9496
34.68252356662995 24.8561
34.705848608458616 24.8893
34.72917513396849 24.7579
34.75250314440949 24.6817
34.77601490857862 24.7275
34.799345904259795 24.6017
34.82267838863559 24.5902
34.846012362958525 24.6686
34.869530142679984 24.6558
34.89286711232212 24.5752
34.91620557568269 24.5203
34.93954553401677 24.5363
34.9630693495876 24.3756
34.986412313340814 24.3913
35.00975677584668 24.4687
35.033102738362956 24.3642
35.05663261012228 24.3002
35.0799815881786 24.3415
35.10333207003229 24.2916
35.12668405694369 24.3227
35.150220005273056 24.2212
35.17357501786656 24.2442
35.19693153931268 24.1643
35.220289570874385 24.1324
35.24383161619786 24.1115
35.267192683604904 24.1308
35.290555264930376 24.0284
35.314101899412165 24.0877
35.33746752422433 24.0424
35.36083466676374 24.1082
35.38420332829803 23.9419
35.407756095629054 24.055999999999997
35.43112781085063 23.9767
35.45450104888391 23.9184
35.477875810999194 23.9542
35.50143473172161 23.8518
35.52481255774625 23.9155
35.54819191167777 23.7892
35.57157279478914 23.781999999999996
35.595137889488406 23.7608
35.61852184675279 23.6459
35.641907337029984 23.6785
35.665294361595684 23.6235
35.68886565090076 23.5714
35.7122557598848 23.4973
35.73564740699838 23.4548
35.759040593519934 23.4896
35.78261809810353 23.406999999999996
35.80601437933051 23.3266
35.829412203814705 23.2487
35.85281157283719 23.1615
35.876395313415884 23.2548
35.8997977874528 23.1452
35.92320180988546 23.1992
35.946790244133936 23.1159
35.97019737933222 23.0567
35.993606066789866 23.0008
36.01701630779276 22.9919
36.04061101440684 22.9411
36.06402437852291 23.0379
36.08743930005611 22.9319
36.1108557802951 22.8965
36.13445678011326 22.8724
36.15787639383515 22.8098
36.18129757014299 22.7885
36.20472031032821 22.7285
36.22832762423364 22.6357
36.25175350829375 22.663
36.275180960119776 22.5882
36.298609981005924 22.5821
36.32222362992669 22.6356
36.34565580510207 22.5674
36.36908955323448 22.5815
36.39252487562093 22.3864
36.416144880530226 22.4785
36.43958336764275 22.4612
36.463023432914625 22.3877
36.486465077645676 22.2447
36.51009145956204 22.355
36.53353627947859 22.3836
36.55698268276811 22.3057
36.58043067073321 22.267
36.60406345072071 22.1623
36.62751462435344 22.0976
36.65096738658405 22.1602
36.67460498210655 22.1121
36.69806093788647 22.1161
36.72151848619297 22.0205
36.744977628333636 22.04
36.76862165890998 21.9329
36.79208400512205 21.8845
36.81554794910557 21.89
36.83901349217101 21.836
36.862663978991606 21.8175
36.88613273667352 21.7778
36.90960309738324 21.7588
36.933075062434064 21.7046
36.95673202673572 21.7089
36.98020721697122 21.6209
37.003684015502365 21.5784
37.027162423645365 21.5527
37.050825886711465 21.5242
37.07430753063053 21.3677
37.09779078812467 21.4548
37.121275660513014 21.511
37.144945643673694 21.3953
37.16843376245278 21.384
37.19192350009803 21.3898
37.215414857931435 21.4038
37.239091382563885 21.2399
37.262585997426164 21.1877
37.28608223645736 21.2588
37.309763684451696 21.1728
37.33326318851098 21.0964
37.356764320726555 21.0865
37.380267082425526 21.0842
37.40395510942588 21.1091
37.42746114683234 21.0272
37.45096881771841 20.9354
37.474478123414166 20.941
37.49817275092816 20.9151
37.52168534303452 20.8527
37.54519957395567 20.8402
37.568715445024665 20.781
37.592416694607714 20.7848
37.61593586281424 20.7812
37.63945667518264 20.7962
37.66297913304891 20.6682
37.68668702630454 20.635
37.710212792059274 20.5722
37.733740207334854 20.5649
37.757269273470364 20.5234
37.780983832050374 20.5316
37.80451621684926 20.5086
37.82805025654007 20.4034
37.851585952464795 20.389
37.8753071980695 20.3538
37.89884622345676 20.3105
37.92238690911902 20.3442
37.94611318753442 20.2885
37.969657210779765 20.2897
37.99320289834801 20.296
38.016750251586465 20.2208
38.04048325513017 20.2169
38.06403395679343 20.1333
38.087586328183946 20.1157
38.11114037065203 20.125999999999998
38.13488012115898 20.0379
38.1584375229181 19.9386
38.181996599821 19.9518
38.205557353221124 19.929000000000002
38.229303872575656 19.8827
38.2528679961576 19.8275
38.27643380031219 19.7944
38.30000128639589 19.7908
38.32375459653193 19.7811
38.34732546371299 19.7605
38.37089801690786 19.6944
38.39447225747609 19.6132
38.418232380377425 19.6623
38.441810012983396 19.63
38.46538933705673 19.5744
38.488970353960084 19.575
38.51273731166058 19.5326
38.536321731567014 19.4535
38.55990784840681 19.4525
38.58367995004091 19.4185
38.60726947812959 19.3411
38.63086070726198 19.3898
38.654453638806274 19.4084
38.678232613930824 19.3213
38.70182896773327 19.2221
38.72542702806741 19.1958
38.7490267963045 19.2632
38.77281266709232 19.2355
38.79641586862214 19.1778
38.8200207821842 19.0444
38.843627409152944 19.1212
38.86742019782782 19.1309
38.891030269149255 19.1205
38.914642058016156 19.0064
38.938255565806124 18.9487
38.96205529464307 18.8642
38.98567225787121 18.8964
39.00929094417078 18.8355
39.03291135492255 18.8991
39.05671804624804 18.8521
39.080341923549106 18.7835
39.103967529460334 18.8322
39.127594865365744 18.7092
39.15140854155791 18.6238
39.17503935514948 18.6062
39.19867190290282 18.6315
39.22249083587951 18.6751
39.24612686969409 18.653
39.269764641845306 18.5689
39.293404153722804 18.4989
39.317230110864074 18.4671
39.34087311998506 18.4704
39.36451787301696 18.4373
39.388164371352595 18.4107
39.41199737518003 18.359
39.43564738196752 18.3397
39.45929913825317 18.2801
39.48295264543308 18.2927
39.506792718520884 18.2966
39.530449745387216 18.1789
39.55410852735203 18.1436
39.57776906581474 18.2132
39.60161623079 18.1113
39.625280300200025 18.1301
39.64894613032202 18.0612
39.67261372255866 18.0188
39.6964680021016 18.0486
39.72013913657293 17.9842
39.74381203738292 17.9787
39.76748670593756 17.9653
39.79134812278169 17.9509
39.81502634488497 17.9239
39.83870633896685 17.877
39.862388106436654 17.871
39.88625668336918 17.822
39.90994201572829 17.8096
39.933629125719285 17.7315
39.957503091207826 17.7388
39.9811937746168 17.7572
40.00488623990914 17.6769
40.02858048850006 17.6529
40.05246165409549 17.5914
40.076159487492085 17.5443
40.099859108448875 17.5763
40.123560518384345 17.5198
40.1474489070226 17.4664
40.171153913178564 17.4409
40.194860712584955 17.4485
40.2185693066637 17.4254
40.242464941335314 17.3993
40.26617714307655 17.3851
40.289891143772046 17.2996
40.3136069448471 17.2932
40.33750984859743 17.2871
40.3612292688043 17.2484
40.3849504936829 17.2434
40.40867352466194 17.1726
40.43258372059144 17.1303
40.45631038219906 17.1739
40.48003885420956 17.0908
40.503769138055105 17.1012
40.52768664931955 17.1078
40.55142057531802 17.1003
40.57515631746428 17.0041
40.599079334038514 16.9509
40.62281872700477 16.9418
40.64655994043941 16.8901
40.67030297578061 16.8921
40.69423334835778 16.8594
40.71798004609188 16.8295
40.74172857006355 16.7877
40.76547892171441 16.8226
40.7894166736039 16.762
40.813170699248566 16.7382
40.83692655691388 16.6819
40.86068424804498 16.6975
40.884629402612525 16.7116
40.908390779366385 16.678
40.932153993938 16.6729
40.95591904777605 16.6186
40.979871628443995 16.5948
41.003640379561936 16.5214
41.02741097430883 16.5592
41.05118341413683 16.5759
41.075143444384416 16.4673
41.098919593177826 16.4411
41.1226975914255 16.4131
41.14647744058318 16.3591
41.170444943946755 16.3843
41.19422851378379 16.3398
41.218013938914645 16.3013
41.24198706625173 16.2694
41.26577622087193 16.1756
41.289567235177785 16.2401
41.31336011063129 16.1766
41.337340752422875 16.1098
41.361137369129835 16.1462
41.38493585138705 16.0528
41.40873620066004 16.0526
41.43272438060107 16.0297
41.45652848292052 16.0107
41.48033445666918 15.9767
41.50414230331616 15.960999999999999
41.528138045159764 15.9668
41.551949656675205 15.8717
41.575763145513235 15.8833
41.59957851314666 15.8614
41.62358184070442 15.831
41.64740098505737 15.7395
41.6712220126409 15.7245
41.69504492493139 15.7339
41.71905586207357 15.6844
41.74288256296395 15.6922
41.766711153007456 15.637
41.79054163368412 15.6324
41.814560204340054 15.5955
41.838394485526365 15.5673
41.86223066180303 15.5412
41.88625497706819 15.5326
41.910094962812 15.5403
41.93393684811168 15.5194
41.95778063445365 15.411
41.981812625263366 15.4449
42.00566023303407 15.4453
42.029509746323676 15.3564
42.05336116662236 15.3274
42.077400857069705 15.2884
42.10125611078846 15.2926
42.12511327600405 15.2891
42.14897235421036 15.2633
42.173019768448455 15.1975
42.19688269209613 15.149000000000001
42.22074753323349 15.1595
42.24461429335818 15.136
42.268669455600495 15.1481
42.292540073217886 15.0919
42.31641261433284 15.0359
42.34028708044675 14.9996
42.36435001496739 14.9967
42.38822835065557 15.0074
42.41210861586426 15.0122
42.4359908120986 14.9807
42.46006154323262 14.9019
42.48394762115317 14.8855
42.507835634632315 14.8702
42.531912233047436 14.8367
42.55580413732265 14.7883
42.579697981698 14.7657
42.60359376768525 14.7642
42.62767820545945 14.7281
42.65157789440821 14.7488
42.67547952952185 14.7253
42.699383112316 14.6803
42.72347541395347 14.6958
42.74738291190531 14.6247
42.771292362102166 14.6375
42.795203766063516 14.5693
42.819303956130405 14.547
42.843219287476536 14.5597
42.86713657716324 14.5075
42.89105582671383 14.529000000000002
42.91516392983864 14.4781
42.939087119032166 14.4161
42.963012272677304 14.4495
42.98693939230129 14.4175
43.01105543317513 14.3469
43.034986504731386 14.3369
43.05891954686589 14.319
43.08285456110972 14.299000000000001
43.10697856448665 14.2879
43.130917542983475 14.2185
43.15485849820081 14.2285
43.17880143167367 14.1576
43.20293342237094 14.1411
43.226880332449 14.1539
43.25082922540554 14.0851
43.27496722682525 14.0194
43.29892010567796 14.0277
43.32287497204102 14.0879
43.34683182745632 14.0476
43.370977859791836 13.9584
43.39493871351105 13.9447
43.41890156092628 13.9297
43.44286640358341 13.8969
43.46702049182749 13.9296
43.49098934522816 13.8645
43.51496019852649 13.8404
43.5389330532723 13.7809
43.56309522248204 13.7443
43.58707210044314 13.7469
43.61105098451946 13.7323
43.63503187626491 13.7439
43.659202151562134 13.6861
43.68318707902681 13.6983
43.70717401884041 13.6662
43.731162972560874 13.6445
43.75534137913236 13.5878
43.779334381108384 13.5548
43.803329401683186 13.5421
43.82732644241872 13.5561
43.8515130055166 13.5307
43.87551410707659 13.5161
43.89951723350145 13.4546
43.923709934595614 13.4182
43.94771713129917 13.4047
43.97172635758096 13.3928
43.99573761501002 13.3556
44.0199385169922 13.334000000000001
44.04395385732619 13.3299
44.067971233533086 13.2946
44.09199064718605 13.2955
44.11619977548961 13.272
44.14022328470671 13.2414
44.16424883610785 13.2266
44.18827643127035 13.2025
44.21249381139513 13.225
44.236525514814076 13.1281
44.26055926674478 13.1171
44.28459506876863 13.1393
44.3088207262813 13.0754
44.33286064928722 13.0114
44.35690262714919 12.9814
44.38094666145278 12.9431
44.4051806219871 13.011
44.42922879003185 12.936
44.45327901929361 12.936
44.477331311362136 12.9031
44.501573600619416 12.865
44.525630039221795 12.8521
44.54968854541895 12.8425
44.573937102200176 12.8166
44.5979997645541 12.8272
44.622064499300315 12.7609
44.64613130803592 12.7178
44.67038823869318 12.755999999999998
44.69445921643748 12.702
44.718532272981385 12.6664
44.742607409926194 12.6793
44.76687274034801 12.6473
44.79095205918753 12.5571
44.81503346325094 12.6098
44.839116954143876 12.5611
44.86339071028742 12.5817
44.88747839599524 12.5749
44.91156817336837 12.5256
44.93566004401666 12.51
44.959942251908146 12.4653
44.984038330325966 12.4202
45.00813650686762 12.3901
45.03223678314731 12.3947
45.05652746888232 12.3462
45.08063196592069 12.3743
45.104738567558705 12.3429
45.128847275414856 12.2965
45.15314646515866 12.2828
45.17725940679741 12.2527
45.20137445952892 12.2338
45.22568004865265 12.2058
45.24979934496396 12.183
45.27392075725247 12.1912
45.29804428714431 12.144
45.322358426247604 12.1119
45.346486212804315 12.1247
45.370616121861914 12.0818
45.39474815505086 12.0377
45.41907087049246 12.0255
45.4432071734666 11.9639
45.46734560548283 11.9571
45.49148616817604 12.0035
45.51581748638564 11.9746
45.5399623320197 11.9349
45.56410931325473 11.9675
45.58825843173002 11.9092
45.61259837920865 11.894
45.636751793816 11.8599
45.66090735060093 11.808
45.68506505120716 11.8327
45.7094136545275 11.7767
45.73357566449271 11.7438
45.75773982322992 11.7235
45.78190613238733 11.7435
45.806263418194064 11.7053
45.83043404997326 11.6807
45.85460683713677 11.6898
45.87897065658495 11.6554
45.90314777634752 11.6492
45.92732705646868 11.6232
45.9515084986045 11.5747
45.97588104735473 11.5683
46.00006683541565 11.5113
46.02425479047904 11.5372
46.04844491420549 11.5155
46.0728262191024 11.501
46.09702070211635 11.4503
46.12121735879483 11.4435
46.14541619080294 11.4739
46.169806278764455 11.4207
46.194009483459034 11.3919
46.21821486849841 11.3774
46.24242243555223 11.3381
46.266821333570014 11.296
46.29103328674601 11.3071
46.31524742696538 11.3269
46.33946375590237 11.2685
46.36387149104216 11.2375
46.38809221957392 11.2157
46.41231514186606 11.1798
46.436540259597464 11.1565
46.460956858999374 11.2
46.48518638983522 11.1595
46.509418121166966 11.1457
46.533652054678114 11.0983
46.55807754555709 11.0639
46.58231590571962 11.0349
46.60655647313217 10.9826
46.630988654873654 11.0056
46.655233659129024 11.0106
46.67948087571551 10.9672
46.70373030632484 10.9769
46.72817142736393 10.954
46.752425308428684 10.8928
46.77668140861147 10.878
46.80093972960865 10.8844
46.82538981736788 10.8451
46.849652602470904 10.8192
46.87391761349769 10.8292
46.8981848521493 10.8058
46.9226439341274 10.78
46.946915650573224 10.7405
46.97118959976749 10.71
46.99546578341598 10.7428
47.019933887188216 10.6676
47.04421456235744 10.679
47.06849747711879 10.6912
47.09278263318286 10.6165
47.11725978640143 10.5927
47.14154944775105 10.5597
47.165841355555656 10.5616
47.1901355115306 10.5512
47.214621741924994 10.5083
47.23892041698887 10.4918
47.26322134538975 10.4885
47.28771440635075 10.4841
47.31201986422527 10.4678
47.33632758061436 10.4078
47.360637557241866 10.4386
47.38513974410611 10.4191
47.40945426407847 10.3455
47.43377104948137 10.3635
47.45809010204344 10.3138
47.48260144275502 10.2996
47.506925052572285 10.2964
47.53125093475548 10.2569
47.55557909103813 10.2623
47.58009961361992 10.2505
47.60443234110732 10.2269
47.62876734791564 10.2019
47.65310463578333 10.1599
47.6776343683373 10.1878
47.7019762413987 10.1734
47.72632040075572 10.0886
47.75066684815169 10.0913
47.77520581885936 10.0815
47.799556865477655 10.0357
47.823910205386 10.0752
47.84826584033272 10.0557
47.87281407745551 10.0298
47.89717432569297 10.0274
47.92153687423484 10.0013
47.94609208429692 9.947460000000001
47.97045925671401 9.94628
47.99482873471275 9.96245
48.01920052005013 9.94244
48.04376504619224 9.90935
48.068141469543484 9.91088
48.09252020552573 9.887839999999999
48.11690125590099 9.84413
48.1414751266064 9.8309
48.16586082917454 9.80747
48.19024885144316 9.77391
48.2146391951793 9.75072
48.239222439012764 9.753810000000001
48.26361744916137 9.74112
48.28801478610016 9.750680000000001
48.31241445160131 9.72595
48.337007097209366 9.67225
48.36141144338331 9.67676
48.38581812345755 9.65479
48.41022713920929 9.66292
48.434829215320704 9.598310000000001
48.45924292604658 9.595289999999999
48.48365897780325 9.59476
48.50807737237308 9.57858
48.532688907799276 9.58437
48.55711201168574 9.56818
48.581537463754074 9.529689999999999
48.60615611725119 9.51335
48.63058628942721 9.4711
48.65501881516546 9.44887
48.6794536962573 9.44977
48.70408185970339 9.43619
48.72852147531801 9.3928
48.75296345168211 9.35885
48.77740779059232 9.34004
48.80204549302823 9.39676
48.82649458091802 9.385589999999999
48.85094603676547 9.31657
48.87539986237231 9.313830000000001
48.90004713292306 9.3139
48.92450572200832 9.31193
48.94896668628025 9.24726
48.97343002754588 9.21088
48.99808689542115 9.23656
49.02255501470614 9.1909
49.04702551642794 9.18197
49.0714984023988 9.18079
49.096164896893235 9.134260000000001
49.120642575466796 9.111180000000001
49.145122643748394 9.11506
49.16960510355558 9.09114
49.19428125404938 9.1019
49.2187685210852 9.0573
49.243258185121555 9.05454
49.26794160167084 9.034460000000001
49.2924360839405 8.99796
49.31693296869764 8.91493
49.34143225776915 8.95862
49.36612538195438 8.95087
49.39062950396021 8.96621
49.41513603578346 8.908669999999999
49.4396449792564 8.91044
49.46434784069503 8.8892
49.488861631846454 8.85717
49.513377840166804 8.890419999999999
49.537896467493745 8.82572
49.56260909589029 8.77769
49.587132585683285 8.81118
49.611658500018365 8.79427
49.636186840738596 8.805489999999999
49.66090926588511 8.78713
49.685442483902584 8.730030000000001
49.70997813385706 8.7123
49.734516217597076 8.66901
49.75924846937352 8.70369
49.7837914452858 8.69311
49.80833686055187 8.63413
49.83288471702571 8.62621
49.85762682540054 8.64668
49.882179588965734 8.62327
49.9067347993235 8.56904
49.93129245833333 8.54213
49.95604445336378 8.54922
49.98060703442832 8.49634
50.005172069746266 8.487860000000001
50.02993150438364 8.49033
50.05450147301533 8.50028
50.07907390151433 8.473239999999999
50.10364879174981 8.448039999999999
50.12841816587289 8.43868
50.1529980044635 8.43478
50.17758031042124 8.413960000000001
50.20216508562089 8.34703
50.22694442953363 8.38795
50.25153416817468 8.344439999999999
50.27612638170508 8.308910000000001
50.300721072005196 8.300510000000001
50.325510416102105 8.295580000000001
50.350110084975064 8.30205
50.37471223628208 8.28125
50.39931687190919 8.22997
50.424116246675766 8.24092
50.44872587605249 8.246030000000001
50.47333799543065 8.2382
50.49795260670191 8.20802
50.52276204271512 8.16403
50.54738166295838 8.17424
50.57200378079314 8.14414
50.596628398116835 8.14081
50.62144792604559 8.128169999999999
50.646077567609396 8.08814
50.670709714377715 8.07498
50.69553683636198 8.092789999999999
50.72017401885922 8.04402
50.7448137122895 8.02406
50.76945591856022 8.03823
50.79429318636823 8.014610000000001
50.818940443716784 8.01431
50.84359021965163 8.01089
50.868242516085964 7.959239999999999
50.893089960641895 7.94945
50.917747323549435 7.89854
50.94240721271973 7.948110000000001
50.96706963007175 7.9215800000000005
50.99192728239342 7.851789999999999
51.01659478166073 7.88945
51.04126481489051 7.85071
51.06593738400761 7.85579
51.090805275207074 7.811389999999999
51.11548294172845 7.81973
51.14016314993547 7.77375
51.164845901758845 7.787260000000001
51.18972406304274 7.79133
51.21441192780656 7.73197
51.23910234200271 7.73716
51.2637953075678 7.70308
51.288683770237945 7.68458
51.31338186432707 7.68285
51.33808251561888 7.69367
51.362978729967345 7.642939999999999
51.387684521509755 7.6261
51.41239287610203 7.59294
51.437103795691165 7.60469
51.46201036644977 7.58666
51.486726441956634 7.554119999999999
51.51144508832545 7.54332
51.536166307509156 7.51932
51.56108326624387 7.530460000000001
51.58580965706056 7.513
51.61053862657523 7.50422
51.635270176746864 7.4292300000000004
51.66019755512065 7.438789999999999
51.68493429268881 7.45821
51.70967361681515 7.42214
51.73441552946465 7.413810000000001
51.759353359237934 7.42006
51.7841004750961 7.43032
51.80885018539685 7.35341
51.833602492111254 7.31676
51.8585508051424 7.33833
51.883308330926425 7.291860000000001
51.90806845906181 7.281619999999999
51.932831191525715 7.29852
51.95779001977161 7.27918
51.98255798721516 7.27415
52.00732856494335 7.25387
52.03229530577543 7.23112
52.057071130455945 7.20958
52.081849571391054 7.205010000000001
52.106630630568695 7.193919999999999
52.13160794279417 7.15385
52.15639426492067 7.155819999999999
52.18118321127822 7.15065
52.205974783860896 7.134339999999999
52.23096269971011 7.1303600000000005
52.255759551287994 7.07713
52.280559035098186 7.08104
52.30536115314103 7.07189
52.33035970494467 7.063680000000001
52.35516711807904 7.03003
52.37997717147198 7.04961
52.40478986713005 6.99757
52.42979908731974 6.9847
52.454617094216 6.985519999999999
52.47943774942214 6.94994
52.50426105495102 6.9548
52.529280976059844 6.9306600000000005
52.554109609024096 6.92762
52.57894089837482 6.87293
52.60377484613117 6.89312
52.62880550079408 6.86598
52.65364479223379 6.829389999999999
52.67848674816189 6.80598
52.70352547971946 6.821969999999999
52.72837279155837 6.839689999999999
52.753222773982785 6.774310000000001
52.778075429022984 6.77595
52.80312495150885 6.7714
52.827982978797436 6.782939999999999
52.85284368481815 6.770519999999999
52.87770707160767 6.765610000000001
52.90276741793998 6.7182699999999995
52.92763619336701 6.72819
52.952507655698504 6.678439999999999
52.977381806977576 6.63975
53.00245301017842 6.68619
53.02733256653592 6.643669999999999
53.052214817996074 6.64
53.077099766608484 6.60958
53.102181859804446 6.5692
53.127072229988265 6.58368
53.15196530349892 6.56658
53.17686108239249 6.5551699999999995
53.20195409881522 6.5427800000000005
53.22685531582556 6.53868
53.25175924441303 6.525
53.27666588664027 6.49108
53.30176985962693 6.48223
53.3266819565689 6.534330000000001
53.35159677336455 6.4640699999999995
53.376514312083096 6.44855
53.40162927507703 6.44871
53.42655228516116 6.43625
53.45147802340193 6.424980000000001
53.47660125628886 6.377680000000001
53.50153247842639 6.39855
53.52646643496923 6.377330000000001
53.55140312799818 6.38298
53.576537409691696 6.3361
53.60147960336152 6.31119
53.626424539786164 6.305219999999999
53.65137222105307 6.29936
53.67651758529126 6.31873
53.70147078399681 6.28517
53.72642673383343 6.264069999999999
53.75138543689533 6.29296
53.776541917524526 6.24019
53.801506154876755 6.1912199999999995
53.826473151763246 6.21666
53.851442910284916 6.2043099999999995
53.87661054126026 6.19885
53.9015858509782 6.17206
53.92656392866066 6.15569
53.95154477641532 6.15386
53.976723591801296 6.1294
54.00171000771266 6.13237
54.02669920004598 6.10156
54.051691170915745 6.05501
54.076881204886796 6.08885
54.101878760928514 6.08716
54.12687910187696 6.0526599999999995
54.152077577768296 6.05537
54.1770835166946 6.00893
54.20209224691339 6.00063
54.22710377055121 5.988580000000001
54.25231352511594 5.9946
54.27733066384342 5.9720699999999995
54.30235060239643 5.97129
54.32737334290836 5.9069199999999995
54.35259441062629 5.83314
54.377622783395324 5.82712
54.40265396455061 5.896809999999999
54.42768795623251 5.84316
54.45292037169559 5.79364
54.477960012857906 5.8411800000000005
54.50300247099511 5.82235
54.52804774825457 5.794980000000001
54.55329154616743 5.791
54.57834249018678 5.73234
54.6033962597977 5.69505
54.6284528571545 5.75305
54.653708072335164 5.7104099999999995
54.67877035378786 5.69349
54.70383546947698 5.650519999999999
54.72890342156389 5.653630000000001
54.7541700889442 5.58239
54.77924374251975 5.5746199999999995
54.8043202390049 5.58055
54.82959552413022 5.51397
54.8546777351945 5.53838
54.87976279569621 5.50884
54.90485070780914 5.49633
54.930137506558005 5.48078
54.95523115074295 5.421209999999999
54.98032765308844 5.41444
55.005427015775496 5.4093
55.03072536339621 5.48276
55.05583047570572 5.41691
55.080938454927676 5.3763
55.10604930325027 5.36412
55.131359235107396 5.35623
55.15647585066083 5.25217
55.181595341907496 5.226719999999999
55.20671771104285 5.2487
55.232039262617704 5.24567
55.25716741665048 5.18286
55.28229845518636 5.20745
55.30743238042802 5.116680000000001
55.33276558731939 5.156680000000001
55.357905315183636 5.19053
55.383047936390035 5.10687
55.40819345314859 5.04242
55.433538351073295 5.05957
55.458689688238415 5.04157
55.483843927614096 5.00212
55.509197623043605 5.01565
55.53435769621134 4.96568
55.55952067826466 4.93867
55.5846865714265 4.92375
55.61005202069737 4.92624
55.63522376553902 4.8981
55.66039842818645 4.87884
55.68557601087004 4.80096
55.7109532500271 4.723269999999999
55.73613670233794 4.79796
