TT I
1.2716486653135266 7.33241
1.2939594142134223 6.55895
1.3162702121660406 6.943510000000001
1.3385810600174564 6.720289999999999
1.3608919586137629 6.28239
1.383202908801069 6.4065900000000005
1.405513911425503 6.2144
1.4278249673332093 6.5545
1.4501343378461518 5.90624
1.4724455028545926 6.1731300000000005
1.4947567236847858 6.35986
1.517068001182951 6.41403
1.5393793361953272 5.83472
1.5616907295681737 5.57442
1.5840021821477681 5.70367
1.60631369478041 5.48381
1.6286252683124185 5.4079
1.6509369035901333 4.7672099999999995
1.6732468618895553 5.1131400000000005
1.695558623192809 4.78903
1.7178704487808514 4.96539
1.7401823395001077 4.51187
1.7625012545597203 5.16461
1.7848028405262486 5.27452
1.8071218901122095 4.58056
1.8294236121921872 5.0832
1.8517427996910911 4.881959999999999
1.8740620574440425 5.06681
1.8963639900671978 4.73196
1.9186833908139995 5.00908
1.9409854680117449 5.105980000000001
1.9633050151394713 5.23376
1.9856246367570705 5.247000000000001
2.0079269371922672 4.758030000000001
2.03024671027244 4.24854
2.0525491637446027 4.60774
2.074869091674931 4.51048
2.097171701569106 4.72548
2.1194917877373847 5.1465
2.141811954326636 5.06187
2.164114805233074 5.44864
2.186435135143035 6.13545
2.208738150935709 15.2141
2.231058647554722 31.6932
2.2533792288321184 23.9495
2.275682498336085 11.0685
2.298003251406138 6.6665399999999995
2.3203066942619714 6.17633
2.3426276225136022 6.00712
2.3649486396617507 6.46504
2.387252348930071 6.08075
2.4095735463442893 5.81484
2.4318774374315884 6.51684
2.4541988185014043 6.4889
2.476502894794693 6.83812
2.498824462909887 7.672039999999999
2.521146125856138 7.38975
2.5434504863470337 7.56643
2.5657723414244717 7.61428
2.588076895590662 7.95495
2.610398946189713 8.41071
2.6327210958598384 7.58246
2.6550259469304716 7.49808
2.6773482972090137 8.15833
2.6996533504259 8.32287
2.7219759047039602 8.741810000000001
2.744298562293959 8.884960000000001
2.7666039251246595 8.11242
2.7889267918020164 8.11426
2.8112323652516555 8.0931
2.833555444408179 8.24951
2.8558786311183852 8.45818
2.8781845268938557 9.0756
2.9005079311721484 8.94718
2.9228140460410397 8.900839999999999
2.9451376712799635 9.34853
2.967444008632326 9.705789999999999
2.9897678582247247 9.77355
3.0120918213106695 10.191
3.0343984987899373 10.6071
3.0567226913198637 11.3514
3.079029599759726 11.5827
3.101354025127254 12.1014
3.123678568232338 12.8446
3.145985829517914 13.1152
3.16831061055229 13.4872
3.1906181112775593 14.3576
3.212943133635653 14.7738
3.2352682779763207 15.4396
3.2575761442691227 15.3767
3.2799015350264273 15.5089
3.302209649240067 16.6097
3.3245352898092655 16.9615
3.3468436553365257 17.5022
3.369169549113219 17.7465
3.3914955708171384 18.4722
3.413804319727358 18.4583
3.4361305997334863 19.2067
3.4584396084414553 20.02
3.4807661501462652 20.6823
3.503092824025881 21.3233
3.5254022288463154 21.2358
3.5477291695206588 22.0413
3.5700388426251948 22.7159
3.5923660534916446 24.2874
3.6146934007816114 40.5904
3.637003482731501 96.83200000000001
3.6593311053109985 110.90799999999999
3.681641464033634 62.3124
3.7039693653009733 31.7106
3.726297407241705 26.4309
3.7486081875460804 26.1554
3.7709365132734978 26.081999999999997
3.793247578841633 26.5374
3.8155761917550093 26.8003
3.8378875459837216 27.1523
3.8602164494827234 27.399
3.882545499606844 28.0946
3.9048572932539183 28.6628
3.9271866390645718 29.0267
3.9494987298666713 29.8563
3.971828374764527 30.5605
3.9941581705403255 30.8857
4.016470713506008 31.3241
4.038800813471445 32.2464
4.061113662089144 33.3105
4.0834440696459176 33.9847
4.105774632334751 34.4637
4.128087945865126 35.0649
4.150418821249301 35.8123
4.172732448931298 36.8091
4.195063640413578 39.0608
4.2173775856475215 43.5114
4.239709096631102 78.5806
4.262040768704612 263.47700000000003
4.284355196706267 363.756
4.306687193387355 236.49200000000002
4.329001947444346 88.1487
4.35133427213731 48.9086
4.373666762177566 44.6795
4.395982011761091 44.7082
4.418314834921175 45.5889
4.44063041906622 54.1832
4.4629635787515625 67.3127
4.4852969080429785 67.221
4.5076130004776225 54.9624
4.529946671403969 49.901
4.552263106909177 49.4885
4.574597122877047 50.7941
4.596931312711224 52.4807
4.619248269273446 53.0631
4.6415828092605835 54.1559
4.663900117405352 55.096000000000004
4.686235010953232 56.3941
4.708552674085913 57.7292
4.730887924602802 59.6056
4.753223354952695 60.5149
4.775541557023902 61.5655
4.797877349456786 63.3954
4.820195915032126 65.1913
4.842532072957498 66.6759
4.864868414979744 68.3546
4.88718753227192 70.1879
4.909524244902505 72.3225
4.931843734218147 74.2944
4.954180820867835 76.3326
4.976518095879839 79.6136
4.998838149695359 82.4817
5.021175803844231 85.3308
5.043496238205739 88.6441
5.065834274903528 92.7011
5.088172504230693 97.1969
5.1104935158799565 103.39200000000001
5.132832132875765 125.6
5.155153533596801 172.421
5.1774925416746225 204.595
5.199814334878411 314.007
5.2221537374521505 862.317
5.244493338631803 2600.04
5.266815727034316 7410.78
5.289155727832427 12771.6
5.311478517248165 9160.68
5.333818921080011 2947.79
5.356159527788849 559.195
5.3784829252032536 185.90900000000002
5.400823940070432 143.694
5.423147747031976 127.53
5.445489173474152 117.781
5.467830807066149 112.70100000000001
5.490155234831516 108.48299999999999
5.512497285125229 105.038
5.534822130975162 103.145
5.557164601388673 101.244
5.579489868738879 98.7764
5.601832762690846 97.8973
5.6241758697774475 97.0251
5.646501775867269 95.5983
5.668845311622074 93.7344
5.691171647754637 93.4201
5.713515615597765 92.1758
5.735859800852677 91.2513
5.758186788542988 90.1989
5.780531411018185 90.1998
5.802858837297399 89.6612
5.825203900414495 89.7484
5.8475491852224 89.8807
5.869877275883075 90.3947
5.892223006467101 91.8022
5.914551544266608 92.4457
5.936897724049891 94.4405
5.959244129804903 99.1806
5.981573344815301 112.079
6.0039202049061 183.577
6.026249875609095 395.46
6.04859719346037 868.0210000000001
6.070927323278297 2060.83
6.093275102315365 4431.67
6.115623113320588 5135.18
6.137953938319995 3218.18
6.160302415650845 1005.8
6.182633708324452 241.13299999999998
6.2049826554078376 115.427
6.227331838745022 92.5699
6.249663839443684 84.9152
6.27201349767565 82.646
6.294345974611799 90.1397
6.316696111167083 103.931
6.339046488263839 97.9966
6.361379686074702 81.3193
6.383730546639482 72.33
6.406064229255215 69.0163
6.428415576718203 68.1914
6.450749747566656 66.941
6.47310158535871 65.5634
6.495453669698332 65.4245
6.517788579421056 64.8127
6.540141159237969 63.3623
6.562476565766648 63.2075
6.5848296444934045 62.6446
6.607182974060425 62.1931
6.6295191323281015 62.3483
6.651872965955752 66.4211
6.6742096296068985 95.289
6.6965639707294615 148.754
6.71891856698715 150.518
6.741255995248479 100.825
6.763611104154477 69.8601
6.785949046381137 60.4996
6.808304671371482 58.3592
6.8306605557940046 58.1257
6.852999275508618 57.4577
6.875355681171544 56.7238
6.897694923437771 56.5427
6.92005185377892 56.5081
6.9423916220322655 56.6272
6.964749080490181 55.7654
6.987106804399774 55.3837
7.009447368180821 55.5677
7.031805625367033 55.2112
7.054146723727803 55.5973
7.076505517631004 55.5526
7.098864581288365 55.3829
7.121206488070854 54.9927
7.143566093607822 55.0615
7.165908543567245 55.3071
7.188268694426048 55.5578
7.2106291193438095 55.6476
7.232972390625943 57.1555
7.255333366030969 71.3019
7.277677189091925 132.80100000000002
7.300038718428332 188.52
7.322400526130865 159.04
7.344745183422596 94.7893
7.367107550224791 63.0749
7.389452767901992 56.662
7.411815697249891 55.4481
7.434161478756298 54.3457
7.456524974096713 54.1731
7.478888753837185 54.0955
7.501235387657368 54.7039
7.523599738562711 54.4745
7.545946944825532 54.9991
7.568311870344528 55.3763
7.5906770845765665 55.4481
7.613025156078678 57.0794
7.635390950099687 58.2789
7.657739602662809 57.1876
7.680105979923558 56.0475
7.702472650212829 55.9286
7.724822180948224 55.9037
7.747189439655568 56.0419
7.769539560075357 56.0377
7.791907410653562 56.3501
7.81425812420825 56.2431
7.836626570110925 56.6189
7.858995315087906 57.5478
7.881346924933401 57.4581
7.903716270417482 58.2108
7.926068482028405 58.3108
7.948438431475253 59.1515
7.9708086843180235 59.6179
7.993161805171116 60.1004
8.015532667162402 60.2128
8.037886398416653 61.2117
8.060257873014221 61.878
8.082629655331942 62.3487
8.104984308787587 63.6423
8.127356708900503 67.0401
8.149711981398308 73.4769
8.172085002766314 76.2043
8.194458336181368 72.5199
8.216814543847752 69.3019
8.23918850371002 69.2999
8.26154533906492 69.7686
8.283919928836452 71.1871
8.306277395339652 72.0367
8.328652618483376 73.3179
8.351028159736202 75.1106
8.373386579575245 77.1671
8.395762759396959 79.3907
8.418121819038275 84.5509
8.440498640894003 98.76
8.462875785192262 114.24799999999999
8.485235811156207 122.448
8.507613602688501 152.553
8.529974277114228 227.679
8.552352719347912 354.38
8.574731488360351 608.39
8.59709314210385 1139.86
8.619472567021075 1805.41
8.64183487789147 2172.52
8.664214962183097 1831.24
8.686577933647762 1013.79
8.708958680784317 375.124
8.731339760774953 162.99
8.753703729764451 110.87299999999999
8.77608547780821 98.6113
8.798450116065078 94.8056
8.820832535634787 91.9719
8.843215292401656 90.3741
8.865580941199045 88.72399999999999
8.887964374703538 87.7382
8.910330701447199 88.8991
8.932714815164482 92.0163
8.955099270424924 91.6292
8.977466620733543 88.2358
8.999851761421976 85.0431
9.022219798361645 83.3932
9.04460562795561 82.9621
9.066991803441677 82.5806
9.089360876979615 82.0787
9.111747746589993 81.8146
9.13411751544971 81.381
9.156505082664324 81.3577
9.178875550323522 81.1909
9.20126381862328 81.6813
9.223652438908596 82.2351
9.246023961427412 81.8996
9.26841328802173 81.1193
9.290785518039224 81.1119
9.313175554425882 81.7103
9.335565947154315 81.8037
9.357939245086508 81.877
9.380330352834827 82.1994
9.40270436697103 82.492
9.425096193225055 82.4917
9.447488380180165 83.1935
9.469863475295412 83.3983
9.492256385987508 83.9163
9.514632206018318 84.3654
9.537025843935714 84.6767
9.559402392368193 85.385
9.581796761000229 86.8406
9.604191496441521 87.7685
9.626569144158516 91.353
9.648964615551032 96.4435
9.671343000390081 98.3594
9.693739211225699 95.9034
9.716135793237463 93.0333
9.738515290448102 92.1728
9.760912617143402 93.2127
9.783292860202891 93.9926
9.805690935076182 95.4037
9.828089385495742 95.876
9.850470754023561 98.6729
9.872869957865444 107.43
9.89525208097539 124.458
9.917652041736662 138.368
9.940052382417589 136.106
9.962435644102392 135.637
9.984836746950979 162.064
10.007220771957746 219.66
10.029622640473708 315.184
10.052007432299963 484.037
10.074410069984072 772.715
10.096813093716005 1238.58
10.119199042482517 1739.34
10.141602840636468 1994.77
10.163989564971628 1621.42
10.186394141051062 913.426
10.208799107559706 408.286
10.231187001965623 191.433
10.253592751657669 127.04299999999999
10.275981430388155 112.98700000000001
10.298387966769793 112.779
10.320794897965431 115.74799999999999
10.343184759907361 114.76299999999999
10.36559248305461 108.801
10.387983138083852 103.663
10.410391656691655 104.853
10.432800574501677 113.631
10.455192425893369 129.21200000000002
10.47760214443012 152.123
10.499994797678786 194.582
10.522405320453982 270.041
10.54479877906917 387.035
10.567210109595656 507.6
10.5896218454736 582.746
10.612016518879773 511.481
10.634429067781074 361.06699999999995
10.656824555333241 210.19299999999998
10.679237920773568 128.782
10.701651695961992 96.8934
10.724048411481384 89.1436
10.746463008485165 86.0513
10.768860546937125 84.2649
10.791275969274796 82.4199
10.81369180576079 81.4318
10.836090585366925 80.3869
10.858507252467449 79.2838
10.88090686379991 78.2943
10.903324365036394 78.0526
10.925724811614439 77.7865
10.948143150509463 79.5543
10.970561909719066 78.5971
10.992963615930844 76.3184
11.015383218085756 74.215
11.037785768347074 72.7431
11.06020621697282 72.3078
11.082627090322113 72.0087
11.105030913430326 71.3909
11.12745263854165 72.4252
11.149857314510728 76.6372
11.172279894912576 83.3088
11.194702904450653 84.4167
11.217108866490921 79.8311
11.239532736615194 74.8323
11.26193956033512 72.1741
11.284364294577085 70.3016
11.306789462371718 67.9453
11.329197585398376 66.5941
11.351623622610898 66.6458
11.37403261614354 65.8065
11.396459526308487 65.6327
11.418869393879497 65.3306
11.441297180532617 64.7205
11.463725406927658 64.3279
11.486136592353875 64.5042
11.508565700543707 64.9827
11.530977768845315 67.0784
11.553407762368774 68.2913
11.575838200059769 67.6319
11.598251599479612 65.4474
11.620682927815501 63.9194
11.64309721895548 63.3559
11.665529441478206 62.7134
11.687962112597958 62.7282
11.710377748130886 62.7853
11.732811318753434 62.6598
11.755227854859067 62.6118
11.777662328529495 62.6436
11.800079768750786 62.2497
11.822515149015453 62.0245
11.844950984084935 62.3812
11.867369787303163 61.8877
11.889806534289491 61.7933
11.912226250487029 62.2139
11.934663912939751 62.3061
11.9571020346363 62.4113
11.979523127133968 62.2401
12.001962169624331 63.1844
12.024384183972964 63.7953
12.046824150809913 66.2251
12.069264581333726 71.0152
12.091687985297767 76.6414
12.11412934550045 85.516
12.136553680195208 99.5982
12.158995973632788 121.632
12.181438735204349 150.822
12.20386447284199 182.15200000000002
12.226308172985636 202.745
12.24873485024193 202.516
12.271179492516982 170.456
12.293607112949127 129.44
12.316052700916226 100.475
12.338498763250042 81.3849
12.360927805303868 70.885
12.383374818673879 66.4914
12.405804812803074 64.2051
12.428252780773262 64.0326
12.45070122756722 63.9108
12.473132656675375 63.6227
12.49558206341869 63.9303
12.518014453510101 63.9233
12.540464823770117 63.9442
12.562915677315177 64.2567
12.58534951575545 65.1774
12.607801338171472 67.3345
12.630236146511358 73.4131
12.652688941369085 79.1544
12.675124723177234 79.4949
12.697578494048786 75.2146
12.720032754458185 70.0633
12.742470003354093 67.9033
12.764925245138771 67.5343
12.787363476431278 67.6611
12.809819703166806 67.9061
12.83227642391173 68.4861
12.854716135692716 69.1807
12.877173846755147 70.3502
12.899614549869717 70.3565
12.9220732548287 71.402
12.94453245827299 71.593
12.966974655289818 72.5668
12.989434858002571 73.3733
13.011878055298721 74.1552
13.034339260862497 74.8502
13.056800969391883 76.1936
13.079245674017244 78.0391
13.101708390774869 79.36399999999999
13.12415410463411 85.2905
13.146617833206086 95.8513
13.169064559883248 107.53299999999999
13.191529303857127 121.037
13.213994557076367 142.2
13.236442809902437 178.005
13.258909083908291 231.037
13.28135835851934 298.635
13.30382565690295 373.086
13.326293469022952 427.598
13.348744283242008 422.07599999999996
13.371213125129904 362.455
13.39366497011003 267.934
13.416134845360597 179.033
13.438605238843131 126.45200000000001
13.46105863690397 105.205
13.483530069144786 102.568
13.505984506951902 106.896
13.528456981549432 115.78
13.550929978879088 128.792
13.573385983253365 151.909
13.595860028340867 189.42700000000002
13.618317081455832 244.445
13.64079217790333 301.378
13.663250283359057 349.917
13.685726434770173 375.015
13.708203115221277 340.671
13.730662806148091 261.501
13.75314054697177 188.092
13.775601299246777 128.808
13.798080104050406 98.2353
13.820559442405358 85.5758
13.843021793671388 81.171
13.865502201420897 79.5636
13.887965623051947 78.9679
13.910447103807167 77.6386
13.932929122629764 76.3716
13.955394156785959 76.3046
13.977877254034569 75.348
14.000343367582113 74.4395
14.022827546871707 73.8992
14.045294743423524 72.7877
14.06778000837062 72.4112
14.090265817715476 72.3202
14.112734645763819 72.1444
14.13522154619454 72.0686
14.157691466286913 72.0986
14.180179461423874 71.7061
14.202668005486178 70.9932
14.22513957064374 70.3533
14.247629214846473 69.9903
14.270101881097517 69.8592
14.29259262906496 70.1314
14.315083930490205 70.868
14.337558255389705 71.1835
14.360050666019726 70.9355
14.382526101071944 69.7518
14.405019624534942 68.8079
14.427513705993134 68.3389
14.449990813291825 68.2461
14.47248601302899 68.061
14.49496423954951 68.2189
14.517460561197822 68.5135
14.539939910570322 68.1923
14.562437357763558 68.5386
14.58493536931253 69.8017
14.607416409993311 70.7414
14.62991555254159 71.5435
14.652397725157423 71.2595
14.674898002342799 70.4693
14.697398848433282 69.8011
14.719882725991326 70.2968
14.74238471217934 70.9223
14.764869730765593 73.1637
14.787372860692983 76.3808
14.809876564079925 80.5545
14.83236330125751 85.9669
14.854868153850365 94.3496
14.877356041159485 107.381
14.899862046604186 124.80799999999999
14.922351087688757 150.399
14.944858249632887 179.572
14.967365991421232 206.885
14.989856770231246 220.578
15.012365673994204 218.765
15.03485761569738 194.933
15.05736768508665 153.053
15.07987833888692 119.139
15.102372032001655 92.2767
15.124883856909658 77.5017
15.14737872204565 72.1039
15.169891721717274 70.3878
15.192405310371893 69.9513
15.214901940621196 70.5434
15.237416709527137 70.7266
15.259914520936249 71.0459
15.282430473753607 69.9843
15.304947020131227 68.7466
15.327446610371178 67.8836
15.349964346154254 66.8331
15.372465126703139 66.359
15.394984055556009 66.0685
15.417486030076159 66.1569
15.44000615566487 65.6934
15.462526881230803 65.4113
15.485030653812652 65.7292
15.507552581617434 65.8268
15.530057557334603 66.0157
15.55258069104857 65.9513
15.575104429329837 65.5047
15.597611216864632 65.3049
15.620136166564563 65.236
15.6426441664095 65.6795
15.665170331202765 67.5157
15.687697105158826 70.5947
15.710206930593545 73.59100000000001
15.732734925158933 77.4884
15.755245972089478 83.6136
15.77777519094324 92.2737
15.800287463046663 105.03200000000001
15.822817909869592 123.72
15.84534897229804 146.366
15.867863089299354 169.71599999999998
15.890395385222186 187.425
15.912910736597423 195.013
15.935444269699861 184.68200000000002
15.957978423016485 158.347
15.980495633101265 125.82
16.003031029129367 99.333
16.02554948280019 78.2615
16.048086125229432 68.3203
16.070623392487107 65.547
16.09314371869582 64.7095
16.11568223789321 63.6313
16.13820381691126 62.6345
16.160743591742527 61.4264
16.183283996022084 60.3502
16.205807461423195 59.2033
16.228349126881973 58.6029
16.25087385432698 58.6496
16.27341678466365 58.2818
16.29594277784926 58.0568
16.31848697676433 58.2894
16.341031811604868 58.8751
16.36355971058487 59.3211
16.3861058195587 58.9624
16.40863499352978 57.528
16.431182380342005 56.655
16.453730407713202 55.833
16.476261501364792 55.5231
16.498810812136167 55.2041
16.52134319004079 55.3591
16.54389378792203 55.2413
16.566445031001553 55.141999999999996
16.588979342490088 54.8157
16.61153187824822 54.7183
16.634067483263312 54.4236
16.656621315414416 54.3323
16.679175797408888 54.0179
16.701713349928728 54.4638
16.72426913389191 54.4965
16.74680798922351 54.7058
16.76936507887444 54.5772
16.791905240734874 54.6395
16.814463639794468 54.5316
16.837022695210294 54.4485
16.859564824093756 54.9239
16.882125194503903 55.6175
16.904668639217885 56.6547
16.927230328348003 56.9093
16.949792678493612 56.9432
16.972338104193863 55.9438
16.994901778652235 55.2985
17.017448529496576 55.2938
17.040013531998152 55.4849
17.06257920018044 55.6222
17.0851279459922 56.3106
17.107694947817667 57.2395
17.130245028099072 57.9475
17.15281336730298 59.1173
17.17536478578733 60.794
17.19793446610687 63.0428
17.220504818648422 65.9907
17.243058251703697 69.1179
17.265629950971032 74.0212
17.288184731571736 78.8964
17.310757781306908 82.9402
17.33333150794385 84.3303
17.355888317140174 83.17
17.37846339986244 77.8361
17.401021565958885 71.1272
17.42359800851343 65.7322
17.44617513265564 62.1837
17.468735341390783 59.973
17.491261035594565 58.8762
17.51396340099364 58.622
17.536490463869136 58.6251
17.559018209820174 58.8585
17.58154663977963 58.983999999999995
17.604251766089718 58.8581
17.626781572227713 59.1877
17.64931206518155 59.4421
17.671843245885103 60.0321
17.69455114821572 60.2757
17.717083712612634 60.481
17.739616967569667 60.5255
17.762150914021706 60.8566
17.78486160749854 60.836000000000006
17.807396945166804 61.215
17.829932977143503 61.816
17.85246970436452 63.1301
17.875183204129467 64.9049
17.897721330097664 66.703
17.920260154126645 69.2894
17.942799677153296 72.1487
17.9655159983646 75.6044
17.988056927677544 80.8707
18.010598558807683 88.1774
18.033140892692916 98.1532
18.05586005052525 108.906
18.07840379824407 120.521
18.10094825154059 131.135
18.12366954819864 139.345
18.146215420998306 139.274
18.16876200220057 131.012
18.191309292745153 117.309
18.214033452627167 103.29899999999999
18.236582170236648 91.7377
18.259131600016456 86.1441
18.281681742907335 85.8381
18.304408781233683 89.4471
18.32696035875955 94.9381
18.349512652227624 100.03
18.372065662579683 104.685
18.394795594587553 105.816
18.41735004715306 102.53200000000001
18.43990521943684 96.4472
18.46246111238171 87.3385
18.485193953325208 77.65
18.507751296070428 70.1115
18.530309362314178 65.9345
18.552868153000343 63.4439
18.57560391815056 61.9373
18.59816416623245 61.4505
18.620725141597372 60.9145
18.643286845190268 60.3068
18.666025549835414 59.8823
18.688588718427933 59.5503
18.711152618092243 59.4251
18.73389353884365 59.0176
18.75645890921984 58.6109
18.77902501351406 58.4123
18.801591852673102 58.3668
18.824335739722738 57.8662
18.846904057212626 57.7423
18.8694731124168 57.3716
18.89204290628315 57.1933
18.914789774966803 57.0977
18.937361054791623 56.8848
18.959933076131318 56.6743
18.982505839934877 56.608999999999995
19.00525570560582 56.6376
19.027829963004184 56.5586
19.05040496572238 56.5837
19.072980714710468 56.4531
19.095733592739563 56.7524
19.11831084296757 56.9198
19.140888842324735 57.3785
19.16346759176222 57.7376
19.18622349753803 58.1258
19.208803755869358 59.1109
19.231384767143577 60.0087
19.253966532312948 61.3651
19.276725481241822 63.5461
19.29930876296784 65.9723
19.3218928014549 69.3379
19.34465404436217 72.5874
19.36723960516257 75.4718
19.389825925592426 76.3234
19.412413006605938 75.2296
19.43517731967805 72.1329
19.457765930683355 67.79899999999999
19.48035530514408 63.3124
19.50294544401556 59.553000000000004
19.525712842708348 56.6086
19.54830451925909 55.0057
19.570896963095727 53.7944
19.593490175174704 53.479
19.616260674962184 53.7396
19.638855432416964 53.3104
19.661450960992624 53.3199
19.68404726164677 53.2725
19.706820878021247 52.9793
19.729418731756834 53.1546
19.752017360452857 52.8044
19.77461676506804 53.0626
19.797393513540218 53.1578
19.819994478951667 53.3097
19.84259622316767 53.95
19.8651987471481 54.27
19.887978643247177 54.4311
19.91058273574792 55.1227
19.933187610901943 55.6624
19.955969879466828 56.8594
19.97857632894404 58.2133
20.00118356396599 59.8521
20.023791585494575 61.6778
20.046577028914875 64.7799
20.069186632506966 66.9345
20.091797025500632 68.6307
20.114408208858933 69.5529
20.137196842715273 69.3545
20.159809615886765 67.8399
20.18242318232135 65.1961
20.20503754298326 63.1259
20.227829382875154 62.0054
20.250445341109344 61.9773
20.27306209647285 62.4568
20.29567964993108 63.599
20.31847471147704 64.8005
20.34109387027612 65.6419
20.363713830075454 65.3021
20.386334591841646 63.5506
20.409132890679302 61.1578
20.431755265564437 58.3383
20.454378445325528 55.6213
20.477002430930366 53.555
20.499803982716553 52.2942
20.522429589228004 51.4829
20.54505600449589 50.833999999999996
20.567683229489194 50.7192
20.590488049900088 50.3399
20.61311690359731 50.0672
20.63574656993626 49.7753
20.658553853717297 49.3622
20.681185154618298 49.256
20.703817271080066 49.2307
20.72645020407368 48.7821
20.749260783967177 48.7839
20.771895359337133 48.7317
20.794530754161617 48.5365
20.817166969412938 48.4953
20.83998086114876 48.6048
20.86261872660049 48.3787
20.885257415405402 48.3658
20.90789692853701 48.2902
20.930714147864748 48.1697
20.953355319030678 48.1431
20.97599731745334 48.3543
20.99864014410749 48.2734
21.021460706796564 48.4079
21.044105199328826 48.5987
21.06675052302631 48.7162
21.089396678865015 48.894
21.112220600704806 49.0945
21.134868430275347 49.558
21.15751709492456 49.8488
21.180166595629693 50.0901
21.202993892429635 50.4125
21.22564507473034 50.8742
21.24829709602816 50.965
21.27112693608965 51.1788
21.293780644891275 51.2139
21.316435195634053 50.4388
21.339090589297417 49.7461
21.361923832041875 49.4012
21.384580921090404 48.858000000000004
21.407238856007325 48.3474
21.429897637773326 48.1473
21.45273429906592 48.1046
21.475394784108598 48.1526
21.498056118951983 48.0358
21.520718304578022 48.1168
21.543558400304388 48.192
21.566222297108816 48.2336
21.58888704765135 48.4353
21.61155265291521 48.6329
21.63439619898156 49.2299
21.657063523335786 49.3314
21.67973170537063 49.9749
21.7024007460706 50.3282
21.72524775840385 51.1561
21.747918526116475 52.1821
21.770590155457388 53.1683
21.79326264741238 54.8036
21.816113141960237 56.498000000000005
21.838787368860547 58.3491
21.861462461341976 60.3834
21.884315579735777 62.2971
21.90699241312273 63.4642
21.92967011506078 64.1009
21.95234868653799 64.0855
21.9752053151131 63.1503
21.997885635446785 61.3408
22.020566828293532 59.443000000000005
22.04324889464272 57.76
22.066109049404666 56.3
22.088792872571794 55.7658
22.111477572219204 55.8787
22.1341631493376 55.9293
22.157026846313123 55.6162
22.179714188221507 55.0335
22.202402410582668 53.9707
22.22509151438863 52.4313
22.24795876962584 51.2955
22.270649646204486 50.2055
22.293341407213727 49.6564
22.316034053646906 49.2144
22.338904883215342 48.8454
22.36159931041458 48.7255
22.38429462602756 48.7822
22.40699083104897 48.6536
22.429865251039757 48.5653
22.452563244831367 48.781000000000006
22.47526213102522 48.8103
22.49813925616515 48.5191
22.520839937143307 48.2355
22.543541513520587 48.2381
22.56624398629403 48.2584
22.589124730075895 48.2929
22.611829005656723 48.3157
22.63453418063466 48.2162
22.657240256008077 48.4734
22.680124634582935 48.7072
22.70283252079775 48.8929
22.725541310413075 49.1322
22.74825100442868 49.2703
22.771139033969575 49.8841
22.79385054687155 49.8877
22.81656296718292 50.5926
22.83927629590484 51.4898
22.862167992606945 52.5248
22.88488314827121 53.6021
22.907599215359284 54.7797
22.93031619487366 55.7879
22.953211574954405 56.8125
22.975930389478226 57.6416
22.998650119445763 57.8091
23.02137076586092 57.158
23.044269845560063 55.8839
23.06699233506288 54.3578
23.089715744034912 52.5288
23.112617610931565 50.8585
23.135342869061212 49.7781
23.158069049684816 48.9811
23.1807961538087 48.6004
23.20370174880544 48.5531
23.226430710184808 48.5613
23.249160598093425 48.5051
23.271891413539002 48.4932
23.294800752937697 48.3545
23.31753343374794 48.5477
23.340267045128353 48.5916
23.36300158808808 48.9554
23.38591468821339 49.3479
23.408651104658304 49.6643
23.431388455719986 50.3148
23.454126742409 51.1892
23.4770436196085 52.0801
23.499783787914662 53.5603
23.522524894889884 54.5272
23.54526694154616 55.592
23.56818761219047 56.7296
23.59093154860734 57.107
23.613676427751283 57.5109
23.636422250635754 56.7108
23.659346731118656 55.3437
23.68209445191868 53.5035
23.704843119509587 51.3419
23.72759273490623 49.6503
23.750521041644767 48.2008
23.77327256312355 47.1212
23.796025035462787 46.4163
23.818956224555475 45.8274
23.841710609113413 45.765
23.86446594758979 45.5275
23.887222241002014 45.3465
23.910157285144578 44.8676
23.932915498962537 44.9623
23.955674670778713 44.8399
23.978434801611975 44.5882
24.001373717286125 44.5084
24.024135776723917 44.3945
24.046898798245582 44.2828
24.06966278287146 44.1857
24.092605586582614 43.9876
24.115371508023642 43.9219
24.1381383956401 43.7598
24.16090625045381 43.7587
24.183852958731244 43.6467
24.206622758582608 43.6903
24.229393528706886 43.3563
24.252165270127392 43.4907
24.27511589952438 43.4376
24.297889594216997 43.0946
24.32066426328598 42.9847
24.34343990775613 43.0968
24.36639447485003 42.9584
24.38917208083877 42.977
24.41195066531332 42.7876
24.43490819850244 43.0504
24.457688750692377 42.8222
24.48047028445616 42.7122
24.503252800821233 42.6637
24.526214300784112 42.7396
24.548998793132213 42.8368
24.57178427117417 42.7443
24.59457073593893 42.6291
24.617536219319863 42.6864
24.64032466834748 42.688
24.663114107195035 42.57899999999999
24.685904536893013 42.4102
24.708874020360852 42.3219
24.731666442613744 42.1665
24.754459858818787 42.3153
24.777254270007962 42.233999999999995
24.80022777025625 41.9865
24.82302418230472 41.8639
24.845821592443674 41.8677
24.86862000170663 41.8289
24.891597535453727 41.8344
24.914397953892728 41.893
24.93719937456671 41.8482
24.96000179851076 41.9315
24.98298338249997 42.1793
25.00578782394922 42.3282
25.028593271784167 42.5371
25.05157790644186 42.7535
25.07438537804115 42.9258
25.097193859145293 43.1018
25.120003350792075 43.4651
25.142992065061257 43.6913
25.165803588823465 44.1754
25.18861612625217 44.3353
25.211429678386736 44.4185
25.234422489079968 44.4386
25.257238081693636 44.5404
25.280054692141732 44.5943
25.3028723214652 44.5956
25.325869245420463 44.6848
25.348688923599397 44.6307
25.371509623787006 44.7113
25.394331347025812 44.4274
25.41733240110666 43.9685
25.440156181590016 43.2798
25.46298098826268 42.9381
25.48580682216873 42.32899999999999
25.50881202326435 41.6216
25.53163992281684 41.2104
25.55446885274561 41.0292
25.577298814096377 40.6678
25.600308179121807 40.7042
25.623140214533745 40.7206
25.64597328451537 40.6339
25.66898578564376 40.4125
25.691820936010206 40.4494
25.714657124097695 40.1942
25.737494350954734 40.2929
25.760511045684957 40.2678
25.783350361364224 40.2631
25.806190718969255 40.3167
25.82903211955018 40.4961
25.852053024868923 40.4725
25.874896522722523 40.3903
25.897741066713106 40.3813
25.920586657892454 40.4547
25.943611790812668 40.5968
25.966459487728237 40.7249
25.989308234998564 40.6896
26.01215803367705 41.0823
26.03518741123814 41.2767
26.05803932412957 41.422
26.080892291600094 41.3389
26.10374631470478 41.4375
26.12677995397268 41.4444
26.14963609978026 41.3254
26.172493304397875 41.1921
26.19535156888223 41.0253
26.218389486949604 40.6583
26.241249882640123 40.283
26.26411134137826 40.043
26.28715248187403 40.135
26.31001607820869 39.8694
26.3328807407756 39.6785
26.35574647063438 39.8636
26.37879191991473 39.8747
26.401659795896734 39.9154
26.424528742360263 39.983000000000004
26.447398760366614 40.1486
26.470448535598294 40.2442
26.49332070826805 40.4645
26.516193955675355 40.8442
26.53906827888316 40.9855
26.562122397260108 41.0806
26.584998883685063 41.2947
26.607876449110325 41.6643
26.63075509460056 41.8102
26.65381357334404 41.9701
26.67669439061878 41.9499
26.699576291163382 42.0588
26.722459276044212 41.8333
26.745522132402975 41.5735
26.768407297649354 41.2277
26.791293550442003 40.8525
26.814180891848974 40.6349
26.837248143099337 40.3331
26.860137673466657 40.2353
26.88302829566349 39.9215
26.90592001075963 39.7511
26.92899167420566 39.6436
26.951885586870763 39.2553
26.974780595655517 39.174
26.99785558178161 38.8987
27.020752794605112 38.7628
27.043651106772522 38.665
27.06655051935668 38.6239
27.089629948036183 38.4931
27.112531573292053 38.3872
27.135434302194138 38.475
27.158338135817015 38.2363
27.181422024430987 38.3652
27.204328079372566 38.2013
27.22723524226965 38.3737
27.250143514198573 38.431
27.273231880156334 38.3759
27.296142382065014 38.0427
27.319053996245536 38.0358
27.341966723775965 38.3306
27.365059584515222 38.1694
27.38797455070062 38.2627
27.410890633481237 38.0497
27.433807833936918 38.1148
27.456905206923906 38.2083
27.47982465472398 38.2507
27.502745223449743 38.2674
27.525666914182825 38.3941
27.548768816912457 38.3605
27.571692763693633 38.2678
27.59461783573812 38.1314
27.617723149491244 38.0303
27.640650484125285 37.9205
27.66357894728264 37.7167
27.686508540048052 37.7863
27.709618414237887 37.6943
27.732550278321757 37.6166
27.755483275279115 37.4939
27.778417406196485 37.6534
27.801531858397514 37.646
27.824468269376716 37.4401
27.847405817586786 37.4425
27.870344504116094 37.792
27.893463551932008 37.961
27.916404527281053 38.1494
27.93934664422563 38.2187
27.962289903855886 38.1405
27.98541356491974 38.2538
28.00835912214229 38.3949
28.03130582533231 38.6774
28.054253675581805 38.7338
28.077381967556104 38.8326
28.100332124185126 38.7728
28.123283431160893 38.747
28.146235889577238 38.6743
28.169368830154156 38.5142
28.192323603752033 38.2503
28.215279532083304 38.0776
28.238415973016764 37.8032
28.261374223145094 37.5798
28.284333631303806 37.3407
28.307294198589954 37.313
28.330435319167677 37.0112
28.353398217078915 36.8151
28.376362277420153 36.5843
28.39932750129032 36.4313
28.422473319286713 36.2451
28.44544088262495 36.199
28.468409612800283 36.0862
28.491379510913497 35.8258
28.51453004413313 35.6351
28.53750229057244 35.6753
28.56047570826344 35.5873
28.583450298308804 35.7176
28.606605564586562 35.3805
28.629582511831156 35.4712
28.65256063474956 35.3851
28.675539934446338 35.4247
28.698699951647605 35.5302
28.72168161743193 35.2726
28.74466446331978 35.3802
28.767648490417624 35.2704
28.790813276438353 35.2345
28.813799678527303 35.2653
28.836787265157085 35.4548
28.859955641890075 35.2945
28.882945610203045 35.2383
28.905936766392035 35.0864
28.928929111566863 35.2243
28.952102288520145 35.0546
28.975097024308607 35.0243
28.998092952423807 34.8132
29.021090073977508 34.7632
29.04426806913204 34.6849
29.067267590245258 34.5179
29.090268308143695 34.4366
29.11327022394099 34.3263
29.13645305530891 34.2846
29.159457379627167 34.2656
29.18246290519685 34.1608
29.20546963313352 34.084
29.22865731875826 34.239000000000004
29.25166646419296 34.1996
29.27467681535305 34.0864
29.29768837335608 34.1589
29.320880931312562 34.166
29.34389491580634 34.1871
29.366910110507334 34.1004
29.38992651653503 34.0535
29.41312396492981 33.9476
29.436142806456754 34.0354
29.45916286268059 33.8812
29.48236399319994 33.7397
29.50538649169417 33.7673
29.528410208259935 33.6132
29.55143514402014 33.271
29.574641196749695 33.2193
29.597668583816574 33.2007
29.6206971934585 32.9205
29.64372702680042 33.0081
29.666938019934474 32.8961
29.689970313635285 32.8064
29.713003834422636 32.8251
29.73603858342347 32.7499
29.759254535188578 32.7039
29.78229175361658 32.6741
29.80533020365064 32.685
29.82836988641968 32.6578
29.85159081507472 32.6558
29.874632976355343 32.4227
29.89767637376955 32.6039
29.920721008448314 32.4621
29.9439469322847 32.4111
29.96699405457564 32.283
29.9900424175358 32.4599
30.013092022298157 32.2702
30.03632295963995 32.2121
30.059375061131373 32.2647
30.08242840783577 32.3581
30.105483000888153 32.3701
30.128718970092244 32.2169
30.151776069006917 32.232
30.17483441768648 32.2843
30.198074175317235 32.2617
30.221135036724256 32.2608
30.24419715131772 32.2157
30.267260520236203 32.0958
30.290505341942243 32.2007
30.313571232750228 32.1801
30.336638381310948 32.0884
30.35970678876503 32.001999999999995
30.38295669299435 31.9563
30.40602763151657 31.9985
30.429099832366074 32.0127
30.452173296685572 31.9911
30.47542830191959 31.9117
30.498504306502497 31.8592
30.521581577995562 32.0419
30.544660117543582 31.971
30.56792024229725 32.0018
30.59100133132069 32.0608
30.614083691845494 32.0351
30.637167325018545 32.0024
30.660432587840603 31.9544
30.683518779717886 32.0001
30.70660624769615 32.0315
30.729694992924372 32.0912
30.75296541239743 31.9963
30.77605672557558 32.0353
30.799149319462742 31.9896
30.8224236211637 31.8932
30.845518789950724 31.8205
30.868615242910597 31.6781
30.891712981195973 31.4815
30.91499247215866 31.4368
30.938092794619365 31.3977
30.96119440587579 31.2746
30.984297307082752 31.2732
31.00758200598383 31.2416
31.030687500658694 31.108
31.053794288760695 31.1184
31.076902371446767 30.9199
31.100192296997445 31.0693
31.12330298246119 30.7961
31.14641496599209 30.7651
31.169528248749216 30.8117
31.19282341969534 30.8101
31.215939314557186 30.775
31.239056512134788 30.8956
31.262175013589378 30.7914
31.28547544871168 30.7293
31.30859657161541 30.6704
31.331719001892175 30.6813
31.35484274070538 30.7854
31.378148458819545 30.726999999999997
31.401274828443725 30.7516
31.424402510106933 30.6418
31.447712205419993 30.7094
31.470842524931633 30.5438
31.493974159989783 30.6523
31.51710711176168 30.5903
31.54042212308802 30.5981
31.563557722100917 30.5706
31.586694641341655 30.3663
31.609832881979628 30.2734
31.63315322823208 30.3338
31.656294125521327 30.1554
31.679436347728515 30.1914
31.70257989602529 30.0315
31.725905596152327 29.9819
31.74905181052835 29.9369
31.772199354521323 30.0925
31.79534822930507 30.0297
31.818679302290967 29.9894
31.84183085259981 30.0445
31.864983737233473 29.979
31.88813795736804 29.9989
31.911474422233013 29.9359
31.934631327356435 29.8934
31.9577895715215 29.9396
31.980949155906522 29.8746
32.004291031706956 29.8066
32.027453310562606 29.7848
32.05061693318573 29.6947
32.07396288236386 29.6455
32.09712920658542 29.5517
32.12029687812702 29.4657
32.14346589817093 29.4229
32.166817291729984 29.3579
32.18998902288583 29.320999999999998
32.21316210610336 29.3113
32.23633654256711 29.1088
32.259693399663725 29.0868
32.282870556771144 29.0473
32.30604907069099 29.0702
32.329228942610065 29.0366
32.35259128243769 28.828000000000003
32.375773884550505 28.809
32.398957848235646 28.8022
32.422143174682176 28.7714
32.445511016471215 28.6627
32.468699082679954 28.6058
32.49188851523011 28.6111
32.51507931531304 28.488000000000003
32.538452678331 28.4675
32.56164622776311 28.4593
32.58484114831493 28.4366
32.60803744118015 28.3715
32.631416344731896 28.4032
32.654615396551876 28.2887
32.67781582427913 28.2423
32.701198898634416 28.1833
32.72440209253756 28.1389
32.747606665947124 28.1432
32.77081262006088 27.9651
32.79420126883317 27.9674
32.81740999876112 27.9142
32.840620112999424 27.8643
32.86383161274818 27.897
32.88722585534586 27.8702
32.91044014056596 27.9055
32.933655814909734 27.8145
32.95687287957963 27.8319
32.98027273544904 27.7585
33.00349259526636 27.7235
33.026713849030116 27.7363
33.04993649794511 27.6519
33.073341986570746 27.6179
33.09656744032826 27.7007
33.11979429286444 27.6632
33.14302254538647 27.7575
33.166433686291185 27.6862
33.18966475336992 27.5716
33.212897224069096 27.5017
33.23613109959831 27.4957
33.259547912343415 27.4253
33.2827846121627 27.4367
33.306022720453775 27.3562
33.32926223842861 27.1852
33.352684742614166 27.2316
33.37592709463173 27.2194
33.399170859982064 27.1317
33.422597648419426 27.1164
33.44584425514446 26.9817
33.46909227885668 26.989
33.4923417207723 26.89
33.51577423505344 26.9516
33.539026528130385 26.826999999999998
33.56228024307245 26.7993
33.585535381098246 26.6879
33.60897364093058 26.581999999999997
33.63223163992385 26.5319
33.6554910656699 26.563000000000002
33.678751919389796 26.5354
33.702195944520106 26.4341
33.72545966903325 26.4922
33.74872482519663 26.3979
33.771991414233746 26.3895
33.79544122444841 26.3746
33.81871069412428 26.233
33.84198160035767 26.2191
33.86525394437455 26.3059
33.88870955949969 26.1371
33.911984794020626 26.1522
33.93526147001624 26.139
33.958539588715006 26.1287
33.98200102861669 26.0424
34.0052820477047 25.9783
34.02856451319451 25.9187
34.05203033759056 25.8284
34.07531571090147 25.8495
34.09860253431845 25.8727
34.121890809074316 25.7766
34.145362493118924 25.7017
34.16865368561615 25.6142
34.191946333164054 25.6404
34.21524043699793 25.645
34.23871800066799 25.6239
34.26201503218366 25.4879
34.28531352370466 25.5279
34.30861347646881 25.4952
34.33209693978188 25.4888
34.3553998301885 25.3833
34.378704185565205 25.3051
34.402010007152356 25.2318
34.42549939016683 25.2142
34.44880815937748 25.1588
34.472118398533134 25.1113
34.49543010887669 25.1855
34.51892543169198 25.0759
34.54224009966052 25.0989
34.56555624255917 24.9904
34.58887386163339 24.9261
34.61237514439016 24.933000000000003
34.6356957311114 24.892
34.65901779775809 24.7898
34.68252356662995 24.7422
34.705848608458616 24.7445
34.72917513396849 24.6838
34.75250314440949 24.6959
34.77601490857862 24.5872
34.799345904259795 24.6034
34.82267838863559 24.6022
34.846012362958525 24.5303
34.869530142679984 24.4663
34.89286711232212 24.3724
34.91620557568269 24.3468
34.93954553401677 24.3687
34.9630693495876 24.3761
34.986412313340814 24.3997
35.00975677584668 24.3344
35.033102738362956 24.3276
35.05663261012228 24.2565
35.0799815881786 24.214000000000002
35.10333207003229 24.1107
35.12668405694369 24.1756
35.150220005273056 24.1926
35.17357501786656 24.2615
35.19693153931268 24.0701
35.220289570874385 24.0476
35.24383161619786 24.0187
35.267192683604904 24.0154
35.290555264930376 23.9691
35.314101899412165 24.0076
35.33746752422433 24.0109
35.36083466676374 23.9086
35.38420332829803 23.8619
35.407756095629054 23.8773
35.43112781085063 23.8906
35.45450104888391 23.8796
35.477875810999194 23.7779
35.50143473172161 23.7138
35.52481255774625 23.7382
35.54819191167777 23.736
35.57157279478914 23.7276
35.595137889488406 23.6692
35.61852184675279 23.5332
35.641907337029984 23.4815
35.665294361595684 23.5243
35.68886565090076 23.5067
35.7122557598848 23.4286
35.73564740699838 23.4647
35.759040593519934 23.4013
35.78261809810353 23.3613
35.80601437933051 23.2385
35.829412203814705 23.2321
35.85281157283719 23.2043
35.876395313415884 23.2059
35.8997977874528 23.1409
35.92320180988546 23.0954
35.946790244133936 23.0364
35.97019737933222 23.055
35.993606066789866 23.0526
36.01701630779276 22.9543
36.04061101440684 22.854
36.06402437852291 22.8752
36.08743930005611 22.8697
36.1108557802951 22.7538
36.13445678011326 22.7922
36.15787639383515 22.7475
36.18129757014299 22.7088
36.20472031032821 22.6414
36.22832762423364 22.6002
36.25175350829375 22.6048
36.275180960119776 22.4936
36.298609981005924 22.5533
36.32222362992669 22.5766
36.34565580510207 22.5219
36.36908955323448 22.3971
36.39252487562093 22.3744
36.416144880530226 22.3057
36.43958336764275 22.3349
36.463023432914625 22.2789
36.486465077645676 22.2427
36.51009145956204 22.2859
36.53353627947859 22.3202
36.55698268276811 22.2341
36.58043067073321 22.1819
36.60406345072071 22.0934
36.62751462435344 22.0784
36.65096738658405 22.0764
36.67460498210655 22.0075
36.69806093788647 21.9628
36.72151848619297 21.9398
36.744977628333636 21.9926
36.76862165890998 21.8852
36.79208400512205 21.8692
36.81554794910557 21.8922
36.83901349217101 21.7329
36.862663978991606 21.7372
36.88613273667352 21.7268
36.90960309738324 21.6998
36.933075062434064 21.6906
36.95673202673572 21.6191
36.98020721697122 21.5784
37.003684015502365 21.5507
37.027162423645365 21.5056
37.050825886711465 21.4591
37.07430753063053 21.3928
37.09779078812467 21.3738
37.121275660513014 21.3402
37.144945643673694 21.2962
37.16843376245278 21.2897
37.19192350009803 21.3046
37.215414857931435 21.2367
37.239091382563885 21.1536
37.262585997426164 21.1436
37.28608223645736 21.2318
37.309763684451696 21.13
37.33326318851098 21.1013
37.356764320726555 21.0448
37.380267082425526 21.0345
37.40395510942588 21.0207
37.42746114683234 20.9741
37.45096881771841 20.9147
37.474478123414166 20.8452
37.49817275092816 20.8322
37.52168534303452 20.8666
37.54519957395567 20.7501
37.568715445024665 20.7542
37.592416694607714 20.7117
37.61593586281424 20.7287
37.63945667518264 20.7919
37.66297913304891 20.614
37.68668702630454 20.6305
37.710212792059274 20.5053
37.733740207334854 20.5468
37.757269273470364 20.4481
37.780983832050374 20.3848
37.80451621684926 20.3888
37.82805025654007 20.3225
37.851585952464795 20.323
37.8753071980695 20.3186
37.89884622345676 20.2911
37.92238690911902 20.3167
37.94611318753442 20.2513
37.969657210779765 20.1677
37.99320289834801 20.1814
38.016750251586465 20.1777
38.04048325513017 20.0775
38.06403395679343 20.0382
38.087586328183946 20.007
38.11114037065203 20.04
38.13488012115898 20.0392
38.1584375229181 19.9043
38.181996599821 19.8778
38.205557353221124 19.9614
38.229303872575656 19.8812
38.2528679961576 19.7931
38.27643380031219 19.7381
38.30000128639589 19.6756
38.32375459653193 19.7145
38.34732546371299 19.6974
38.37089801690786 19.699
38.39447225747609 19.6109
38.418232380377425 19.6431
38.441810012983396 19.6342
38.46538933705673 19.5676
38.488970353960084 19.5418
38.51273731166058 19.4547
38.536321731567014 19.4412
38.55990784840681 19.4271
38.58367995004091 19.3819
38.60726947812959 19.3235
38.63086070726198 19.3731
38.654453638806274 19.3135
38.678232613930824 19.2769
38.70182896773327 19.1823
38.72542702806741 19.1316
38.7490267963045 19.1588
38.77281266709232 19.0477
38.79641586862214 19.0328
38.8200207821842 19.0115
38.843627409152944 19.0714
38.86742019782782 19.0063
38.891030269149255 18.9449
38.914642058016156 18.9304
38.938255565806124 18.9684
38.96205529464307 18.8565
38.98567225787121 18.8477
39.00929094417078 18.8647
39.03291135492255 18.8055
39.05671804624804 18.7836
39.080341923549106 18.7501
39.103967529460334 18.6676
39.127594865365744 18.6997
39.15140854155791 18.6093
39.17503935514948 18.5437
39.19867190290282 18.5715
39.22249083587951 18.5655
39.24612686969409 18.5234
39.269764641845306 18.5203
39.293404153722804 18.5108
39.317230110864074 18.424
39.34087311998506 18.3842
39.36451787301696 18.3923
39.388164371352595 18.3556
39.41199737518003 18.3012
39.43564738196752 18.3326
39.45929913825317 18.2338
39.48295264543308 18.2301
39.506792718520884 18.2144
39.530449745387216 18.1392
39.55410852735203 18.1099
39.57776906581474 18.1239
39.60161623079 18.1256
39.625280300200025 18.1357
39.64894613032202 18.0315
39.67261372255866 17.9535
39.6964680021016 17.9557
39.72013913657293 17.9418
39.74381203738292 17.9699
39.76748670593756 17.8599
39.79134812278169 17.8607
39.81502634488497 17.859
39.83870633896685 17.8409
39.862388106436654 17.7476
39.88625668336918 17.750999999999998
39.90994201572829 17.7902
39.933629125719285 17.7226
39.957503091207826 17.6569
39.9811937746168 17.704
40.00488623990914 17.644000000000002
40.02858048850006 17.6038
40.05246165409549 17.5516
40.076159487492085 17.4988
40.099859108448875 17.4733
40.123560518384345 17.4462
40.1474489070226 17.4736
40.171153913178564 17.4123
40.194860712584955 17.3729
40.2185693066637 17.3437
40.242464941335314 17.3551
40.26617714307655 17.3068
40.289891143772046 17.3181
40.3136069448471 17.2083
40.33750984859743 17.2196
40.3612292688043 17.2197
40.3849504936829 17.1727
40.40867352466194 17.1211
40.43258372059144 17.1034
40.45631038219906 17.1215
40.48003885420956 17.0657
40.503769138055105 17.0059
40.52768664931955 17.0055
40.55142057531802 16.9771
40.57515631746428 16.9227
40.599079334038514 16.9501
40.62281872700477 16.9429
40.64655994043941 16.8804
40.67030297578061 16.9068
40.69423334835778 16.8298
40.71798004609188 16.774
40.74172857006355 16.7512
40.76547892171441 16.7435
40.7894166736039 16.7131
40.813170699248566 16.6691
40.83692655691388 16.6992
40.86068424804498 16.6767
40.884629402612525 16.6042
40.908390779366385 16.5616
40.932153993938 16.5694
40.95591904777605 16.5059
40.979871628443995 16.4826
41.003640379561936 16.4845
41.02741097430883 16.4196
41.05118341413683 16.3964
41.075143444384416 16.4058
41.098919593177826 16.4194
41.1226975914255 16.3143
41.14647744058318 16.2987
41.170444943946755 16.2769
41.19422851378379 16.2842
41.218013938914645 16.2425
41.24198706625173 16.2011
41.26577622087193 16.2514
41.289567235177785 16.1533
41.31336011063129 16.1004
41.337340752422875 16.0616
41.361137369129835 16.0713
41.38493585138705 16.0736
41.40873620066004 16.0049
41.43272438060107 15.9965
41.45652848292052 15.9384
41.48033445666918 15.9482
41.50414230331616 15.8767
41.528138045159764 15.8405
41.551949656675205 15.8448
41.575763145513235 15.8043
41.59957851314666 15.7893
41.62358184070442 15.7851
41.64740098505737 15.7481
41.6712220126409 15.722999999999999
41.69504492493139 15.6769
41.71905586207357 15.6774
41.74288256296395 15.6101
41.766711153007456 15.5966
41.79054163368412 15.5401
41.814560204340054 15.5845
41.838394485526365 15.5424
41.86223066180303 15.5564
41.88625497706819 15.5122
41.910094962812 15.498
41.93393684811168 15.4525
41.95778063445365 15.3831
41.981812625263366 15.3786
42.00566023303407 15.2922
42.029509746323676 15.293
42.05336116662236 15.2988
42.077400857069705 15.2827
42.10125611078846 15.265999999999998
42.12511327600405 15.2507
42.14897235421036 15.2326
42.173019768448455 15.1843
42.19688269209613 15.0816
42.22074753323349 15.1113
42.24461429335818 15.162
42.268669455600495 15.0724
42.292540073217886 15.0332
42.31641261433284 15.0241
42.34028708044675 15.0184
42.36435001496739 14.9857
42.38822835065557 14.9646
42.41210861586426 14.9198
42.4359908120986 14.92
42.46006154323262 14.9014
42.48394762115317 14.8255
42.507835634632315 14.8815
42.531912233047436 14.8355
42.55580413732265 14.7431
42.579697981698 14.7594
42.60359376768525 14.7486
42.62767820545945 14.7068
42.65157789440821 14.679
42.67547952952185 14.7009
42.699383112316 14.6513
42.72347541395347 14.585
42.74738291190531 14.6347
42.771292362102166 14.5547
42.795203766063516 14.5229
42.819303956130405 14.5666
42.843219287476536 14.5083
42.86713657716324 14.4471
42.89105582671383 14.3789
42.91516392983864 14.4307
42.939087119032166 14.3736
42.963012272677304 14.4022
42.98693939230129 14.3139
43.01105543317513 14.2947
43.034986504731386 14.3166
43.05891954686589 14.2913
43.08285456110972 14.2372
43.10697856448665 14.2115
43.130917542983475 14.152999999999999
43.15485849820081 14.1766
43.17880143167367 14.1001
43.20293342237094 14.0939
43.226880332449 14.0593
43.25082922540554 14.0589
43.27496722682525 14.0663
43.29892010567796 14.0317
43.32287497204102 14.0065
43.34683182745632 13.9643
43.370977859791836 13.9339
43.39493871351105 13.8975
43.41890156092628 13.9373
43.44286640358341 13.9106
43.46702049182749 13.8386
43.49098934522816 13.7843
43.51496019852649 13.7881
43.5389330532723 13.8366
43.56309522248204 13.7462
43.58707210044314 13.6931
43.61105098451946 13.6447
43.63503187626491 13.6416
43.659202151562134 13.6692
43.68318707902681 13.6633
43.70717401884041 13.6217
43.731162972560874 13.557
43.75534137913236 13.549000000000001
43.779334381108384 13.5284
43.803329401683186 13.508
43.82732644241872 13.5055
43.8515130055166 13.4719
43.87551410707659 13.4316
43.89951723350145 13.458
43.923709934595614 13.4103
43.94771713129917 13.3824
43.97172635758096 13.3663
43.99573761501002 13.356
44.0199385169922 13.3185
44.04395385732619 13.2948
44.067971233533086 13.2773
44.09199064718605 13.2782
44.11619977548961 13.220999999999998
44.14022328470671 13.1857
44.16424883610785 13.196
44.18827643127035 13.2268
44.21249381139513 13.0895
44.236525514814076 13.0845
44.26055926674478 13.1317
44.28459506876863 13.1117
44.3088207262813 13.0702
44.33286064928722 13.0256
44.35690262714919 12.9903
44.38094666145278 12.9307
44.4051806219871 12.9418
44.42922879003185 12.922
44.45327901929361 12.9423
44.477331311362136 12.9161
44.501573600619416 12.8511
44.525630039221795 12.8422
44.54968854541895 12.8234
44.573937102200176 12.7945
44.5979997645541 12.7958
44.622064499300315 12.7604
44.64613130803592 12.6838
44.67038823869318 12.7364
44.69445921643748 12.6877
44.718532272981385 12.7016
44.742607409926194 12.700999999999999
44.76687274034801 12.6255
44.79095205918753 12.602
44.81503346325094 12.5657
44.839116954143876 12.5439
44.86339071028742 12.5352
44.88747839599524 12.4811
44.91156817336837 12.4691
44.93566004401666 12.4758
44.959942251908146 12.4429
44.984038330325966 12.4203
45.00813650686762 12.3752
45.03223678314731 12.3679
45.05652746888232 12.3457
45.08063196592069 12.3269
45.104738567558705 12.2896
45.128847275414856 12.3044
45.15314646515866 12.2775
45.17725940679741 12.2685
45.20137445952892 12.2291
45.22568004865265 12.1676
45.24979934496396 12.1648
45.27392075725247 12.1466
45.29804428714431 12.1472
45.322358426247604 12.1481
45.346486212804315 12.0677
45.370616121861914 12.0572
45.39474815505086 12.035
45.41907087049246 12.0265
45.4432071734666 11.9983
45.46734560548283 11.9785
45.49148616817604 11.9411
45.51581748638564 11.9068
45.5399623320197 11.9022
45.56410931325473 11.8328
45.58825843173002 11.8908
45.61259837920865 11.8328
45.636751793816 11.843
45.66090735060093 11.8134
45.68506505120716 11.7446
45.7094136545275 11.72
45.73357566449271 11.7142
45.75773982322992 11.7271
45.78190613238733 11.6956
45.806263418194064 11.635
45.83043404997326 11.6829
45.85460683713677 11.642999999999999
45.87897065658495 11.6354
45.90314777634752 11.599
45.92732705646868 11.5964
45.9515084986045 11.5705
45.97588104735473 11.5965
46.00006683541565 11.5392
46.02425479047904 11.4808
46.04844491420549 11.4584
46.0728262191024 11.4537
46.09702070211635 11.4447
46.12121735879483 11.4277
46.14541619080294 11.4105
46.169806278764455 11.4053
46.194009483459034 11.4073
46.21821486849841 11.3473
46.24242243555223 11.3192
46.266821333570014 11.3002
46.29103328674601 11.277999999999999
46.31524742696538 11.2816
46.33946375590237 11.1753
46.36387149104216 11.2083
46.38809221957392 11.2045
46.41231514186606 11.1576
46.436540259597464 11.1502
46.460956858999374 11.118
46.48518638983522 11.1534
46.509418121166966 11.0876
46.533652054678114 11.0883
46.55807754555709 11.0326
46.58231590571962 11.0421
46.60655647313217 11.0279
46.630988654873654 10.9907
46.655233659129024 11.0185
46.67948087571551 10.9794
46.70373030632484 10.9589
46.72817142736393 10.9214
46.752425308428684 10.9277
46.77668140861147 10.8917
46.80093972960865 10.8165
46.82538981736788 10.8265
46.849652602470904 10.8427
46.87391761349769 10.7854
46.8981848521493 10.7618
46.9226439341274 10.7582
46.946915650573224 10.6975
46.97118959976749 10.7026
46.99546578341598 10.683
47.019933887188216 10.6523
47.04421456235744 10.6551
47.06849747711879 10.6369
47.09278263318286 10.5811
47.11725978640143 10.5688
47.14154944775105 10.5365
47.165841355555656 10.5295
47.1901355115306 10.5342
47.214621741924994 10.529000000000002
47.23892041698887 10.4552
47.26322134538975 10.4544
47.28771440635075 10.431
47.31201986422527 10.4267
47.33632758061436 10.4334
47.360637557241866 10.4098
47.38513974410611 10.4085
47.40945426407847 10.3931
47.43377104948137 10.322000000000001
47.45809010204344 10.2961
47.48260144275502 10.3019
47.506925052572285 10.2583
47.53125093475548 10.2163
47.55557909103813 10.270999999999999
47.58009961361992 10.2159
47.60443234110732 10.1561
47.62876734791564 10.1841
47.65310463578333 10.1593
47.6776343683373 10.1682
47.7019762413987 10.1011
47.72632040075572 10.1025
47.75066684815169 10.1107
47.77520581885936 10.0931
47.799556865477655 10.0763
47.823910205386 10.031
47.84826584033272 10.0161
47.87281407745551 9.97312
47.89717432569297 9.972430000000001
47.92153687423484 9.97127
47.94609208429692 9.96652
47.97045925671401 9.87612
47.99482873471275 9.894689999999999
48.01920052005013 9.89367
48.04376504619224 9.8558
48.068141469543484 9.86094
48.09252020552573 9.8337
48.11690125590099 9.80344
48.1414751266064 9.79177
48.16586082917454 9.80898
48.19024885144316 9.79696
48.2146391951793 9.76855
48.239222439012764 9.75656
48.26361744916137 9.72349
48.28801478610016 9.71154
48.31241445160131 9.69523
48.337007097209366 9.6603
48.36141144338331 9.64385
48.38581812345755 9.62933
48.41022713920929 9.64552
48.434829215320704 9.593110000000001
48.45924292604658 9.59715
48.48365897780325 9.582
48.50807737237308 9.528310000000001
48.532688907799276 9.49542
48.55711201168574 9.4999
48.581537463754074 9.489980000000001
48.60615611725119 9.50325
48.63058628942721 9.4338
48.65501881516546 9.46845
48.6794536962573 9.41867
48.70408185970339 9.41377
48.72852147531801 9.35634
48.75296345168211 9.36699
48.77740779059232 9.35903
48.80204549302823 9.376380000000001
48.82649458091802 9.33808
48.85094603676547 9.29401
48.87539986237231 9.261989999999999
48.90004713292306 9.25429
48.92450572200832 9.23493
48.94896668628025 9.23385
48.97343002754588 9.234869999999999
48.99808689542115 9.19203
49.02255501470614 9.19277
49.04702551642794 9.12321
49.0714984023988 9.149460000000001
49.096164896893235 9.11181
49.120642575466796 9.09302
49.145122643748394 9.09989
49.16960510355558 9.07348
49.19428125404938 9.081439999999999
49.2187685210852 9.063989999999999
49.243258185121555 9.00036
49.26794160167084 9.01178
49.2924360839405 8.98836
49.31693296869764 8.968630000000001
49.34143225776915 8.9535
49.36612538195438 8.949
49.39062950396021 8.90335
49.41513603578346 8.923680000000001
49.4396449792564 8.88315
49.46434784069503 8.89427
49.488861631846454 8.83426
49.513377840166804 8.82686
49.537896467493745 8.77545
49.56260909589029 8.77188
49.587132585683285 8.75606
49.611658500018365 8.7841
49.636186840738596 8.75123
49.66090926588511 8.76293
49.685442483902584 8.697989999999999
49.70997813385706 8.66658
49.734516217597076 8.67501
49.75924846937352 8.66489
49.7837914452858 8.6563
49.80833686055187 8.60985
49.83288471702571 8.58867
49.85762682540054 8.63315
49.882179588965734 8.57572
49.9067347993235 8.53401
49.93129245833333 8.51984
49.95604445336378 8.52018
49.98060703442832 8.47672
50.005172069746266 8.49357
50.02993150438364 8.46182
50.05450147301533 8.47027
50.07907390151433 8.46068
50.10364879174981 8.44329
50.12841816587289 8.415980000000001
50.1529980044635 8.375760000000001
50.17758031042124 8.40192
50.20216508562089 8.37353
50.22694442953363 8.351989999999999
50.25153416817468 8.36707
50.27612638170508 8.321710000000001
50.300721072005196 8.27876
50.325510416102105 8.27915
50.350110084975064 8.2451
50.37471223628208 8.246080000000001
50.39931687190919 8.205910000000001
50.424116246675766 8.209710000000001
50.44872587605249 8.18418
50.47333799543065 8.195839999999999
50.49795260670191 8.15114
50.52276204271512 8.146510000000001
50.54738166295838 8.16263
50.57200378079314 8.12849
50.596628398116835 8.072989999999999
50.62144792604559 8.09264
50.646077567609396 8.074639999999999
50.670709714377715 8.05227
50.69553683636198 8.063830000000001
50.72017401885922 8.02975
50.7448137122895 8.01159
50.76945591856022 8.025260000000001
50.79429318636823 8.01555
50.818940443716784 8.00755
50.84359021965163 7.991289999999999
50.868242516085964 7.96387
50.893089960641895 7.927810000000001
50.917747323549435 7.874230000000001
50.94240721271973 7.9043399999999995
50.96706963007175 7.892289999999999
50.99192728239342 7.8733
51.01659478166073 7.86875
51.04126481489051 7.85502
51.06593738400761 7.79323
51.090805275207074 7.795710000000001
51.11548294172845 7.8095
51.14016314993547 7.77107
51.164845901758845 7.74666
51.18972406304274 7.7293199999999995
51.21441192780656 7.725569999999999
51.23910234200271 7.704460000000001
51.2637953075678 7.686389999999999
51.288683770237945 7.66947
51.31338186432707 7.66713
51.33808251561888 7.649310000000001
51.362978729967345 7.6349800000000005
51.387684521509755 7.660010000000001
51.41239287610203 7.618519999999999
51.437103795691165 7.57655
51.46201036644977 7.575019999999999
51.486726441956634 7.54275
51.51144508832545 7.55974
51.536166307509156 7.5312600000000005
51.56108326624387 7.47606
51.58580965706056 7.4542
51.61053862657523 7.4655
51.635270176746864 7.45643
51.66019755512065 7.45432
51.68493429268881 7.42713
51.70967361681515 7.413460000000001
51.73441552946465 7.38272
51.759353359237934 7.367610000000001
51.7841004750961 7.3591
51.80885018539685 7.3643
51.833602492111254 7.34065
51.8585508051424 7.31693
51.883308330926425 7.31335
51.90806845906181 7.28052
51.932831191525715 7.266839999999999
51.95779001977161 7.268560000000001
51.98255798721516 7.24436
52.00732856494335 7.242139999999999
52.03229530577543 7.23733
52.057071130455945 7.23521
52.081849571391054 7.178789999999999
52.106630630568695 7.18077
52.13160794279417 7.14825
52.15639426492067 7.16363
52.18118321127822 7.14439
52.205974783860896 7.12212
52.23096269971011 7.1089899999999995
52.255759551287994 7.040830000000001
52.280559035098186 7.073460000000001
52.30536115314103 7.03765
52.33035970494467 7.03268
52.35516711807904 6.994960000000001
52.37997717147198 7.00275
52.40478986713005 6.98826
52.42979908731974 6.9497800000000005
52.454617094216 6.92749
52.47943774942214 6.928489999999999
52.50426105495102 6.96748
52.529280976059844 6.953310000000001
52.554109609024096 6.880610000000001
52.57894089837482 6.894369999999999
52.60377484613117 6.8907
52.62880550079408 6.86048
52.65364479223379 6.80715
52.67848674816189 6.8414
52.70352547971946 6.81527
52.72837279155837 6.77635
52.753222773982785 6.8057300000000005
52.778075429022984 6.79851
52.80312495150885 6.810239999999999
52.827982978797436 6.76342
52.85284368481815 6.7413300000000005
52.87770707160767 6.7329
52.90276741793998 6.71289
52.92763619336701 6.67525
52.952507655698504 6.6627600000000005
52.977381806977576 6.68354
53.00245301017842 6.63612
53.02733256653592 6.636430000000001
53.052214817996074 6.656389999999999
53.077099766608484 6.61103
53.102181859804446 6.58812
53.127072229988265 6.59158
53.15196530349892 6.5568800000000005
53.17686108239249 6.51739
53.20195409881522 6.52723
53.22685531582556 6.4854400000000005
53.25175924441303 6.51609
53.27666588664027 6.48386
53.30176985962693 6.495
53.3266819565689 6.46105
53.35159677336455 6.434130000000001
53.376514312083096 6.4579
53.40162927507703 6.44424
53.42655228516116 6.4319
53.45147802340193 6.40714
53.47660125628886 6.361619999999999
53.50153247842639 6.38109
53.52646643496923 6.36005
53.55140312799818 6.3609599999999995
53.576537409691696 6.33136
53.60147960336152 6.32976
53.626424539786164 6.2855
53.65137222105307 6.30888
53.67651758529126 6.33101
53.70147078399681 6.28301
53.72642673383343 6.22285
53.75138543689533 6.24026
53.776541917524526 6.24223
53.801506154876755 6.24755
53.826473151763246 6.18297
53.851442910284916 6.13474
53.87661054126026 6.17344
53.9015858509782 6.15422
53.92656392866066 6.1483099999999995
53.95154477641532 6.14958
53.976723591801296 6.14
54.00171000771266 6.09434
54.02669920004598 6.11376
54.051691170915745 6.0533
54.076881204886796 6.00765
54.101878760928514 6.06743
54.12687910187696 6.02957
54.152077577768296 6.02595
54.1770835166946 6.00203
54.20209224691339 5.99859
54.22710377055121 5.9582
54.25231352511594 5.93516
54.27733066384342 5.89149
54.30235060239643 5.917680000000001
54.32737334290836 5.92056
54.35259441062629 5.86475
54.377622783395324 5.84245
54.40265396455061 5.9201
54.42768795623251 5.858630000000001
54.45292037169559 5.827319999999999
54.477960012857906 5.81999
54.50300247099511 5.81396
54.52804774825457 5.76621
54.55329154616743 5.749
54.57834249018678 5.69528
54.6033962597977 5.6869
54.6284528571545 5.67315
54.653708072335164 5.62855
54.67877035378786 5.64838
54.70383546947698 5.6409199999999995
54.72890342156389 5.63932
54.7541700889442 5.59471
54.77924374251975 5.58291
54.8043202390049 5.57035
54.82959552413022 5.5256300000000005
54.8546777351945 5.497719999999999
54.87976279569621 5.50557
54.90485070780914 5.48077
54.930137506558005 5.42991
54.95523115074295 5.46402
54.98032765308844 5.44609
55.005427015775496 5.40393
55.03072536339621 5.387230000000001
55.05583047570572 5.41605
55.080938454927676 5.35219
55.10604930325027 5.34127
55.131359235107396 5.35141
55.15647585066083 5.2942599999999995
55.181595341907496 5.26684
55.20671771104285 5.20697
55.232039262617704 5.24443
55.25716741665048 5.21237
55.28229845518636 5.20897
55.30743238042802 5.1256900000000005
55.33276558731939 5.15165
55.357905315183636 5.12855
55.383047936390035 5.08081
55.40819345314859 5.07295
55.433538351073295 5.04708
55.458689688238415 5.04599
55.483843927614096 4.956119999999999
55.509197623043605 4.96914
55.53435769621134 4.95443
55.55952067826466 4.88697
55.5846865714265 4.88398
55.61005202069737 4.88882
55.63522376553902 4.90902
55.66039842818645 4.8407800000000005
55.68557601087004 4.82684
55.7109532500271 4.74254
55.73613670233794 4.74339
