TT I
1.2716486653135266 8.0849
1.2939594142134223 7.66644
1.3162702121660406 6.7081100000000005
1.3385810600174564 7.202839999999999
1.3608919586137629 7.14087
1.383202908801069 7.33139
1.405513911425503 6.39766
1.4278249673332093 6.36549
1.4501343378461518 6.4953199999999995
1.4724455028545926 6.39048
1.4947567236847858 6.70477
1.517068001182951 6.73878
1.5393793361953272 6.47454
1.5616907295681737 6.081230000000001
1.5840021821477681 6.1962
1.60631369478041 6.01918
1.6286252683124185 6.325080000000001
1.6509369035901333 5.86076
1.6732468618895553 6.00454
1.695558623192809 5.48338
1.7178704487808514 5.3778
1.7401823395001077 5.54173
1.7625012545597203 5.76318
1.7848028405262486 4.69051
1.8071218901122095 5.40736
1.8294236121921872 5.4808900000000005
1.8517427996910911 5.67084
1.8740620574440425 5.67209
1.8963639900671978 5.3245
1.9186833908139995 5.06859
1.9409854680117449 5.80192
1.9633050151394713 5.01141
1.9856246367570705 5.05855
2.0079269371922672 5.51656
2.03024671027244 4.95458
2.0525491637446027 4.59664
2.074869091674931 4.90229
2.097171701569106 5.06302
2.1194917877373847 5.06771
2.141811954326636 4.800590000000001
2.164114805233074 4.55989
2.186435135143035 4.69623
2.208738150935709 4.66875
2.231058647554722 4.40641
2.2533792288321184 4.52073
2.275682498336085 4.7516300000000005
2.298003251406138 4.5469599999999994
2.3203066942619714 4.94527
2.3426276225136022 4.64564
2.3649486396617507 4.3051900000000005
2.387252348930071 4.19824
2.4095735463442893 3.62725
2.4318774374315884 4.0448
2.4541988185014043 4.7571900000000005
2.476502894794693 4.73045
2.498824462909887 4.9835400000000005
2.521146125856138 4.54994
2.5434504863470337 4.47366
2.5657723414244717 4.669969999999999
2.588076895590662 5.32595
2.610398946189713 5.511080000000001
2.6327210958598384 5.272469999999999
2.6550259469304716 4.90493
2.6773482972090137 5.17605
2.6996533504259 5.85986
2.7219759047039602 5.57768
2.744298562293959 6.1719
2.7666039251246595 5.99474
2.7889267918020164 6.45656
2.8112323652516555 6.87741
2.833555444408179 7.36702
2.8558786311183852 7.68065
2.8781845268938557 8.23441
2.9005079311721484 8.65429
2.9228140460410397 8.93215
2.9451376712799635 9.11993
2.967444008632326 9.87668
2.9897678582247247 9.94149
3.0120918213106695 10.4832
3.0343984987899373 10.4999
3.0567226913198637 11.1906
3.079029599759726 11.7449
3.101354025127254 12.4109
3.123678568232338 13.0609
3.145985829517914 13.4543
3.16831061055229 13.6184
3.1906181112775593 14.0528
3.212943133635653 14.5358
3.2352682779763207 14.8592
3.2575761442691227 15.2154
3.2799015350264273 15.8387
3.302209649240067 16.5907
3.3245352898092655 16.4919
3.3468436553365257 17.1577
3.369169549113219 17.7163
3.3914955708171384 18.6291
3.413804319727358 18.983
3.4361305997334863 19.0188
3.4584396084414553 19.4424
3.4807661501462652 20.2277
3.503092824025881 20.764
3.5254022288463154 20.6119
3.5477291695206588 20.9516
3.5700388426251948 21.0136
3.5923660534916446 21.7763
3.6146934007816114 21.8542
3.637003482731501 22.4751
3.6593311053109985 22.8069
3.681641464033634 23.0779
3.7039693653009733 23.7171
3.726297407241705 24.3529
3.7486081875460804 24.2895
3.7709365132734978 24.5865
3.793247578841633 25.7678
3.8155761917550093 25.9773
3.8378875459837216 26.1851
3.8602164494827234 26.7453
3.882545499606844 26.9911
3.9048572932539183 27.3715
3.9271866390645718 27.9856
3.9494987298666713 28.6729
3.971828374764527 28.865
3.9941581705403255 29.3509
4.016470713506008 29.8037
4.038800813471445 30.2332
4.061113662089144 31.0478
4.0834440696459176 31.5238
4.105774632334751 31.8307
4.128087945865126 32.7716
4.150418821249301 33.6756
4.172732448931298 34.0416
4.195063640413578 34.5724
4.2173775856475215 35.6055
4.239709096631102 36.1759
4.262040768704612 36.4606
4.284355196706267 36.6273
4.306687193387355 37.4783
4.329001947444346 38.773
4.35133427213731 39.8203
4.373666762177566 40.4876
4.395982011761091 40.9195
4.418314834921175 41.8818
4.44063041906622 42.7572
4.4629635787515625 43.6379
4.4852969080429785 44.8074
4.5076130004776225 46.1638
4.529946671403969 47.2046
4.552263106909177 47.9048
4.574597122877047 49.0445
4.596931312711224 50.0141
4.619248269273446 51.1393
4.6415828092605835 52.8649
4.663900117405352 53.7338
4.686235010953232 55.0997
4.708552674085913 56.3661
4.730887924602802 57.5692
4.753223354952695 59.0211
4.775541557023902 60.4565
4.797877349456786 62.5399
4.820195915032126 64.1777
4.842532072957498 65.695
4.864868414979744 67.6979
4.88718753227192 70.11
4.909524244902505 72.3426
4.931843734218147 75.3604
4.954180820867835 78.4086
4.976518095879839 82.2329
4.998838149695359 85.7528
5.021175803844231 90.9491
5.043496238205739 95.4181
5.065834274903528 100.855
5.088172504230693 108.491
5.1104935158799565 117.995
5.132832132875765 132.906
5.155153533596801 156.882
5.1774925416746225 214.217
5.199814334878411 569.165
5.2221537374521505 1987.21
5.244493338631803 3781.34
5.266815727034316 5266.65
5.289155727832427 8021.14
5.311478517248165 9551.87
5.333818921080011 6384.83
5.356159527788849 2039.97
5.3784829252032536 474.908
5.400823940070432 218.81
5.423147747031976 165.52
5.445489173474152 141.81
5.467830807066149 128.774
5.490155234831516 120.90799999999999
5.512497285125229 114.574
5.534822130975162 111.292
5.557164601388673 107.955
5.579489868738879 104.34200000000001
5.601832762690846 101.531
5.6241758697774475 100.3
5.646501775867269 98.6327
5.668845311622074 97.8536
5.691171647754637 97.5345
5.713515615597765 96.4064
5.735859800852677 95.459
5.758186788542988 94.9086
5.780531411018185 94.84700000000001
5.802858837297399 94.9267
5.825203900414495 95.705
5.8475491852224 96.3815
5.869877275883075 98.4673
5.892223006467101 101.59100000000001
5.914551544266608 105.68299999999999
5.936897724049891 112.70100000000001
5.959244129804903 125.20700000000001
5.981573344815301 158.026
6.0039202049061 295.197
6.026249875609095 767.3939999999999
6.04859719346037 1393.09
6.070927323278297 1888.44
6.093275102315365 2640.05
6.115623113320588 3656.44
6.137953938319995 3965.27
6.160302415650845 2258.83
6.182633708324452 713.2710000000001
6.2049826554078376 222.988
6.227331838745022 124.745
6.249663839443684 100.384
6.27201349767565 89.3309
6.294345974611799 83.0815
6.316696111167083 78.5488
6.339046488263839 75.6548
6.361379686074702 72.6605
6.383730546639482 70.2901
6.406064229255215 68.0904
6.428415576718203 67.51899999999999
6.450749747566656 66.2544
6.47310158535871 65.2768
6.495453669698332 64.193
6.517788579421056 63.2007
6.540141159237969 62.1862
6.562476565766648 61.1722
6.5848296444934045 60.3488
6.607182974060425 60.0503
6.6295191323281015 59.5215
6.651872965955752 58.6834
6.6742096296068985 58.1429
6.6965639707294615 57.8612
6.71891856698715 57.4658
6.741255995248479 57.0375
6.763611104154477 56.528
6.785949046381137 56.0801
6.808304671371482 55.3488
6.8306605557940046 55.4228
6.852999275508618 54.6205
6.875355681171544 54.256
6.897694923437771 53.9815
6.92005185377892 54.449
6.9423916220322655 53.8379
6.964749080490181 53.3838
6.987106804399774 53.1731
7.009447368180821 52.9439
7.031805625367033 52.8264
7.054146723727803 52.9977
7.076505517631004 52.7448
7.098864581288365 52.5876
7.121206488070854 52.5449
7.143566093607822 52.1799
7.165908543567245 52.1913
7.188268694426048 51.8135
7.2106291193438095 51.7707
7.232972390625943 52.166000000000004
7.255333366030969 51.6703
7.277677189091925 51.8502
7.300038718428332 51.386
7.322400526130865 51.248999999999995
7.344745183422596 52.0313
7.367107550224791 51.9736
7.389452767901992 52.1325
7.411815697249891 51.9801
7.434161478756298 51.675
7.456524974096713 51.7016
7.478888753837185 51.8874
7.501235387657368 52.8677
7.523599738562711 56.258
7.545946944825532 62.6938
7.568311870344528 64.6682
7.5906770845765665 59.9084
7.613025156078678 55.4589
7.635390950099687 54.1323
7.657739602662809 53.2739
7.680105979923558 53.0796
7.702472650212829 53.8635
7.724822180948224 53.7381
7.747189439655568 53.8384
7.769539560075357 54.0009
7.791907410653562 54.3815
7.81425812420825 54.9628
7.836626570110925 54.9877
7.858995315087906 55.8404
7.881346924933401 55.888000000000005
7.903716270417482 56.5119
7.926068482028405 56.8502
7.948438431475253 57.5919
7.9708086843180235 58.1972
7.993161805171116 58.5441
8.015532667162402 58.7237
8.037886398416653 60.2207
8.060257873014221 60.4149
8.082629655331942 60.9674
8.104984308787587 61.8997
8.127356708900503 62.3627
8.149711981398308 63.3557
8.172085002766314 63.9776
8.194458336181368 65.0289
8.216814543847752 66.357
8.23918850371002 67.5198
8.26154533906492 68.9419
8.283919928836452 70.7014
8.306277395339652 71.7421
8.328652618483376 73.1977
8.351028159736202 75.5555
8.373386579575245 78.0948
8.395762759396959 80.152
8.418121819038275 83.5366
8.440498640894003 88.2243
8.462875785192262 95.7026
8.485235811156207 111.13
8.507613602688501 175.717
8.529974277114228 373.095
8.552352719347912 610.064
8.574731488360351 773.7230000000001
8.59709314210385 865.492
8.619472567021075 1061.52
8.64183487789147 1434.42
8.664214962183097 1834.97
8.686577933647762 1658.68
8.708958680784317 980.1310000000001
8.731339760774953 427.098
8.753703729764451 179.81900000000002
8.77608547780821 117.337
8.798450116065078 103.771
8.820832535634787 97.1793
8.843215292401656 93.5879
8.865580941199045 90.8372
8.887964374703538 88.9477
8.910330701447199 87.4392
8.932714815164482 85.8613
8.955099270424924 84.72
8.977466620733543 84.0376
8.999851761421976 83.4733
9.022219798361645 82.7815
9.04460562795561 82.4051
9.066991803441677 82.0728
9.089360876979615 81.8429
9.111747746589993 81.5742
9.13411751544971 81.1508
9.156505082664324 80.9767
9.178875550323522 81.0093
9.20126381862328 81.6246
9.223652438908596 87.3786
9.246023961427412 97.3126
9.26841328802173 99.3796
9.290785518039224 93.637
9.313175554425882 87.4388
9.335565947154315 83.0817
9.357939245086508 81.8874
9.380330352834827 81.5648
9.40270436697103 81.5851
9.425096193225055 81.0935
9.447488380180165 82.5381
9.469863475295412 82.7022
9.492256385987508 82.8122
9.514632206018318 83.6004
9.537025843935714 84.3103
9.559402392368193 85.0086
9.581796761000229 85.7728
9.604191496441521 85.8141
9.626569144158516 86.5082
9.648964615551032 87.4939
9.671343000390081 88.4892
9.693739211225699 89.2458
9.716135793237463 90.3008
9.738515290448102 91.3115
9.760912617143402 92.4668
9.783292860202891 93.7125
9.805690935076182 95.0402
9.828089385495742 96.5825
9.850470754023561 98.3116
9.872869957865444 100.837
9.89525208097539 103.544
9.917652041736662 107.738
9.940052382417589 113.742
9.962435644102392 130.986
9.984836746950979 188.331
10.007220771957746 346.9
10.029622640473708 551.0459999999999
10.052007432299963 679.11
10.074410069984072 723.201
10.096813093716005 798.178
10.119199042482517 991.8739999999999
10.141602840636468 1330.61
10.163989564971628 1635.3
10.186394141051062 1550.8
10.208799107559706 1002.23
10.231187001965623 493.52099999999996
10.253592751657669 224.05700000000002
10.275981430388155 135.648
10.298387966769793 116.50399999999999
10.320794897965431 111.573
10.343184759907361 107.895
10.36559248305461 105.335
10.387983138083852 104.166
10.410391656691655 106.536
10.432800574501677 121.49799999999999
10.455192425893369 164.92700000000002
10.47760214443012 216.672
10.499994797678786 248.433
10.522405320453982 258.301
10.54479877906917 275.41700000000003
10.567210109595656 319.718
10.5896218454736 397.431
10.612016518879773 488.207
10.634429067781074 497.04400000000004
10.656824555333241 384.19599999999997
10.679237920773568 234.608
10.701651695961992 137.112
10.724048411481384 101.461
10.746463008485165 90.7902
10.768860546937125 86.5433
10.791275969274796 83.5662
10.81369180576079 81.7645
10.836090585366925 80.4037
10.858507252467449 78.5093
10.88090686379991 77.7056
10.903324365036394 76.7696
10.925724811614439 75.3552
10.948143150509463 75.0486
10.970561909719066 73.9291
10.992963615930844 73.3144
11.015383218085756 72.2271
11.037785768347074 71.4876
11.06020621697282 71.0886
11.082627090322113 70.3758
11.105030913430326 69.8042
11.12745263854165 69.1304
11.149857314510728 68.3546
11.172279894912576 68.2419
11.194702904450653 67.3768
11.217108866490921 66.7801
11.239532736615194 66.4714
11.26193956033512 66.2295
11.284364294577085 65.9913
11.306789462371718 65.3812
11.329197585398376 64.7626
11.351623622610898 64.9104
11.37403261614354 64.0396
11.396459526308487 64.1231
11.418869393879497 63.7902
11.441297180532617 63.6649
11.463725406927658 62.8181
11.486136592353875 62.7628
11.508565700543707 62.4342
11.530977768845315 62.6483
11.553407762368774 61.983000000000004
11.575838200059769 61.9569
11.598251599479612 61.7731
11.620682927815501 61.6507
11.64309721895548 61.7751
11.665529441478206 61.6713
11.687962112597958 61.1185
11.710377748130886 61.2855
11.732811318753434 60.9808
11.755227854859067 60.833
11.777662328529495 60.8686
11.800079768750786 60.9339
11.822515149015453 60.8114
11.844950984084935 61.056999999999995
11.867369787303163 60.9546
11.889806534289491 61.229
11.912226250487029 62.3152
11.934663912939751 64.4133
11.9571020346363 66.3136
11.979523127133968 66.0952
12.001962169624331 65.4378
12.024384183972964 64.9651
12.046824150809913 67.6659
12.069264581333726 77.6325
12.091687985297767 90.9283
12.11412934550045 101.927
12.136553680195208 107.179
12.158995973632788 110.39200000000001
12.181438735204349 114.759
12.20386447284199 126.34899999999999
12.226308172985636 146.343
12.24873485024193 173.125
12.271179492516982 190.858
12.293607112949127 178.933
12.316052700916226 142.017
12.338498763250042 99.6738
12.360927805303868 75.8192
12.383374818673879 66.7004
12.405804812803074 63.7608
12.428252780773262 63.0993
12.45070122756722 63.1519
12.473132656675375 62.5726
12.49558206341869 62.8504
12.518014453510101 62.7731
12.540464823770117 62.6603
12.562915677315177 63.0902
12.58534951575545 63.3177
12.607801338171472 63.0495
12.630236146511358 63.6043
12.652688941369085 64.1211
12.675124723177234 64.2835
12.697578494048786 64.691
12.720032754458185 65.1483
12.742470003354093 65.329
12.764925245138771 65.9177
12.787363476431278 66.1983
12.809819703166806 66.638
12.83227642391173 67.3344
12.854716135692716 67.6724
12.877173846755147 69.0769
12.899614549869717 69.3957
12.9220732548287 70.2317
12.94453245827299 70.6866
12.966974655289818 71.9776
12.989434858002571 72.9789
13.011878055298721 73.4579
13.034339260862497 74.5194
13.056800969391883 76.1678
13.079245674017244 78.727
13.101708390774869 80.9232
13.12415410463411 86.2359
13.146617833206086 102.934
13.169064559883248 133.791
13.191529303857127 164.80900000000003
13.213994557076367 187.595
13.236442809902437 196.255
13.258909083908291 201.269
13.28135835851934 211.96900000000002
13.30382565690295 237.105
13.326293469022952 280.926
13.348744283242008 339.032
13.371213125129904 389.29900000000004
13.39366497011003 381.94
13.416134845360597 311.676
13.438605238843131 218.032
13.46105863690397 147.513
13.483530069144786 120.551
13.505984506951902 130.571
13.528456981549432 154.94799999999998
13.550929978879088 173.438
13.573385983253365 181.80900000000003
13.595860028340867 182.731
13.618317081455832 187.735
13.64079217790333 202.94099999999997
13.663250283359057 230.28799999999998
13.685726434770173 271.776
13.708203115221277 321.954
13.730662806148091 339.023
13.75314054697177 307.454
13.775601299246777 233.78400000000002
13.798080104050406 159.414
13.820559442405358 108.551
13.843021793671388 88.3977
13.865502201420897 81.9334
13.887965623051947 80.0994
13.910447103807167 78.7303
13.932929122629764 77.1869
13.955394156785959 76.7469
13.977877254034569 75.7974
14.000343367582113 74.6798
14.022827546871707 73.8471
14.045294743423524 73.056
14.06778000837062 72.627
14.090265817715476 72.369
14.112734645763819 72.4286
14.13522154619454 73.3537
14.157691466286913 74.2574
14.180179461423874 73.7356
14.202668005486178 72.8563
14.22513957064374 71.3781
14.247629214846473 70.2276
14.270101881097517 69.5983
14.29259262906496 69.0473
14.315083930490205 68.7061
14.337558255389705 68.4502
14.360050666019726 68.4662
14.382526101071944 68.2317
14.405019624534942 68.1117
14.427513705993134 68.0943
14.449990813291825 68.06
14.47248601302899 67.7969
14.49496423954951 68.0568
14.517460561197822 68.0219
14.539939910570322 67.5555
14.562437357763558 67.8192
14.58493536931253 68.3084
14.607416409993311 68.2504
14.62991555254159 68.3545
14.652397725157423 68.626
14.674898002342799 68.9313
14.697398848433282 69.2256
14.719882725991326 70.4276
14.74238471217934 71.2507
14.764869730765593 73.5676
14.787372860692983 80.5141
14.809876564079925 93.5142
14.83236330125751 107.055
14.854868153850365 116.544
14.877356041159485 120.447
14.899862046604186 121.445
14.922351087688757 124.59299999999999
14.944858249632887 131.497
14.967365991421232 144.126
14.989856770231246 162.079
15.012365673994204 186.523
15.03485761569738 205.843
15.05736768508665 203.96099999999998
15.07987833888692 179.266
15.102372032001655 140.181
15.124883856909658 103.0
15.14737872204565 82.2043
15.169891721717274 73.6032
15.192405310371893 71.09899999999999
15.214901940621196 69.8204
15.237416709527137 68.5948
15.259914520936249 68.2477
15.282430473753607 67.8121
15.304947020131227 66.8873
15.327446610371178 66.4073
15.349964346154254 66.0554
15.372465126703139 65.8864
15.394984055556009 65.8086
15.417486030076159 65.8766
15.44000615566487 65.4562
15.462526881230803 65.34100000000001
15.485030653812652 65.4063
15.507552581617434 65.0953
15.530057557334603 65.0489
15.55258069104857 65.0724
15.575104429329837 65.2897
15.597611216864632 65.2157
15.620136166564563 65.7108
15.6426441664095 66.3644
15.665170331202765 67.9616
15.687697105158826 73.3614
15.710206930593545 83.9035
15.732734925158933 95.3643
15.755245972089478 103.074
15.77777519094324 106.91799999999999
15.800287463046663 107.78299999999999
15.822817909869592 109.00299999999999
15.84534897229804 112.712
15.867863089299354 121.12700000000001
15.890395385222186 133.00799999999998
15.912910736597423 150.113
15.935444269699861 171.513
15.957978423016485 182.875
15.980495633101265 177.237
16.003031029129367 153.954
16.02554948280019 119.081
16.048086125229432 89.4019
16.070623392487107 73.4777
16.09314371869582 66.2052
16.11568223789321 63.1052
16.13820381691126 61.5818
16.160743591742527 60.723
16.183283996022084 59.8874
16.205807461423195 58.8961
16.228349126881973 58.6678
16.25087385432698 58.3602
16.27341678466365 57.5268
16.29594277784926 57.2093
16.31848697676433 57.2293
16.341031811604868 56.4512
16.36355971058487 56.4192
16.3861058195587 56.3055
16.40863499352978 55.6227
16.431182380342005 55.5161
16.453730407713202 55.4376
16.476261501364792 55.0569
16.498810812136167 54.6732
16.52134319004079 54.9337
16.54389378792203 54.5975
16.566445031001553 54.42100000000001
16.588979342490088 54.3717
16.61153187824822 54.2845
16.634067483263312 54.3563
16.656621315414416 53.8121
16.679175797408888 53.5556
16.701713349928728 53.537
16.72426913389191 53.8418
16.74680798922351 53.8965
16.76936507887444 53.8021
16.791905240734874 53.8159
16.814463639794468 53.6511
16.837022695210294 53.6628
16.859564824093756 53.9869
16.882125194503903 54.0365
16.904668639217885 54.3442
16.927230328348003 54.4802
16.949792678493612 54.7275
16.972338104193863 54.7565
16.994901778652235 54.817
17.017448529496576 55.0235
17.040013531998152 55.1029
17.06257920018044 55.028999999999996
17.0851279459922 56.4245
17.107694947817667 58.5139
17.130245028099072 60.6538
17.15281336730298 62.9239
17.17536478578733 63.9893
17.19793446610687 64.4446
17.220504818648422 64.684
17.243058251703697 65.0365
17.265629950971032 66.2437
17.288184731571736 68.2896
17.310757781306908 71.3927
17.33333150794385 74.3691
17.355888317140174 78.2924
17.37846339986244 81.2038
17.401021565958885 81.265
17.42359800851343 77.1227
17.44617513265564 71.516
17.468735341390783 65.5812
17.491261035594565 61.5304
17.51396340099364 59.6028
17.536490463869136 58.9451
17.559018209820174 58.6023
17.58154663977963 58.6734
17.604251766089718 58.7894
17.626781572227713 59.0231
17.64931206518155 59.2878
17.671843245885103 59.4079
17.69455114821572 59.4895
17.717083712612634 60.0201
17.739616967569667 60.4714
17.762150914021706 60.9874
17.78486160749854 61.048
17.807396945166804 62.0114
17.829932977143503 62.7393
17.85246970436452 63.6566
17.875183204129467 66.1407
17.897721330097664 71.6764
17.920260154126645 78.5072
17.942799677153296 83.6125
17.9655159983646 86.7147
17.988056927677544 88.1511
18.010598558807683 88.3057
18.033140892692916 89.6598
18.05586005052525 91.5961
18.07840379824407 95.9673
18.10094825154059 102.455
18.12366954819864 112.329
18.146215420998306 125.541
18.16876200220057 138.534
18.191309292745153 145.387
18.214033452627167 142.247
18.236582170236648 129.069
18.259131600016456 112.02
18.281681742907335 96.089
18.304408781233683 87.6672
18.32696035875955 84.7
18.349512652227624 85.2977
18.372065662579683 88.634
18.394795594587553 93.4045
18.41735004715306 99.0873
18.43990521943684 102.385
18.46246111238171 101.67
18.485193953325208 95.1806
18.507751296070428 85.814
18.530309362314178 76.5881
18.552868153000343 69.2433
18.57560391815056 64.7162
18.59816416623245 62.8529
18.620725141597372 62.033
18.643286845190268 60.9622
18.666025549835414 60.644
18.688588718427933 59.7919
18.711152618092243 59.725
18.73389353884365 59.4606
18.75645890921984 59.0503
18.77902501351406 58.542
18.801591852673102 58.5585
18.824335739722738 57.931000000000004
18.846904057212626 57.9119
18.8694731124168 57.7478
18.89204290628315 57.6023
18.914789774966803 57.1814
18.937361054791623 56.9574
18.959933076131318 56.711999999999996
18.982505839934877 56.725
19.00525570560582 56.5091
19.027829963004184 56.236999999999995
19.05040496572238 56.3943
19.072980714710468 56.401
19.095733592739563 56.5569
19.11831084296757 56.8569
19.140888842324735 57.9256
19.16346759176222 59.2996
19.18622349753803 60.7672
19.208803755869358 61.6459
19.231384767143577 61.8268
19.253966532312948 62.0058
19.276725481241822 62.06399999999999
19.29930876296784 62.5205
19.3218928014549 63.1317
19.34465404436217 64.3607
19.36723960516257 66.2527
19.389825925592426 68.0465
19.412413006605938 70.6685
19.43517731967805 73.0727
19.457765930683355 73.8741
19.48035530514408 72.4393
19.50294544401556 68.7209
19.525712842708348 63.9538
19.54830451925909 59.6027
19.570896963095727 56.3269
19.593490175174704 54.6699
19.616260674962184 54.0273
19.638855432416964 53.5335
19.661450960992624 53.6346
19.68404726164677 53.2318
19.706820878021247 53.1275
19.729418731756834 53.4176
19.752017360452857 53.0082
19.77461676506804 53.3243
19.797393513540218 53.3359
19.819994478951667 53.4512
19.84259622316767 54.4633
19.8651987471481 55.7452
19.887978643247177 56.4922
19.91058273574792 57.3378
19.933187610901943 57.8206
19.955969879466828 58.1488
19.97857632894404 58.4749
20.00118356396599 58.2785
20.023791585494575 58.4854
20.046577028914875 59.8007
20.069186632506966 61.1238
20.091797025500632 63.5444
20.114408208858933 66.0774
20.137196842715273 69.2669
20.159809615886765 71.8332
20.18242318232135 72.0271
20.20503754298326 70.5638
20.227829382875154 67.932
20.250445341109344 64.8373
20.27306209647285 62.2849
20.29567964993108 60.701
20.31847471147704 60.1529
20.34109387027612 60.7962
20.363713830075454 62.3424
20.386334591841646 63.9826
20.409132890679302 65.0378
20.431755265564437 64.3611
20.454378445325528 62.4106
20.477002430930366 59.2444
20.499803982716553 55.8899
20.522429589228004 53.2511
20.54505600449589 51.6515
20.567683229489194 50.986999999999995
20.590488049900088 50.2934
20.61311690359731 50.1163
20.63574656993626 49.9743
20.658553853717297 49.4817
20.681185154618298 49.3402
20.703817271080066 49.4884
20.72645020407368 49.021
20.749260783967177 49.082
20.771895359337133 49.1853
20.794530754161617 49.0798
20.817166969412938 48.8117
20.83998086114876 48.788999999999994
20.86261872660049 48.6808
20.885257415405402 48.5608
20.90789692853701 48.4197
20.930714147864748 48.4467
20.953355319030678 48.4895
20.97599731745334 48.5906
20.99864014410749 48.6392
21.021460706796564 48.833999999999996
21.044105199328826 49.0711
21.06675052302631 49.151
21.089396678865015 49.2394
21.112220600704806 49.2934
21.134868430275347 49.4604
21.15751709492456 49.3602
21.180166595629693 49.1803
21.202993892429635 49.4424
21.22564507473034 49.5577
21.24829709602816 50.0777
21.27112693608965 50.461999999999996
21.293780644891275 51.1067
21.316435195634053 51.1448
21.339090589297417 51.2142
21.361923832041875 51.152
21.384580921090404 50.3274
21.407238856007325 49.4739
21.429897637773326 49.0241
21.45273429906592 48.7139
21.475394784108598 48.4374
21.498056118951983 48.4719
21.520718304578022 48.4284
21.543558400304388 48.5142
21.566222297108816 48.7756
21.58888704765135 48.7892
21.61155265291521 49.2019
21.63439619898156 50.1185
21.657063523335786 51.0623
21.67973170537063 52.1551
21.7024007460706 53.0236
21.72524775840385 53.5968
21.747918526116475 53.9152
21.770590155457388 53.8976
21.79326264741238 54.0693
21.816113141960237 54.4816
21.838787368860547 55.2747
21.861462461341976 56.4619
21.884315579735777 57.8648
21.90699241312273 59.4396
21.92967011506078 61.2242
21.95234868653799 63.2912
21.9752053151131 65.1483
21.997885635446785 65.8951
22.020566828293532 65.3395
22.04324889464272 63.3741
22.066109049404666 60.6969
22.088792872571794 58.0082
22.111477572219204 56.0736
22.1341631493376 55.3222
22.157026846313123 55.1354
22.179714188221507 55.3753
22.202402410582668 55.9084
22.22509151438863 55.6459
22.24795876962584 54.8924
22.270649646204486 53.7466
22.293341407213727 52.2673
22.316034053646906 50.8904
22.338904883215342 50.071999999999996
22.36159931041458 49.4608
22.38429462602756 49.0254
22.40699083104897 48.7035
22.429865251039757 48.5771
22.452563244831367 48.6476
22.47526213102522 48.6718
22.49813925616515 48.5623
22.520839937143307 48.4727
22.543541513520587 48.4512
22.56624398629403 48.3157
22.589124730075895 48.2652
22.611829005656723 48.7311
22.63453418063466 48.5764
22.657240256008077 48.8647
22.680124634582935 49.2841
22.70283252079775 49.9665
22.725541310413075 50.655
22.74825100442868 51.1652
22.771139033969575 51.8673
22.79385054687155 51.5022
22.81656296718292 51.5991
22.83927629590484 51.7396
22.862167992606945 51.7771
22.88488314827121 52.1588
22.907599215359284 52.3396
22.93031619487366 52.8915
22.953211574954405 53.5485
22.975930389478226 54.5405
22.998650119445763 55.5201
23.02137076586092 56.6323
23.044269845560063 57.7222
23.06699233506288 57.931999999999995
23.089715744034912 57.5326
23.112617610931565 55.9508
23.135342869061212 54.1247
23.158069049684816 52.073
23.1807961538087 50.6464
23.20370174880544 49.7378
23.226430710184808 49.2356
23.249160598093425 48.9397
23.271891413539002 49.0622
23.294800752937697 49.5764
23.31753343374794 50.2801
23.340267045128353 50.6026
23.36300158808808 51.2849
23.38591468821339 51.5993
23.408651104658304 51.5984
23.431388455719986 51.5263
23.454126742409 51.4058
23.4770436196085 51.5222
23.499783787914662 51.916000000000004
23.522524894889884 52.0476
23.54526694154616 52.303999999999995
23.56818761219047 53.1303
23.59093154860734 53.8588
23.613676427751283 55.3036
23.636422250635754 56.408
23.659346731118656 57.3248
23.68209445191868 57.8288
23.704843119509587 57.0964
23.72759273490623 55.3276
23.750521041644767 53.3006
23.77327256312355 51.0618
23.796025035462787 49.0468
23.818956224555475 47.4673
23.841710609113413 46.8034
23.86446594758979 46.2161
23.887222241002014 45.8684
23.910157285144578 45.4859
23.932915498962537 45.4868
23.955674670778713 45.2291
23.978434801611975 45.0003
24.001373717286125 44.8346
24.024135776723917 44.7027
24.046898798245582 44.6826
24.06966278287146 44.5567
24.092605586582614 44.2357
24.115371508023642 44.1894
24.1381383956401 43.9615
24.16090625045381 44.034
24.183852958731244 43.8969
24.206622758582608 43.7216
24.229393528706886 43.5549
24.252165270127392 43.6986
24.27511589952438 43.5916
24.297889594216997 43.4055
24.32066426328598 43.3332
24.34343990775613 43.3578
24.36639447485003 43.2415
24.38917208083877 43.1504
24.41195066531332 42.9537
24.43490819850244 43.0354
24.457688750692377 42.7556
24.48047028445616 42.692
24.503252800821233 42.8386
24.526214300784112 43.0171
24.548998793132213 42.9072
24.57178427117417 42.7882
24.59457073593893 42.7487
24.617536219319863 42.7117
24.64032466834748 42.9313
24.663114107195035 43.0028
24.685904536893013 42.7949
24.708874020360852 42.5636
24.731666442613744 42.4884
24.754459858818787 42.4641
24.777254270007962 42.4373
24.80022777025625 42.3784
24.82302418230472 42.3163
24.845821592443674 42.3274
24.86862000170663 42.2991
24.891597535453727 42.178000000000004
24.914397953892728 42.5369
24.93719937456671 42.4444
24.96000179851076 42.4099
24.98298338249997 42.5928
25.00578782394922 42.7856
25.028593271784167 42.9057
25.05157790644186 43.2015
25.07438537804115 43.3337
25.097193859145293 43.5073
25.120003350792075 43.6892
25.142992065061257 43.8828
25.165803588823465 43.9994
25.18861612625217 44.29
25.211429678386736 44.4224
25.234422489079968 44.6523
25.257238081693636 44.736000000000004
25.280054692141732 44.8333
25.3028723214652 44.7126
25.325869245420463 44.5293
25.348688923599397 44.5401
25.371509623787006 44.6468
25.394331347025812 44.6452
25.41733240110666 44.617
25.440156181590016 44.7134
25.46298098826268 44.7428
25.48580682216873 44.501999999999995
25.50881202326435 43.7976
25.53163992281684 43.0923
25.55446885274561 42.2638
25.577298814096377 41.6095
25.600308179121807 41.1387
25.623140214533745 41.1719
25.64597328451537 40.9854
25.66898578564376 40.7069
25.691820936010206 40.6853
25.714657124097695 40.662
25.737494350954734 40.7382
25.760511045684957 40.6708
25.783350361364224 40.7521
25.806190718969255 40.7052
25.82903211955018 40.9121
25.852053024868923 40.898
25.874896522722523 40.865
25.897741066713106 40.6743
25.920586657892454 40.7926
25.943611790812668 40.8609
25.966459487728237 40.7668
25.989308234998564 40.5853
26.01215803367705 40.9704
26.03518741123814 40.9051
26.05803932412957 41.0616
26.080892291600094 41.0171
26.10374631470478 41.0636
26.12677995397268 41.4403
26.14963609978026 41.6651
26.172493304397875 41.7966
26.19535156888223 41.9237
26.218389486949604 41.8045
26.241249882640123 41.6463
26.26411134137826 41.2899
26.28715248187403 41.0476
26.31001607820869 40.785
26.3328807407756 40.6207
26.35574647063438 40.707
26.37879191991473 40.6118
26.401659795896734 40.5786
26.424528742360263 40.6861
26.447398760366614 40.707
26.470448535598294 40.7962
26.49332070826805 40.7575
26.516193955675355 40.9635
26.53906827888316 41.0245
26.562122397260108 40.9149
26.584998883685063 41.0701
26.607876449110325 41.2195
26.63075509460056 41.357
26.65381357334404 41.5771
26.67669439061878 41.7809
26.699576291163382 42.0974
26.722459276044212 42.4293
26.745522132402975 42.5381
26.768407297649354 42.3635
26.791293550442003 42.1057
26.814180891848974 41.7849
26.837248143099337 41.3383
26.860137673466657 41.095
26.88302829566349 40.7961
26.90592001075963 40.7111
26.92899167420566 40.6435
26.951885586870763 40.0957
26.974780595655517 39.9831
26.99785558178161 40.063
27.020752794605112 39.6209
27.043651106772522 39.3317
27.06655051935668 39.1552
27.089629948036183 39.0763
27.112531573292053 39.0262
27.135434302194138 39.0264
27.158338135817015 38.7971
27.181422024430987 38.7779
27.204328079372566 38.6542
27.22723524226965 38.7169
27.250143514198573 38.9325
27.273231880156334 38.8121
27.296142382065014 38.6737
27.319053996245536 38.5288
27.341966723775965 38.5799
27.365059584515222 38.4882
27.38797455070062 38.5976
27.410890633481237 38.4514
27.433807833936918 38.3593
27.456905206923906 38.4135
27.47982465472398 38.3955
27.502745223449743 38.4958
27.525666914182825 38.7997
27.548768816912457 38.585
27.571692763693633 38.6205
27.59461783573812 38.6075
27.617723149491244 38.6369
27.640650484125285 38.6111
27.66357894728264 38.61
27.686508540048052 38.726
27.709618414237887 38.6141
27.732550278321757 38.4318
27.755483275279115 38.3957
27.778417406196485 38.2187
27.801531858397514 38.3178
27.824468269376716 38.2409
27.847405817586786 38.1422
27.870344504116094 38.2008
27.893463551932008 38.2523
27.916404527281053 38.4094
27.93934664422563 38.2983
27.962289903855886 38.2324
27.98541356491974 38.4195
28.00835912214229 38.4323
28.03130582533231 38.6763
28.054253675581805 38.6562
28.077381967556104 38.74
28.100332124185126 38.741
28.123283431160893 38.8676
28.146235889577238 39.0819
28.169368830154156 39.1511
28.192323603752033 39.1763
28.215279532083304 38.9765
28.238415973016764 38.6728
28.261374223145094 38.4488
28.284333631303806 38.2145
28.307294198589954 38.0891
28.330435319167677 37.8057
28.353398217078915 37.6911
28.376362277420153 37.4429
28.39932750129032 37.2244
28.422473319286713 37.0107
28.44544088262495 36.9682
28.468409612800283 36.7069
28.491379510913497 36.4026
28.51453004413313 36.2358
28.53750229057244 36.181999999999995
28.56047570826344 36.0011
28.583450298308804 36.0521
28.606605564586562 35.7928
28.629582511831156 36.036
28.65256063474956 35.7752
28.675539934446338 35.8355
28.698699951647605 35.7525
28.72168161743193 35.5937
28.74466446331978 35.5832
28.767648490417624 35.5873
28.790813276438353 35.484
28.813799678527303 35.389
28.836787265157085 35.4442
28.859955641890075 35.4926
28.882945610203045 35.3512
28.905936766392035 35.1772
28.928929111566863 35.2695
28.952102288520145 35.2844
28.975097024308607 35.2079
28.998092952423807 35.1846
29.021090073977508 35.1739
29.04426806913204 35.194
29.067267590245258 35.0508
29.090268308143695 35.023
29.11327022394099 34.9139
29.13645305530891 34.6454
29.159457379627167 34.7043
29.18246290519685 34.5079
29.20546963313352 34.4907
29.22865731875826 34.4629
29.25166646419296 34.36
29.27467681535305 34.1329
29.29768837335608 34.2431
29.320880931312562 34.0314
29.34389491580634 34.1339
29.366910110507334 34.0982
29.38992651653503 34.1354
29.41312396492981 34.1553
29.436142806456754 34.0365
29.45916286268059 33.9703
29.48236399319994 34.0824
29.50538649169417 34.1206
29.528410208259935 34.1451
29.55143514402014 33.9796
29.574641196749695 33.7848
29.597668583816574 33.760999999999996
29.6206971934585 33.4206
29.64372702680042 33.3715
29.666938019934474 33.1476
29.689970313635285 33.1208
29.713003834422636 33.0585
29.73603858342347 32.9387
29.759254535188578 32.9176
29.78229175361658 32.9105
29.80533020365064 32.9351
29.82836988641968 33.036
29.85159081507472 32.8071
29.874632976355343 32.8835
29.89767637376955 32.8327
29.920721008448314 32.6744
29.9439469322847 32.6913
29.96699405457564 32.6265
29.9900424175358 32.6241
30.013092022298157 32.606
30.03632295963995 32.5995
30.059375061131373 32.4685
30.08242840783577 32.611
30.105483000888153 32.4685
30.128718970092244 32.3658
30.151776069006917 32.3806
30.17483441768648 32.3377
30.198074175317235 32.346
30.221135036724256 32.3314
30.24419715131772 32.3108
30.267260520236203 32.2478
30.290505341942243 32.4026
30.313571232750228 32.5116
30.336638381310948 32.5532
30.35970678876503 32.4349
30.38295669299435 32.4473
30.40602763151657 32.4475
30.429099832366074 32.3887
30.452173296685572 32.2792
30.47542830191959 32.231
30.498504306502497 32.1824
30.521581577995562 32.2211
30.544660117543582 32.181999999999995
30.56792024229725 32.2002
30.59100133132069 32.1783
30.614083691845494 32.0914
30.637167325018545 32.0574
30.660432587840603 32.1478
30.683518779717886 32.1016
30.70660624769615 32.1621
30.729694992924372 32.1331
30.75296541239743 32.1936
30.77605672557558 32.2927
30.799149319462742 32.3261
30.8224236211637 32.2702
30.845518789950724 32.3576
30.868615242910597 32.1072
30.891712981195973 32.0569
30.91499247215866 31.9323
30.938092794619365 31.9095
30.96119440587579 31.8294
30.984297307082752 31.7145
31.00758200598383 31.5782
31.030687500658694 31.4409
31.053794288760695 31.3806
31.076902371446767 31.2117
31.100192296997445 31.3005
31.12330298246119 31.3408
31.14641496599209 31.17
31.169528248749216 31.195999999999998
31.19282341969534 31.1302
31.215939314557186 31.1043
31.239056512134788 31.1188
31.262175013589378 30.9914
31.28547544871168 30.9212
31.30859657161541 30.9042
31.331719001892175 30.9558
31.35484274070538 30.968000000000004
31.378148458819545 30.9387
31.401274828443725 30.9335
31.424402510106933 30.9799
31.447712205419993 30.9333
31.470842524931633 30.6901
31.493974159989783 30.756999999999998
31.51710711176168 30.8654
31.54042212308802 30.9417
31.563557722100917 30.8943
31.586694641341655 30.8982
31.609832881979628 30.8283
31.63315322823208 30.7734
31.656294125521327 30.6269
31.679436347728515 30.5776
31.70257989602529 30.4793
31.725905596152327 30.5
31.74905181052835 30.4132
31.772199354521323 30.2527
31.79534822930507 30.3011
31.818679302290967 30.2574
31.84183085259981 30.1516
31.864983737233473 30.1692
31.88813795736804 30.1117
31.911474422233013 30.0385
31.934631327356435 30.1634
31.9577895715215 30.0528
31.980949155906522 30.081
32.004291031706956 30.1168
32.027453310562606 30.099
32.05061693318573 30.0068
32.07396288236386 30.0352
32.09712920658542 29.9918
32.12029687812702 29.9261
32.14346589817093 29.8128
32.166817291729984 29.7866
32.18998902288583 29.6554
32.21316210610336 29.6488
32.23633654256711 29.4928
32.259693399663725 29.5168
32.282870556771144 29.4501
32.30604907069099 29.39
32.329228942610065 29.3884
32.35259128243769 29.1368
32.375773884550505 29.1246
32.398957848235646 28.9505
32.422143174682176 28.9363
32.445511016471215 28.8883
32.468699082679954 28.7846
32.49188851523011 28.8125
32.51507931531304 28.6628
32.538452678331 28.7258
32.56164622776311 28.651
32.58484114831493 28.5534
32.60803744118015 28.5515
32.631416344731896 28.671
32.654615396551876 28.6283
32.67781582427913 28.5773
32.701198898634416 28.4554
32.72440209253756 28.3146
32.747606665947124 28.3245
32.77081262006088 28.1969
32.79420126883317 28.29
32.81740999876112 28.323
32.840620112999424 28.2037
32.86383161274818 28.1299
32.88722585534586 28.1331
32.91044014056596 28.1464
32.933655814909734 28.0203
32.95687287957963 28.124000000000002
32.98027273544904 28.0497
33.00349259526636 27.9407
33.026713849030116 27.9474
33.04993649794511 27.909000000000002
33.073341986570746 27.9006
33.09656744032826 27.9173
33.11979429286444 27.8526
33.14302254538647 27.8446
33.166433686291185 27.774
33.18966475336992 27.7137
33.212897224069096 27.6732
33.23613109959831 27.680999999999997
33.259547912343415 27.6068
33.2827846121627 27.7281
33.306022720453775 27.5835
33.32926223842861 27.4962
33.352684742614166 27.4867
33.37592709463173 27.5224
33.399170859982064 27.435
33.422597648419426 27.3124
33.44584425514446 27.2495
33.46909227885668 27.3193
33.4923417207723 27.1895
33.51577423505344 27.2756
33.539026528130385 27.1142
33.56228024307245 27.0812
33.585535381098246 26.9077
33.60897364093058 26.9158
33.63223163992385 26.8762
33.6554910656699 26.7434
33.678751919389796 26.7323
33.702195944520106 26.7313
33.72545966903325 26.6826
33.74872482519663 26.5504
33.771991414233746 26.5574
33.79544122444841 26.506999999999998
33.81871069412428 26.4376
33.84198160035767 26.4354
33.86525394437455 26.4796
33.88870955949969 26.3563
33.911984794020626 26.3672
33.93526147001624 26.4062
33.958539588715006 26.2277
33.98200102861669 26.26
34.0052820477047 26.1811
34.02856451319451 26.1339
34.05203033759056 26.1281
34.07531571090147 26.1804
34.09860253431845 26.0724
34.121890809074316 26.0159
34.145362493118924 25.9208
34.16865368561615 25.8521
34.191946333164054 25.7856
34.21524043699793 25.9149
34.23871800066799 25.8163
34.26201503218366 25.6875
34.28531352370466 25.7434
34.30861347646881 25.581
34.33209693978188 25.5085
34.3553998301885 25.555
34.378704185565205 25.5127
34.402010007152356 25.4375
34.42549939016683 25.4989
34.44880815937748 25.4192
34.472118398533134 25.3858
34.49543010887669 25.291999999999998
34.51892543169198 25.1969
34.54224009966052 25.2279
34.56555624255917 25.2417
34.58887386163339 25.085
34.61237514439016 25.0425
34.6356957311114 25.074
34.65901779775809 25.0142
34.68252356662995 24.9605
34.705848608458616 24.9236
34.72917513396849 24.8245
34.75250314440949 24.8492
34.77601490857862 24.6982
34.799345904259795 24.6522
34.82267838863559 24.6623
34.846012362958525 24.7418
34.869530142679984 24.6387
34.89286711232212 24.6024
34.91620557568269 24.671
34.93954553401677 24.6344
34.9630693495876 24.464000000000002
34.986412313340814 24.6553
35.00975677584668 24.5538
35.033102738362956 24.525
35.05663261012228 24.362
35.0799815881786 24.3847
35.10333207003229 24.2419
35.12668405694369 24.3822
35.150220005273056 24.3405
35.17357501786656 24.3381
35.19693153931268 24.2293
35.220289570874385 24.1755
35.24383161619786 24.2567
35.267192683604904 24.2229
35.290555264930376 24.1726
35.314101899412165 24.1421
35.33746752422433 24.0241
35.36083466676374 24.0895
35.38420332829803 24.0535
35.407756095629054 24.0899
35.43112781085063 23.9967
35.45450104888391 23.926
35.477875810999194 23.9341
35.50143473172161 23.8557
35.52481255774625 23.9201
35.54819191167777 23.8105
35.57157279478914 23.8065
35.595137889488406 23.8028
35.61852184675279 23.8253
35.641907337029984 23.7191
35.665294361595684 23.6863
35.68886565090076 23.6838
35.7122557598848 23.592
35.73564740699838 23.6913
35.759040593519934 23.5727
35.78261809810353 23.483
35.80601437933051 23.4495
35.829412203814705 23.4312
35.85281157283719 23.3025
35.876395313415884 23.364
35.8997977874528 23.303
35.92320180988546 23.2466
35.946790244133936 23.1757
35.97019737933222 23.2323
35.993606066789866 23.1776
36.01701630779276 23.1553
36.04061101440684 23.0686
36.06402437852291 23.0675
36.08743930005611 23.0908
36.1108557802951 22.9589
36.13445678011326 22.9193
36.15787639383515 22.8712
36.18129757014299 22.8383
36.20472031032821 22.8023
36.22832762423364 22.7458
36.25175350829375 22.7585
36.275180960119776 22.705
36.298609981005924 22.721999999999998
36.32222362992669 22.6627
36.34565580510207 22.6496
36.36908955323448 22.674
36.39252487562093 22.494
36.416144880530226 22.427
36.43958336764275 22.5129
36.463023432914625 22.5483
36.486465077645676 22.3817
36.51009145956204 22.4079
36.53353627947859 22.3777
36.55698268276811 22.3589
36.58043067073321 22.3664
36.60406345072071 22.3006
36.62751462435344 22.2653
36.65096738658405 22.2289
36.67460498210655 22.2364
36.69806093788647 22.2409
36.72151848619297 22.121
36.744977628333636 22.1259
36.76862165890998 22.0121
36.79208400512205 22.0558
36.81554794910557 22.0549
36.83901349217101 21.936
36.862663978991606 21.9066
36.88613273667352 21.8123
36.90960309738324 21.8345
36.933075062434064 21.8213
36.95673202673572 21.7706
36.98020721697122 21.7282
37.003684015502365 21.6835
37.027162423645365 21.596999999999998
37.050825886711465 21.6069
37.07430753063053 21.5679
37.09779078812467 21.5407
37.121275660513014 21.5353
37.144945643673694 21.4705
37.16843376245278 21.4953
37.19192350009803 21.4971
37.215414857931435 21.436
37.239091382563885 21.3402
37.262585997426164 21.3365
37.28608223645736 21.3057
37.309763684451696 21.2441
37.33326318851098 21.2027
37.356764320726555 21.1779
37.380267082425526 21.2175
37.40395510942588 21.1402
37.42746114683234 21.0659
37.45096881771841 21.0323
37.474478123414166 21.0266
37.49817275092816 20.9878
37.52168534303452 21.0226
37.54519957395567 20.924
37.568715445024665 20.8761
37.592416694607714 20.8428
37.61593586281424 20.8637
37.63945667518264 20.8641
37.66297913304891 20.7811
37.68668702630454 20.7373
37.710212792059274 20.704
37.733740207334854 20.6565
37.757269273470364 20.5979
37.780983832050374 20.5982
37.80451621684926 20.5677
37.82805025654007 20.5547
37.851585952464795 20.4557
37.8753071980695 20.4335
37.89884622345676 20.4123
37.92238690911902 20.3958
37.94611318753442 20.3316
37.969657210779765 20.3102
37.99320289834801 20.3079
38.016750251586465 20.2292
38.04048325513017 20.173
38.06403395679343 20.215999999999998
38.087586328183946 20.1106
38.11114037065203 20.1821
38.13488012115898 20.1051
38.1584375229181 20.0536
38.181996599821 19.9684
38.205557353221124 19.9449
38.229303872575656 19.9903
38.2528679961576 19.9643
38.27643380031219 19.9713
38.30000128639589 19.9039
38.32375459653193 19.8746
38.34732546371299 19.9121
38.37089801690786 19.8148
38.39447225747609 19.7035
38.418232380377425 19.7413
38.441810012983396 19.6825
38.46538933705673 19.6674
38.488970353960084 19.6456
38.51273731166058 19.5805
38.536321731567014 19.5381
38.55990784840681 19.5401
38.58367995004091 19.4803
38.60726947812959 19.3798
38.63086070726198 19.4657
38.654453638806274 19.4952
38.678232613930824 19.3499
38.70182896773327 19.3109
38.72542702806741 19.3057
38.7490267963045 19.2695
38.77281266709232 19.174
38.79641586862214 19.2986
38.8200207821842 19.1727
38.843627409152944 19.1725
38.86742019782782 19.1582
38.891030269149255 19.0869
38.914642058016156 19.0624
38.938255565806124 19.0572
38.96205529464307 19.0363
38.98567225787121 19.0072
39.00929094417078 18.9876
39.03291135492255 18.9235
39.05671804624804 18.9506
39.080341923549106 18.8632
39.103967529460334 18.8222
39.127594865365744 18.7655
39.15140854155791 18.7853
39.17503935514948 18.723
39.19867190290282 18.7283
39.22249083587951 18.6062
39.24612686969409 18.7095
39.269764641845306 18.6839
39.293404153722804 18.6519
39.317230110864074 18.5735
39.34087311998506 18.5189
39.36451787301696 18.5507
39.388164371352595 18.4401
39.41199737518003 18.4082
39.43564738196752 18.397000000000002
39.45929913825317 18.3551
39.48295264543308 18.3498
39.506792718520884 18.2415
39.530449745387216 18.2422
39.55410852735203 18.2879
39.57776906581474 18.2582
39.60161623079 18.2409
39.625280300200025 18.1768
39.64894613032202 18.1385
39.67261372255866 18.0807
39.6964680021016 18.0977
39.72013913657293 18.0825
39.74381203738292 18.1064
39.76748670593756 18.0256
39.79134812278169 17.9607
39.81502634488497 17.9943
39.83870633896685 17.9387
39.862388106436654 17.9138
39.88625668336918 17.8934
39.90994201572829 17.885
39.933629125719285 17.7742
39.957503091207826 17.7656
39.9811937746168 17.779
40.00488623990914 17.6916
40.02858048850006 17.721
40.05246165409549 17.691
40.076159487492085 17.6614
40.099859108448875 17.6376
40.123560518384345 17.5632
40.1474489070226 17.544
40.171153913178564 17.4863
40.194860712584955 17.4869
40.2185693066637 17.5547
40.242464941335314 17.507
40.26617714307655 17.4007
40.289891143772046 17.3728
40.3136069448471 17.4052
40.33750984859743 17.2867
40.3612292688043 17.3139
40.3849504936829 17.2219
40.40867352466194 17.2132
40.43258372059144 17.2128
40.45631038219906 17.2242
40.48003885420956 17.1718
40.503769138055105 17.1753
40.52768664931955 17.1215
40.55142057531802 17.0473
40.57515631746428 17.0454
40.599079334038514 17.0646
40.62281872700477 16.9629
40.64655994043941 16.9579
40.67030297578061 16.9986
40.69423334835778 16.9811
40.71798004609188 16.9326
40.74172857006355 16.8444
40.76547892171441 16.893
40.7894166736039 16.8057
40.813170699248566 16.8054
40.83692655691388 16.7648
40.86068424804498 16.7583
40.884629402612525 16.7279
40.908390779366385 16.7273
40.932153993938 16.69
40.95591904777605 16.6446
40.979871628443995 16.6822
41.003640379561936 16.6317
41.02741097430883 16.6197
41.05118341413683 16.5685
41.075143444384416 16.5202
41.098919593177826 16.4824
41.1226975914255 16.4847
41.14647744058318 16.438
41.170444943946755 16.3773
41.19422851378379 16.3899
41.218013938914645 16.3947
41.24198706625173 16.3433
41.26577622087193 16.2926
41.289567235177785 16.2435
41.31336011063129 16.2123
41.337340752422875 16.1493
41.361137369129835 16.1773
41.38493585138705 16.1984
41.40873620066004 16.1465
41.43272438060107 16.0775
41.45652848292052 16.0557
41.48033445666918 16.0444
41.50414230331616 16.0166
41.528138045159764 15.9587
41.551949656675205 15.8864
41.575763145513235 15.9216
41.59957851314666 15.8924
41.62358184070442 15.8402
41.64740098505737 15.8635
41.6712220126409 15.818
41.69504492493139 15.7535
41.71905586207357 15.7484
41.74288256296395 15.7012
41.766711153007456 15.6709
41.79054163368412 15.6562
41.814560204340054 15.6848
41.838394485526365 15.6847
41.86223066180303 15.661
41.88625497706819 15.5713
41.910094962812 15.5615
41.93393684811168 15.5312
41.95778063445365 15.5041
41.981812625263366 15.4715
42.00566023303407 15.4567
42.029509746323676 15.4436
42.05336116662236 15.4445
42.077400857069705 15.3899
42.10125611078846 15.3645
42.12511327600405 15.3136
42.14897235421036 15.2924
42.173019768448455 15.2794
42.19688269209613 15.2117
42.22074753323349 15.1843
42.24461429335818 15.1773
42.268669455600495 15.1425
42.292540073217886 15.140999999999998
42.31641261433284 15.1551
42.34028708044675 15.1421
42.36435001496739 15.0971
42.38822835065557 15.0997
42.41210861586426 15.056
42.4359908120986 15.0673
42.46006154323262 14.9745
42.48394762115317 14.9455
42.507835634632315 14.959000000000001
42.531912233047436 14.9109
42.55580413732265 14.874
42.579697981698 14.8536
42.60359376768525 14.815999999999999
42.62767820545945 14.815999999999999
42.65157789440821 14.8127
42.67547952952185 14.7736
42.699383112316 14.7313
42.72347541395347 14.6916
42.74738291190531 14.6911
42.771292362102166 14.6735
42.795203766063516 14.6261
42.819303956130405 14.6312
42.843219287476536 14.5987
42.86713657716324 14.5326
42.89105582671383 14.5301
42.91516392983864 14.5224
42.939087119032166 14.463
42.963012272677304 14.4623
42.98693939230129 14.4205
43.01105543317513 14.4065
43.034986504731386 14.3222
43.05891954686589 14.3589
43.08285456110972 14.3174
43.10697856448665 14.2484
43.130917542983475 14.2028
43.15485849820081 14.2479
43.17880143167367 14.2038
43.20293342237094 14.2169
43.226880332449 14.1569
43.25082922540554 14.1853
43.27496722682525 14.147
43.29892010567796 14.0787
43.32287497204102 14.0836
43.34683182745632 14.0342
43.370977859791836 13.9945
43.39493871351105 13.9858
43.41890156092628 14.0232
43.44286640358341 13.9449
43.46702049182749 13.9604
43.49098934522816 13.873
43.51496019852649 13.8667
43.5389330532723 13.8229
43.56309522248204 13.8323
43.58707210044314 13.8199
43.61105098451946 13.7593
43.63503187626491 13.7993
43.659202151562134 13.7444
43.68318707902681 13.693
43.70717401884041 13.7195
43.731162972560874 13.6601
43.75534137913236 13.6168
43.779334381108384 13.5822
43.803329401683186 13.5612
43.82732644241872 13.5764
43.8515130055166 13.5846
43.87551410707659 13.5509
43.89951723350145 13.58
43.923709934595614 13.4895
43.94771713129917 13.4802
43.97172635758096 13.4579
43.99573761501002 13.4412
44.0199385169922 13.3892
44.04395385732619 13.3316
44.067971233533086 13.325999999999999
44.09199064718605 13.324000000000002
44.11619977548961 13.287
44.14022328470671 13.2489
44.16424883610785 13.270999999999999
44.18827643127035 13.2722
44.21249381139513 13.2167
44.236525514814076 13.1867
44.26055926674478 13.1259
44.28459506876863 13.0795
44.3088207262813 13.1024
44.33286064928722 13.064
44.35690262714919 13.0493
44.38094666145278 13.0129
44.4051806219871 13.0242
44.42922879003185 12.9854
44.45327901929361 12.9552
44.477331311362136 12.9205
44.501573600619416 12.9266
44.525630039221795 12.8851
44.54968854541895 12.9084
44.573937102200176 12.8392
44.5979997645541 12.841
44.622064499300315 12.7959
44.64613130803592 12.7845
44.67038823869318 12.7831
44.69445921643748 12.7606
44.718532272981385 12.7231
44.742607409926194 12.7015
44.76687274034801 12.6544
44.79095205918753 12.6236
44.81503346325094 12.6324
44.839116954143876 12.6092
44.86339071028742 12.5868
44.88747839599524 12.5631
44.91156817336837 12.5209
44.93566004401666 12.5212
44.959942251908146 12.4538
44.984038330325966 12.4588
45.00813650686762 12.4335
45.03223678314731 12.4238
45.05652746888232 12.3996
45.08063196592069 12.3846
45.104738567558705 12.3544
45.128847275414856 12.3881
45.15314646515866 12.264000000000001
45.17725940679741 12.2794
45.20137445952892 12.2766
45.22568004865265 12.2829
45.24979934496396 12.2115
45.27392075725247 12.189
45.29804428714431 12.1967
45.322358426247604 12.1927
45.346486212804315 12.202
45.370616121861914 12.171
45.39474815505086 12.1509
45.41907087049246 12.0285
45.4432071734666 12.0667
45.46734560548283 12.068
45.49148616817604 12.0554
45.51581748638564 11.9962
45.5399623320197 11.9538
45.56410931325473 11.9556
45.58825843173002 11.9888
45.61259837920865 11.8932
45.636751793816 11.9115
45.66090735060093 11.8249
45.68506505120716 11.7703
45.7094136545275 11.8372
45.73357566449271 11.7439
45.75773982322992 11.7554
45.78190613238733 11.7738
45.806263418194064 11.7202
45.83043404997326 11.7071
45.85460683713677 11.7223
45.87897065658495 11.6905
45.90314777634752 11.6557
45.92732705646868 11.6193
45.9515084986045 11.6095
45.97588104735473 11.6112
46.00006683541565 11.5812
46.02425479047904 11.5441
46.04844491420549 11.5771
46.0728262191024 11.5692
46.09702070211635 11.5212
46.12121735879483 11.511
46.14541619080294 11.4488
46.169806278764455 11.4279
46.194009483459034 11.4336
46.21821486849841 11.3739
46.24242243555223 11.4065
46.266821333570014 11.3348
46.29103328674601 11.3067
46.31524742696538 11.3083
46.33946375590237 11.3036
46.36387149104216 11.2572
46.38809221957392 11.2209
46.41231514186606 11.2268
46.436540259597464 11.2321
46.460956858999374 11.1982
46.48518638983522 11.1362
46.509418121166966 11.1324
46.533652054678114 11.1195
46.55807754555709 11.1263
46.58231590571962 11.0838
46.60655647313217 11.075999999999999
46.630988654873654 11.0309
46.655233659129024 10.9939
46.67948087571551 11.019
46.70373030632484 10.9661
46.72817142736393 10.9889
46.752425308428684 10.9818
46.77668140861147 10.9271
46.80093972960865 10.8762
46.82538981736788 10.870999999999999
46.849652602470904 10.8473
46.87391761349769 10.8128
46.8981848521493 10.8245
46.9226439341274 10.79
46.946915650573224 10.7627
46.97118959976749 10.7586
46.99546578341598 10.7166
47.019933887188216 10.6969
47.04421456235744 10.7006
47.06849747711879 10.6938
47.09278263318286 10.6627
47.11725978640143 10.6435
47.14154944775105 10.6216
47.165841355555656 10.617
47.1901355115306 10.5749
47.214621741924994 10.5485
47.23892041698887 10.5747
47.26322134538975 10.5126
47.28771440635075 10.5084
47.31201986422527 10.469000000000001
47.33632758061436 10.4585
47.360637557241866 10.45
47.38513974410611 10.4405
47.40945426407847 10.409
47.43377104948137 10.4202
47.45809010204344 10.3793
47.48260144275502 10.3429
47.506925052572285 10.3367
47.53125093475548 10.2885
47.55557909103813 10.2801
47.58009961361992 10.2507
47.60443234110732 10.2733
47.62876734791564 10.2468
47.65310463578333 10.2006
47.6776343683373 10.2285
47.7019762413987 10.1543
47.72632040075572 10.1151
47.75066684815169 10.1527
47.77520581885936 10.1211
47.799556865477655 10.0936
47.823910205386 10.0776
47.84826584033272 10.0764
47.87281407745551 10.049
47.89717432569297 10.0465
47.92153687423484 10.0124
47.94609208429692 9.99577
47.97045925671401 9.95232
47.99482873471275 9.93995
48.01920052005013 9.94283
48.04376504619224 9.92954
48.068141469543484 9.90921
48.09252020552573 9.90696
48.11690125590099 9.87266
48.1414751266064 9.87089
48.16586082917454 9.8401
48.19024885144316 9.81582
48.2146391951793 9.84853
48.239222439012764 9.78017
48.26361744916137 9.76682
48.28801478610016 9.77097
48.31241445160131 9.73977
48.337007097209366 9.74051
48.36141144338331 9.71534
48.38581812345755 9.65064
48.41022713920929 9.65842
48.434829215320704 9.64232
48.45924292604658 9.64988
48.48365897780325 9.63935
48.50807737237308 9.58348
48.532688907799276 9.602889999999999
48.55711201168574 9.572280000000001
48.581537463754074 9.55278
48.60615611725119 9.509210000000001
48.63058628942721 9.52469
48.65501881516546 9.496210000000001
48.6794536962573 9.493889999999999
48.70408185970339 9.46573
48.72852147531801 9.4238
48.75296345168211 9.415230000000001
48.77740779059232 9.40911
48.80204549302823 9.420539999999999
48.82649458091802 9.41156
48.85094603676547 9.343169999999999
48.87539986237231 9.34775
48.90004713292306 9.34286
48.92450572200832 9.29288
48.94896668628025 9.26103
48.97343002754588 9.2519
48.99808689542115 9.237960000000001
49.02255501470614 9.237119999999999
49.04702551642794 9.22216
49.0714984023988 9.211030000000001
49.096164896893235 9.204989999999999
49.120642575466796 9.17036
49.145122643748394 9.171330000000001
49.16960510355558 9.09661
49.19428125404938 9.07521
49.2187685210852 9.07127
49.243258185121555 9.07424
49.26794160167084 9.10217
49.2924360839405 9.04598
49.31693296869764 9.004489999999999
49.34143225776915 9.01012
49.36612538195438 8.981060000000001
49.39062950396021 8.9766
49.41513603578346 8.91518
49.4396449792564 8.93245
49.46434784069503 8.923210000000001
49.488861631846454 8.8793
49.513377840166804 8.922080000000001
49.537896467493745 8.90953
49.56260909589029 8.82727
49.587132585683285 8.82821
49.611658500018365 8.83119
49.636186840738596 8.783999999999999
49.66090926588511 8.77807
49.685442483902584 8.755519999999999
49.70997813385706 8.73402
49.734516217597076 8.73984
49.75924846937352 8.69698
49.7837914452858 8.6774
49.80833686055187 8.66588
49.83288471702571 8.66169
49.85762682540054 8.63953
49.882179588965734 8.59607
49.9067347993235 8.62299
49.93129245833333 8.620280000000001
49.95604445336378 8.60022
49.98060703442832 8.57483
50.005172069746266 8.57513
50.02993150438364 8.47976
50.05450147301533 8.49463
50.07907390151433 8.505519999999999
50.10364879174981 8.50263
50.12841816587289 8.45675
50.1529980044635 8.44183
50.17758031042124 8.41209
50.20216508562089 8.41258
50.22694442953363 8.42112
50.25153416817468 8.3956
50.27612638170508 8.35079
50.300721072005196 8.33716
50.325510416102105 8.30841
50.350110084975064 8.31355
50.37471223628208 8.3268
50.39931687190919 8.27187
50.424116246675766 8.22295
50.44872587605249 8.26883
50.47333799543065 8.26324
50.49795260670191 8.24536
50.52276204271512 8.2013
50.54738166295838 8.19105
50.57200378079314 8.19632
50.596628398116835 8.15307
50.62144792604559 8.169319999999999
50.646077567609396 8.17736
50.670709714377715 8.133519999999999
50.69553683636198 8.1083
50.72017401885922 8.105889999999999
50.7448137122895 8.05897
50.76945591856022 8.04921
50.79429318636823 8.0359
50.818940443716784 8.0321
50.84359021965163 8.00271
50.868242516085964 7.986960000000001
50.893089960641895 7.95585
50.917747323549435 7.952319999999999
50.94240721271973 7.95149
50.96706963007175 7.92179
50.99192728239342 7.922630000000001
51.01659478166073 7.94968
51.04126481489051 7.8830800000000005
51.06593738400761 7.87322
51.090805275207074 7.8345
51.11548294172845 7.83248
51.14016314993547 7.827660000000001
51.164845901758845 7.8216600000000005
51.18972406304274 7.772930000000001
51.21441192780656 7.782430000000001
51.23910234200271 7.739889999999999
51.2637953075678 7.75672
51.288683770237945 7.7373
51.31338186432707 7.69763
51.33808251561888 7.6559800000000005
51.362978729967345 7.655689999999999
51.387684521509755 7.63577
51.41239287610203 7.6279
51.437103795691165 7.635689999999999
51.46201036644977 7.6313
51.486726441956634 7.59315
51.51144508832545 7.59218
51.536166307509156 7.581589999999999
51.56108326624387 7.545030000000001
51.58580965706056 7.535
51.61053862657523 7.5239199999999995
51.635270176746864 7.5251600000000005
51.66019755512065 7.46928
51.68493429268881 7.462280000000001
51.70967361681515 7.4252199999999995
51.73441552946465 7.4260399999999995
51.759353359237934 7.43514
51.7841004750961 7.43055
51.80885018539685 7.4317
51.833602492111254 7.394539999999999
51.8585508051424 7.34638
51.883308330926425 7.34771
51.90806845906181 7.31268
51.932831191525715 7.2965800000000005
51.95779001977161 7.306889999999999
51.98255798721516 7.27445
52.00732856494335 7.2525
52.03229530577543 7.26958
52.057071130455945 7.21782
52.081849571391054 7.22313
52.106630630568695 7.27675
52.13160794279417 7.20431
52.15639426492067 7.1762
52.18118321127822 7.1814100000000005
52.205974783860896 7.18863
52.23096269971011 7.112989999999999
52.255759551287994 7.101089999999999
52.280559035098186 7.131130000000001
52.30536115314103 7.117780000000001
52.33035970494467 7.12515
52.35516711807904 7.10354
52.37997717147198 7.03291
52.40478986713005 7.0388
52.42979908731974 7.058680000000001
52.454617094216 7.0268
52.47943774942214 7.007860000000001
52.50426105495102 6.991789999999999
52.529280976059844 6.9836100000000005
52.554109609024096 6.9747
52.57894089837482 6.96231
52.60377484613117 6.90792
52.62880550079408 6.93226
52.65364479223379 6.87891
52.67848674816189 6.874280000000001
52.70352547971946 6.91558
52.72837279155837 6.86278
52.753222773982785 6.866060000000001
52.778075429022984 6.8233
52.80312495150885 6.82873
52.827982978797436 6.7964899999999995
52.85284368481815 6.76835
52.87770707160767 6.76635
52.90276741793998 6.73376
52.92763619336701 6.719069999999999
52.952507655698504 6.719110000000001
52.977381806977576 6.732489999999999
53.00245301017842 6.68796
53.02733256653592 6.70182
53.052214817996074 6.6821600000000005
53.077099766608484 6.69314
53.102181859804446 6.630210000000001
53.127072229988265 6.66323
53.15196530349892 6.6223399999999994
53.17686108239249 6.597160000000001
53.20195409881522 6.581910000000001
53.22685531582556 6.57218
53.25175924441303 6.5666899999999995
53.27666588664027 6.59345
53.30176985962693 6.53519
53.3266819565689 6.51894
53.35159677336455 6.5172
53.376514312083096 6.48156
53.40162927507703 6.46036
53.42655228516116 6.46632
53.45147802340193 6.43803
53.47660125628886 6.4299800000000005
53.50153247842639 6.4164
53.52646643496923 6.3926
53.55140312799818 6.3937
53.576537409691696 6.39246
53.60147960336152 6.36024
53.626424539786164 6.3726400000000005
53.65137222105307 6.344609999999999
53.67651758529126 6.3421199999999995
53.70147078399681 6.310630000000001
53.72642673383343 6.28717
53.75138543689533 6.27427
53.776541917524526 6.27502
53.801506154876755 6.24185
53.826473151763246 6.24539
53.851442910284916 6.2262
53.87661054126026 6.2229
53.9015858509782 6.19068
53.92656392866066 6.19046
53.95154477641532 6.16447
53.976723591801296 6.13664
54.00171000771266 6.13697
54.02669920004598 6.1294900000000005
54.051691170915745 6.10773
54.076881204886796 6.10807
54.101878760928514 6.06269
54.12687910187696 6.04986
54.152077577768296 6.0772699999999995
54.1770835166946 6.03104
54.20209224691339 5.99795
54.22710377055121 5.97042
54.25231352511594 5.9589099999999995
54.27733066384342 5.93238
54.30235060239643 5.94573
54.32737334290836 5.924869999999999
54.35259441062629 5.87226
54.377622783395324 5.87555
54.40265396455061 5.87622
54.42768795623251 5.86592
54.45292037169559 5.77872
54.477960012857906 5.8319
54.50300247099511 5.801819999999999
54.52804774825457 5.7584599999999995
54.55329154616743 5.72339
54.57834249018678 5.711040000000001
54.6033962597977 5.6911
54.6284528571545 5.66846
54.653708072335164 5.6424199999999995
54.67877035378786 5.65562
54.70383546947698 5.64118
54.72890342156389 5.57965
54.7541700889442 5.55943
54.77924374251975 5.56538
54.8043202390049 5.52489
54.82959552413022 5.53488
54.8546777351945 5.50495
54.87976279569621 5.43228
54.90485070780914 5.45394
54.930137506558005 5.41031
54.95523115074295 5.45826
54.98032765308844 5.3865
55.005427015775496 5.32723
55.03072536339621 5.41654
55.05583047570572 5.3142
55.080938454927676 5.296119999999999
55.10604930325027 5.27784
55.131359235107396 5.30089
55.15647585066083 5.26275
55.181595341907496 5.1658800000000005
55.20671771104285 5.18302
55.232039262617704 5.2108300000000005
55.25716741665048 5.13622
55.28229845518636 5.09387
55.30743238042802 5.02612
55.33276558731939 5.06785
55.357905315183636 4.99008
55.383047936390035 5.0160599999999995
55.40819345314859 4.97716
55.433538351073295 4.97805
55.458689688238415 4.95253
55.483843927614096 4.88353
55.509197623043605 4.90106
55.53435769621134 4.9131
55.55952067826466 4.8518
55.5846865714265 4.84426
55.61005202069737 4.81042
55.63522376553902 4.79286
55.66039842818645 4.7647
55.68557601087004 4.75935
55.7109532500271 4.69373
55.73613670233794 4.70977
