TT I
1.2716486653135266 6.85027
1.2939594142134223 6.34087
1.3162702121660406 6.7036
1.3385810600174564 6.39085
1.3608919586137629 5.76936
1.383202908801069 5.59576
1.405513911425503 5.68832
1.4278249673332093 5.74134
1.4501343378461518 5.5846
1.4724455028545926 5.798690000000001
1.4947567236847858 6.07765
1.517068001182951 5.6292
1.5393793361953272 5.50938
1.5616907295681737 5.1936599999999995
1.5840021821477681 5.38842
1.60631369478041 5.15658
1.6286252683124185 5.26923
1.6509369035901333 4.5643400000000005
1.6732468618895553 4.81731
1.695558623192809 4.4535
1.7178704487808514 4.9432599999999995
1.7401823395001077 4.42434
1.7625012545597203 4.62498
1.7848028405262486 4.32276
1.8071218901122095 3.7349900000000003
1.8294236121921872 4.23645
1.8517427996910911 4.51374
1.8740620574440425 4.04379
1.8963639900671978 4.0099800000000005
1.9186833908139995 4.159730000000001
1.9409854680117449 4.65581
1.9633050151394713 4.60304
1.9856246367570705 4.49925
2.0079269371922672 4.141769999999999
2.03024671027244 3.9655099999999996
2.0525491637446027 4.08004
2.074869091674931 3.97402
2.097171701569106 4.22832
2.1194917877373847 4.231990000000001
2.141811954326636 4.90019
2.164114805233074 4.72476
2.186435135143035 4.10312
2.208738150935709 5.16018
2.231058647554722 6.5301599999999995
2.2533792288321184 6.72163
2.275682498336085 5.5802
2.298003251406138 5.13748
2.3203066942619714 5.25544
2.3426276225136022 4.80764
2.3649486396617507 5.4131
2.387252348930071 5.71976
2.4095735463442893 6.0850800000000005
2.4318774374315884 6.00282
2.4541988185014043 6.09888
2.476502894794693 6.677569999999999
2.498824462909887 7.05554
2.521146125856138 7.12736
2.5434504863470337 6.938339999999999
2.5657723414244717 7.8078199999999995
2.588076895590662 8.54372
2.610398946189713 8.8905
2.6327210958598384 8.20246
2.6550259469304716 8.51412
2.6773482972090137 8.371739999999999
2.6996533504259 8.33281
2.7219759047039602 8.4765
2.744298562293959 8.3889
2.7666039251246595 8.03116
2.7889267918020164 8.43176
2.8112323652516555 8.89804
2.833555444408179 8.980410000000001
2.8558786311183852 8.193760000000001
2.8781845268938557 8.76298
2.9005079311721484 9.01786
2.9228140460410397 8.727739999999999
2.9451376712799635 9.0414
2.967444008632326 9.8478
2.9897678582247247 10.156
3.0120918213106695 9.35524
3.0343984987899373 10.4348
3.0567226913198637 10.6962
3.079029599759726 11.4287
3.101354025127254 11.8644
3.123678568232338 12.4118
3.145985829517914 12.507
3.16831061055229 13.3376
3.1906181112775593 14.3745
3.212943133635653 14.7704
3.2352682779763207 14.9071
3.2575761442691227 15.0147
3.2799015350264273 15.0667
3.302209649240067 15.4791
3.3245352898092655 15.9255
3.3468436553365257 16.7101
3.369169549113219 16.6717
3.3914955708171384 17.8935
3.413804319727358 18.0316
3.4361305997334863 18.079
3.4584396084414553 18.8077
3.4807661501462652 19.4031
3.503092824025881 19.7321
3.5254022288463154 20.0166
3.5477291695206588 20.2019
3.5700388426251948 20.7312
3.5923660534916446 21.1494
3.6146934007816114 22.4221
3.637003482731501 27.1655
3.6593311053109985 29.7672
3.681641464033634 26.7071
3.7039693653009733 24.0003
3.726297407241705 23.7834
3.7486081875460804 23.9488
3.7709365132734978 24.3961
3.793247578841633 24.7503
3.8155761917550093 25.5021
3.8378875459837216 25.4612
3.8602164494827234 26.4342
3.882545499606844 26.8803
3.9048572932539183 27.5729
3.9271866390645718 27.9279
3.9494987298666713 28.3432
3.971828374764527 28.776999999999997
3.9941581705403255 29.6111
4.016470713506008 29.8478
4.038800813471445 30.0052
4.061113662089144 30.4724
4.0834440696459176 31.7354
4.105774632334751 31.4456
4.128087945865126 32.7103
4.150418821249301 33.1839
4.172732448931298 33.4892
4.195063640413578 34.3533
4.2173775856475215 35.1872
4.239709096631102 37.7934
4.262040768704612 51.2743
4.284355196706267 63.0191
4.306687193387355 56.0825
4.329001947444346 44.2605
4.35133427213731 40.8197
4.373666762177566 40.58
4.395982011761091 40.9201
4.418314834921175 41.5693
4.44063041906622 43.1594
4.4629635787515625 44.7758
4.4852969080429785 46.2658
4.5076130004776225 46.211000000000006
4.529946671403969 46.5907
4.552263106909177 47.043
4.574597122877047 48.3608
4.596931312711224 49.7899
4.619248269273446 51.0463
4.6415828092605835 51.8753
4.663900117405352 52.9589
4.686235010953232 54.335
4.708552674085913 55.2276
4.730887924602802 56.3099
4.753223354952695 58.2893
4.775541557023902 59.4955
4.797877349456786 61.1933
4.820195915032126 63.1551
4.842532072957498 64.2333
4.864868414979744 66.0729
4.88718753227192 68.2035
4.909524244902505 70.2479
4.931843734218147 72.0482
4.954180820867835 74.109
4.976518095879839 77.0095
4.998838149695359 79.8641
5.021175803844231 82.9541
5.043496238205739 85.6701
5.065834274903528 89.3047
5.088172504230693 93.352
5.1104935158799565 97.9059
5.132832132875765 105.585
5.155153533596801 118.163
5.1774925416746225 137.923
5.199814334878411 230.729
5.2221537374521505 812.25
5.244493338631803 2541.77
5.266815727034316 7288.51
5.289155727832427 13838.4
5.311478517248165 9926.0
5.333818921080011 3365.73
5.356159527788849 664.49
5.3784829252032536 201.185
5.400823940070432 141.784
5.423147747031976 122.84899999999999
5.445489173474152 113.648
5.467830807066149 108.03200000000001
5.490155234831516 104.238
5.512497285125229 100.949
5.534822130975162 99.6027
5.557164601388673 97.5414
5.579489868738879 94.6085
5.601832762690846 93.4074
5.6241758697774475 92.2407
5.646501775867269 91.3931
5.668845311622074 90.8218
5.691171647754637 89.6724
5.713515615597765 88.64299999999999
5.735859800852677 87.9627
5.758186788542988 87.4245
5.780531411018185 87.5054
5.802858837297399 86.4279
5.825203900414495 86.5425
5.8475491852224 86.53399999999999
5.869877275883075 87.1113
5.892223006467101 88.1299
5.914551544266608 89.2043
5.936897724049891 91.01100000000001
5.959244129804903 95.4033
5.981573344815301 106.74600000000001
6.0039202049061 163.838
6.026249875609095 394.406
6.04859719346037 891.193
6.070927323278297 2040.53
6.093275102315365 4470.12
6.115623113320588 5535.11
6.137953938319995 3625.31
6.160302415650845 1093.5
6.182633708324452 241.734
6.2049826554078376 108.984
6.227331838745022 87.3564
6.249663839443684 80.0491
6.27201349767565 75.7648
6.294345974611799 73.8911
6.316696111167083 73.1786
6.339046488263839 71.5622
6.361379686074702 68.7508
6.383730546639482 66.523
6.406064229255215 65.0695
6.428415576718203 64.4867
6.450749747566656 63.6943
6.47310158535871 62.7409
6.495453669698332 62.1846
6.517788579421056 61.3127
6.540141159237969 60.0038
6.562476565766648 59.6071
6.5848296444934045 58.9486
6.607182974060425 58.6462
6.6295191323281015 57.8946
6.651872965955752 57.1719
6.6742096296068985 58.5159
6.6965639707294615 63.0399
6.71891856698715 64.1765
6.741255995248479 59.9986
6.763611104154477 56.4567
6.785949046381137 55.0264
6.808304671371482 54.5113
6.8306605557940046 54.4004
6.852999275508618 53.8896
6.875355681171544 53.7456
6.897694923437771 53.2354
6.92005185377892 53.2032
6.9423916220322655 53.5005
6.964749080490181 52.5982
6.987106804399774 52.5496
7.009447368180821 52.3811
7.031805625367033 52.2684
7.054146723727803 52.3473
7.076505517631004 52.0436
7.098864581288365 51.9704
7.121206488070854 51.6025
7.143566093607822 51.6
7.165908543567245 51.5284
7.188268694426048 51.345
7.2106291193438095 51.4492
7.232972390625943 51.5345
7.255333366030969 51.748000000000005
7.277677189091925 55.4816
7.300038718428332 61.4201
7.322400526130865 61.2227
7.344745183422596 55.8707
7.367107550224791 52.7915
7.389452767901992 51.6899
7.411815697249891 51.5742
7.434161478756298 51.2339
7.456524974096713 51.3752
7.478888753837185 51.4466
7.501235387657368 52.5368
7.523599738562711 57.3318
7.545946944825532 65.7723
7.568311870344528 69.747
7.5906770845765665 63.1824
7.613025156078678 55.85
7.635390950099687 53.5781
7.657739602662809 52.8588
7.680105979923558 52.3988
7.702472650212829 53.5053
7.724822180948224 53.0861
7.747189439655568 53.3392
7.769539560075357 53.2386
7.791907410653562 53.937
7.81425812420825 53.5899
7.836626570110925 54.0296
7.858995315087906 54.7969
7.881346924933401 55.1754
7.903716270417482 55.6643
7.926068482028405 55.4459
7.948438431475253 56.486000000000004
7.9708086843180235 57.335
7.993161805171116 57.2125
8.015532667162402 57.7595
8.037886398416653 58.9626
8.060257873014221 59.2929
8.082629655331942 59.5457
8.104984308787587 60.2436
8.127356708900503 61.1725
8.149711981398308 62.339
8.172085002766314 63.4545
8.194458336181368 64.0241
8.216814543847752 64.5591
8.23918850371002 65.4981
8.26154533906492 66.5747
8.283919928836452 68.2295
8.306277395339652 69.0563
8.328652618483376 70.2247
8.351028159736202 71.842
8.373386579575245 73.7046
8.395762759396959 75.7722
8.418121819038275 77.7927
8.440498640894003 81.4164
8.462875785192262 86.2366
8.485235811156207 94.501
8.507613602688501 129.25
8.529974277114228 233.734
8.552352719347912 382.532
8.574731488360351 623.891
8.59709314210385 1108.19
8.619472567021075 1856.97
8.64183487789147 2311.66
8.664214962183097 2027.97
8.686577933647762 1111.89
8.708958680784317 414.81699999999995
8.731339760774953 170.60299999999998
8.753703729764451 108.45299999999999
8.77608547780821 94.6874
8.798450116065078 91.0762
8.820832535634787 88.45
8.843215292401656 87.2133
8.865580941199045 85.7027
8.887964374703538 84.0766
8.910330701447199 83.7056
8.932714815164482 83.2247
8.955099270424924 82.6101
8.977466620733543 81.5663
8.999851761421976 80.8096
9.022219798361645 80.2903
9.04460562795561 80.34100000000001
9.066991803441677 79.9846
9.089360876979615 79.6358
9.111747746589993 79.37
9.13411751544971 78.8813
9.156505082664324 79.0812
9.178875550323522 79.5625
9.20126381862328 81.2556
9.223652438908596 89.3
9.246023961427412 102.551
9.26841328802173 107.415
9.290785518039224 98.76799999999999
9.313175554425882 87.25
9.335565947154315 80.932
9.357939245086508 80.1051
9.380330352834827 79.8354
9.40270436697103 79.6608
9.425096193225055 79.8129
9.447488380180165 80.6911
9.469863475295412 80.7778
9.492256385987508 81.1072
9.514632206018318 81.7797
9.537025843935714 82.3562
9.559402392368193 82.5501
9.581796761000229 83.3765
9.604191496441521 84.0425
9.626569144158516 84.5069
9.648964615551032 85.6699
9.671343000390081 86.727
9.693739211225699 87.6993
9.716135793237463 87.7343
9.738515290448102 88.52799999999999
9.760912617143402 89.4028
9.783292860202891 90.8166
9.805690935076182 91.6409
9.828089385495742 92.43799999999999
9.850470754023561 94.2414
9.872869957865444 96.3939
9.89525208097539 98.509
9.917652041736662 102.70700000000001
9.940052382417589 106.09899999999999
9.962435644102392 115.155
9.984836746950979 146.502
10.007220771957746 228.454
10.029622640473708 351.849
10.052007432299963 523.631
10.074410069984072 778.544
10.096813093716005 1202.91
10.119199042482517 1759.37
10.141602840636468 2111.58
10.163989564971628 1732.5
10.186394141051062 1023.76
10.208799107559706 447.69199999999995
10.231187001965623 199.541
10.253592751657669 124.999
10.275981430388155 107.749
10.298387966769793 103.559
10.320794897965431 102.125
10.343184759907361 100.88600000000001
10.36559248305461 99.2398
10.387983138083852 97.9473
10.410391656691655 99.2192
10.432800574501677 107.912
10.455192425893369 130.359
10.47760214443012 163.54399999999998
10.499994797678786 205.86700000000002
10.522405320453982 274.941
10.54479877906917 388.24699999999996
10.567210109595656 512.632
10.5896218454736 591.918
10.612016518879773 571.506
10.634429067781074 403.78
10.656824555333241 237.382
10.679237920773568 142.776
10.701651695961992 103.38799999999999
10.724048411481384 91.8581
10.746463008485165 85.7492
10.768860546937125 82.2154
10.791275969274796 79.9412
10.81369180576079 78.6785
10.836090585366925 77.9235
10.858507252467449 76.4772
10.88090686379991 75.5149
10.903324365036394 74.6924
10.925724811614439 73.4737
10.948143150509463 73.5347
10.970561909719066 72.3671
10.992963615930844 71.5165
11.015383218085756 70.7908
11.037785768347074 69.92699999999999
11.06020621697282 69.235
11.082627090322113 68.9231
11.105030913430326 68.2383
11.12745263854165 67.7331
11.149857314510728 67.1172
11.172279894912576 67.7884
11.194702904450653 67.2346
11.217108866490921 66.3801
11.239532736615194 65.8775
11.26193956033512 65.2824
11.284364294577085 65.0031
11.306789462371718 64.1824
11.329197585398376 63.7643
11.351623622610898 63.8538
11.37403261614354 63.2436
11.396459526308487 62.8365
11.418869393879497 62.5255
11.441297180532617 62.2168
11.463725406927658 61.8551
11.486136592353875 61.5271
11.508565700543707 61.282
11.530977768845315 61.3189
11.553407762368774 61.0502
11.575838200059769 61.1741
11.598251599479612 60.8575
11.620682927815501 60.3947
11.64309721895548 60.7084
11.665529441478206 60.2371
11.687962112597958 60.1948
11.710377748130886 60.4196
11.732811318753434 59.9981
11.755227854859067 59.7997
11.777662328529495 59.9951
11.800079768750786 60.0922
11.822515149015453 59.8854
11.844950984084935 60.0726
11.867369787303163 59.6651
11.889806534289491 60.0808
11.912226250487029 61.6731
11.934663912939751 64.0658
11.9571020346363 66.7624
11.979523127133968 67.03699999999999
12.001962169624331 65.4041
12.024384183972964 63.1729
12.046824150809913 64.2763
12.069264581333726 69.67699999999999
12.091687985297767 77.3424
12.11412934550045 86.8218
12.136553680195208 100.029
12.158995973632788 121.684
12.181438735204349 147.21
12.20386447284199 179.417
12.226308172985636 200.417
12.24873485024193 209.261
12.271179492516982 175.453
12.293607112949127 133.933
12.316052700916226 96.1221
12.338498763250042 74.0473
12.360927805303868 64.5058
12.383374818673879 62.1134
12.405804812803074 61.17100000000001
12.428252780773262 61.2894
12.45070122756722 61.5695
12.473132656675375 61.2574
12.49558206341869 61.6177
12.518014453510101 61.4261
12.540464823770117 61.6278
12.562915677315177 61.743
12.58534951575545 62.1404
12.607801338171472 62.0627
12.630236146511358 62.4652
12.652688941369085 63.9088
12.675124723177234 64.398
12.697578494048786 64.344
12.720032754458185 64.1111
12.742470003354093 64.2432
12.764925245138771 64.5234
12.787363476431278 65.0061
12.809819703166806 65.4573
12.83227642391173 66.0189
12.854716135692716 66.6204
12.877173846755147 67.5658
12.899614549869717 67.8994
12.9220732548287 68.9717
12.94453245827299 69.5493
12.966974655289818 70.2433
12.989434858002571 71.2838
13.011878055298721 72.0206
13.034339260862497 73.1503
13.056800969391883 74.2769
13.079245674017244 76.4766
13.101708390774869 78.2382
13.12415410463411 82.4524
13.146617833206086 92.809
13.169064559883248 108.508
13.191529303857127 127.415
13.213994557076367 150.106
13.236442809902437 182.925
13.258909083908291 231.593
13.28135835851934 294.672
13.30382565690295 371.776
13.326293469022952 441.69699999999995
13.348744283242008 448.38800000000003
13.371213125129904 380.24
13.39366497011003 279.15
13.416134845360597 183.082
13.438605238843131 126.46
13.46105863690397 102.289
13.483530069144786 99.0824
13.505984506951902 107.26100000000001
13.528456981549432 120.94
13.550929978879088 136.749
13.573385983253365 158.468
13.595860028340867 191.433
13.618317081455832 238.524
13.64079217790333 299.453
13.663250283359057 360.556
13.685726434770173 389.825
13.708203115221277 362.755
13.730662806148091 289.064
13.75314054697177 205.533
13.775601299246777 137.545
13.798080104050406 100.14299999999999
13.820559442405358 84.60700000000001
13.843021793671388 79.4463
13.865502201420897 77.6411
13.887965623051947 77.0902
13.910447103807167 75.8409
13.932929122629764 74.5594
13.955394156785959 74.5733
13.977877254034569 73.3245
14.000343367582113 72.5654
14.022827546871707 72.1697
14.045294743423524 71.4285
14.06778000837062 71.0632
14.090265817715476 71.005
14.112734645763819 71.4549
14.13522154619454 72.8429
14.157691466286913 74.31
14.180179461423874 74.5147
14.202668005486178 72.5487
14.22513957064374 70.1962
14.247629214846473 68.5783
14.270101881097517 67.9505
14.29259262906496 67.5643
14.315083930490205 67.5745
14.337558255389705 67.5832
14.360050666019726 67.3441
14.382526101071944 66.6617
14.405019624534942 66.7341
14.427513705993134 66.5356
14.449990813291825 66.3652
14.47248601302899 66.3977
14.49496423954951 66.5263
14.517460561197822 66.4884
14.539939910570322 66.2958
14.562437357763558 66.4402
14.58493536931253 66.7431
14.607416409993311 66.9302
14.62991555254159 67.3504
14.652397725157423 67.2286
14.674898002342799 67.483
14.697398848433282 67.4832
14.719882725991326 68.2064
14.74238471217934 68.6804
14.764869730765593 70.8015
14.787372860692983 74.3464
14.809876564079925 81.2832
14.83236330125751 89.2909
14.854868153850365 98.2565
14.877356041159485 111.164
14.899862046604186 126.947
14.922351087688757 150.084
14.944858249632887 179.551
14.967365991421232 209.843
14.989856770231246 229.343
15.012365673994204 227.977
15.03485761569738 199.735
15.05736768508665 157.922
15.07987833888692 120.791
15.102372032001655 93.8077
15.124883856909658 77.1907
15.14737872204565 70.9462
15.169891721717274 68.5657
15.192405310371893 67.9748
15.214901940621196 67.0995
15.237416709527137 66.756
15.259914520936249 66.4976
15.282430473753607 65.8309
15.304947020131227 65.1612
15.327446610371178 65.0615
15.349964346154254 64.7015
15.372465126703139 64.524
15.394984055556009 64.3702
15.417486030076159 64.4159
15.44000615566487 63.9567
15.462526881230803 63.7056
15.485030653812652 63.9529
15.507552581617434 63.3447
15.530057557334603 63.42
15.55258069104857 63.3806
15.575104429329837 63.9812
15.597611216864632 63.6513
15.620136166564563 63.7059
15.6426441664095 64.1191
15.665170331202765 65.2181
15.687697105158826 68.5502
15.710206930593545 74.13
15.732734925158933 80.1248
15.755245972089478 87.0573
15.77777519094324 95.9573
15.800287463046663 106.81299999999999
15.822817909869592 124.315
15.84534897229804 144.347
15.867863089299354 169.81400000000002
15.890395385222186 191.157
15.912910736597423 201.79
15.935444269699861 194.986
15.957978423016485 168.701
15.980495633101265 134.57299999999998
16.003031029129367 104.089
16.02554948280019 80.9427
16.048086125229432 69.0114
16.070623392487107 64.4331
16.09314371869582 62.4146
16.11568223789321 60.8211
16.13820381691126 59.9774
16.160743591742527 59.0634
16.183283996022084 58.375
16.205807461423195 57.4568
16.228349126881973 57.0213
16.25087385432698 56.8909
16.27341678466365 56.1833
16.29594277784926 56.0259
16.31848697676433 55.8589
16.341031811604868 55.1614
16.36355971058487 55.3225
16.3861058195587 55.0646
16.40863499352978 54.5674
16.431182380342005 54.4782
16.453730407713202 53.9302
16.476261501364792 53.9073
16.498810812136167 53.3793
16.52134319004079 53.6097
16.54389378792203 53.4055
16.566445031001553 53.3202
16.588979342490088 53.1513
16.61153187824822 53.0396
16.634067483263312 52.925
16.656621315414416 52.9916
16.679175797408888 52.6455
16.701713349928728 52.802
16.72426913389191 52.9002
16.74680798922351 52.7164
16.76936507887444 52.6405
16.791905240734874 52.7515
16.814463639794468 52.7315
16.837022695210294 52.8737
16.859564824093756 52.8972
16.882125194503903 53.047
16.904668639217885 53.742
16.927230328348003 53.6861
16.949792678493612 54.0016
16.972338104193863 53.9654
16.994901778652235 53.8673
17.017448529496576 53.799
17.040013531998152 53.8255
17.06257920018044 54.1046
17.0851279459922 54.7449
17.107694947817667 55.9846
17.130245028099072 57.0509
17.15281336730298 58.7514
17.17536478578733 60.4776
17.19793446610687 62.448
17.220504818648422 65.2157
17.243058251703697 67.9912
17.265629950971032 72.5675
17.288184731571736 77.7566
17.310757781306908 82.3685
17.33333150794385 83.5905
17.355888317140174 83.0962
17.37846339986244 79.1428
17.401021565958885 72.2937
17.42359800851343 65.9003
17.44617513265564 61.6711
17.468735341390783 59.0968
17.491261035594565 57.8604
17.51396340099364 57.1548
17.536490463869136 57.1209
17.559018209820174 57.2354
17.58154663977963 57.4029
17.604251766089718 57.5549
17.626781572227713 57.8702
17.64931206518155 58.0128
17.671843245885103 58.3803
17.69455114821572 58.4736
17.717083712612634 58.761
17.739616967569667 59.4401
17.762150914021706 60.1818
17.78486160749854 60.1708
17.807396945166804 60.7915
17.829932977143503 61.2881
17.85246970436452 61.8865
17.875183204129467 63.897
17.897721330097664 66.6531
17.920260154126645 70.1138
17.942799677153296 73.7842
17.9655159983646 77.9696
17.988056927677544 82.6253
18.010598558807683 89.1938
18.033140892692916 98.3181
18.05586005052525 109.14299999999999
18.07840379824407 121.272
18.10094825154059 132.72299999999998
18.12366954819864 142.401
18.146215420998306 143.942
18.16876200220057 138.071
18.191309292745153 124.005
18.214033452627167 108.681
18.236582170236648 96.1137
18.259131600016456 88.316
18.281681742907335 86.2045
18.304408781233683 89.1803
18.32696035875955 94.4358
18.349512652227624 99.8289
18.372065662579683 105.366
18.394795594587553 107.014
18.41735004715306 104.611
18.43990521943684 98.3176
18.46246111238171 88.2918
18.485193953325208 78.3647
18.507751296070428 70.4049
18.530309362314178 65.7974
18.552868153000343 62.9442
18.57560391815056 61.2988
18.59816416623245 60.6581
18.620725141597372 60.1868
18.643286845190268 59.5947
18.666025549835414 59.0914
18.688588718427933 58.3334
18.711152618092243 58.1812
18.73389353884365 57.6983
18.75645890921984 57.6034
18.77902501351406 57.2078
18.801591852673102 57.1883
18.824335739722738 56.5698
18.846904057212626 56.4365
18.8694731124168 56.2309
18.89204290628315 56.0635
18.914789774966803 55.9336
18.937361054791623 55.571000000000005
18.959933076131318 55.5185
18.982505839934877 55.3901
19.00525570560582 55.3636
19.027829963004184 55.0899
19.05040496572238 55.3883
19.072980714710468 55.2522
19.095733592739563 55.0927
19.11831084296757 55.3001
19.140888842324735 56.0241
19.16346759176222 56.59
19.18622349753803 57.2248
19.208803755869358 58.3134
19.231384767143577 59.6441
19.253966532312948 60.8768
19.276725481241822 62.8992
19.29930876296784 65.7077
19.3218928014549 69.0915
19.34465404436217 71.9126
19.36723960516257 74.7096
19.389825925592426 75.7707
19.412413006605938 74.9523
19.43517731967805 72.0901
19.457765930683355 67.9705
19.48035530514408 63.2874
19.50294544401556 59.2146
19.525712842708348 56.101000000000006
19.54830451925909 54.2923
19.570896963095727 53.0603
19.593490175174704 52.5187
19.616260674962184 52.5911
19.638855432416964 52.172
19.661450960992624 52.4318
19.68404726164677 52.2242
19.706820878021247 51.8068
19.729418731756834 52.0318
19.752017360452857 51.8003
19.77461676506804 52.0718
19.797393513540218 52.0668
19.819994478951667 52.2561
19.84259622316767 52.818999999999996
19.8651987471481 53.4555
19.887978643247177 53.9415
19.91058273574792 54.4199
19.933187610901943 55.4632
19.955969879466828 56.4629
19.97857632894404 57.6395
20.00118356396599 59.0951
20.023791585494575 61.191
20.046577028914875 63.9545
20.069186632506966 66.5828
20.091797025500632 69.2219
20.114408208858933 70.6743
20.137196842715273 70.9454
20.159809615886765 69.2768
20.18242318232135 66.7173
20.20503754298326 64.2638
20.227829382875154 62.7662
20.250445341109344 61.9203
20.27306209647285 62.08
20.29567964993108 63.5947
20.31847471147704 64.4103
20.34109387027612 65.443
20.363713830075454 65.4906
20.386334591841646 63.9768
20.409132890679302 61.4209
20.431755265564437 58.3528
20.454378445325528 55.373999999999995
20.477002430930366 52.8568
20.499803982716553 51.1169
20.522429589228004 50.0691
20.54505600449589 49.4491
20.567683229489194 49.2641
20.590488049900088 49.2355
20.61311690359731 48.931999999999995
20.63574656993626 48.8302
20.658553853717297 48.42100000000001
20.681185154618298 48.5551
20.703817271080066 48.4407
20.72645020407368 48.1187
20.749260783967177 47.9481
20.771895359337133 47.9735
20.794530754161617 48.1112
20.817166969412938 48.1324
20.83998086114876 47.9204
20.86261872660049 47.6607
20.885257415405402 47.4641
20.90789692853701 47.5806
20.930714147864748 47.5546
20.953355319030678 47.3205
20.97599731745334 47.2814
20.99864014410749 47.4226
21.021460706796564 47.5053
21.044105199328826 47.7061
21.06675052302631 47.70399999999999
21.089396678865015 48.0134
21.112220600704806 48.3355
21.134868430275347 48.7084
21.15751709492456 49.0134
21.180166595629693 49.2222
21.202993892429635 49.6344
21.22564507473034 50.2617
21.24829709602816 50.3579
21.27112693608965 50.7644
21.293780644891275 50.6806
21.316435195634053 49.9295
21.339090589297417 49.2769
21.361923832041875 48.7575
21.384580921090404 48.0194
21.407238856007325 47.4273
21.429897637773326 47.4101
21.45273429906592 47.4366
21.475394784108598 47.2824
21.498056118951983 47.2529
21.520718304578022 47.5568
21.543558400304388 47.5774
21.566222297108816 47.641999999999996
21.58888704765135 47.5766
21.61155265291521 47.8839
21.63439619898156 48.5806
21.657063523335786 48.976000000000006
21.67973170537063 49.711999999999996
21.7024007460706 50.2954
21.72524775840385 51.04
21.747918526116475 52.1126
21.770590155457388 53.1876
21.79326264741238 54.536
21.816113141960237 56.3051
21.838787368860547 58.2797
21.861462461341976 60.5552
21.884315579735777 63.2047
21.90699241312273 64.5635
21.92967011506078 65.3704
21.95234868653799 65.5808
21.9752053151131 64.5151
21.997885635446785 62.2903
22.020566828293532 60.0238
22.04324889464272 58.0581
22.066109049404666 56.5061
22.088792872571794 55.8008
22.111477572219204 55.9482
22.1341631493376 56.2308
22.157026846313123 56.0871
22.179714188221507 55.3392
22.202402410582668 54.3919
22.22509151438863 52.5509
22.24795876962584 51.1896
22.270649646204486 50.0866
22.293341407213727 49.1144
22.316034053646906 48.3983
22.338904883215342 47.9172
22.36159931041458 47.8669
22.38429462602756 47.8561
22.40699083104897 47.5542
22.429865251039757 47.5683
22.452563244831367 47.4816
22.47526213102522 47.591
22.49813925616515 47.3903
22.520839937143307 47.5098
22.543541513520587 47.6249
22.56624398629403 47.4542
22.589124730075895 47.4778
22.611829005656723 47.6534
22.63453418063466 47.5744
22.657240256008077 47.7486
22.680124634582935 48.0484
22.70283252079775 48.4932
22.725541310413075 48.9772
22.74825100442868 49.1145
22.771139033969575 49.8153
22.79385054687155 50.0254
22.81656296718292 50.4611
22.83927629590484 51.2729
22.862167992606945 52.3224
22.88488314827121 53.4863
22.907599215359284 54.5333
22.93031619487366 55.901
22.953211574954405 56.8593
22.975930389478226 57.6816
22.998650119445763 57.9514
23.02137076586092 57.248999999999995
23.044269845560063 56.1795
23.06699233506288 54.7024
23.089715744034912 52.6952
23.112617610931565 51.1065
23.135342869061212 49.7412
23.158069049684816 48.5802
23.1807961538087 48.0817
23.20370174880544 47.8095
23.226430710184808 47.7791
23.249160598093425 47.8176
23.271891413539002 47.8201
23.294800752937697 47.8801
23.31753343374794 48.3033
23.340267045128353 48.3766
23.36300158808808 49.1058
23.38591468821339 49.5461
23.408651104658304 49.9522
23.431388455719986 50.5522
23.454126742409 51.2747
23.4770436196085 52.0864
23.499783787914662 53.4115
23.522524894889884 54.6409
23.54526694154616 55.8061
23.56818761219047 57.1919
23.59093154860734 57.9146
23.613676427751283 58.5072
23.636422250635754 58.0026
23.659346731118656 56.5274
23.68209445191868 54.6521
23.704843119509587 52.2922
23.72759273490623 50.1353
23.750521041644767 48.2795
23.77327256312355 46.9486
23.796025035462787 45.9971
23.818956224555475 45.3781
23.841710609113413 45.2754
23.86446594758979 44.972
23.887222241002014 44.6565
23.910157285144578 44.3828
23.932915498962537 44.217
23.955674670778713 44.2202
23.978434801611975 44.0276
24.001373717286125 43.8503
24.024135776723917 43.7568
24.046898798245582 43.7275
24.06966278287146 43.5907
24.092605586582614 43.4846
24.115371508023642 43.1163
24.1381383956401 43.0338
24.16090625045381 42.9749
24.183852958731244 42.8661
24.206622758582608 42.8441
24.229393528706886 42.6636
24.252165270127392 42.7362
24.27511589952438 42.6806
24.297889594216997 42.528999999999996
24.32066426328598 42.3958
24.34343990775613 42.3621
24.36639447485003 42.3133
24.38917208083877 42.243
24.41195066531332 42.2297
24.43490819850244 42.3087
24.457688750692377 41.9427
24.48047028445616 41.946999999999996
24.503252800821233 42.1428
24.526214300784112 42.2805
24.548998793132213 42.1498
24.57178427117417 42.0634
24.59457073593893 42.3764
24.617536219319863 42.232
24.64032466834748 42.1675
24.663114107195035 42.0337
24.685904536893013 41.6891
24.708874020360852 41.688
24.731666442613744 41.5698
24.754459858818787 41.5853
24.777254270007962 41.431000000000004
24.80022777025625 41.3971
24.82302418230472 41.2957
24.845821592443674 41.3595
24.86862000170663 41.4828
24.891597535453727 41.3442
24.914397953892728 41.6155
24.93719937456671 41.4962
24.96000179851076 41.6162
24.98298338249997 41.7809
25.00578782394922 41.9838
25.028593271784167 42.0611
25.05157790644186 42.4437
25.07438537804115 42.5902
25.097193859145293 43.1041
25.120003350792075 43.4039
25.142992065061257 43.7786
25.165803588823465 43.9283
25.18861612625217 44.2737
25.211429678386736 44.3176
25.234422489079968 44.4742
25.257238081693636 44.3906
25.280054692141732 44.6863
25.3028723214652 44.6006
25.325869245420463 44.7045
25.348688923599397 44.7792
25.371509623787006 44.65
25.394331347025812 44.4223
25.41733240110666 43.9607
25.440156181590016 43.4196
25.46298098826268 42.756
25.48580682216873 42.0451
25.50881202326435 41.3936
25.53163992281684 40.9218
25.55446885274561 40.6157
25.577298814096377 40.3092
25.600308179121807 40.2297
25.623140214533745 40.3204
25.64597328451537 40.1456
25.66898578564376 39.7504
25.691820936010206 39.7029
25.714657124097695 39.7648
25.737494350954734 39.7421
25.760511045684957 39.7131
25.783350361364224 39.8964
25.806190718969255 39.827
25.82903211955018 39.92
25.852053024868923 39.9497
25.874896522722523 39.9874
25.897741066713106 39.9874
25.920586657892454 40.0357
25.943611790812668 40.1021
25.966459487728237 40.2027
25.989308234998564 40.444
26.01215803367705 40.794000000000004
26.03518741123814 40.9475
26.05803932412957 41.0436
26.080892291600094 41.0241
26.10374631470478 41.2111
26.12677995397268 41.3556
26.14963609978026 41.3954
26.172493304397875 40.942
26.19535156888223 40.8336
26.218389486949604 40.3458
26.241249882640123 40.0478
26.26411134137826 39.8173
26.28715248187403 39.5273
26.31001607820869 39.4825
26.3328807407756 39.434
26.35574647063438 39.6103
26.37879191991473 39.4874
26.401659795896734 39.5483
26.424528742360263 39.6662
26.447398760366614 39.8431
26.470448535598294 39.9941
26.49332070826805 40.253
26.516193955675355 40.5281
26.53906827888316 40.626999999999995
26.562122397260108 40.9409
26.584998883685063 41.3495
26.607876449110325 41.541000000000004
26.63075509460056 41.8157
26.65381357334404 42.0823
26.67669439061878 42.172
26.699576291163382 41.9241
26.722459276044212 41.9588
26.745522132402975 41.6424
26.768407297649354 41.2546
26.791293550442003 40.9303
26.814180891848974 40.5885
26.837248143099337 40.2963
26.860137673466657 40.2084
26.88302829566349 40.064
26.90592001075963 39.8291
26.92899167420566 39.544000000000004
26.951885586870763 39.0916
26.974780595655517 38.9828
26.99785558178161 38.8045
27.020752794605112 38.5917
27.043651106772522 38.5664
27.06655051935668 38.3489
27.089629948036183 38.1776
27.112531573292053 38.1425
27.135434302194138 38.1454
27.158338135817015 37.952
27.181422024430987 37.891999999999996
27.204328079372566 37.9333
27.22723524226965 38.076
27.250143514198573 38.0711
27.273231880156334 37.9344
27.296142382065014 37.8215
27.319053996245536 37.7959
27.341966723775965 37.8071
27.365059584515222 37.9431
27.38797455070062 37.9767
27.410890633481237 37.9034
27.433807833936918 37.9025
27.456905206923906 37.9353
27.47982465472398 38.1105
27.502745223449743 38.2033
27.525666914182825 38.3237
27.548768816912457 38.1415
27.571692763693633 38.1298
27.59461783573812 37.8967
27.617723149491244 37.7348
27.640650484125285 37.6387
27.66357894728264 37.5705
27.686508540048052 37.5436
27.709618414237887 37.624
27.732550278321757 37.4575
27.755483275279115 37.4404
27.778417406196485 37.4887
27.801531858397514 37.3836
27.824468269376716 37.3213
27.847405817586786 37.4071
27.870344504116094 37.6046
27.893463551932008 37.6174
27.916404527281053 37.6834
27.93934664422563 37.9113
27.962289903855886 38.0461
27.98541356491974 38.4033
28.00835912214229 38.4148
28.03130582533231 38.749
28.054253675581805 38.9227
28.077381967556104 38.9286
28.100332124185126 38.8327
28.123283431160893 38.8707
28.146235889577238 38.7749
28.169368830154156 38.571
28.192323603752033 38.3744
28.215279532083304 38.1444
28.238415973016764 37.839
28.261374223145094 37.6256
28.284333631303806 37.3613
28.307294198589954 37.1279
28.330435319167677 36.9328
28.353398217078915 36.6463
28.376362277420153 36.3851
28.39932750129032 36.1177
28.422473319286713 35.948
28.44544088262495 35.9424
28.468409612800283 35.7153
28.491379510913497 35.5503
28.51453004413313 35.4356
28.53750229057244 35.3365
28.56047570826344 35.3514
28.583450298308804 35.5246
28.606605564586562 35.3429
28.629582511831156 35.2063
28.65256063474956 35.2191
28.675539934446338 35.0885
28.698699951647605 35.1969
28.72168161743193 34.9403
28.74466446331978 34.9612
28.767648490417624 34.9183
28.790813276438353 34.802
28.813799678527303 34.8159
28.836787265157085 34.8684
28.859955641890075 34.9361
28.882945610203045 34.8377
28.905936766392035 34.8392
28.928929111566863 34.9047
28.952102288520145 34.7201
28.975097024308607 34.7466
28.998092952423807 34.5413
29.021090073977508 34.6282
29.04426806913204 34.4759
29.067267590245258 34.2329
29.090268308143695 34.0832
29.11327022394099 34.0216
29.13645305530891 34.0162
29.159457379627167 33.7765
29.18246290519685 33.8125
29.20546963313352 33.675
29.22865731875826 33.7915
29.25166646419296 33.8555
29.27467681535305 33.72
29.29768837335608 33.7474
29.320880931312562 33.8486
29.34389491580634 33.8108
29.366910110507334 33.7302
29.38992651653503 33.7902
29.41312396492981 33.9002
29.436142806456754 33.6977
29.45916286268059 33.6575
29.48236399319994 33.6613
29.50538649169417 33.4386
29.528410208259935 33.4029
29.55143514402014 33.0748
29.574641196749695 32.8959
29.597668583816574 32.8072
29.6206971934585 32.5908
29.64372702680042 32.6698
29.666938019934474 32.5768
29.689970313635285 32.5305
29.713003834422636 32.4372
29.73603858342347 32.3248
29.759254535188578 32.1883
29.78229175361658 32.3143
29.80533020365064 32.413000000000004
29.82836988641968 32.4721
29.85159081507472 32.354
29.874632976355343 32.1982
29.89767637376955 32.229
29.920721008448314 32.1162
29.9439469322847 32.0395
29.96699405457564 31.9521
29.9900424175358 31.9743
30.013092022298157 32.0202
30.03632295963995 32.001999999999995
30.059375061131373 32.0128
30.08242840783577 32.0286
30.105483000888153 32.0359
30.128718970092244 31.9153
30.151776069006917 31.9541
30.17483441768648 32.0067
30.198074175317235 31.9888
30.221135036724256 32.0534
30.24419715131772 31.9434
30.267260520236203 31.7945
30.290505341942243 31.8809
30.313571232750228 31.9956
30.336638381310948 31.9975
30.35970678876503 31.8065
30.38295669299435 31.705
30.40602763151657 31.7189
30.429099832366074 31.6552
30.452173296685572 31.6636
30.47542830191959 31.6076
30.498504306502497 31.5282
30.521581577995562 31.6353
30.544660117543582 31.6957
30.56792024229725 31.7396
30.59100133132069 31.6911
30.614083691845494 31.7942
30.637167325018545 31.7098
30.660432587840603 31.9152
30.683518779717886 31.9123
30.70660624769615 31.9184
30.729694992924372 31.8866
30.75296541239743 31.9626
30.77605672557558 31.9919
30.799149319462742 31.8192
30.8224236211637 31.6605
30.845518789950724 31.6614
30.868615242910597 31.5818
30.891712981195973 31.3942
30.91499247215866 31.2356
30.938092794619365 31.179000000000002
30.96119440587579 31.2217
30.984297307082752 31.0678
31.00758200598383 30.9479
31.030687500658694 30.8573
31.053794288760695 30.7886
31.076902371446767 30.6345
31.100192296997445 30.678
31.12330298246119 30.6901
31.14641496599209 30.6198
31.169528248749216 30.5811
31.19282341969534 30.569000000000003
31.215939314557186 30.592
31.239056512134788 30.5796
31.262175013589378 30.4914
31.28547544871168 30.5043
31.30859657161541 30.4123
31.331719001892175 30.4756
31.35484274070538 30.6119
31.378148458819545 30.6049
31.401274828443725 30.5925
31.424402510106933 30.5919
31.447712205419993 30.7268
31.470842524931633 30.4985
31.493974159989783 30.5344
31.51710711176168 30.4622
31.54042212308802 30.5338
31.563557722100917 30.4325
31.586694641341655 30.2846
31.609832881979628 30.2692
31.63315322823208 30.1946
31.656294125521327 30.0964
31.679436347728515 30.0255
31.70257989602529 29.8273
31.725905596152327 29.8915
31.74905181052835 29.7718
31.772199354521323 29.8272
31.79534822930507 29.8943
31.818679302290967 29.7848
31.84183085259981 29.7216
31.864983737233473 29.8793
31.88813795736804 29.9071
31.911474422233013 29.6946
31.934631327356435 29.7699
31.9577895715215 29.791
31.980949155906522 29.741
32.004291031706956 29.7348
32.027453310562606 29.5893
32.05061693318573 29.601
32.07396288236386 29.495
32.09712920658542 29.4241
32.12029687812702 29.2933
32.14346589817093 29.2354
32.166817291729984 29.2029
32.18998902288583 29.1825
32.21316210610336 29.0479
32.23633654256711 28.9571
32.259693399663725 28.8731
32.282870556771144 28.8364
32.30604907069099 28.9039
32.329228942610065 28.7485
32.35259128243769 28.6338
32.375773884550505 28.474
32.398957848235646 28.4933
32.422143174682176 28.4115
32.445511016471215 28.41
32.468699082679954 28.3865
32.49188851523011 28.340999999999998
32.51507931531304 28.1903
32.538452678331 28.2842
32.56164622776311 28.2362
32.58484114831493 28.2061
32.60803744118015 28.1101
32.631416344731896 28.0936
32.654615396551876 28.0915
32.67781582427913 28.0446
32.701198898634416 27.9038
32.72440209253756 27.8821
32.747606665947124 27.9236
32.77081262006088 27.7988
32.79420126883317 27.819000000000003
32.81740999876112 27.7931
32.840620112999424 27.7799
32.86383161274818 27.7012
32.88722585534586 27.7403
32.91044014056596 27.7758
32.933655814909734 27.6387
32.95687287957963 27.6274
32.98027273544904 27.5733
33.00349259526636 27.4828
33.026713849030116 27.5584
33.04993649794511 27.6189
33.073341986570746 27.605999999999998
33.09656744032826 27.6124
33.11979429286444 27.5249
33.14302254538647 27.4634
33.166433686291185 27.4443
33.18966475336992 27.4475
33.212897224069096 27.3755
33.23613109959831 27.3271
33.259547912343415 27.2056
33.2827846121627 27.2665
33.306022720453775 27.2472
33.32926223842861 27.1333
33.352684742614166 27.1517
33.37592709463173 27.1013
33.399170859982064 27.0389
33.422597648419426 26.9222
33.44584425514446 26.7957
33.46909227885668 26.7767
33.4923417207723 26.633000000000003
33.51577423505344 26.6843
33.539026528130385 26.5483
33.56228024307245 26.6154
33.585535381098246 26.4627
33.60897364093058 26.4109
33.63223163992385 26.4455
33.6554910656699 26.3273
33.678751919389796 26.3878
33.702195944520106 26.3549
33.72545966903325 26.2872
33.74872482519663 26.1891
33.771991414233746 26.2508
33.79544122444841 26.1708
33.81871069412428 26.065
33.84198160035767 26.0126
33.86525394437455 26.0668
33.88870955949969 26.0711
33.911984794020626 25.9679
33.93526147001624 25.9911
33.958539588715006 25.8229
33.98200102861669 25.7685
34.0052820477047 25.7418
34.02856451319451 25.7838
34.05203033759056 25.5891
34.07531571090147 25.7077
34.09860253431845 25.665
34.121890809074316 25.5594
34.145362493118924 25.598000000000003
34.16865368561615 25.4938
34.191946333164054 25.4221
34.21524043699793 25.4371
34.23871800066799 25.453000000000003
34.26201503218366 25.3773
34.28531352370466 25.3318
34.30861347646881 25.2708
34.33209693978188 25.2578
34.3553998301885 25.2203
34.378704185565205 25.1288
34.402010007152356 25.0639
34.42549939016683 25.0576
34.44880815937748 24.9398
34.472118398533134 24.9406
34.49543010887669 24.9104
34.51892543169198 24.8444
34.54224009966052 24.8357
34.56555624255917 24.8587
34.58887386163339 24.7126
34.61237514439016 24.6298
34.6356957311114 24.6015
34.65901779775809 24.6015
34.68252356662995 24.5804
34.705848608458616 24.654
34.72917513396849 24.5438
34.75250314440949 24.4879
34.77601490857862 24.4898
34.799345904259795 24.4069
34.82267838863559 24.316999999999997
34.846012362958525 24.3004
34.869530142679984 24.3358
34.89286711232212 24.2975
34.91620557568269 24.281
34.93954553401677 24.2787
34.9630693495876 24.1841
34.986412313340814 24.1709
35.00975677584668 24.1831
35.033102738362956 24.1236
35.05663261012228 24.0336
35.0799815881786 24.0474
35.10333207003229 23.9984
35.12668405694369 24.0319
35.150220005273056 24.0043
35.17357501786656 23.9151
35.19693153931268 23.8994
35.220289570874385 23.8343
35.24383161619786 23.8417
35.267192683604904 23.865
35.290555264930376 23.8553
35.314101899412165 23.7921
35.33746752422433 23.7889
35.36083466676374 23.8066
35.38420332829803 23.7611
35.407756095629054 23.7858
35.43112781085063 23.6347
35.45450104888391 23.6362
35.477875810999194 23.6856
35.50143473172161 23.6114
35.52481255774625 23.6237
35.54819191167777 23.5914
35.57157279478914 23.48
35.595137889488406 23.4779
35.61852184675279 23.4282
35.641907337029984 23.3676
35.665294361595684 23.434
35.68886565090076 23.3433
35.7122557598848 23.2616
35.73564740699838 23.3183
35.759040593519934 23.2672
35.78261809810353 23.204
35.80601437933051 23.0986
35.829412203814705 23.0907
35.85281157283719 22.9942
35.876395313415884 23.038
35.8997977874528 22.8886
35.92320180988546 22.898000000000003
35.946790244133936 22.8675
35.97019737933222 22.8686
35.993606066789866 22.8422
36.01701630779276 22.7724
36.04061101440684 22.7814
36.06402437852291 22.6999
36.08743930005611 22.7069
36.1108557802951 22.5927
36.13445678011326 22.6107
36.15787639383515 22.6365
36.18129757014299 22.5753
36.20472031032821 22.5451
36.22832762423364 22.5175
36.25175350829375 22.4607
36.275180960119776 22.3612
36.298609981005924 22.4444
36.32222362992669 22.3579
36.34565580510207 22.3747
36.36908955323448 22.2881
36.39252487562093 22.186
36.416144880530226 22.2412
36.43958336764275 22.2422
36.463023432914625 22.2451
36.486465077645676 22.1323
36.51009145956204 22.1459
36.53353627947859 22.0853
36.55698268276811 22.0263
36.58043067073321 22.0329
36.60406345072071 21.9845
36.62751462435344 21.9193
36.65096738658405 21.9501
36.67460498210655 21.8806
36.69806093788647 21.8818
36.72151848619297 21.7167
36.744977628333636 21.691999999999997
36.76862165890998 21.6604
36.79208400512205 21.7793
36.81554794910557 21.7013
36.83901349217101 21.4946
36.862663978991606 21.5466
36.88613273667352 21.5083
36.90960309738324 21.4826
36.933075062434064 21.4421
36.95673202673572 21.3979
36.98020721697122 21.4122
37.003684015502365 21.3698
37.027162423645365 21.3554
37.050825886711465 21.2916
37.07430753063053 21.2215
37.09779078812467 21.2568
37.121275660513014 21.2483
37.144945643673694 21.1674
37.16843376245278 21.1817
37.19192350009803 21.1678
37.215414857931435 21.0683
37.239091382563885 21.0035
37.262585997426164 21.0166
37.28608223645736 20.9788
37.309763684451696 20.9469
37.33326318851098 20.9529
37.356764320726555 20.8596
37.380267082425526 20.9041
37.40395510942588 20.866999999999997
37.42746114683234 20.7707
37.45096881771841 20.7378
37.474478123414166 20.6972
37.49817275092816 20.6489
37.52168534303452 20.6661
37.54519957395567 20.6085
37.568715445024665 20.5655
37.592416694607714 20.4689
37.61593586281424 20.5349
37.63945667518264 20.6187
37.66297913304891 20.4715
37.68668702630454 20.4337
37.710212792059274 20.304000000000002
37.733740207334854 20.3126
37.757269273470364 20.3048
37.780983832050374 20.215999999999998
37.80451621684926 20.2958
37.82805025654007 20.1902
37.851585952464795 20.230999999999998
37.8753071980695 20.1261
37.89884622345676 20.0691
37.92238690911902 20.0768
37.94611318753442 20.0047
37.969657210779765 19.9412
37.99320289834801 20.0036
38.016750251586465 19.9568
38.04048325513017 19.9541
38.06403395679343 19.9436
38.087586328183946 19.8218
38.11114037065203 19.859
38.13488012115898 19.7924
38.1584375229181 19.6857
38.181996599821 19.7217
38.205557353221124 19.7101
38.229303872575656 19.6343
38.2528679961576 19.636
38.27643380031219 19.6456
38.30000128639589 19.5888
38.32375459653193 19.5717
38.34732546371299 19.6072
38.37089801690786 19.43
38.39447225747609 19.476
38.418232380377425 19.4536
38.441810012983396 19.4328
38.46538933705673 19.3787
38.488970353960084 19.3927
38.51273731166058 19.3915
38.536321731567014 19.2581
38.55990784840681 19.2665
38.58367995004091 19.2421
38.60726947812959 19.1374
38.63086070726198 19.1586
38.654453638806274 19.1483
38.678232613930824 19.1077
38.70182896773327 19.019000000000002
38.72542702806741 18.9777
38.7490267963045 18.9895
38.77281266709232 18.9436
38.79641586862214 18.923
38.8200207821842 18.8751
38.843627409152944 18.9274
38.86742019782782 18.8633
38.891030269149255 18.8022
38.914642058016156 18.8056
38.938255565806124 18.7034
38.96205529464307 18.730999999999998
38.98567225787121 18.6486
39.00929094417078 18.637999999999998
39.03291135492255 18.6312
39.05671804624804 18.6112
39.080341923549106 18.5548
39.103967529460334 18.5428
39.127594865365744 18.475
39.15140854155791 18.4909
39.17503935514948 18.4899
39.19867190290282 18.4479
39.22249083587951 18.4179
39.24612686969409 18.4303
39.269764641845306 18.4133
39.293404153722804 18.3154
39.317230110864074 18.259
39.34087311998506 18.2672
39.36451787301696 18.2763
39.388164371352595 18.1476
39.41199737518003 18.1326
39.43564738196752 18.1666
39.45929913825317 18.1298
39.48295264543308 18.1251
39.506792718520884 18.0256
39.530449745387216 18.0192
39.55410852735203 17.9964
39.57776906581474 18.0343
39.60161623079 17.9702
39.625280300200025 17.8996
39.64894613032202 17.8307
39.67261372255866 17.8626
39.6964680021016 17.8943
39.72013913657293 17.8599
39.74381203738292 17.7455
39.76748670593756 17.8089
39.79134812278169 17.7233
39.81502634488497 17.6829
39.83870633896685 17.6203
39.862388106436654 17.6355
39.88625668336918 17.6454
39.90994201572829 17.5751
39.933629125719285 17.5786
39.957503091207826 17.5143
39.9811937746168 17.5054
40.00488623990914 17.4934
40.02858048850006 17.4132
40.05246165409549 17.3519
40.076159487492085 17.3081
40.099859108448875 17.3348
40.123560518384345 17.2557
40.1474489070226 17.2772
40.171153913178564 17.2834
40.194860712584955 17.2207
40.2185693066637 17.2398
40.242464941335314 17.1674
40.26617714307655 17.1624
40.289891143772046 17.1248
40.3136069448471 17.0888
40.33750984859743 17.058
40.3612292688043 17.0434
40.3849504936829 16.9335
40.40867352466194 16.9922
40.43258372059144 16.9463
40.45631038219906 16.9359
40.48003885420956 16.8959
40.503769138055105 16.8551
40.52768664931955 16.9103
40.55142057531802 16.8843
40.57515631746428 16.8218
40.599079334038514 16.8598
40.62281872700477 16.7343
40.64655994043941 16.7119
40.67030297578061 16.7318
40.69423334835778 16.7326
40.71798004609188 16.6343
40.74172857006355 16.5753
40.76547892171441 16.5346
40.7894166736039 16.5562
40.813170699248566 16.5532
40.83692655691388 16.4341
40.86068424804498 16.5619
40.884629402612525 16.5246
40.908390779366385 16.4883
40.932153993938 16.4576
40.95591904777605 16.3887
40.979871628443995 16.3318
41.003640379561936 16.371
41.02741097430883 16.3518
41.05118341413683 16.2917
41.075143444384416 16.2488
41.098919593177826 16.2763
41.1226975914255 16.2725
41.14647744058318 16.2305
41.170444943946755 16.1377
41.19422851378379 16.128
41.218013938914645 16.0998
41.24198706625173 16.0621
41.26577622087193 16.0359
41.289567235177785 16.0562
41.31336011063129 16.0022
41.337340752422875 15.9193
41.361137369129835 15.9545
41.38493585138705 15.9919
41.40873620066004 15.8857
41.43272438060107 15.8297
41.45652848292052 15.7767
41.48033445666918 15.7954
41.50414230331616 15.8179
41.528138045159764 15.7687
41.551949656675205 15.7006
41.575763145513235 15.7057
41.59957851314666 15.6588
41.62358184070442 15.5867
41.64740098505737 15.6038
41.6712220126409 15.5661
41.69504492493139 15.6292
41.71905586207357 15.5146
41.74288256296395 15.4845
41.766711153007456 15.4899
41.79054163368412 15.4506
41.814560204340054 15.4612
41.838394485526365 15.4349
41.86223066180303 15.4302
41.88625497706819 15.3999
41.910094962812 15.3562
41.93393684811168 15.3115
41.95778063445365 15.2639
41.981812625263366 15.2778
42.00566023303407 15.2713
42.029509746323676 15.2329
42.05336116662236 15.231
42.077400857069705 15.1458
42.10125611078846 15.1346
42.12511327600405 15.1207
42.14897235421036 15.1013
42.173019768448455 15.0979
42.19688269209613 15.0071
42.22074753323349 14.9853
42.24461429335818 14.95
42.268669455600495 14.9531
42.292540073217886 14.9099
42.31641261433284 14.9015
42.34028708044675 14.8692
42.36435001496739 14.8778
42.38822835065557 14.9099
42.41210861586426 14.7831
42.4359908120986 14.8094
42.46006154323262 14.7471
42.48394762115317 14.73
42.507835634632315 14.717
42.531912233047436 14.7177
42.55580413732265 14.6785
42.579697981698 14.6289
42.60359376768525 14.5493
42.62767820545945 14.5162
42.65157789440821 14.5534
42.67547952952185 14.5774
42.699383112316 14.5267
42.72347541395347 14.4273
42.74738291190531 14.4046
42.771292362102166 14.4652
42.795203766063516 14.3942
42.819303956130405 14.3606
42.843219287476536 14.3344
42.86713657716324 14.2832
42.89105582671383 14.2653
42.91516392983864 14.3137
42.939087119032166 14.2882
42.963012272677304 14.2645
42.98693939230129 14.2324
43.01105543317513 14.1915
43.034986504731386 14.1844
43.05891954686589 14.1606
43.08285456110972 14.1752
43.10697856448665 14.065
43.130917542983475 14.0439
43.15485849820081 14.0144
43.17880143167367 13.966
43.20293342237094 13.955
43.226880332449 13.9742
43.25082922540554 13.9051
43.27496722682525 13.9066
43.29892010567796 13.9197
43.32287497204102 13.9141
43.34683182745632 13.8651
43.370977859791836 13.8048
43.39493871351105 13.7808
43.41890156092628 13.8167
43.44286640358341 13.7555
43.46702049182749 13.7428
43.49098934522816 13.7403
43.51496019852649 13.6783
43.5389330532723 13.7011
43.56309522248204 13.6437
43.58707210044314 13.62
43.61105098451946 13.556
43.63503187626491 13.5579
43.659202151562134 13.5754
43.68318707902681 13.4965
43.70717401884041 13.5048
43.731162972560874 13.4535
43.75534137913236 13.445
43.779334381108384 13.4264
43.803329401683186 13.3702
43.82732644241872 13.3801
43.8515130055166 13.4046
43.87551410707659 13.3566
43.89951723350145 13.2425
43.923709934595614 13.2601
43.94771713129917 13.3038
43.97172635758096 13.2407
43.99573761501002 13.2051
44.0199385169922 13.1831
44.04395385732619 13.1841
44.067971233533086 13.187999999999999
44.09199064718605 13.138
44.11619977548961 13.0703
44.14022328470671 13.0403
44.16424883610785 13.0592
44.18827643127035 13.0427
44.21249381139513 13.0098
44.236525514814076 12.9501
44.26055926674478 12.932
44.28459506876863 12.944
44.3088207262813 12.9127
44.33286064928722 12.9334
44.35690262714919 12.8894
44.38094666145278 12.8796
44.4051806219871 12.844000000000001
44.42922879003185 12.8232
44.45327901929361 12.7797
44.477331311362136 12.7869
44.501573600619416 12.708
44.525630039221795 12.7335
44.54968854541895 12.6905
44.573937102200176 12.7231
44.5979997645541 12.681
44.622064499300315 12.6123
44.64613130803592 12.5951
44.67038823869318 12.6312
44.69445921643748 12.5905
44.718532272981385 12.5023
44.742607409926194 12.5611
44.76687274034801 12.5499
44.79095205918753 12.4105
44.81503346325094 12.4152
44.839116954143876 12.4216
44.86339071028742 12.4482
44.88747839599524 12.3848
44.91156817336837 12.3894
44.93566004401666 12.3952
44.959942251908146 12.3028
44.984038330325966 12.3057
45.00813650686762 12.3032
45.03223678314731 12.2115
45.05652746888232 12.2036
45.08063196592069 12.1993
45.104738567558705 12.1919
45.128847275414856 12.2187
45.15314646515866 12.1024
45.17725940679741 12.144
45.20137445952892 12.0622
45.22568004865265 12.0418
45.24979934496396 12.0437
45.27392075725247 12.0213
45.29804428714431 12.008
45.322358426247604 12.0302
45.346486212804315 11.9438
45.370616121861914 11.9139
45.39474815505086 11.9331
45.41907087049246 11.8657
45.4432071734666 11.8269
45.46734560548283 11.8689
45.49148616817604 11.8542
45.51581748638564 11.7975
45.5399623320197 11.795
45.56410931325473 11.7643
45.58825843173002 11.7684
45.61259837920865 11.7075
45.636751793816 11.7661
45.66090735060093 11.7067
45.68506505120716 11.753
45.7094136545275 11.6756
45.73357566449271 11.5635
45.75773982322992 11.5818
45.78190613238733 11.5886
45.806263418194064 11.5334
45.83043404997326 11.5451
45.85460683713677 11.5107
45.87897065658495 11.5597
45.90314777634752 11.5129
45.92732705646868 11.4528
45.9515084986045 11.4479
45.97588104735473 11.3988
46.00006683541565 11.3817
46.02425479047904 11.4295
46.04844491420549 11.3986
46.0728262191024 11.3308
46.09702070211635 11.3206
46.12121735879483 11.2725
46.14541619080294 11.2715
46.169806278764455 11.2719
46.194009483459034 11.2681
46.21821486849841 11.2348
46.24242243555223 11.1522
46.266821333570014 11.1889
46.29103328674601 11.1901
46.31524742696538 11.1581
46.33946375590237 11.1065
46.36387149104216 11.1185
46.38809221957392 11.1153
46.41231514186606 11.095
46.436540259597464 11.056
46.460956858999374 11.0423
46.48518638983522 11.0223
46.509418121166966 11.0147
46.533652054678114 10.9711
46.55807754555709 10.9535
46.58231590571962 10.9742
46.60655647313217 10.9456
46.630988654873654 10.9034
46.655233659129024 10.8724
46.67948087571551 10.8369
46.70373030632484 10.798
46.72817142736393 10.8315
46.752425308428684 10.7814
46.77668140861147 10.7422
46.80093972960865 10.707
46.82538981736788 10.7471
46.849652602470904 10.7026
46.87391761349769 10.7026
46.8981848521493 10.6653
46.9226439341274 10.6468
46.946915650573224 10.6275
46.97118959976749 10.6451
46.99546578341598 10.5722
47.019933887188216 10.5617
47.04421456235744 10.5777
47.06849747711879 10.5605
47.09278263318286 10.5041
47.11725978640143 10.4484
47.14154944775105 10.475
47.165841355555656 10.4468
47.1901355115306 10.4382
47.214621741924994 10.45
47.23892041698887 10.4067
47.26322134538975 10.3363
47.28771440635075 10.3199
47.31201986422527 10.3346
47.33632758061436 10.3184
47.360637557241866 10.2719
47.38513974410611 10.2851
47.40945426407847 10.2691
47.43377104948137 10.2571
47.45809010204344 10.2168
47.48260144275502 10.2412
47.506925052572285 10.2063
47.53125093475548 10.1115
47.55557909103813 10.1413
47.58009961361992 10.1096
47.60443234110732 10.1322
47.62876734791564 10.107000000000001
47.65310463578333 10.0952
47.6776343683373 10.0548
47.7019762413987 10.0241
47.72632040075572 10.0195
47.75066684815169 9.977889999999999
47.77520581885936 9.9527
47.799556865477655 9.95125
47.823910205386 9.90964
47.84826584033272 9.91315
47.87281407745551 9.90047
47.89717432569297 9.8907
47.92153687423484 9.86801
47.94609208429692 9.83765
47.97045925671401 9.82112
47.99482873471275 9.813189999999999
48.01920052005013 9.82736
48.04376504619224 9.77299
48.068141469543484 9.79798
48.09252020552573 9.70422
48.11690125590099 9.671610000000001
48.1414751266064 9.67463
48.16586082917454 9.66721
48.19024885144316 9.63717
48.2146391951793 9.64729
48.239222439012764 9.68193
48.26361744916137 9.62557
48.28801478610016 9.64049
48.31241445160131 9.5771
48.337007097209366 9.58918
48.36141144338331 9.56329
48.38581812345755 9.55456
48.41022713920929 9.537989999999999
48.434829215320704 9.514330000000001
48.45924292604658 9.49397
48.48365897780325 9.52275
48.50807737237308 9.46508
48.532688907799276 9.440560000000001
48.55711201168574 9.41751
48.581537463754074 9.37553
48.60615611725119 9.377
48.63058628942721 9.349730000000001
48.65501881516546 9.35023
48.6794536962573 9.29387
48.70408185970339 9.32818
48.72852147531801 9.30649
48.75296345168211 9.234580000000001
48.77740779059232 9.25111
48.80204549302823 9.23531
48.82649458091802 9.24452
48.85094603676547 9.21222
48.87539986237231 9.250760000000001
48.90004713292306 9.18551
48.92450572200832 9.18406
48.94896668628025 9.13786
48.97343002754588 9.13555
48.99808689542115 9.119010000000001
49.02255501470614 9.13299
49.04702551642794 9.090760000000001
49.0714984023988 9.05076
49.096164896893235 9.03818
49.120642575466796 9.017430000000001
49.145122643748394 8.9985
49.16960510355558 8.972669999999999
49.19428125404938 8.97948
49.2187685210852 8.966569999999999
49.243258185121555 8.94024
49.26794160167084 8.92346
49.2924360839405 8.88032
49.31693296869764 8.87236
49.34143225776915 8.86476
49.36612538195438 8.834389999999999
49.39062950396021 8.829419999999999
49.41513603578346 8.82794
49.4396449792564 8.7877
49.46434784069503 8.796330000000001
49.488861631846454 8.76009
49.513377840166804 8.75922
49.537896467493745 8.718069999999999
49.56260909589029 8.68568
49.587132585683285 8.71763
49.611658500018365 8.71226
49.636186840738596 8.64373
49.66090926588511 8.66302
49.685442483902584 8.64846
49.70997813385706 8.65889
49.734516217597076 8.57043
49.75924846937352 8.55922
49.7837914452858 8.53548
49.80833686055187 8.52149
49.83288471702571 8.52164
49.85762682540054 8.55485
49.882179588965734 8.49052
49.9067347993235 8.466510000000001
49.93129245833333 8.43967
49.95604445336378 8.44714
49.98060703442832 8.43637
50.005172069746266 8.365310000000001
50.02993150438364 8.40729
50.05450147301533 8.42034
50.07907390151433 8.370619999999999
50.10364879174981 8.33192
50.12841816587289 8.34314
50.1529980044635 8.31852
50.17758031042124 8.32704
50.20216508562089 8.30279
50.22694442953363 8.28011
50.25153416817468 8.263010000000001
50.27612638170508 8.23537
50.300721072005196 8.20048
50.325510416102105 8.21744
50.350110084975064 8.17934
50.37471223628208 8.18829
50.39931687190919 8.20105
50.424116246675766 8.16514
50.44872587605249 8.144169999999999
50.47333799543065 8.12302
50.49795260670191 8.11807
50.52276204271512 8.060360000000001
50.54738166295838 8.07685
50.57200378079314 8.06931
50.596628398116835 8.01944
50.62144792604559 8.013760000000001
50.646077567609396 7.996389999999999
50.670709714377715 7.99182
50.69553683636198 7.980410000000001
50.72017401885922 7.95909
50.7448137122895 7.9535
50.76945591856022 7.923030000000001
50.79429318636823 7.9324699999999995
50.818940443716784 7.9043600000000005
50.84359021965163 7.89985
50.868242516085964 7.874289999999999
50.893089960641895 7.85942
50.917747323549435 7.83105
50.94240721271973 7.844119999999999
50.96706963007175 7.7991600000000005
50.99192728239342 7.77977
51.01659478166073 7.78328
51.04126481489051 7.7621899999999995
51.06593738400761 7.78618
51.090805275207074 7.72215
51.11548294172845 7.716489999999999
51.14016314993547 7.700139999999999
51.164845901758845 7.691560000000001
51.18972406304274 7.6826300000000005
51.21441192780656 7.65477
51.23910234200271 7.658110000000001
51.2637953075678 7.62025
51.288683770237945 7.5883899999999995
51.31338186432707 7.5807199999999995
51.33808251561888 7.5814
51.362978729967345 7.56122
51.387684521509755 7.506530000000001
51.41239287610203 7.53832
51.437103795691165 7.51841
51.46201036644977 7.5081
51.486726441956634 7.49083
51.51144508832545 7.45604
51.536166307509156 7.46782
51.56108326624387 7.4316699999999996
51.58580965706056 7.41118
51.61053862657523 7.4089
51.635270176746864 7.38727
51.66019755512065 7.401260000000001
51.68493429268881 7.36026
51.70967361681515 7.31752
51.73441552946465 7.29648
51.759353359237934 7.323930000000001
51.7841004750961 7.28958
51.80885018539685 7.292000000000001
51.833602492111254 7.26613
51.8585508051424 7.258889999999999
51.883308330926425 7.2653300000000005
51.90806845906181 7.238339999999999
51.932831191525715 7.1948
51.95779001977161 7.1604399999999995
51.98255798721516 7.1493199999999995
52.00732856494335 7.1628
52.03229530577543 7.164739999999999
52.057071130455945 7.15192
52.081849571391054 7.093210000000001
52.106630630568695 7.10765
52.13160794279417 7.06642
52.15639426492067 7.049980000000001
52.18118321127822 7.05611
52.205974783860896 7.05577
52.23096269971011 7.011839999999999
52.255759551287994 7.0126800000000005
52.280559035098186 6.974260000000001
52.30536115314103 6.968210000000001
52.33035970494467 6.990489999999999
52.35516711807904 7.006760000000001
52.37997717147198 6.95695
52.40478986713005 6.948119999999999
52.42979908731974 6.9135800000000005
52.454617094216 6.893910000000001
52.47943774942214 6.88433
52.50426105495102 6.85164
52.529280976059844 6.874619999999999
52.554109609024096 6.858169999999999
52.57894089837482 6.8544
52.60377484613117 6.83443
52.62880550079408 6.7938600000000005
52.65364479223379 6.814080000000001
52.67848674816189 6.76227
52.70352547971946 6.73255
52.72837279155837 6.74515
52.753222773982785 6.70498
52.778075429022984 6.71962
52.80312495150885 6.73164
52.827982978797436 6.71805
52.85284368481815 6.66057
52.87770707160767 6.65896
52.90276741793998 6.67277
52.92763619336701 6.6264899999999995
52.952507655698504 6.61649
52.977381806977576 6.61315
53.00245301017842 6.60715
53.02733256653592 6.58615
53.052214817996074 6.5796
53.077099766608484 6.55057
53.102181859804446 6.55921
53.127072229988265 6.53428
53.15196530349892 6.50575
53.17686108239249 6.5023
53.20195409881522 6.49429
53.22685531582556 6.49688
53.25175924441303 6.47847
53.27666588664027 6.49021
53.30176985962693 6.42813
53.3266819565689 6.41565
53.35159677336455 6.41822
53.376514312083096 6.39344
53.40162927507703 6.38858
53.42655228516116 6.35381
53.45147802340193 6.32557
53.47660125628886 6.38697
53.50153247842639 6.34468
53.52646643496923 6.31015
53.55140312799818 6.2952900000000005
53.576537409691696 6.30508
53.60147960336152 6.28259
53.626424539786164 6.24224
53.65137222105307 6.24483
53.67651758529126 6.23825
53.70147078399681 6.189690000000001
53.72642673383343 6.20656
53.75138543689533 6.21855
53.776541917524526 6.18674
53.801506154876755 6.16915
53.826473151763246 6.1500900000000005
53.851442910284916 6.12846
53.87661054126026 6.10165
53.9015858509782 6.15712
53.92656392866066 6.12657
53.95154477641532 6.083019999999999
53.976723591801296 6.03029
54.00171000771266 6.09016
54.02669920004598 6.0730699999999995
54.051691170915745 6.0108
54.076881204886796 6.0084800000000005
54.101878760928514 6.024430000000001
54.12687910187696 5.99271
54.152077577768296 5.99164
54.1770835166946 5.9357
54.20209224691339 5.92005
54.22710377055121 5.9413
54.25231352511594 5.93457
54.27733066384342 5.89109
54.30235060239643 5.91404
54.32737334290836 5.92949
54.35259441062629 5.8498
54.377622783395324 5.82944
54.40265396455061 5.80981
54.42768795623251 5.7927800000000005
54.45292037169559 5.73341
54.477960012857906 5.77073
54.50300247099511 5.76811
54.52804774825457 5.7368
54.55329154616743 5.72231
54.57834249018678 5.71825
54.6033962597977 5.682519999999999
54.6284528571545 5.67265
54.653708072335164 5.6304099999999995
54.67877035378786 5.68502
54.70383546947698 5.633380000000001
54.72890342156389 5.60125
54.7541700889442 5.5948199999999995
54.77924374251975 5.60757
54.8043202390049 5.5593699999999995
54.82959552413022 5.44486
54.8546777351945 5.46963
54.87976279569621 5.44971
54.90485070780914 5.45467
54.930137506558005 5.442819999999999
54.95523115074295 5.41445
54.98032765308844 5.42037
55.005427015775496 5.38927
55.03072536339621 5.368869999999999
55.05583047570572 5.327719999999999
55.080938454927676 5.31802
55.10604930325027 5.2683800000000005
55.131359235107396 5.28712
55.15647585066083 5.26069
55.181595341907496 5.21876
55.20671771104285 5.22567
55.232039262617704 5.1842
55.25716741665048 5.16019
55.28229845518636 5.1700099999999996
55.30743238042802 5.09207
55.33276558731939 5.09031
55.357905315183636 5.1089199999999995
55.383047936390035 5.0831
55.40819345314859 5.0145
55.433538351073295 5.00895
55.458689688238415 4.99449
55.483843927614096 4.9736199999999995
55.509197623043605 4.97976
55.53435769621134 4.9461699999999995
55.55952067826466 4.91268
55.5846865714265 4.90081
55.61005202069737 4.87052
55.63522376553902 4.82872
55.66039842818645 4.83135
55.68557601087004 4.82271
55.7109532500271 4.7344800000000005
55.73613670233794 4.77259
