TT I
1.2716486653135266 6.98827
1.2939594142134223 6.77735
1.3162702121660406 6.27792
1.3385810600174564 6.03336
1.3608919586137629 6.35116
1.383202908801069 6.02808
1.405513911425503 5.97872
1.4278249673332093 5.45447
1.4501343378461518 6.1269800000000005
1.4724455028545926 5.60769
1.4947567236847858 5.47763
1.517068001182951 6.10869
1.5393793361953272 5.6321699999999995
1.5616907295681737 5.78005
1.5840021821477681 4.848990000000001
1.60631369478041 5.69685
1.6286252683124185 5.4426
1.6509369035901333 4.98129
1.6732468618895553 5.1005199999999995
1.695558623192809 4.85262
1.7178704487808514 4.56311
1.7401823395001077 4.452319999999999
1.7625012545597203 4.09393
1.7848028405262486 4.90486
1.8071218901122095 4.75155
1.8294236121921872 4.8266
1.8517427996910911 5.01516
1.8740620574440425 4.86955
1.8963639900671978 4.75361
1.9186833908139995 4.88629
1.9409854680117449 5.32814
1.9633050151394713 5.008430000000001
1.9856246367570705 4.70351
2.0079269371922672 4.49102
2.03024671027244 4.565840000000001
2.0525491637446027 4.2939
2.074869091674931 4.78116
2.097171701569106 4.72844
2.1194917877373847 4.8257900000000005
2.141811954326636 4.9608300000000005
2.164114805233074 5.0964
2.186435135143035 6.27965
2.208738150935709 15.44
2.231058647554722 31.1513
2.2533792288321184 24.9788
2.275682498336085 11.1252
2.298003251406138 6.55623
2.3203066942619714 5.81338
2.3426276225136022 4.9930900000000005
2.3649486396617507 5.319369999999999
2.387252348930071 5.78102
2.4095735463442893 6.27337
2.4318774374315884 6.77234
2.4541988185014043 6.51112
2.476502894794693 6.93623
2.498824462909887 6.915210000000001
2.521146125856138 7.2812
2.5434504863470337 7.760330000000001
2.5657723414244717 8.21057
2.588076895590662 7.85274
2.610398946189713 8.50211
2.6327210958598384 8.09322
2.6550259469304716 7.918410000000001
2.6773482972090137 8.0708
2.6996533504259 8.11235
2.7219759047039602 9.064739999999999
2.744298562293959 8.63795
2.7666039251246595 8.7072
2.7889267918020164 8.63617
2.8112323652516555 8.81973
2.833555444408179 8.07493
2.8558786311183852 8.87754
2.8781845268938557 8.83789
2.9005079311721484 8.89485
2.9228140460410397 9.63017
2.9451376712799635 9.52905
2.967444008632326 9.80695
2.9897678582247247 9.776810000000001
3.0120918213106695 10.1873
3.0343984987899373 11.011
3.0567226913198637 11.5237
3.079029599759726 11.9301
3.101354025127254 12.1153
3.123678568232338 12.8307
3.145985829517914 13.3192
3.16831061055229 14.0049
3.1906181112775593 14.6161
3.212943133635653 15.232999999999999
3.2352682779763207 15.5851
3.2575761442691227 15.5535
3.2799015350264273 15.8458
3.302209649240067 16.6395
3.3245352898092655 16.879
3.3468436553365257 16.9959
3.369169549113219 17.5609
3.3914955708171384 18.4847
3.413804319727358 18.9969
3.4361305997334863 18.9273
3.4584396084414553 19.311
3.4807661501462652 20.3649
3.503092824025881 20.6346
3.5254022288463154 20.7974
3.5477291695206588 21.9157
3.5700388426251948 22.7055
3.5923660534916446 24.2133
3.6146934007816114 40.5324
3.637003482731501 97.051
3.6593311053109985 108.337
3.681641464033634 61.3805
3.7039693653009733 31.7246
3.726297407241705 26.3562
3.7486081875460804 25.7557
3.7709365132734978 26.3533
3.793247578841633 26.6524
3.8155761917550093 27.0294
3.8378875459837216 26.9786
3.8602164494827234 27.261999999999997
3.882545499606844 28.4769
3.9048572932539183 28.7939
3.9271866390645718 28.8936
3.9494987298666713 29.5203
3.971828374764527 30.2651
3.9941581705403255 30.8179
4.016470713506008 31.3228
4.038800813471445 32.1441
4.061113662089144 32.3096
4.0834440696459176 33.4628
4.105774632334751 34.2077
4.128087945865126 34.8138
4.150418821249301 35.6731
4.172732448931298 36.7132
4.195063640413578 38.4327
4.2173775856475215 42.7605
4.239709096631102 77.3232
4.262040768704612 259.955
4.284355196706267 358.491
4.306687193387355 233.102
4.329001947444346 87.6429
4.35133427213731 48.8622
4.373666762177566 44.3899
4.395982011761091 44.111000000000004
4.418314834921175 45.8921
4.44063041906622 53.5152
4.4629635787515625 66.8146
4.4852969080429785 66.5382
4.5076130004776225 54.1677
4.529946671403969 49.7683
4.552263106909177 49.4784
4.574597122877047 50.7826
4.596931312711224 51.4812
4.619248269273446 52.2833
4.6415828092605835 53.4487
4.663900117405352 54.2107
4.686235010953232 56.222
4.708552674085913 57.3189
4.730887924602802 58.8558
4.753223354952695 60.2508
4.775541557023902 61.4757
4.797877349456786 62.7132
4.820195915032126 64.6969
4.842532072957498 65.9951
4.864868414979744 67.8891
4.88718753227192 70.0052
4.909524244902505 72.0045
4.931843734218147 73.4404
4.954180820867835 76.1263
4.976518095879839 78.5903
4.998838149695359 81.1104
5.021175803844231 84.4591
5.043496238205739 87.5803
5.065834274903528 91.9993
5.088172504230693 95.9993
5.1104935158799565 101.913
5.132832132875765 123.227
5.155153533596801 168.02200000000002
5.1774925416746225 199.665
5.199814334878411 292.30400000000003
5.2221537374521505 777.8739999999999
5.244493338631803 2425.54
5.266815727034316 7377.16
5.289155727832427 12581.5
5.311478517248165 9225.59
5.333818921080011 2818.7
5.356159527788849 514.391
5.3784829252032536 177.19099999999997
5.400823940070432 139.912
5.423147747031976 124.929
5.445489173474152 116.161
5.467830807066149 110.87
5.490155234831516 106.87700000000001
5.512497285125229 103.876
5.534822130975162 102.29
5.557164601388673 99.6187
5.579489868738879 96.8666
5.601832762690846 96.8945
5.6241758697774475 95.9898
5.646501775867269 95.134
5.668845311622074 93.1722
5.691171647754637 92.4563
5.713515615597765 91.3644
5.735859800852677 90.4153
5.758186788542988 89.3721
5.780531411018185 89.9384
5.802858837297399 89.5353
5.825203900414495 88.8253
5.8475491852224 88.8885
5.869877275883075 89.3422
5.892223006467101 90.454
5.914551544266608 91.0039
5.936897724049891 92.8775
5.959244129804903 96.9464
5.981573344815301 108.961
6.0039202049061 172.423
6.026249875609095 372.24800000000005
6.04859719346037 817.9910000000001
6.070927323278297 2028.05
6.093275102315365 4350.05
6.115623113320588 5160.46
6.137953938319995 3244.02
6.160302415650845 941.252
6.182633708324452 223.33900000000003
6.2049826554078376 111.242
6.227331838745022 90.476
6.249663839443684 83.5381
6.27201349767565 81.3486
6.294345974611799 88.9659
6.316696111167083 102.132
6.339046488263839 96.8721
6.361379686074702 80.2392
6.383730546639482 71.2353
6.406064229255215 68.2103
6.428415576718203 67.3583
6.450749747566656 66.51899999999999
6.47310158535871 65.8168
6.495453669698332 64.7449
6.517788579421056 63.9083
6.540141159237969 63.1472
6.562476565766648 62.56100000000001
6.5848296444934045 62.175
6.607182974060425 61.5416
6.6295191323281015 62.4786
6.651872965955752 66.245
6.6742096296068985 94.5255
6.6965639707294615 146.78
6.71891856698715 148.4
6.741255995248479 99.46700000000001
6.763611104154477 69.2286
6.785949046381137 60.2443
6.808304671371482 57.9281
6.8306605557940046 57.3884
6.852999275508618 56.8962
6.875355681171544 56.5025
6.897694923437771 56.1192
6.92005185377892 56.338
6.9423916220322655 56.2948
6.964749080490181 55.2998
6.987106804399774 55.4045
7.009447368180821 55.0211
7.031805625367033 54.9163
7.054146723727803 54.9772
7.076505517631004 54.4437
7.098864581288365 54.6222
7.121206488070854 54.6781
7.143566093607822 54.4972
7.165908543567245 54.8215
7.188268694426048 54.9271
7.2106291193438095 55.2906
7.232972390625943 56.8457
7.255333366030969 71.0417
7.277677189091925 130.143
7.300038718428332 183.71
7.322400526130865 155.239
7.344745183422596 93.4394
7.367107550224791 62.7309
7.389452767901992 56.291000000000004
7.411815697249891 55.047
7.434161478756298 54.2123
7.456524974096713 53.8462
7.478888753837185 54.0651
7.501235387657368 54.1161
7.523599738562711 54.0505
7.545946944825532 54.4037
7.568311870344528 54.7527
7.5906770845765665 54.8736
7.613025156078678 56.501000000000005
7.635390950099687 57.8853
7.657739602662809 57.0278
7.680105979923558 55.441
7.702472650212829 55.6466
7.724822180948224 55.0226
7.747189439655568 55.5694
7.769539560075357 55.513000000000005
7.791907410653562 55.9893
7.81425812420825 55.9218
7.836626570110925 55.998000000000005
7.858995315087906 56.9398
7.881346924933401 56.9959
7.903716270417482 57.7089
7.926068482028405 57.7098
7.948438431475253 58.4373
7.9708086843180235 59.0275
7.993161805171116 59.5211
8.015532667162402 59.8366
8.037886398416653 61.0963
8.060257873014221 61.4456
8.082629655331942 61.9522
8.104984308787587 63.0262
8.127356708900503 66.6906
8.149711981398308 72.9314
8.172085002766314 75.6233
8.194458336181368 71.6189
8.216814543847752 68.6387
8.23918850371002 68.8262
8.26154533906492 69.1809
8.283919928836452 70.5894
8.306277395339652 71.5697
8.328652618483376 72.8331
8.351028159736202 74.6667
8.373386579575245 76.4253
8.395762759396959 78.2748
8.418121819038275 83.5722
8.440498640894003 97.0801
8.462875785192262 112.16799999999999
8.485235811156207 119.413
8.507613602688501 144.606
8.529974277114228 216.025
8.552352719347912 334.971
8.574731488360351 584.206
8.59709314210385 1129.7
8.619472567021075 1841.31
8.64183487789147 2239.71
8.664214962183097 1842.39
8.686577933647762 962.069
8.708958680784317 366.31699999999995
8.731339760774953 172.122
8.753703729764451 111.38799999999999
8.77608547780821 97.7085
8.798450116065078 94.3261
8.820832535634787 91.0274
8.843215292401656 89.1478
8.865580941199045 88.1358
8.887964374703538 87.2562
8.910330701447199 88.3981
8.932714815164482 91.2531
8.955099270424924 90.3559
8.977466620733543 87.2802
8.999851761421976 84.1603
9.022219798361645 82.7723
9.04460562795561 82.3832
9.066991803441677 81.7789
9.089360876979615 81.3194
9.111747746589993 80.9038
9.13411751544971 80.833
9.156505082664324 80.5433
9.178875550323522 80.7487
9.20126381862328 81.4554
9.223652438908596 81.4316
9.246023961427412 81.392
9.26841328802173 81.1034
9.290785518039224 80.5282
9.313175554425882 81.3387
9.335565947154315 80.7854
9.357939245086508 81.1469
9.380330352834827 81.1087
9.40270436697103 81.5035
9.425096193225055 81.6672
9.447488380180165 82.39
9.469863475295412 82.792
9.492256385987508 82.9046
9.514632206018318 83.8265
9.537025843935714 83.9628
9.559402392368193 84.5227
9.581796761000229 85.7348
9.604191496441521 87.0641
9.626569144158516 90.7622
9.648964615551032 95.7697
9.671343000390081 97.7937
9.693739211225699 95.5337
9.716135793237463 92.4259
9.738515290448102 91.4867
9.760912617143402 92.2505
9.783292860202891 93.5184
9.805690935076182 94.8043
9.828089385495742 95.6131
9.850470754023561 97.9503
9.872869957865444 106.20100000000001
9.89525208097539 123.012
9.917652041736662 136.372
9.940052382417589 134.043
9.962435644102392 133.483
9.984836746950979 156.822
10.007220771957746 210.60299999999998
10.029622640473708 301.308
10.052007432299963 466.662
10.074410069984072 759.8739999999999
10.096813093716005 1222.01
10.119199042482517 1767.3
10.141602840636468 1970.22
10.163989564971628 1597.86
10.186394141051062 914.2130000000001
10.208799107559706 405.18199999999996
10.231187001965623 186.851
10.253592751657669 124.714
10.275981430388155 111.73200000000001
10.298387966769793 111.959
10.320794897965431 115.085
10.343184759907361 113.52600000000001
10.36559248305461 107.48299999999999
10.387983138083852 102.42299999999999
10.410391656691655 103.40799999999999
10.432800574501677 111.934
10.455192425893369 126.042
10.47760214443012 147.895
10.499994797678786 188.266
10.522405320453982 266.16700000000003
10.54479877906917 387.716
10.567210109595656 521.641
10.5896218454736 571.844
10.612016518879773 504.749
10.634429067781074 350.309
10.656824555333241 203.797
10.679237920773568 123.052
10.701651695961992 95.6693
10.724048411481384 88.3574
10.746463008485165 85.1235
10.768860546937125 83.5198
10.791275969274796 82.1145
10.81369180576079 81.3815
10.836090585366925 79.9204
10.858507252467449 78.6822
10.88090686379991 77.618
10.903324365036394 77.3647
10.925724811614439 77.6627
10.948143150509463 78.9493
10.970561909719066 78.0462
10.992963615930844 76.1711
11.015383218085756 73.8113
11.037785768347074 72.3755
11.06020621697282 71.8374
11.082627090322113 71.4246
11.105030913430326 71.0873
11.12745263854165 71.936
11.149857314510728 75.4856
11.172279894912576 82.2743
11.194702904450653 83.1017
11.217108866490921 79.1058
11.239532736615194 74.2036
11.26193956033512 71.477
11.284364294577085 69.7303
11.306789462371718 67.4764
11.329197585398376 66.5245
11.351623622610898 66.1666
11.37403261614354 65.382
11.396459526308487 64.9648
11.418869393879497 64.3516
11.441297180532617 64.4168
11.463725406927658 64.3207
11.486136592353875 64.1774
11.508565700543707 64.7409
11.530977768845315 66.8393
11.553407762368774 67.6531
11.575838200059769 67.0212
11.598251599479612 64.7567
11.620682927815501 63.1493
11.64309721895548 62.9259
11.665529441478206 62.3648
11.687962112597958 61.9834
11.710377748130886 62.1291
11.732811318753434 61.9098
11.755227854859067 62.01
11.777662328529495 61.9044
11.800079768750786 61.531000000000006
11.822515149015453 61.6241
11.844950984084935 61.8932
11.867369787303163 61.4981
11.889806534289491 61.4552
11.912226250487029 62.208999999999996
11.934663912939751 61.6826
11.9571020346363 62.0509
11.979523127133968 62.0039
12.001962169624331 62.281000000000006
12.024384183972964 62.6765
12.046824150809913 65.2467
12.069264581333726 69.6226
12.091687985297767 75.172
12.11412934550045 83.8044
12.136553680195208 97.8751
12.158995973632788 121.1
12.181438735204349 150.371
12.20386447284199 188.56099999999998
12.226308172985636 207.479
12.24873485024193 203.322
12.271179492516982 168.429
12.293607112949127 126.43299999999999
12.316052700916226 96.9088
12.338498763250042 78.9048
12.360927805303868 70.2241
12.383374818673879 65.8831
12.405804812803074 63.8417
12.428252780773262 63.4121
12.45070122756722 63.4653
12.473132656675375 63.3168
12.49558206341869 63.6476
12.518014453510101 63.3656
12.540464823770117 63.7214
12.562915677315177 63.7326
12.58534951575545 64.5037
12.607801338171472 67.0212
12.630236146511358 72.9285
12.652688941369085 78.2319
12.675124723177234 78.3793
12.697578494048786 74.2412
12.720032754458185 69.1641
12.742470003354093 67.1427
12.764925245138771 66.6064
12.787363476431278 66.9065
12.809819703166806 67.2049
12.83227642391173 67.8738
12.854716135692716 68.3847
12.877173846755147 69.72800000000001
12.899614549869717 69.9917
12.9220732548287 70.4897
12.94453245827299 70.7473
12.966974655289818 71.8878
12.989434858002571 72.4754
13.011878055298721 73.1517
13.034339260862497 74.1989
13.056800969391883 75.5759
13.079245674017244 78.5305
13.101708390774869 78.9906
13.12415410463411 84.1756
13.146617833206086 93.988
13.169064559883248 104.79799999999999
13.191529303857127 118.065
13.213994557076367 138.797
13.236442809902437 173.828
13.258909083908291 228.25900000000001
13.28135835851934 294.672
13.30382565690295 369.102
13.326293469022952 420.81800000000004
13.348744283242008 421.832
13.371213125129904 354.129
13.39366497011003 260.448
13.416134845360597 170.76
13.438605238843131 122.531
13.46105863690397 103.06200000000001
13.483530069144786 100.64399999999999
13.505984506951902 104.61
13.528456981549432 113.34899999999999
13.550929978879088 126.755
13.573385983253365 150.45600000000002
13.595860028340867 189.863
13.618317081455832 242.94400000000002
13.64079217790333 305.322
13.663250283359057 352.07599999999996
13.685726434770173 379.07599999999996
13.708203115221277 341.43699999999995
13.730662806148091 261.998
13.75314054697177 183.69099999999997
13.775601299246777 126.679
13.798080104050406 95.9246
13.820559442405358 84.1139
13.843021793671388 80.4911
13.865502201420897 78.9539
13.887965623051947 78.4044
13.910447103807167 77.0378
13.932929122629764 75.8655
13.955394156785959 75.3274
13.977877254034569 74.4752
14.000343367582113 73.8054
14.022827546871707 73.1911
14.045294743423524 72.4254
14.06778000837062 71.8675
14.090265817715476 71.727
14.112734645763819 71.6512
14.13522154619454 71.1846
14.157691466286913 71.2381
14.180179461423874 70.9449
14.202668005486178 70.3895
14.22513957064374 69.7437
14.247629214846473 69.4195
14.270101881097517 69.2544
14.29259262906496 69.6668
14.315083930490205 70.5029
14.337558255389705 70.6744
14.360050666019726 70.3119
14.382526101071944 69.1376
14.405019624534942 68.2813
14.427513705993134 67.678
14.449990813291825 67.8254
14.47248601302899 67.5976
14.49496423954951 67.5737
14.517460561197822 67.6356
14.539939910570322 67.2627
14.562437357763558 67.9588
14.58493536931253 69.016
14.607416409993311 70.2893
14.62991555254159 70.7075
14.652397725157423 70.8349
14.674898002342799 69.9252
14.697398848433282 69.2068
14.719882725991326 69.7238
14.74238471217934 70.1071
14.764869730765593 72.6535
14.787372860692983 75.4191
14.809876564079925 79.3342
14.83236330125751 84.2944
14.854868153850365 92.0003
14.877356041159485 105.03200000000001
14.899862046604186 123.156
14.922351087688757 150.129
14.944858249632887 181.543
14.967365991421232 209.454
14.989856770231246 225.145
15.012365673994204 217.812
15.03485761569738 187.771
15.05736768508665 147.14600000000002
15.07987833888692 112.926
15.102372032001655 89.5464
15.124883856909658 76.1377
15.14737872204565 71.0842
15.169891721717274 69.4176
15.192405310371893 69.6302
15.214901940621196 69.9661
15.237416709527137 70.2101
15.259914520936249 70.4825
15.282430473753607 69.3324
15.304947020131227 67.983
15.327446610371178 67.1185
15.349964346154254 66.5452
15.372465126703139 65.7826
15.394984055556009 65.4822
15.417486030076159 65.199
15.44000615566487 64.9402
15.462526881230803 64.9902
15.485030653812652 65.1284
15.507552581617434 65.4036
15.530057557334603 65.2132
15.55258069104857 65.2765
15.575104429329837 65.1553
15.597611216864632 64.5963
15.620136166564563 64.6053
15.6426441664095 64.9767
15.665170331202765 66.6037
15.687697105158826 69.3533
15.710206930593545 72.4564
15.732734925158933 76.202
15.755245972089478 81.8921
15.77777519094324 90.3935
15.800287463046663 103.14299999999999
15.822817909869592 122.745
15.84534897229804 145.651
15.867863089299354 170.429
15.890395385222186 190.72099999999998
15.912910736597423 195.576
15.935444269699861 182.433
15.957978423016485 155.85299999999998
15.980495633101265 121.50399999999999
16.003031029129367 93.9424
16.02554948280019 75.9401
16.048086125229432 67.0891
16.070623392487107 64.5426
16.09314371869582 64.0923
16.11568223789321 63.0377
16.13820381691126 61.7867
16.160743591742527 60.6084
16.183283996022084 59.5989
16.205807461423195 58.7602
16.228349126881973 58.2101
16.25087385432698 58.2232
16.27341678466365 57.6242
16.29594277784926 57.5563
16.31848697676433 57.9771
16.341031811604868 58.5853
16.36355971058487 58.8456
16.3861058195587 58.5383
16.40863499352978 57.1865
16.431182380342005 56.266000000000005
16.453730407713202 55.5183
16.476261501364792 55.0914
16.498810812136167 54.6336
16.52134319004079 54.5652
16.54389378792203 54.5986
16.566445031001553 54.4973
16.588979342490088 54.1571
16.61153187824822 54.1395
16.634067483263312 53.9934
16.656621315414416 54.0767
16.679175797408888 53.6846
16.701713349928728 53.8384
16.72426913389191 54.089
16.74680798922351 54.1999
16.76936507887444 54.2615
16.791905240734874 54.0894
16.814463639794468 53.9929
16.837022695210294 54.0866
16.859564824093756 54.373999999999995
16.882125194503903 55.2175
16.904668639217885 55.9863
16.927230328348003 56.2669
16.949792678493612 56.2663
16.972338104193863 55.4064
16.994901778652235 54.7588
17.017448529496576 54.6923
17.040013531998152 54.8948
17.06257920018044 55.1125
17.0851279459922 55.7733
17.107694947817667 56.4031
17.130245028099072 57.266000000000005
17.15281336730298 58.63
17.17536478578733 60.3824
17.19793446610687 62.4316
17.220504818648422 65.1948
17.243058251703697 68.633
17.265629950971032 73.4966
17.288184731571736 78.6002
17.310757781306908 83.0065
17.33333150794385 83.3098
17.355888317140174 82.3843
17.37846339986244 77.0496
17.401021565958885 70.3582
17.42359800851343 64.641
17.44617513265564 60.8946
17.468735341390783 59.0071
17.491261035594565 58.256
17.51396340099364 58.1087
17.536490463869136 58.1995
17.559018209820174 58.2385
17.58154663977963 58.254
17.604251766089718 58.2921
17.626781572227713 58.6871
17.64931206518155 58.8767
17.671843245885103 59.4135
17.69455114821572 59.6483
17.717083712612634 60.034
17.739616967569667 60.0261
17.762150914021706 60.2619
17.78486160749854 60.2038
17.807396945166804 60.6427
17.829932977143503 61.3299
17.85246970436452 62.3624
17.875183204129467 64.1871
17.897721330097664 66.0142
17.920260154126645 68.3096
17.942799677153296 71.3737
17.9655159983646 74.6126
17.988056927677544 79.7025
18.010598558807683 87.3429
18.033140892692916 97.4732
18.05586005052525 109.18299999999999
18.07840379824407 120.90899999999999
18.10094825154059 131.053
18.12366954819864 138.719
18.146215420998306 136.793
18.16876200220057 128.39
18.191309292745153 114.19
18.214033452627167 100.87700000000001
18.236582170236648 89.939
18.259131600016456 84.3702
18.281681742907335 84.7044
18.304408781233683 89.4181
18.32696035875955 94.9482
18.349512652227624 100.31700000000001
18.372065662579683 104.244
18.394795594587553 105.046
18.41735004715306 101.796
18.43990521943684 95.0878
18.46246111238171 85.6007
18.485193953325208 76.7198
18.507751296070428 69.3366
18.530309362314178 65.0265
18.552868153000343 62.7192
18.57560391815056 61.2273
18.59816416623245 60.9239
18.620725141597372 60.31
18.643286845190268 59.8903
18.666025549835414 59.6209
18.688588718427933 59.0173
18.711152618092243 58.7876
18.73389353884365 58.4693
18.75645890921984 58.0059
18.77902501351406 57.7678
18.801591852673102 57.5309
18.824335739722738 57.1979
18.846904057212626 57.1282
18.8694731124168 56.7728
18.89204290628315 56.7779
18.914789774966803 56.5477
18.937361054791623 56.1886
18.959933076131318 56.1068
18.982505839934877 56.1588
19.00525570560582 56.1882
19.027829963004184 56.0022
19.05040496572238 56.0372
19.072980714710468 56.0326
19.095733592739563 56.0852
19.11831084296757 56.3616
19.140888842324735 56.8799
19.16346759176222 57.2052
19.18622349753803 57.7547
19.208803755869358 58.2262
19.231384767143577 59.3292
19.253966532312948 60.9151
19.276725481241822 62.8974
19.29930876296784 65.5129
19.3218928014549 68.7324
19.34465404436217 72.1329
19.36723960516257 75.0869
19.389825925592426 76.0744
19.412413006605938 74.8636
19.43517731967805 71.3315
19.457765930683355 66.7516
19.48035530514408 62.4493
19.50294544401556 58.8201
19.525712842708348 55.771
19.54830451925909 54.3945
19.570896963095727 53.3865
19.593490175174704 53.1438
19.616260674962184 53.2529
19.638855432416964 52.8776
19.661450960992624 52.9802
19.68404726164677 52.8209
19.706820878021247 52.4909
19.729418731756834 52.6587
19.752017360452857 52.5082
19.77461676506804 52.7078
19.797393513540218 52.6614
19.819994478951667 52.8344
19.84259622316767 53.3713
19.8651987471481 53.6624
19.887978643247177 54.0622
19.91058273574792 54.4217
19.933187610901943 55.3007
19.955969879466828 56.0102
19.97857632894404 57.5216
20.00118356396599 59.2024
20.023791585494575 61.4757
20.046577028914875 64.3124
20.069186632506966 66.479
20.091797025500632 68.4769
20.114408208858933 69.0381
20.137196842715273 68.656
20.159809615886765 66.9247
20.18242318232135 64.2791
20.20503754298326 62.3015
20.227829382875154 61.1452
20.250445341109344 61.2435
20.27306209647285 62.0694
20.29567964993108 63.6905
20.31847471147704 64.8169
20.34109387027612 65.5211
20.363713830075454 64.9871
20.386334591841646 63.5738
20.409132890679302 60.8663
20.431755265564437 57.7387
20.454378445325528 54.9405
20.477002430930366 53.00899999999999
20.499803982716553 51.8565
20.522429589228004 50.9422
20.54505600449589 50.5514
20.567683229489194 50.4058
20.590488049900088 49.9954
20.61311690359731 49.6061
20.63574656993626 49.2951
20.658553853717297 48.8002
20.681185154618298 49.0418
20.703817271080066 48.8686
20.72645020407368 48.4352
20.749260783967177 48.2226
20.771895359337133 48.2911
20.794530754161617 48.3541
20.817166969412938 48.2511
20.83998086114876 48.1318
20.86261872660049 48.0803
20.885257415405402 48.0406
20.90789692853701 47.8609
20.930714147864748 47.9664
20.953355319030678 47.887
20.97599731745334 48.0938
20.99864014410749 47.8512
21.021460706796564 47.8117
21.044105199328826 48.0581
21.06675052302631 48.3297
21.089396678865015 48.5452
21.112220600704806 48.7306
21.134868430275347 49.0082
21.15751709492456 49.4077
21.180166595629693 49.6335
21.202993892429635 50.253
21.22564507473034 50.5588
21.24829709602816 50.7641
21.27112693608965 50.86600000000001
21.293780644891275 50.5535
21.316435195634053 50.0427
21.339090589297417 49.2992
21.361923832041875 48.8758
21.384580921090404 48.2689
21.407238856007325 47.841
21.429897637773326 47.6369
21.45273429906592 47.5877
21.475394784108598 47.6629
21.498056118951983 47.5604
21.520718304578022 47.6731
21.543558400304388 47.7922
21.566222297108816 47.9988
21.58888704765135 48.1019
21.61155265291521 48.2779
21.63439619898156 48.7307
21.657063523335786 48.8178
21.67973170537063 49.2599
21.7024007460706 49.763999999999996
21.72524775840385 50.4918
21.747918526116475 51.5118
21.770590155457388 52.5971
21.79326264741238 54.2281
21.816113141960237 56.0616
21.838787368860547 58.31100000000001
21.861462461341976 60.2566
21.884315579735777 62.1751
21.90699241312273 63.4288
21.92967011506078 63.7292
21.95234868653799 63.5041
21.9752053151131 62.3375
21.997885635446785 60.4692
22.020566828293532 58.5899
22.04324889464272 57.0532
22.066109049404666 55.8477
22.088792872571794 55.5208
22.111477572219204 55.7319
22.1341631493376 55.2524
22.157026846313123 55.1611
22.179714188221507 54.5776
22.202402410582668 53.3489
22.22509151438863 51.8211
22.24795876962584 50.6315
22.270649646204486 49.6788
22.293341407213727 49.2201
22.316034053646906 48.7833
22.338904883215342 48.5437
22.36159931041458 48.4117
22.38429462602756 48.3596
22.40699083104897 48.3369
22.429865251039757 48.339
22.452563244831367 48.2196
22.47526213102522 48.1083
22.49813925616515 48.1038
22.520839937143307 47.9111
22.543541513520587 47.9878
22.56624398629403 47.7051
22.589124730075895 47.7842
22.611829005656723 47.9791
22.63453418063466 47.8456
22.657240256008077 48.0567
22.680124634582935 48.0453
22.70283252079775 48.4921
22.725541310413075 48.6317
22.74825100442868 48.7693
22.771139033969575 49.246
22.79385054687155 49.3501
22.81656296718292 50.016999999999996
22.83927629590484 50.9952
22.862167992606945 52.0762
22.88488314827121 53.3496
22.907599215359284 54.4843
22.93031619487366 55.4481
22.953211574954405 56.5884
22.975930389478226 57.2541
22.998650119445763 57.5108
23.02137076586092 56.7174
23.044269845560063 55.4246
23.06699233506288 53.8032
23.089715744034912 52.1382
23.112617610931565 50.6493
23.135342869061212 49.2611
23.158069049684816 48.4658
23.1807961538087 48.1432
23.20370174880544 48.0673
23.226430710184808 48.1165
23.249160598093425 48.1161
23.271891413539002 47.9953
23.294800752937697 48.0855
23.31753343374794 48.1408
23.340267045128353 48.0777
23.36300158808808 48.4219
23.38591468821339 48.7667
23.408651104658304 49.2145
23.431388455719986 49.8288
23.454126742409 50.638000000000005
23.4770436196085 51.835
23.499783787914662 53.2132
23.522524894889884 54.1931
23.54526694154616 55.3042
23.56818761219047 56.3611
23.59093154860734 57.0916
23.613676427751283 57.3824
23.636422250635754 56.4083
23.659346731118656 54.8548
23.68209445191868 53.1161
23.704843119509587 50.943000000000005
23.72759273490623 48.9684
23.750521041644767 47.7868
23.77327256312355 46.6377
23.796025035462787 46.0056
23.818956224555475 45.7219
23.841710609113413 45.4496
23.86446594758979 45.1585
23.887222241002014 44.9432
23.910157285144578 44.7139
23.932915498962537 44.5876
23.955674670778713 44.4193
23.978434801611975 44.2775
24.001373717286125 44.2947
24.024135776723917 44.1236
24.046898798245582 43.9738
24.06966278287146 43.8405
24.092605586582614 43.6274
24.115371508023642 43.4906
24.1381383956401 43.5918
24.16090625045381 43.492
24.183852958731244 43.3657
24.206622758582608 43.433
24.229393528706886 43.0982
24.252165270127392 43.0945
24.27511589952438 42.9948
24.297889594216997 42.8926
24.32066426328598 42.6741
24.34343990775613 42.6831
24.36639447485003 42.574
24.38917208083877 42.5363
24.41195066531332 42.4338
24.43490819850244 42.3653
24.457688750692377 42.1362
24.48047028445616 42.4025
24.503252800821233 42.4974
24.526214300784112 42.5511
24.548998793132213 42.6016
24.57178427117417 42.5333
24.59457073593893 42.4456
24.617536219319863 42.2284
24.64032466834748 42.3816
24.663114107195035 42.1167
24.685904536893013 41.9858
24.708874020360852 42.0608
24.731666442613744 41.8567
24.754459858818787 41.8321
24.777254270007962 41.8589
24.80022777025625 41.6754
24.82302418230472 41.7276
24.845821592443674 41.6839
24.86862000170663 41.5242
24.891597535453727 41.393
24.914397953892728 41.5486
24.93719937456671 41.5233
24.96000179851076 41.788000000000004
24.98298338249997 41.9021
25.00578782394922 42.1866
25.028593271784167 42.2333
25.05157790644186 42.522
25.07438537804115 42.6787
25.097193859145293 42.82899999999999
25.120003350792075 43.1343
25.142992065061257 43.6111
25.165803588823465 43.8288
25.18861612625217 44.0928
25.211429678386736 43.9682
25.234422489079968 44.0576
25.257238081693636 44.0739
25.280054692141732 44.43
25.3028723214652 44.3409
25.325869245420463 44.4868
25.348688923599397 44.5232
25.371509623787006 44.3469
25.394331347025812 44.0712
25.41733240110666 43.4867
25.440156181590016 43.0455
25.46298098826268 42.5662
25.48580682216873 41.9819
25.50881202326435 41.3918
25.53163992281684 40.9109
25.55446885274561 40.5671
25.577298814096377 40.5536
25.600308179121807 40.3434
25.623140214533745 40.3402
25.64597328451537 40.1867
25.66898578564376 39.8656
25.691820936010206 39.9985
25.714657124097695 40.1011
25.737494350954734 40.0112
25.760511045684957 39.8376
25.783350361364224 39.9542
25.806190718969255 39.909
25.82903211955018 40.0577
25.852053024868923 40.2171
25.874896522722523 40.07
25.897741066713106 40.0657
25.920586657892454 40.1586
25.943611790812668 40.2521
25.966459487728237 40.3473
25.989308234998564 40.3743
26.01215803367705 40.7033
26.03518741123814 40.9749
26.05803932412957 41.1939
26.080892291600094 41.0155
26.10374631470478 41.0415
26.12677995397268 41.1288
26.14963609978026 41.0869
26.172493304397875 40.705
26.19535156888223 40.6138
26.218389486949604 40.1385
26.241249882640123 39.9512
26.26411134137826 39.677
26.28715248187403 39.6413
26.31001607820869 39.5528
26.3328807407756 39.3807
26.35574647063438 39.6259
26.37879191991473 39.3878
26.401659795896734 39.4218
26.424528742360263 39.6113
26.447398760366614 39.6627
26.470448535598294 39.9968
26.49332070826805 40.1156
26.516193955675355 40.4643
26.53906827888316 40.5971
26.562122397260108 40.7079
26.584998883685063 41.1564
26.607876449110325 41.3477
26.63075509460056 41.3636
26.65381357334404 41.5438
26.67669439061878 41.6085
26.699576291163382 41.6234
26.722459276044212 41.3701
26.745522132402975 41.062
26.768407297649354 40.8729
26.791293550442003 40.5929
26.814180891848974 40.4072
26.837248143099337 39.9265
26.860137673466657 39.8436
26.88302829566349 39.7819
26.90592001075963 39.4964
26.92899167420566 39.4422
26.951885586870763 38.9876
26.974780595655517 38.7536
26.99785558178161 38.5813
27.020752794605112 38.5373
27.043651106772522 38.3284
27.06655051935668 38.266
27.089629948036183 38.2074
27.112531573292053 38.0857
27.135434302194138 38.0187
27.158338135817015 38.0726
27.181422024430987 38.1618
27.204328079372566 37.9366
27.22723524226965 37.972
27.250143514198573 38.0339
27.273231880156334 37.9358
27.296142382065014 37.914
27.319053996245536 37.7396
27.341966723775965 37.7563
27.365059584515222 37.9753
27.38797455070062 37.9261
27.410890633481237 37.8225
27.433807833936918 37.8906
27.456905206923906 37.9265
27.47982465472398 37.9074
27.502745223449743 37.985
27.525666914182825 38.0752
27.548768816912457 38.1635
27.571692763693633 38.0592
27.59461783573812 37.9343
27.617723149491244 37.7269
27.640650484125285 37.7171
27.66357894728264 37.6251
27.686508540048052 37.5535
27.709618414237887 37.4845
27.732550278321757 37.442
27.755483275279115 37.4334
27.778417406196485 37.1499
27.801531858397514 37.2962
27.824468269376716 37.3369
27.847405817586786 37.3869
27.870344504116094 37.515
27.893463551932008 37.5848
27.916404527281053 37.7441
27.93934664422563 37.8177
27.962289903855886 37.915
27.98541356491974 38.1578
28.00835912214229 38.1713
28.03130582533231 38.5024
28.054253675581805 38.594
28.077381967556104 38.6597
28.100332124185126 38.5227
28.123283431160893 38.4693
28.146235889577238 38.2377
28.169368830154156 38.1357
28.192323603752033 37.9905
28.215279532083304 37.7205
28.238415973016764 37.4433
28.261374223145094 37.3199
28.284333631303806 37.0845
28.307294198589954 37.0601
28.330435319167677 36.7034
28.353398217078915 36.3939
28.376362277420153 36.2751
28.39932750129032 36.0776
28.422473319286713 35.8477
28.44544088262495 35.9582
28.468409612800283 35.8097
28.491379510913497 35.641
28.51453004413313 35.4856
28.53750229057244 35.5366
28.56047570826344 35.3857
28.583450298308804 35.408
28.606605564586562 35.2349
28.629582511831156 35.3118
28.65256063474956 35.2193
28.675539934446338 35.2639
28.698699951647605 35.1369
28.72168161743193 34.9687
28.74466446331978 35.0935
28.767648490417624 35.0007
28.790813276438353 34.964
28.813799678527303 34.9804
28.836787265157085 34.9576
28.859955641890075 35.083
28.882945610203045 35.0664
28.905936766392035 34.9422
28.928929111566863 34.8879
28.952102288520145 34.7981
28.975097024308607 34.6385
28.998092952423807 34.5036
29.021090073977508 34.5546
29.04426806913204 34.4547
29.067267590245258 34.3332
29.090268308143695 34.2589
29.11327022394099 34.2512
29.13645305530891 33.9969
29.159457379627167 33.9167
29.18246290519685 33.7673
29.20546963313352 33.8692
29.22865731875826 33.9004
29.25166646419296 33.9419
29.27467681535305 33.7653
29.29768837335608 33.9681
29.320880931312562 33.8123
29.34389491580634 33.8283
29.366910110507334 33.7521
29.38992651653503 33.8258
29.41312396492981 33.8776
29.436142806456754 33.8675
29.45916286268059 33.5735
29.48236399319994 33.6102
29.50538649169417 33.3697
29.528410208259935 33.2956
29.55143514402014 33.1243
29.574641196749695 33.0215
29.597668583816574 32.9172
29.6206971934585 32.7083
29.64372702680042 32.7377
29.666938019934474 32.6798
29.689970313635285 32.5791
29.713003834422636 32.5219
29.73603858342347 32.6051
29.759254535188578 32.4988
29.78229175361658 32.414
29.80533020365064 32.4503
29.82836988641968 32.3712
29.85159081507472 32.3345
29.874632976355343 32.326
29.89767637376955 32.3654
29.920721008448314 32.1692
29.9439469322847 32.1454
29.96699405457564 32.1744
29.9900424175358 32.1242
30.013092022298157 32.105
30.03632295963995 32.0675
30.059375061131373 32.1274
30.08242840783577 32.1381
30.105483000888153 32.0931
30.128718970092244 31.9679
30.151776069006917 31.9654
30.17483441768648 32.0024
30.198074175317235 31.9962
30.221135036724256 32.0144
30.24419715131772 31.982
30.267260520236203 31.8313
30.290505341942243 31.9655
30.313571232750228 31.9963
30.336638381310948 31.86
30.35970678876503 31.820999999999998
30.38295669299435 31.7167
30.40602763151657 31.6944
30.429099832366074 31.7104
30.452173296685572 31.6047
30.47542830191959 31.5859
30.498504306502497 31.6164
30.521581577995562 31.7514
30.544660117543582 31.766
30.56792024229725 31.7306
30.59100133132069 31.5794
30.614083691845494 31.7189
30.637167325018545 31.7515
30.660432587840603 31.9306
30.683518779717886 31.8544
30.70660624769615 31.9167
30.729694992924372 31.8086
30.75296541239743 31.7578
30.77605672557558 31.6685
30.799149319462742 31.5721
30.8224236211637 31.4894
30.845518789950724 31.4903
30.868615242910597 31.4135
30.891712981195973 31.3158
30.91499247215866 31.2643
30.938092794619365 31.1265
30.96119440587579 31.1237
30.984297307082752 31.0171
31.00758200598383 30.8704
31.030687500658694 30.7061
31.053794288760695 30.6931
31.076902371446767 30.6511
31.100192296997445 30.7817
31.12330298246119 30.6573
31.14641496599209 30.6395
31.169528248749216 30.5858
31.19282341969534 30.4937
31.215939314557186 30.6326
31.239056512134788 30.6185
31.262175013589378 30.5849
31.28547544871168 30.4408
31.30859657161541 30.5084
31.331719001892175 30.4304
31.35484274070538 30.5187
31.378148458819545 30.5264
31.401274828443725 30.5091
31.424402510106933 30.5892
31.447712205419993 30.52
31.470842524931633 30.3384
31.493974159989783 30.395
31.51710711176168 30.4853
31.54042212308802 30.4203
31.563557722100917 30.3304
31.586694641341655 30.1955
31.609832881979628 30.1363
31.63315322823208 30.1115
31.656294125521327 30.0241
31.679436347728515 30.04
31.70257989602529 29.8739
31.725905596152327 29.7825
31.74905181052835 29.7268
31.772199354521323 29.809
31.79534822930507 29.7905
31.818679302290967 29.7991
31.84183085259981 29.7065
31.864983737233473 29.7368
31.88813795736804 29.7613
31.911474422233013 29.6708
31.934631327356435 29.7235
31.9577895715215 29.5849
31.980949155906522 29.5955
32.004291031706956 29.6353
32.027453310562606 29.46
32.05061693318573 29.3898
32.07396288236386 29.4177
32.09712920658542 29.3526
32.12029687812702 29.2267
32.14346589817093 29.136999999999997
32.166817291729984 29.1503
32.18998902288583 29.0484
32.21316210610336 29.0517
32.23633654256711 28.8741
32.259693399663725 28.8796
32.282870556771144 28.745
32.30604907069099 28.765
32.329228942610065 28.6752
32.35259128243769 28.5622
32.375773884550505 28.5372
32.398957848235646 28.5522
32.422143174682176 28.5301
32.445511016471215 28.4708
32.468699082679954 28.3954
32.49188851523011 28.368000000000002
32.51507931531304 28.2489
32.538452678331 28.2641
32.56164622776311 28.1853
32.58484114831493 28.0808
32.60803744118015 28.147
32.631416344731896 28.0277
32.654615396551876 28.1322
32.67781582427913 28.0949
32.701198898634416 27.9639
32.72440209253756 27.8692
32.747606665947124 27.8891
32.77081262006088 27.8096
32.79420126883317 27.8263
32.81740999876112 27.8016
32.840620112999424 27.7003
32.86383161274818 27.6937
32.88722585534586 27.636999999999997
32.91044014056596 27.6618
32.933655814909734 27.5452
32.95687287957963 27.6759
32.98027273544904 27.5131
33.00349259526636 27.4758
33.026713849030116 27.5366
33.04993649794511 27.4344
33.073341986570746 27.3726
33.09656744032826 27.500999999999998
33.11979429286444 27.4918
33.14302254538647 27.4125
33.166433686291185 27.3759
33.18966475336992 27.4248
33.212897224069096 27.211
33.23613109959831 27.1628
33.259547912343415 27.2662
33.2827846121627 27.2335
33.306022720453775 27.1628
33.32926223842861 26.997
33.352684742614166 26.9881
33.37592709463173 27.0581
33.399170859982064 27.0655
33.422597648419426 26.8702
33.44584425514446 26.756
33.46909227885668 26.6943
33.4923417207723 26.5902
33.51577423505344 26.6644
33.539026528130385 26.5625
33.56228024307245 26.5341
33.585535381098246 26.5042
33.60897364093058 26.3694
33.63223163992385 26.4308
33.6554910656699 26.3224
33.678751919389796 26.3098
33.702195944520106 26.2191
33.72545966903325 26.2252
33.74872482519663 26.1106
33.771991414233746 26.1646
33.79544122444841 26.1808
33.81871069412428 26.0616
33.84198160035767 26.0678
33.86525394437455 26.0923
33.88870955949969 25.9803
33.911984794020626 26.016
33.93526147001624 25.9413
33.958539588715006 25.8876
33.98200102861669 25.8782
34.0052820477047 25.7278
34.02856451319451 25.8087
34.05203033759056 25.6557
34.07531571090147 25.6888
34.09860253431845 25.5842
34.121890809074316 25.5934
34.145362493118924 25.6015
34.16865368561615 25.445
34.191946333164054 25.5086
34.21524043699793 25.5302
34.23871800066799 25.4671
34.26201503218366 25.4188
34.28531352370466 25.2738
34.30861347646881 25.2229
34.33209693978188 25.2263
34.3553998301885 25.2711
34.378704185565205 25.1343
34.402010007152356 25.0609
34.42549939016683 25.1305
34.44880815937748 24.974
34.472118398533134 24.9625
34.49543010887669 24.9516
34.51892543169198 24.819000000000003
34.54224009966052 24.8318
34.56555624255917 24.8493
34.58887386163339 24.7521
34.61237514439016 24.6593
34.6356957311114 24.6311
34.65901779775809 24.6627
34.68252356662995 24.5852
34.705848608458616 24.578000000000003
34.72917513396849 24.4538
34.75250314440949 24.5144
34.77601490857862 24.5124
34.799345904259795 24.4008
34.82267838863559 24.357
34.846012362958525 24.3343
34.869530142679984 24.3001
34.89286711232212 24.2822
34.91620557568269 24.3278
34.93954553401677 24.2644
34.9630693495876 24.2175
34.986412313340814 24.1914
35.00975677584668 24.2471
35.033102738362956 24.111
35.05663261012228 24.0873
35.0799815881786 24.0583
35.10333207003229 23.9073
35.12668405694369 23.9988
35.150220005273056 23.8893
35.17357501786656 23.994
35.19693153931268 23.8168
35.220289570874385 23.8946
35.24383161619786 23.8726
35.267192683604904 23.8153
35.290555264930376 23.8104
35.314101899412165 23.8438
35.33746752422433 23.8372
35.36083466676374 23.79
35.38420332829803 23.6705
35.407756095629054 23.7771
35.43112781085063 23.7048
35.45450104888391 23.5822
35.477875810999194 23.6484
35.50143473172161 23.5643
35.52481255774625 23.7139
35.54819191167777 23.5202
35.57157279478914 23.4414
35.595137889488406 23.4394
35.61852184675279 23.4555
35.641907337029984 23.4013
35.665294361595684 23.3336
35.68886565090076 23.3164
35.7122557598848 23.3138
35.73564740699838 23.2635
35.759040593519934 23.0824
35.78261809810353 23.1015
35.80601437933051 23.0001
35.829412203814705 23.0343
35.85281157283719 22.8677
35.876395313415884 22.9582
35.8997977874528 22.9663
35.92320180988546 22.8777
35.946790244133936 22.8195
35.97019737933222 22.8219
35.993606066789866 22.7932
36.01701630779276 22.744
36.04061101440684 22.7501
36.06402437852291 22.7189
36.08743930005611 22.6211
36.1108557802951 22.5555
36.13445678011326 22.6576
36.15787639383515 22.5132
36.18129757014299 22.5886
36.20472031032821 22.5047
36.22832762423364 22.4539
36.25175350829375 22.4846
36.275180960119776 22.366999999999997
36.298609981005924 22.3627
36.32222362992669 22.3758
36.34565580510207 22.3047
36.36908955323448 22.2652
36.39252487562093 22.1623
36.416144880530226 22.1381
36.43958336764275 22.1011
36.463023432914625 22.1261
36.486465077645676 22.1074
36.51009145956204 22.2039
36.53353627947859 22.1926
36.55698268276811 22.1681
36.58043067073321 22.0767
36.60406345072071 21.8938
36.62751462435344 21.8469
36.65096738658405 21.8626
36.67460498210655 21.8889
36.69806093788647 21.8569
36.72151848619297 21.7219
36.744977628333636 21.7318
36.76862165890998 21.6586
36.79208400512205 21.7131
36.81554794910557 21.65
36.83901349217101 21.6258
36.862663978991606 21.5972
36.88613273667352 21.5392
36.90960309738324 21.5501
36.933075062434064 21.4766
36.95673202673572 21.4562
36.98020721697122 21.3914
37.003684015502365 21.3487
37.027162423645365 21.3402
37.050825886711465 21.1876
37.07430753063053 21.1837
37.09779078812467 21.2815
37.121275660513014 21.2554
37.144945643673694 21.1258
37.16843376245278 21.0882
37.19192350009803 21.0625
37.215414857931435 21.0423
37.239091382563885 21.0401
37.262585997426164 20.9732
37.28608223645736 20.9585
37.309763684451696 20.9407
37.33326318851098 20.8537
37.356764320726555 20.9011
37.380267082425526 20.8803
37.40395510942588 20.7693
37.42746114683234 20.7324
37.45096881771841 20.7707
37.474478123414166 20.7358
37.49817275092816 20.6826
37.52168534303452 20.6716
37.54519957395567 20.6201
37.568715445024665 20.5477
37.592416694607714 20.551
37.61593586281424 20.5353
37.63945667518264 20.5601
37.66297913304891 20.4231
37.68668702630454 20.4482
37.710212792059274 20.3642
37.733740207334854 20.3997
37.757269273470364 20.3329
37.780983832050374 20.2461
37.80451621684926 20.2522
37.82805025654007 20.2831
37.851585952464795 20.1843
37.8753071980695 20.0839
37.89884622345676 20.0679
37.92238690911902 20.0268
37.94611318753442 19.941
37.969657210779765 19.9782
37.99320289834801 20.0286
38.016750251586465 19.9341
38.04048325513017 19.8249
38.06403395679343 19.8596
38.087586328183946 19.8483
38.11114037065203 19.8669
38.13488012115898 19.8578
38.1584375229181 19.76
38.181996599821 19.7209
38.205557353221124 19.7341
38.229303872575656 19.7106
38.2528679961576 19.6643
38.27643380031219 19.6158
38.30000128639589 19.5783
38.32375459653193 19.6313
38.34732546371299 19.5597
38.37089801690786 19.4465
38.39447225747609 19.4175
38.418232380377425 19.4074
38.441810012983396 19.4429
38.46538933705673 19.3857
38.488970353960084 19.379
38.51273731166058 19.2979
38.536321731567014 19.2591
38.55990784840681 19.2099
38.58367995004091 19.1553
38.60726947812959 19.1305
38.63086070726198 19.2333
38.654453638806274 19.1742
38.678232613930824 19.0925
38.70182896773327 19.0346
38.72542702806741 18.9547
38.7490267963045 19.0421
38.77281266709232 18.9021
38.79641586862214 18.9186
38.8200207821842 18.7904
38.843627409152944 18.8675
38.86742019782782 18.9086
38.891030269149255 18.7959
38.914642058016156 18.7478
38.938255565806124 18.7438
38.96205529464307 18.7543
38.98567225787121 18.7031
39.00929094417078 18.7107
39.03291135492255 18.6085
39.05671804624804 18.5912
39.080341923549106 18.522000000000002
39.103967529460334 18.5431
39.127594865365744 18.4666
39.15140854155791 18.5063
39.17503935514948 18.4906
39.19867190290282 18.4212
39.22249083587951 18.423
39.24612686969409 18.4601
39.269764641845306 18.3612
39.293404153722804 18.2993
39.317230110864074 18.26
39.34087311998506 18.2457
39.36451787301696 18.2287
39.388164371352595 18.1456
39.41199737518003 18.1185
39.43564738196752 18.1106
39.45929913825317 18.0952
39.48295264543308 18.133
39.506792718520884 18.1216
39.530449745387216 18.0055
39.55410852735203 18.003
39.57776906581474 18.0062
39.60161623079 18.002
39.625280300200025 17.9758
39.64894613032202 17.8712
39.67261372255866 17.8859
39.6964680021016 17.9083
39.72013913657293 17.8454
39.74381203738292 17.8096
39.76748670593756 17.7915
39.79134812278169 17.7294
39.81502634488497 17.7389
39.83870633896685 17.7231
39.862388106436654 17.6003
39.88625668336918 17.6688
39.90994201572829 17.6444
39.933629125719285 17.5689
39.957503091207826 17.5272
39.9811937746168 17.5245
40.00488623990914 17.439
40.02858048850006 17.4653
40.05246165409549 17.3654
40.076159487492085 17.3384
40.099859108448875 17.3411
40.123560518384345 17.3055
40.1474489070226 17.3501
40.171153913178564 17.2661
40.194860712584955 17.177
40.2185693066637 17.2377
40.242464941335314 17.1702
40.26617714307655 17.1746
40.289891143772046 17.1366
40.3136069448471 17.1549
40.33750984859743 17.1033
40.3612292688043 17.0572
40.3849504936829 17.0159
40.40867352466194 17.0452
40.43258372059144 16.9726
40.45631038219906 16.977
40.48003885420956 16.9318
40.503769138055105 16.9564
40.52768664931955 16.9334
40.55142057531802 16.898
40.57515631746428 16.8436
40.599079334038514 16.820999999999998
40.62281872700477 16.707
40.64655994043941 16.7811
40.67030297578061 16.6735
40.69423334835778 16.6794
40.71798004609188 16.7039
40.74172857006355 16.5806
40.76547892171441 16.6008
40.7894166736039 16.6372
40.813170699248566 16.5289
40.83692655691388 16.5201
40.86068424804498 16.5698
40.884629402612525 16.5192
40.908390779366385 16.4396
40.932153993938 16.410999999999998
40.95591904777605 16.3931
40.979871628443995 16.4277
41.003640379561936 16.407
41.02741097430883 16.3474
41.05118341413683 16.3652
41.075143444384416 16.308
41.098919593177826 16.2721
41.1226975914255 16.225
41.14647744058318 16.2277
41.170444943946755 16.19
41.19422851378379 16.1725
41.218013938914645 16.0963
41.24198706625173 16.0519
41.26577622087193 16.0301
41.289567235177785 16.0074
41.31336011063129 15.9791
41.337340752422875 15.9767
41.361137369129835 15.9544
41.38493585138705 15.9502
41.40873620066004 15.9002
41.43272438060107 15.8453
41.45652848292052 15.8282
41.48033445666918 15.7595
41.50414230331616 15.708
41.528138045159764 15.7842
41.551949656675205 15.7063
41.575763145513235 15.706
41.59957851314666 15.6877
41.62358184070442 15.6551
41.64740098505737 15.6125
41.6712220126409 15.5796
41.69504492493139 15.5839
41.71905586207357 15.5162
41.74288256296395 15.5061
41.766711153007456 15.5002
41.79054163368412 15.492
41.814560204340054 15.4563
41.838394485526365 15.4518
41.86223066180303 15.4109
41.88625497706819 15.3791
41.910094962812 15.3596
41.93393684811168 15.3251
41.95778063445365 15.2208
41.981812625263366 15.2631
42.00566023303407 15.2433
42.029509746323676 15.198
42.05336116662236 15.2173
42.077400857069705 15.1923
42.10125611078846 15.1829
42.12511327600405 15.0917
42.14897235421036 15.1317
42.173019768448455 15.1158
42.19688269209613 15.0596
42.22074753323349 15.0288
42.24461429335818 14.9809
42.268669455600495 14.9798
42.292540073217886 15.0095
42.31641261433284 14.9354
42.34028708044675 14.8603
42.36435001496739 14.8735
42.38822835065557 14.877
42.41210861586426 14.7969
42.4359908120986 14.7981
42.46006154323262 14.7561
42.48394762115317 14.7198
42.507835634632315 14.7324
42.531912233047436 14.7269
42.55580413732265 14.6512
42.579697981698 14.6189
42.60359376768525 14.6294
42.62767820545945 14.5806
42.65157789440821 14.5599
42.67547952952185 14.5496
42.699383112316 14.5877
42.72347541395347 14.4742
42.74738291190531 14.4354
42.771292362102166 14.4566
42.795203766063516 14.3961
42.819303956130405 14.3482
42.843219287476536 14.3922
42.86713657716324 14.3457
42.89105582671383 14.2893
42.91516392983864 14.2917
42.939087119032166 14.255
42.963012272677304 14.2472
42.98693939230129 14.2204
43.01105543317513 14.1734
43.034986504731386 14.1837
43.05891954686589 14.1595
43.08285456110972 14.1047
43.10697856448665 14.1274
43.130917542983475 14.0766
43.15485849820081 14.0923
43.17880143167367 14.0494
43.20293342237094 14.0542
43.226880332449 13.9913
43.25082922540554 13.9846
43.27496722682525 13.9242
43.29892010567796 13.8927
43.32287497204102 13.9014
43.34683182745632 13.7893
43.370977859791836 13.7998
43.39493871351105 13.7523
43.41890156092628 13.7687
43.44286640358341 13.7429
43.46702049182749 13.7254
43.49098934522816 13.6827
43.51496019852649 13.6874
43.5389330532723 13.6545
43.56309522248204 13.6543
43.58707210044314 13.6417
43.61105098451946 13.5599
43.63503187626491 13.5602
43.659202151562134 13.5799
43.68318707902681 13.5741
43.70717401884041 13.5508
43.731162972560874 13.4915
43.75534137913236 13.4587
43.779334381108384 13.4673
43.803329401683186 13.456
43.82732644241872 13.4141
43.8515130055166 13.3659
43.87551410707659 13.3229
43.89951723350145 13.3417
43.923709934595614 13.3191
43.94771713129917 13.2565
43.97172635758096 13.2308
43.99573761501002 13.2506
44.0199385169922 13.2081
44.04395385732619 13.1779
44.067971233533086 13.2067
44.09199064718605 13.116
44.11619977548961 13.0686
44.14022328470671 13.0602
44.16424883610785 13.1075
44.18827643127035 13.0583
44.21249381139513 13.0346
44.236525514814076 12.9998
44.26055926674478 13.0014
44.28459506876863 12.9671
44.3088207262813 12.9266
44.33286064928722 12.918
44.35690262714919 12.8968
44.38094666145278 12.8344
44.4051806219871 12.8455
44.42922879003185 12.8046
44.45327901929361 12.7528
44.477331311362136 12.7572
44.501573600619416 12.7252
44.525630039221795 12.7173
44.54968854541895 12.7475
44.573937102200176 12.7062
44.5979997645541 12.6699
44.622064499300315 12.6345
44.64613130803592 12.6255
44.67038823869318 12.6089
44.69445921643748 12.550999999999998
44.718532272981385 12.5161
44.742607409926194 12.527999999999999
44.76687274034801 12.4938
44.79095205918753 12.442
44.81503346325094 12.458
44.839116954143876 12.4474
44.86339071028742 12.4396
44.88747839599524 12.413
44.91156817336837 12.3558
44.93566004401666 12.3487
44.959942251908146 12.3124
44.984038330325966 12.3596
45.00813650686762 12.2583
45.03223678314731 12.2881
45.05652746888232 12.2621
45.08063196592069 12.2377
45.104738567558705 12.2269
45.128847275414856 12.2081
45.15314646515866 12.1255
45.17725940679741 12.0997
45.20137445952892 12.1443
45.22568004865265 12.1281
45.24979934496396 12.0786
45.27392075725247 12.0585
45.29804428714431 12.0319
45.322358426247604 12.0446
45.346486212804315 11.9713
45.370616121861914 11.9622
45.39474815505086 11.955
45.41907087049246 11.902000000000001
45.4432071734666 11.9024
45.46734560548283 11.8841
45.49148616817604 11.854000000000001
45.51581748638564 11.8945
45.5399623320197 11.8182
45.56410931325473 11.8228
45.58825843173002 11.7971
45.61259837920865 11.7905
45.636751793816 11.7396
45.66090735060093 11.7068
45.68506505120716 11.6864
45.7094136545275 11.687000000000001
45.73357566449271 11.6067
45.75773982322992 11.610999999999999
45.78190613238733 11.6219
45.806263418194064 11.5848
45.83043404997326 11.5486
45.85460683713677 11.5526
45.87897065658495 11.514000000000001
45.90314777634752 11.5215
45.92732705646868 11.5331
45.9515084986045 11.4871
45.97588104735473 11.4763
46.00006683541565 11.440999999999999
46.02425479047904 11.4313
46.04844491420549 11.3858
46.0728262191024 11.3776
46.09702070211635 11.3637
46.12121735879483 11.355
46.14541619080294 11.3352
46.169806278764455 11.27
46.194009483459034 11.2741
46.21821486849841 11.2518
46.24242243555223 11.2531
46.266821333570014 11.1766
46.29103328674601 11.1647
46.31524742696538 11.1747
46.33946375590237 11.1725
46.36387149104216 11.1462
46.38809221957392 11.0544
46.41231514186606 11.0645
46.436540259597464 11.0553
46.460956858999374 11.0746
46.48518638983522 11.0542
46.509418121166966 10.999
46.533652054678114 10.9391
46.55807754555709 10.9621
46.58231590571962 10.9684
46.60655647313217 10.8912
46.630988654873654 10.8848
46.655233659129024 10.8441
46.67948087571551 10.8835
46.70373030632484 10.8504
46.72817142736393 10.8292
46.752425308428684 10.8091
46.77668140861147 10.7845
46.80093972960865 10.7306
46.82538981736788 10.7005
46.849652602470904 10.7305
46.87391761349769 10.7172
46.8981848521493 10.6735
46.9226439341274 10.6638
46.946915650573224 10.6004
46.97118959976749 10.6312
46.99546578341598 10.6079
47.019933887188216 10.5954
47.04421456235744 10.5866
47.06849747711879 10.5417
47.09278263318286 10.4975
47.11725978640143 10.5024
47.14154944775105 10.4726
47.165841355555656 10.4787
47.1901355115306 10.4019
47.214621741924994 10.4675
47.23892041698887 10.4504
47.26322134538975 10.4083
47.28771440635075 10.3625
47.31201986422527 10.3536
47.33632758061436 10.3373
47.360637557241866 10.307
47.38513974410611 10.277000000000001
47.40945426407847 10.2682
47.43377104948137 10.2343
47.45809010204344 10.2013
47.48260144275502 10.2184
47.506925052572285 10.2109
47.53125093475548 10.1309
47.55557909103813 10.1564
47.58009961361992 10.1541
47.60443234110732 10.1338
47.62876734791564 10.0918
47.65310463578333 10.0724
47.6776343683373 10.0544
47.7019762413987 10.0304
47.72632040075572 9.97654
47.75066684815169 10.0146
47.77520581885936 10.0225
47.799556865477655 9.993689999999999
47.823910205386 9.94173
47.84826584033272 9.92018
47.87281407745551 9.87823
47.89717432569297 9.871410000000001
47.92153687423484 9.85675
47.94609208429692 9.85109
47.97045925671401 9.8251
47.99482873471275 9.7865
48.01920052005013 9.80753
48.04376504619224 9.80804
48.068141469543484 9.81097
48.09252020552573 9.78865
48.11690125590099 9.77548
48.1414751266064 9.72149
48.16586082917454 9.75584
48.19024885144316 9.673960000000001
48.2146391951793 9.66716
48.239222439012764 9.64412
48.26361744916137 9.63321
48.28801478610016 9.63947
48.31241445160131 9.61284
48.337007097209366 9.61317
48.36141144338331 9.594389999999999
48.38581812345755 9.54
48.41022713920929 9.55154
48.434829215320704 9.52029
48.45924292604658 9.53432
48.48365897780325 9.53834
48.50807737237308 9.46583
48.532688907799276 9.4446
48.55711201168574 9.4263
48.581537463754074 9.40685
48.60615611725119 9.40676
48.63058628942721 9.405339999999999
48.65501881516546 9.37055
48.6794536962573 9.38302
48.70408185970339 9.34035
48.72852147531801 9.28525
48.75296345168211 9.31655
48.77740779059232 9.27632
48.80204549302823 9.2915
48.82649458091802 9.25184
48.85094603676547 9.19815
48.87539986237231 9.18403
48.90004713292306 9.17277
48.92450572200832 9.182789999999999
48.94896668628025 9.14294
48.97343002754588 9.12657
48.99808689542115 9.17752
49.02255501470614 9.1267
49.04702551642794 9.07809
49.0714984023988 9.0536
49.096164896893235 9.06349
49.120642575466796 9.04143
49.145122643748394 9.04129
49.16960510355558 9.00912
49.19428125404938 8.98875
49.2187685210852 8.93967
49.243258185121555 8.963410000000001
49.26794160167084 8.90806
49.2924360839405 8.94968
49.31693296869764 8.92831
49.34143225776915 8.858989999999999
49.36612538195438 8.86717
49.39062950396021 8.823319999999999
49.41513603578346 8.85328
49.4396449792564 8.802
49.46434784069503 8.82348
49.488861631846454 8.77941
49.513377840166804 8.73884
49.537896467493745 8.726189999999999
49.56260909589029 8.68665
49.587132585683285 8.70428
49.611658500018365 8.69524
49.636186840738596 8.70473
49.66090926588511 8.65513
49.685442483902584 8.59609
49.70997813385706 8.589789999999999
49.734516217597076 8.57262
49.75924846937352 8.58145
49.7837914452858 8.57677
49.80833686055187 8.53578
49.83288471702571 8.52529
49.85762682540054 8.53682
49.882179588965734 8.481060000000001
49.9067347993235 8.48589
49.93129245833333 8.47376
49.95604445336378 8.44646
49.98060703442832 8.45651
50.005172069746266 8.45368
50.02993150438364 8.427539999999999
50.05450147301533 8.397039999999999
50.07907390151433 8.373280000000001
50.10364879174981 8.33049
50.12841816587289 8.346160000000001
50.1529980044635 8.37001
50.17758031042124 8.30947
50.20216508562089 8.29195
50.22694442953363 8.268839999999999
50.25153416817468 8.253630000000001
50.27612638170508 8.26896
50.300721072005196 8.20704
50.325510416102105 8.20871
50.350110084975064 8.22775
50.37471223628208 8.21959
50.39931687190919 8.178519999999999
50.424116246675766 8.18864
50.44872587605249 8.17172
50.47333799543065 8.18181
50.49795260670191 8.12888
50.52276204271512 8.09426
50.54738166295838 8.086210000000001
50.57200378079314 8.02909
50.596628398116835 8.04378
50.62144792604559 8.0616
50.646077567609396 8.007489999999999
50.670709714377715 7.996230000000001
50.69553683636198 7.97151
50.72017401885922 7.9709
50.7448137122895 7.97
50.76945591856022 7.93646
50.79429318636823 7.95631
50.818940443716784 7.92152
50.84359021965163 7.91413
50.868242516085964 7.91317
50.893089960641895 7.874619999999999
50.917747323549435 7.83458
50.94240721271973 7.849260000000001
50.96706963007175 7.80545
50.99192728239342 7.76691
51.01659478166073 7.787960000000001
51.04126481489051 7.79294
51.06593738400761 7.7448
51.090805275207074 7.7259899999999995
51.11548294172845 7.73297
51.14016314993547 7.72324
51.164845901758845 7.69227
51.18972406304274 7.7027
51.21441192780656 7.66552
51.23910234200271 7.66287
51.2637953075678 7.64233
51.288683770237945 7.607010000000001
51.31338186432707 7.6040399999999995
51.33808251561888 7.57715
51.362978729967345 7.58268
51.387684521509755 7.59244
51.41239287610203 7.5499600000000004
51.437103795691165 7.49822
51.46201036644977 7.5107800000000005
51.486726441956634 7.4934199999999995
51.51144508832545 7.50006
51.536166307509156 7.454039999999999
51.56108326624387 7.398460000000001
51.58580965706056 7.41965
51.61053862657523 7.435169999999999
51.635270176746864 7.385610000000001
51.66019755512065 7.41785
51.68493429268881 7.37971
51.70967361681515 7.357880000000001
51.73441552946465 7.339230000000001
51.759353359237934 7.32492
51.7841004750961 7.3191
51.80885018539685 7.282939999999999
51.833602492111254 7.264869999999999
51.8585508051424 7.23268
51.883308330926425 7.25173
51.90806845906181 7.2582
51.932831191525715 7.17023
51.95779001977161 7.180280000000001
51.98255798721516 7.14047
52.00732856494335 7.16465
52.03229530577543 7.1571
52.057071130455945 7.162660000000001
52.081849571391054 7.13218
52.106630630568695 7.13815
52.13160794279417 7.10577
52.15639426492067 7.0933399999999995
52.18118321127822 7.09421
52.205974783860896 7.03943
52.23096269971011 7.0239199999999995
52.255759551287994 7.03907
52.280559035098186 7.03872
52.30536115314103 6.99078
52.33035970494467 6.99976
52.35516711807904 7.0063
52.37997717147198 6.9816899999999995
52.40478986713005 6.99685
52.42979908731974 6.947430000000001
52.454617094216 6.91522
52.47943774942214 6.87229
52.50426105495102 6.87103
52.529280976059844 6.870769999999999
52.554109609024096 6.85279
52.57894089837482 6.80664
52.60377484613117 6.82711
52.62880550079408 6.80065
52.65364479223379 6.816210000000001
52.67848674816189 6.8118
52.70352547971946 6.772660000000001
52.72837279155837 6.7262
52.753222773982785 6.72341
52.778075429022984 6.725
52.80312495150885 6.70657
52.827982978797436 6.67272
52.85284368481815 6.694710000000001
52.87770707160767 6.680560000000001
52.90276741793998 6.650119999999999
52.92763619336701 6.640610000000001
52.952507655698504 6.61337
52.977381806977576 6.610710000000001
53.00245301017842 6.61215
53.02733256653592 6.59253
53.052214817996074 6.59053
53.077099766608484 6.54557
53.102181859804446 6.53339
53.127072229988265 6.54652
53.15196530349892 6.49305
53.17686108239249 6.50408
53.20195409881522 6.46643
53.22685531582556 6.47966
53.25175924441303 6.47567
53.27666588664027 6.415690000000001
53.30176985962693 6.40795
53.3266819565689 6.452319999999999
53.35159677336455 6.39175
53.376514312083096 6.40278
53.40162927507703 6.4732400000000005
53.42655228516116 6.39963
53.45147802340193 6.31428
53.47660125628886 6.305680000000001
53.50153247842639 6.33806
53.52646643496923 6.28678
53.55140312799818 6.28109
53.576537409691696 6.29983
53.60147960336152 6.32066
53.626424539786164 6.27803
53.65137222105307 6.2537
53.67651758529126 6.25906
53.70147078399681 6.20336
53.72642673383343 6.16391
53.75138543689533 6.18018
53.776541917524526 6.180680000000001
53.801506154876755 6.15418
53.826473151763246 6.13955
53.851442910284916 6.12154
53.87661054126026 6.125380000000001
53.9015858509782 6.119219999999999
53.92656392866066 6.113980000000001
53.95154477641532 6.09811
53.976723591801296 6.0492300000000006
54.00171000771266 6.06222
54.02669920004598 6.03635
54.051691170915745 6.04166
54.076881204886796 6.0047
54.101878760928514 6.01804
54.12687910187696 6.0111
54.152077577768296 5.97463
54.1770835166946 5.92825
54.20209224691339 5.91465
54.22710377055121 5.93052
54.25231352511594 5.91392
54.27733066384342 5.8524
54.30235060239643 5.8878900000000005
54.32737334290836 5.87582
54.35259441062629 5.82942
54.377622783395324 5.85401
54.40265396455061 5.830080000000001
54.42768795623251 5.79447
54.45292037169559 5.79989
54.477960012857906 5.76386
54.50300247099511 5.77449
54.52804774825457 5.74514
54.55329154616743 5.69926
54.57834249018678 5.74825
54.6033962597977 5.665830000000001
54.6284528571545 5.63756
54.653708072335164 5.60217
54.67877035378786 5.64219
54.70383546947698 5.54419
54.72890342156389 5.60452
54.7541700889442 5.55665
54.77924374251975 5.52824
54.8043202390049 5.52778
54.82959552413022 5.47679
54.8546777351945 5.47534
54.87976279569621 5.44037
54.90485070780914 5.44152
54.930137506558005 5.43786
54.95523115074295 5.42061
54.98032765308844 5.37528
55.005427015775496 5.37925
55.03072536339621 5.384869999999999
55.05583047570572 5.31249
55.080938454927676 5.30318
55.10604930325027 5.28737
55.131359235107396 5.31591
55.15647585066083 5.22665
55.181595341907496 5.1961
55.20671771104285 5.21429
55.232039262617704 5.17201
55.25716741665048 5.15871
55.28229845518636 5.14928
55.30743238042802 5.09465
55.33276558731939 5.05532
55.357905315183636 5.05659
55.383047936390035 5.02837
55.40819345314859 5.00943
55.433538351073295 5.00462
55.458689688238415 5.03527
55.483843927614096 4.91338
55.509197623043605 4.9126
55.53435769621134 4.91847
55.55952067826466 4.8394699999999995
55.5846865714265 4.844069999999999
55.61005202069737 4.88446
55.63522376553902 4.8449800000000005
55.66039842818645 4.81444
55.68557601087004 4.76941
55.7109532500271 4.75066
55.73613670233794 4.73021
