TT I
1.2716486653135266 36.5069
1.2939594142134223 37.788000000000004
1.3162702121660406 36.5304
1.3385810600174564 35.6376
1.3608919586137629 35.2147
1.383202908801069 34.2081
1.405513911425503 33.315
1.4278249673332093 33.7582
1.4501343378461518 32.0979
1.4724455028545926 31.5688
1.4947567236847858 31.6931
1.517068001182951 31.2122
1.5393793361953272 30.2005
1.5616907295681737 29.543000000000003
1.5840021821477681 29.1404
1.60631369478041 29.4257
1.6286252683124185 28.4681
1.6509369035901333 27.9704
1.6732468618895553 27.9135
1.695558623192809 26.7004
1.7178704487808514 27.8393
1.7401823395001077 27.6613
1.7625012545597203 27.0315
1.7848028405262486 26.8439
1.8071218901122095 26.414
1.8294236121921872 26.6901
1.8517427996910911 25.6918
1.8740620574440425 25.9547
1.8963639900671978 25.7674
1.9186833908139995 25.7881
1.9409854680117449 25.769000000000002
1.9633050151394713 25.5831
1.9856246367570705 26.0711
2.0079269371922672 26.14
2.03024671027244 25.7156
2.0525491637446027 25.3512
2.074869091674931 25.6805
2.097171701569106 26.1738
2.1194917877373847 26.1274
2.141811954326636 25.714000000000002
2.164114805233074 26.0367
2.186435135143035 25.9399
2.208738150935709 26.9536
2.231058647554722 27.0449
2.2533792288321184 26.3914
2.275682498336085 27.7579
2.298003251406138 26.7046
2.3203066942619714 26.9178
2.3426276225136022 26.6931
2.3649486396617507 26.1218
2.387252348930071 26.0929
2.4095735463442893 25.9564
2.4318774374315884 25.7823
2.4541988185014043 26.0408
2.476502894794693 26.3868
2.498824462909887 26.9941
2.521146125856138 27.1599
2.5434504863470337 27.0193
2.5657723414244717 27.2923
2.588076895590662 27.0743
2.610398946189713 27.959
2.6327210958598384 28.4016
2.6550259469304716 29.2787
2.6773482972090137 29.3196
2.6996533504259 29.9535
2.7219759047039602 31.1438
2.744298562293959 31.7841
2.7666039251246595 33.1519
2.7889267918020164 34.0733
2.8112323652516555 35.2297
2.833555444408179 36.6207
2.8558786311183852 38.3075
2.8781845268938557 40.6883
2.9005079311721484 42.1221
2.9228140460410397 44.1913
2.9451376712799635 47.507
2.967444008632326 49.6862
2.9897678582247247 53.2504
3.0120918213106695 57.3671
3.0343984987899373 61.506
3.0567226913198637 66.1398
3.079029599759726 71.5343
3.101354025127254 76.7295
3.123678568232338 81.2265
3.145985829517914 84.0966
3.16831061055229 86.1614
3.1906181112775593 85.7672
3.212943133635653 84.6357
3.2352682779763207 81.2733
3.2575761442691227 75.9123
3.2799015350264273 70.6853
3.302209649240067 64.6619
3.3245352898092655 59.4534
3.3468436553365257 54.957
3.369169549113219 51.0141
3.3914955708171384 47.99100000000001
3.413804319727358 45.2255
3.4361305997334863 43.4632
3.4584396084414553 41.6703
3.4807661501462652 40.6731
3.503092824025881 40.2484
3.5254022288463154 39.846
3.5477291695206588 39.5731
3.5700388426251948 39.3296
3.5923660534916446 39.4811
3.6146934007816114 40.0721
3.637003482731501 40.7762
3.6593311053109985 40.693000000000005
3.681641464033634 41.2067
3.7039693653009733 41.7067
3.726297407241705 41.887
3.7486081875460804 41.7316
3.7709365132734978 41.9983
3.793247578841633 41.3558
3.8155761917550093 41.5811
3.8378875459837216 41.2616
3.8602164494827234 41.6125
3.882545499606844 42.3877
3.9048572932539183 42.6645
3.9271866390645718 42.964
3.9494987298666713 43.7937
3.971828374764527 44.4639
3.9941581705403255 45.0224
4.016470713506008 46.0744
4.038800813471445 48.191
4.061113662089144 49.1439
4.0834440696459176 51.2069
4.105774632334751 52.4581
4.128087945865126 54.3906
4.150418821249301 56.8791
4.172732448931298 60.0619
4.195063640413578 62.6879
4.2173775856475215 66.3169
4.239709096631102 69.9421
4.262040768704612 72.7799
4.284355196706267 75.9149
4.306687193387355 78.0565
4.329001947444346 80.2037
4.35133427213731 80.3249
4.373666762177566 78.6508
4.395982011761091 76.5581
4.418314834921175 74.4454
4.44063041906622 72.5416
4.4629635787515625 70.3304
4.4852969080429785 68.933
4.5076130004776225 66.8332
4.529946671403969 64.637
4.552263106909177 62.4124
4.574597122877047 61.0678
4.596931312711224 59.3316
4.619248269273446 57.7017
4.6415828092605835 56.1282
4.663900117405352 55.5432
4.686235010953232 55.1481
4.708552674085913 55.0802
4.730887924602802 55.4024
4.753223354952695 55.8177
4.775541557023902 56.5099
4.797877349456786 57.001000000000005
4.820195915032126 59.2753
4.842532072957498 60.4003
4.864868414979744 62.0135
4.88718753227192 64.398
4.909524244902505 67.0931
4.931843734218147 70.0804
4.954180820867835 73.3939
4.976518095879839 78.1075
4.998838149695359 83.5314
5.021175803844231 91.7791
5.043496238205739 103.12
5.065834274903528 115.08
5.088172504230693 125.82
5.1104935158799565 136.14700000000002
5.132832132875765 152.275
5.155153533596801 172.96900000000002
5.1774925416746225 204.023
5.199814334878411 254.72799999999998
5.2221537374521505 345.275
5.244493338631803 493.129
5.266815727034316 704.44
5.289155727832427 1014.72
5.311478517248165 1625.97
5.333818921080011 2667.84
5.356159527788849 3996.03
5.3784829252032536 4059.47
5.400823940070432 2868.5
5.423147747031976 1475.26
5.445489173474152 716.1089999999999
5.467830807066149 421.555
5.490155234831516 299.156
5.512497285125229 229.8
5.534822130975162 190.112
5.557164601388673 163.469
5.579489868738879 142.534
5.601832762690846 129.178
5.6241758697774475 119.48899999999999
5.646501775867269 113.391
5.668845311622074 108.958
5.691171647754637 105.645
5.713515615597765 102.744
5.735859800852677 100.259
5.758186788542988 97.3075
5.780531411018185 95.7721
5.802858837297399 94.3998
5.825203900414495 94.3893
5.8475491852224 96.1554
5.869877275883075 99.2579
5.892223006467101 102.994
5.914551544266608 108.038
5.936897724049891 114.78
5.959244129804903 123.852
5.981573344815301 138.02100000000002
6.0039202049061 159.584
6.026249875609095 194.264
6.04859719346037 242.77700000000002
6.070927323278297 311.577
6.093275102315365 409.157
6.115623113320588 518.4159999999999
6.137953938319995 698.9
6.160302415650845 1007.07
6.182633708324452 1251.83
6.2049826554078376 1217.03
6.227331838745022 888.8589999999999
6.249663839443684 560.205
6.27201349767565 361.25
6.294345974611799 252.61599999999999
6.316696111167083 183.148
6.339046488263839 140.549
6.361379686074702 114.837
6.383730546639482 98.7042
6.406064229255215 86.8895
6.428415576718203 79.528
6.450749747566656 73.5108
6.47310158535871 68.6059
6.495453669698332 64.9626
6.517788579421056 62.0965
6.540141159237969 59.4405
6.562476565766648 57.9945
6.5848296444934045 56.5687
6.607182974060425 55.4151
6.6295191323281015 54.7982
6.651872965955752 54.3333
6.6742096296068985 53.615
6.6965639707294615 53.6442
6.71891856698715 53.5226
6.741255995248479 52.9938
6.763611104154477 53.0963
6.785949046381137 52.753
6.808304671371482 52.391000000000005
6.8306605557940046 51.6811
6.852999275508618 51.1712
6.875355681171544 50.9838
6.897694923437771 50.5394
6.92005185377892 49.9772
6.9423916220322655 49.3334
6.964749080490181 48.7173
6.987106804399774 48.4289
7.009447368180821 48.3783
7.031805625367033 48.5058
7.054146723727803 48.6625
7.076505517631004 48.8691
7.098864581288365 49.516000000000005
7.121206488070854 50.0293
7.143566093607822 50.5927
7.165908543567245 51.5685
7.188268694426048 52.9928
7.2106291193438095 54.1804
7.232972390625943 55.7895
7.255333366030969 57.248000000000005
7.277677189091925 59.7316
7.300038718428332 63.7184
7.322400526130865 66.6787
7.344745183422596 70.0033
7.367107550224791 71.6708
7.389452767901992 72.1062
7.411815697249891 70.6542
7.434161478756298 67.6277
7.456524974096713 65.0814
7.478888753837185 63.4826
7.501235387657368 63.1055
7.523599738562711 64.0221
7.545946944825532 71.2985
7.568311870344528 92.9945
7.5906770845765665 134.77700000000002
7.613025156078678 168.16299999999998
7.635390950099687 147.231
7.657739602662809 99.6369
7.680105979923558 65.8065
7.702472650212829 52.1443
7.724822180948224 46.6926
7.747189439655568 44.4073
7.769539560075357 42.7346
7.791907410653562 41.8288
7.81425812420825 40.578
7.836626570110925 40.3113
7.858995315087906 40.0092
7.881346924933401 39.6511
7.903716270417482 39.7136
7.926068482028405 39.5391
7.948438431475253 39.5776
7.9708086843180235 39.6688
7.993161805171116 39.8513
8.015532667162402 39.7544
8.037886398416653 40.1377
8.060257873014221 40.2286
8.082629655331942 40.6208
8.104984308787587 40.8631
8.127356708900503 41.2287
8.149711981398308 41.7773
8.172085002766314 42.5424
8.194458336181368 42.8664
8.216814543847752 43.8213
8.23918850371002 44.4927
8.26154533906492 45.2696
8.283919928836452 46.2805
8.306277395339652 47.2023
8.328652618483376 48.0115
8.351028159736202 49.3593
8.373386579575245 51.4301
8.395762759396959 52.9882
8.418121819038275 55.4468
8.440498640894003 58.3921
8.462875785192262 61.9432
8.485235811156207 66.6154
8.507613602688501 72.7151
8.529974277114228 82.09899999999999
8.552352719347912 93.6463
8.574731488360351 113.48100000000001
8.59709314210385 142.957
8.619472567021075 173.343
8.64183487789147 198.97099999999998
8.664214962183097 236.65200000000002
8.686577933647762 312.038
8.708958680784317 452.296
8.731339760774953 638.496
8.753703729764451 796.1569999999999
8.77608547780821 750.0419999999999
8.798450116065078 558.924
8.820832535634787 362.176
8.843215292401656 231.021
8.865580941199045 160.952
8.887964374703538 124.8
8.910330701447199 103.76
8.932714815164482 90.2559
8.955099270424924 81.1318
8.977466620733543 75.5299
8.999851761421976 71.3455
9.022219798361645 67.4822
9.04460562795561 65.0209
9.066991803441677 63.0461
9.089360876979615 61.5043
9.111747746589993 60.2968
9.13411751544971 59.2021
9.156505082664324 59.0813
9.178875550323522 59.5452
9.20126381862328 60.8888
9.223652438908596 65.0914
9.246023961427412 74.9017
9.26841328802173 104.035
9.290785518039224 165.114
9.313175554425882 242.592
9.335565947154315 262.345
9.357939245086508 198.968
9.380330352834827 123.36
9.40270436697103 79.4226
9.425096193225055 62.1957
9.447488380180165 56.8468
9.469863475295412 53.708999999999996
9.492256385987508 51.9014
9.514632206018318 51.0703
9.537025843935714 50.1391
9.559402392368193 49.812
9.581796761000229 49.8599
9.604191496441521 49.446000000000005
9.626569144158516 49.5806
9.648964615551032 49.6191
9.671343000390081 50.437
9.693739211225699 50.707
9.716135793237463 51.2282
9.738515290448102 51.7547
9.760912617143402 52.538000000000004
9.783292860202891 52.9619
9.805690935076182 54.0185
9.828089385495742 54.7801
9.850470754023561 55.9047
9.872869957865444 57.1318
9.89525208097539 59.2824
9.917652041736662 61.6486
9.940052382417589 64.4214
9.962435644102392 68.0729
9.984836746950979 72.40100000000001
10.007220771957746 78.2946
10.029622640473708 88.1603
10.052007432299963 103.771
10.074410069984072 122.54
10.096813093716005 147.385
10.119199042482517 169.213
10.141602840636468 187.567
10.163989564971628 213.132
10.186394141051062 272.1
10.208799107559706 382.671
10.231187001965623 549.5219999999999
10.253592751657669 745.938
10.275981430388155 824.61
10.298387966769793 705.435
10.320794897965431 510.035
10.343184759907361 329.394
10.36559248305461 213.915
10.387983138083852 152.828
10.410391656691655 120.912
10.432800574501677 101.759
10.455192425893369 89.7787
10.47760214443012 84.2154
10.499994797678786 81.9138
10.522405320453982 82.5301
10.54479877906917 85.9127
10.567210109595656 88.8833
10.5896218454736 90.6162
10.612016518879773 94.3872
10.634429067781074 104.573
10.656824555333241 127.35700000000001
10.679237920773568 170.601
10.701651695961992 234.44299999999998
10.724048411481384 290.413
10.746463008485165 298.14799999999997
10.768860546937125 257.619
10.791275969274796 188.87599999999998
10.81369180576079 128.415
10.836090585366925 89.1066
10.858507252467449 68.0896
10.88090686379991 57.8737
10.903324365036394 52.8528
10.925724811614439 49.3935
10.948143150509463 47.7608
10.970561909719066 45.7454
10.992963615930844 44.8511
11.015383218085756 44.0645
11.037785768347074 42.9869
11.06020621697282 42.433
11.082627090322113 42.1457
11.105030913430326 41.9359
11.12745263854165 41.5813
11.149857314510728 40.8897
11.172279894912576 41.0674
11.194702904450653 40.5765
11.217108866490921 40.4093
11.239532736615194 40.6571
11.26193956033512 40.4233
11.284364294577085 40.4206
11.306789462371718 40.1954
11.329197585398376 39.7871
11.351623622610898 39.9945
11.37403261614354 39.6378
11.396459526308487 39.7727
11.418869393879497 39.3543
11.441297180532617 39.0699
11.463725406927658 38.6811
11.486136592353875 38.3552
11.508565700543707 38.2321
11.530977768845315 38.1284
11.553407762368774 37.7583
11.575838200059769 37.5312
11.598251599479612 37.5995
11.620682927815501 37.7932
11.64309721895548 37.6721
11.665529441478206 37.6116
11.687962112597958 37.4792
11.710377748130886 37.5468
11.732811318753434 37.3445
11.755227854859067 37.0891
11.777662328529495 37.2549
11.800079768750786 37.0112
11.822515149015453 37.1789
11.844950984084935 37.5653
11.867369787303163 37.7182
11.889806534289491 38.4758
11.912226250487029 39.4464
11.934663912939751 40.6562
11.9571020346363 43.7058
11.979523127133968 50.4578
12.001962169624331 64.9486
12.024384183972964 82.8807
12.046824150809913 96.1907
12.069264581333726 92.7029
12.091687985297767 74.8071
12.11412934550045 58.2328
12.136553680195208 49.3031
12.158995973632788 46.6569
12.181438735204349 46.1856
12.20386447284199 46.7892
12.226308172985636 47.9237
12.24873485024193 49.3152
12.271179492516982 51.9284
12.293607112949127 56.5106
12.316052700916226 63.5194
12.338498763250042 74.7801
12.360927805303868 86.8234
12.383374818673879 96.4721
12.405804812803074 98.163
12.428252780773262 88.9403
12.45070122756722 75.6669
12.473132656675375 63.8846
12.49558206341869 55.3833
12.518014453510101 49.8589
12.540464823770117 46.3646
12.562915677315177 43.9395
12.58534951575545 42.4676
12.607801338171472 41.0561
12.630236146511358 40.2493
12.652688941369085 39.894
12.675124723177234 39.595
12.697578494048786 39.6479
12.720032754458185 39.4065
12.742470003354093 39.7644
12.764925245138771 39.7037
12.787363476431278 39.7228
12.809819703166806 39.7147
12.83227642391173 39.5999
12.854716135692716 39.5968
12.877173846755147 39.7627
12.899614549869717 39.3186
12.9220732548287 39.4329
12.94453245827299 39.3243
12.966974655289818 39.359
12.989434858002571 39.4678
13.011878055298721 39.7377
13.034339260862497 39.9735
13.056800969391883 40.3974
13.079245674017244 41.3636
13.101708390774869 42.2184
13.12415410463411 44.0022
13.146617833206086 47.9517
13.169064559883248 53.2084
13.191529303857127 58.4198
13.213994557076367 61.7766
13.236442809902437 62.1066
13.258909083908291 61.8704
13.28135835851934 63.1971
13.30382565690295 66.0207
13.326293469022952 68.1849
13.348744283242008 70.6818
13.371213125129904 75.1604
13.39366497011003 83.3345
13.416134845360597 97.432
13.438605238843131 121.16799999999999
13.46105863690397 156.64700000000002
13.483530069144786 198.373
13.505984506951902 228.476
13.528456981549432 226.92
13.550929978879088 195.635
13.573385983253365 156.57
13.595860028340867 123.021
13.618317081455832 102.35799999999999
13.64079217790333 91.2372
13.663250283359057 84.8355
13.685726434770173 80.7361
13.708203115221277 79.5984
13.730662806148091 81.7686
13.75314054697177 88.7594
13.775601299246777 103.62100000000001
13.798080104050406 129.968
13.820559442405358 168.63299999999998
13.843021793671388 204.25400000000002
13.865502201420897 217.979
13.887965623051947 200.395
13.910447103807167 158.31
13.932929122629764 116.67399999999999
13.955394156785959 88.7116
13.977877254034569 70.3934
14.000343367582113 59.8419
14.022827546871707 53.7169
14.045294743423524 49.4587
14.06778000837062 46.8206
14.090265817715476 45.0353
14.112734645763819 44.2965
14.13522154619454 44.1149
14.157691466286913 45.3829
14.180179461423874 48.9319
14.202668005486178 57.8411
14.22513957064374 71.1323
14.247629214846473 85.0898
14.270101881097517 91.2163
14.29259262906496 82.9627
14.315083930490205 67.1213
14.337558255389705 52.8655
14.360050666019726 44.4947
14.382526101071944 40.8412
14.405019624534942 39.0393
14.427513705993134 37.978
14.449990813291825 37.5634
14.47248601302899 37.0099
14.49496423954951 36.9096
14.517460561197822 36.6664
14.539939910570322 36.2902
14.562437357763558 36.0901
14.58493536931253 36.0887
14.607416409993311 35.969
14.62991555254159 36.15
14.652397725157423 36.2131
14.674898002342799 36.2434
14.697398848433282 36.1738
14.719882725991326 36.635
14.74238471217934 36.7486
14.764869730765593 37.1876
14.787372860692983 37.348
14.809876564079925 37.9246
14.83236330125751 38.3128
14.854868153850365 39.3491
14.877356041159485 40.4664
14.899862046604186 42.4599
14.922351087688757 44.6706
14.944858249632887 46.5113
14.967365991421232 48.0384
14.989856770231246 48.8463
15.012365673994204 50.0467
15.03485761569738 51.8668
15.05736768508665 55.1559
15.07987833888692 60.6876
15.102372032001655 69.9071
15.124883856909658 83.285
15.14737872204565 103.34100000000001
15.169891721717274 122.429
15.192405310371893 133.438
15.214901940621196 130.719
15.237416709527137 113.59299999999999
15.259914520936249 92.6796
15.282430473753607 75.2117
15.304947020131227 62.3639
15.327446610371178 53.6087
15.349964346154254 48.0627
15.372465126703139 44.825
15.394984055556009 42.6579
15.417486030076159 41.3218
15.44000615566487 40.0873
15.462526881230803 39.1987
15.485030653812652 38.7623
15.507552581617434 38.3728
15.530057557334603 37.8603
15.55258069104857 37.7413
15.575104429329837 37.6099
15.597611216864632 37.2317
15.620136166564563 37.318000000000005
15.6426441664095 36.9699
15.665170331202765 36.8848
15.687697105158826 37.2215
15.710206930593545 37.6287
15.732734925158933 37.934
15.755245972089478 38.3397
15.77777519094324 39.4614
15.800287463046663 40.9677
15.822817909869592 42.6942
15.84534897229804 44.1856
15.867863089299354 45.8825
15.890395385222186 46.9833
15.912910736597423 47.3543
15.935444269699861 48.4356
15.957978423016485 50.6539
15.980495633101265 53.9709
16.003031029129367 59.8215
16.02554948280019 68.8467
16.048086125229432 82.3719
16.070623392487107 100.51
16.09314371869582 119.44
16.11568223789321 132.107
16.13820381691126 134.05
16.160743591742527 123.825
16.183283996022084 107.088
16.205807461423195 88.6723
16.228349126881973 71.2892
16.25087385432698 58.4964
16.27341678466365 49.5919
16.29594277784926 44.2365
16.31848697676433 40.8006
16.341031811604868 38.5397
16.36355971058487 37.1139
16.3861058195587 36.0254
16.40863499352978 34.9135
16.431182380342005 34.2238
16.453730407713202 33.7089
16.476261501364792 33.2284
16.498810812136167 32.9224
16.52134319004079 32.8119
16.54389378792203 32.4735
16.566445031001553 31.9749
16.588979342490088 31.8071
16.61153187824822 31.7867
16.634067483263312 31.5217
16.656621315414416 31.1601
16.679175797408888 31.0475
16.701713349928728 31.0275
16.72426913389191 30.9033
16.74680798922351 30.8803
16.76936507887444 30.7245
16.791905240734874 30.7372
16.814463639794468 30.7429
16.837022695210294 30.8126
16.859564824093756 30.6832
16.882125194503903 30.8819
16.904668639217885 31.1617
16.927230328348003 31.0933
16.949792678493612 31.6262
16.972338104193863 32.3593
16.994901778652235 33.8579
17.017448529496576 36.3385
17.040013531998152 38.549
17.06257920018044 40.2077
17.0851279459922 39.893
17.107694947817667 37.9471
17.130245028099072 35.6492
17.15281336730298 33.8795
17.17536478578733 32.7744
17.19793446610687 32.3846
17.220504818648422 32.4778
17.243058251703697 32.6179
17.265629950971032 32.9625
17.288184731571736 33.3314
17.310757781306908 33.537
17.33333150794385 33.5677
17.355888317140174 33.7951
17.37846339986244 34.0451
17.401021565958885 34.7896
17.42359800851343 35.7607
17.44617513265564 37.4745
17.468735341390783 39.7632
17.491261035594565 43.0015
17.51396340099364 47.0897
17.536490463869136 50.8888
17.559018209820174 52.726000000000006
17.58154663977963 51.721000000000004
17.604251766089718 48.4649
17.626781572227713 44.1349
17.64931206518155 40.2685
17.671843245885103 37.7144
17.69455114821572 35.8752
17.717083712612634 34.854
17.739616967569667 34.3132
17.762150914021706 34.3597
17.78486160749854 34.1612
17.807396945166804 34.7425
17.829932977143503 35.8318
17.85246970436452 37.8463
17.875183204129467 39.9539
17.897721330097664 41.7592
17.920260154126645 42.3669
17.942799677153296 41.1324
17.9655159983646 39.3785
17.988056927677544 38.346
18.010598558807683 38.2819
18.033140892692916 39.0775
18.05586005052525 40.0171
18.07840379824407 40.8869
18.10094825154059 41.8608
18.12366954819864 42.2273
18.146215420998306 42.43
18.16876200220057 43.0737
18.191309292745153 44.8123
18.214033452627167 47.2342
18.236582170236648 51.0474
18.259131600016456 56.7658
18.281681742907335 65.4392
18.304408781233683 78.2334
18.32696035875955 91.9657
18.349512652227624 103.66
18.372065662579683 109.30799999999999
18.394795594587553 104.227
18.41735004715306 92.2562
18.43990521943684 78.8737
18.46246111238171 67.6965
18.485193953325208 60.39
18.507751296070428 57.2381
18.530309362314178 57.461999999999996
18.552868153000343 60.1678
18.57560391815056 65.2982
18.59816416623245 72.3078
18.620725141597372 77.7175
18.643286845190268 78.6946
18.666025549835414 75.2545
18.688588718427933 68.1534
18.711152618092243 60.4802
18.73389353884365 53.2641
18.75645890921984 46.9089
18.77902501351406 42.3922
18.801591852673102 39.4857
18.824335739722738 37.3122
18.846904057212626 36.1076
18.8694731124168 35.0901
18.89204290628315 34.606
18.914789774966803 34.0415
18.937361054791623 33.6682
18.959933076131318 33.3477
18.982505839934877 33.3013
19.00525570560582 32.9999
19.027829963004184 32.5977
19.05040496572238 32.5133
19.072980714710468 32.3745
19.095733592739563 32.3396
19.11831084296757 32.2757
19.140888842324735 32.1424
19.16346759176222 32.148
19.18622349753803 32.2091
19.208803755869358 32.2408
19.231384767143577 32.7211
19.253966532312948 32.9206
19.276725481241822 33.3423
19.29930876296784 33.6514
19.3218928014549 34.0667
19.34465404436217 34.7538
19.36723960516257 35.7699
19.389825925592426 37.4851
19.412413006605938 40.1388
19.43517731967805 43.6718
19.457765930683355 47.042
19.48035530514408 48.9243
19.50294544401556 49.0046
19.525712842708348 47.5533
19.54830451925909 45.9552
19.570896963095727 45.6642
19.593490175174704 47.048
19.616260674962184 49.3985
19.638855432416964 50.425
19.661450960992624 50.4225
19.68404726164677 48.1403
19.706820878021247 44.4961
19.729418731756834 40.9695
19.752017360452857 37.8256
19.77461676506804 35.7227
19.797393513540218 34.2795
19.819994478951667 33.2296
19.84259622316767 32.5493
19.8651987471481 32.0658
19.887978643247177 31.6029
19.91058273574792 31.2993
19.933187610901943 31.0721
19.955969879466828 31.2533
19.97857632894404 31.1123
20.00118356396599 31.2943
20.023791585494575 31.358
20.046577028914875 31.5888
20.069186632506966 31.8109
20.091797025500632 31.9501
20.114408208858933 31.704
20.137196842715273 31.9324
20.159809615886765 32.1647
20.18242318232135 32.403
20.20503754298326 33.0574
20.227829382875154 34.0575
20.250445341109344 35.2755
20.27306209647285 37.2239
20.29567964993108 39.5658
20.31847471147704 42.3564
20.34109387027612 45.3389
20.363713830075454 47.9449
20.386334591841646 48.8854
20.409132890679302 47.7924
20.431755265564437 45.198
20.454378445325528 42.4369
20.477002430930366 40.319
20.499803982716553 39.4719
20.522429589228004 39.4926
20.54505600449589 40.7517
20.567683229489194 43.113
20.590488049900088 45.2854
20.61311690359731 46.236999999999995
20.63574656993626 45.6106
20.658553853717297 43.0271
20.681185154618298 39.983000000000004
20.703817271080066 37.0205
20.72645020407368 34.23
20.749260783967177 32.6758
20.771895359337133 31.6907
20.794530754161617 31.0769
20.817166969412938 30.7194
20.83998086114876 30.9124
20.86261872660049 31.5344
20.885257415405402 32.5496
20.90789692853701 33.4829
20.930714147864748 34.0504
20.953355319030678 33.897
20.97599731745334 32.8939
20.99864014410749 31.3119
21.021460706796564 30.0497
21.044105199328826 28.9888
21.06675052302631 28.5282
21.089396678865015 28.1379
21.112220600704806 27.9654
21.134868430275347 28.0922
21.15751709492456 28.0355
21.180166595629693 27.7623
21.202993892429635 27.7766
21.22564507473034 27.8541
21.24829709602816 27.8578
21.27112693608965 27.8065
21.293780644891275 27.9413
21.316435195634053 27.8382
21.339090589297417 27.8148
21.361923832041875 27.9998
21.384580921090404 27.9725
21.407238856007325 28.131999999999998
21.429897637773326 28.6431
21.45273429906592 29.2645
21.475394784108598 30.1074
21.498056118951983 30.8697
21.520718304578022 31.9011
21.543558400304388 32.4991
21.566222297108816 32.6208
21.58888704765135 32.0857
21.61155265291521 31.5768
21.63439619898156 30.9932
21.657063523335786 30.0795
21.67973170537063 29.7006
21.7024007460706 29.320999999999998
21.72524775840385 28.9747
21.747918526116475 28.9452
21.770590155457388 28.9704
21.79326264741238 29.1625
21.816113141960237 29.4555
21.838787368860547 29.776
21.861462461341976 30.0245
21.884315579735777 30.2504
21.90699241312273 30.2876
21.92967011506078 30.2508
21.95234868653799 30.6125
21.9752053151131 31.0219
21.997885635446785 31.6355
22.020566828293532 32.3331
22.04324889464272 33.2174
22.066109049404666 34.4611
22.088792872571794 35.9172
22.111477572219204 38.2403
22.1341631493376 40.7662
22.157026846313123 44.3732
22.179714188221507 47.67100000000001
22.202402410582668 50.516999999999996
22.22509151438863 51.7623
22.24795876962584 51.2713
22.270649646204486 49.4407
22.293341407213727 47.1306
22.316034053646906 45.0652
22.338904883215342 42.9257
22.36159931041458 41.6224
22.38429462602756 41.0134
22.40699083104897 40.6088
22.429865251039757 40.4113
22.452563244831367 39.571999999999996
22.47526213102522 38.3138
22.49813925616515 36.4252
22.520839937143307 34.4601
22.543541513520587 33.1561
22.56624398629403 31.9019
22.589124730075895 31.0917
22.611829005656723 30.4778
22.63453418063466 29.9258
22.657240256008077 29.5998
22.680124634582935 29.4899
22.70283252079775 29.3125
22.725541310413075 29.2594
22.74825100442868 29.0607
22.771139033969575 29.2216
22.79385054687155 29.0478
22.81656296718292 29.2195
22.83927629590484 29.4733
22.862167992606945 29.8933
22.88488314827121 30.5359
22.907599215359284 31.1115
22.93031619487366 31.5067
22.953211574954405 31.8622
22.975930389478226 31.9783
22.998650119445763 31.6569
23.02137076586092 31.1045
23.044269845560063 30.8714
23.06699233506288 30.641
23.089715744034912 30.9323
23.112617610931565 31.3238
23.135342869061212 32.0172
23.158069049684816 32.9329
23.1807961538087 34.3343
23.20370174880544 36.3732
23.226430710184808 38.9621
23.249160598093425 41.6104
23.271891413539002 43.6846
23.294800752937697 44.5796
23.31753343374794 44.0625
23.340267045128353 41.8194
23.36300158808808 39.3919
23.38591468821339 36.7277
23.408651104658304 34.6991
23.431388455719986 33.3092
23.454126742409 32.6588
23.4770436196085 32.3466
23.499783787914662 32.5285
23.522524894889884 33.0472
23.54526694154616 33.819
23.56818761219047 34.4262
23.59093154860734 34.818000000000005
23.613676427751283 34.9552
23.636422250635754 34.2726
23.659346731118656 33.5512
23.68209445191868 32.8446
23.704843119509587 32.5037
23.72759273490623 32.6461
23.750521041644767 33.0388
23.77327256312355 33.9128
23.796025035462787 35.2025
23.818956224555475 37.2261
23.841710609113413 39.8442
23.86446594758979 42.7477
23.887222241002014 45.3838
23.910157285144578 46.7592
23.932915498962537 46.6666
23.955674670778713 44.7674
23.978434801611975 41.6638
24.001373717286125 38.2114
24.024135776723917 35.2027
24.046898798245582 32.992
24.06966278287146 31.4662
24.092605586582614 30.3571
24.115371508023642 29.6288
24.1381383956401 29.159000000000002
24.16090625045381 28.8618
24.183852958731244 28.7598
24.206622758582608 28.4429
24.229393528706886 28.299
24.252165270127392 28.0507
24.27511589952438 27.7375
24.297889594216997 27.1677
24.32066426328598 26.7375
24.34343990775613 26.5001
24.36639447485003 26.3674
24.38917208083877 26.1872
24.41195066531332 26.1689
24.43490819850244 26.1389
24.457688750692377 25.9366
24.48047028445616 25.848000000000003
24.503252800821233 25.8218
24.526214300784112 25.7373
24.548998793132213 25.7787
24.57178427117417 25.6404
24.59457073593893 25.7585
24.617536219319863 25.6578
24.64032466834748 25.6813
24.663114107195035 25.735
24.685904536893013 25.7483
24.708874020360852 25.8454
24.731666442613744 26.1866
24.754459858818787 26.5521
24.777254270007962 27.0653
24.80022777025625 27.4634
24.82302418230472 27.6623
24.845821592443674 27.8226
24.86862000170663 27.5893
24.891597535453727 27.1009
24.914397953892728 26.8271
24.93719937456671 26.4573
24.96000179851076 26.1783
24.98298338249997 26.1257
25.00578782394922 25.8407
25.028593271784167 25.694000000000003
25.05157790644186 25.6559
25.07438537804115 25.5857
25.097193859145293 25.5948
25.120003350792075 25.5418
25.142992065061257 25.549
25.165803588823465 25.5646
25.18861612625217 25.6432
25.211429678386736 25.6692
25.234422489079968 25.8654
25.257238081693636 25.9402
25.280054692141732 26.2141
25.3028723214652 26.365
25.325869245420463 26.6472
25.348688923599397 27.0602
25.371509623787006 27.3755
25.394331347025812 27.9548
25.41733240110666 28.6124
25.440156181590016 29.2323
25.46298098826268 29.8888
25.48580682216873 30.3788
25.50881202326435 30.6049
25.53163992281684 30.7172
25.55446885274561 30.726
25.577298814096377 30.6331
25.600308179121807 30.8339
25.623140214533745 31.4661
25.64597328451537 32.1003
25.66898578564376 32.7307
25.691820936010206 33.2048
25.714657124097695 33.1027
25.737494350954734 32.3619
25.760511045684957 31.1113
25.783350361364224 29.8273
25.806190718969255 28.6453
25.82903211955018 27.7588
25.852053024868923 27.0327
25.874896522722523 26.6059
25.897741066713106 26.3975
25.920586657892454 26.3092
25.943611790812668 26.6238
25.966459487728237 26.6347
25.989308234998564 26.6238
26.01215803367705 26.6592
26.03518741123814 26.5163
26.05803932412957 26.1467
26.080892291600094 25.7667
26.10374631470478 25.5683
26.12677995397268 25.3489
26.14963609978026 25.2201
26.172493304397875 25.069000000000003
26.19535156888223 25.2161
26.218389486949604 25.1496
26.241249882640123 25.241
26.26411134137826 25.2528
26.28715248187403 25.6126
26.31001607820869 25.9409
26.3328807407756 26.2635
26.35574647063438 26.8476
26.37879191991473 27.4262
26.401659795896734 28.0639
26.424528742360263 28.8296
26.447398760366614 29.2102
26.470448535598294 29.2116
26.49332070826805 29.0192
26.516193955675355 28.6104
26.53906827888316 27.9706
26.562122397260108 27.3176
26.584998883685063 26.8863
26.607876449110325 26.5151
26.63075509460056 26.0465
26.65381357334404 25.8293
26.67669439061878 25.7175
26.699576291163382 25.4835
26.722459276044212 25.5938
26.745522132402975 25.7128
26.768407297649354 25.7403
26.791293550442003 25.8767
26.814180891848974 26.0333
26.837248143099337 26.296999999999997
26.860137673466657 26.6647
26.88302829566349 27.0546
26.90592001075963 27.7615
26.92899167420566 28.7538
26.951885586870763 29.6179
26.974780595655517 30.6089
26.99785558178161 31.5448
27.020752794605112 32.0314
27.043651106772522 32.1297
27.06655051935668 32.0114
27.089629948036183 31.4437
27.112531573292053 31.0758
27.135434302194138 30.7465
27.158338135817015 30.1619
27.181422024430987 29.5512
27.204328079372566 28.8869
27.22723524226965 28.0866
27.250143514198573 27.5131
27.273231880156334 26.8802
27.296142382065014 26.0917
27.319053996245536 25.5744
27.341966723775965 25.1485
27.365059584515222 24.8284
27.38797455070062 24.6746
27.410890633481237 24.493000000000002
27.433807833936918 24.3674
27.456905206923906 24.25
27.47982465472398 24.2242
27.502745223449743 24.2095
27.525666914182825 24.1437
27.548768816912457 24.1287
27.571692763693633 24.1474
27.59461783573812 24.1587
27.617723149491244 24.2017
27.640650484125285 24.2208
27.66357894728264 24.307
27.686508540048052 24.3514
27.709618414237887 24.4586
27.732550278321757 24.304000000000002
27.755483275279115 24.4499
27.778417406196485 24.3955
27.801531858397514 24.494
27.824468269376716 24.7735
27.847405817586786 24.9578
27.870344504116094 25.3536
27.893463551932008 25.6965
27.916404527281053 25.8706
27.93934664422563 25.8728
27.962289903855886 25.6147
27.98541356491974 25.3925
28.00835912214229 25.1217
28.03130582533231 25.0695
28.054253675581805 24.8927
28.077381967556104 24.8258
28.100332124185126 24.8406
28.123283431160893 25.1378
28.146235889577238 25.4343
28.169368830154156 25.7041
28.192323603752033 25.9745
28.215279532083304 26.1147
28.238415973016764 26.0778
28.261374223145094 26.0873
28.284333631303806 26.0935
28.307294198589954 26.3043
28.330435319167677 26.5977
28.353398217078915 27.2309
28.376362277420153 27.8645
28.39932750129032 28.6758
28.422473319286713 29.386999999999997
28.44544088262495 29.9819
28.468409612800283 29.7205
28.491379510913497 29.364
28.51453004413313 28.8288
28.53750229057244 28.4103
28.56047570826344 28.0068
28.583450298308804 27.7986
28.606605564586562 27.6013
28.629582511831156 27.4755
28.65256063474956 27.0758
28.675539934446338 26.706
28.698699951647605 26.1355
28.72168161743193 25.5784
28.74466446331978 25.0441
28.767648490417624 24.5005
28.790813276438353 24.0653
28.813799678527303 23.7854
28.836787265157085 23.4378
28.859955641890075 23.1744
28.882945610203045 23.0043
28.905936766392035 22.7933
28.928929111566863 22.7141
28.952102288520145 22.5695
28.975097024308607 22.4488
28.998092952423807 22.4992
29.021090073977508 22.3948
29.04426806913204 22.3519
29.067267590245258 22.2658
29.090268308143695 22.2519
29.11327022394099 22.3227
29.13645305530891 22.2998
29.159457379627167 22.4178
29.18246290519685 22.5149
29.20546963313352 22.6409
29.22865731875826 22.9316
29.25166646419296 23.1297
29.27467681535305 23.338
29.29768837335608 23.4267
29.320880931312562 23.3345
29.34389491580634 23.1419
29.366910110507334 22.9031
29.38992651653503 22.5505
29.41312396492981 22.3699
29.436142806456754 22.1619
29.45916286268059 21.9574
29.48236399319994 21.825
29.50538649169417 21.7038
29.528410208259935 21.7667
29.55143514402014 21.7191
29.574641196749695 21.6619
29.597668583816574 21.6365
29.6206971934585 21.6597
29.64372702680042 21.829
29.666938019934474 21.9368
29.689970313635285 22.0882
29.713003834422636 22.1974
29.73603858342347 22.4198
29.759254535188578 22.6374
29.78229175361658 22.8895
29.80533020365064 23.0269
29.82836988641968 23.081999999999997
29.85159081507472 22.7903
29.874632976355343 22.5617
29.89767637376955 22.2812
29.920721008448314 21.8729
29.9439469322847 21.6453
29.96699405457564 21.3336
29.9900424175358 21.2758
30.013092022298157 21.1534
30.03632295963995 21.0544
30.059375061131373 21.0636
30.08242840783577 20.9331
30.105483000888153 20.9635
30.128718970092244 21.0286
30.151776069006917 21.0327
30.17483441768648 20.9664
30.198074175317235 21.2206
30.221135036724256 21.3239
30.24419715131772 21.4325
30.267260520236203 21.3651
30.290505341942243 21.5033
30.313571232750228 21.2984
30.336638381310948 21.1232
30.35970678876503 21.0255
30.38295669299435 20.9255
30.40602763151657 20.8656
30.429099832366074 20.7987
30.452173296685572 20.7088
30.47542830191959 20.8417
30.498504306502497 20.8725
30.521581577995562 20.9957
30.544660117543582 21.0718
30.56792024229725 21.2063
30.59100133132069 21.2468
30.614083691845494 21.4587
30.637167325018545 21.5568
30.660432587840603 21.5899
30.683518779717886 21.4802
30.70660624769615 21.4287
30.729694992924372 21.2886
30.75296541239743 21.1443
30.77605672557558 21.1178
30.799149319462742 20.9662
30.8224236211637 20.9189
30.845518789950724 20.9501
30.868615242910597 20.9627
30.891712981195973 20.912
30.91499247215866 20.9481
30.938092794619365 21.1418
30.96119440587579 21.3847
30.984297307082752 21.4418
31.00758200598383 21.6694
31.030687500658694 21.9729
31.053794288760695 22.379
31.076902371446767 22.6951
31.100192296997445 23.1307
31.12330298246119 23.4249
31.14641496599209 23.455
31.169528248749216 23.4846
31.19282341969534 23.3889
31.215939314557186 23.331
31.239056512134788 23.1182
31.262175013589378 22.8489
31.28547544871168 22.5828
31.30859657161541 22.2813
31.331719001892175 21.9078
31.35484274070538 21.7152
31.378148458819545 21.3519
31.401274828443725 21.0958
31.424402510106933 20.9035
31.447712205419993 20.8319
31.470842524931633 20.6408
31.493974159989783 20.4994
31.51710711176168 20.4552
31.54042212308802 20.4044
31.563557722100917 20.3264
31.586694641341655 20.3579
31.609832881979628 20.3323
31.63315322823208 20.369
31.656294125521327 20.372
31.679436347728515 20.5183
31.70257989602529 20.6012
31.725905596152327 20.6794
31.74905181052835 20.8171
31.772199354521323 20.924
31.79534822930507 21.0135
31.818679302290967 21.119
31.84183085259981 21.4083
31.864983737233473 21.6419
31.88813795736804 21.776999999999997
31.911474422233013 21.7987
31.934631327356435 21.9289
31.9577895715215 21.8061
31.980949155906522 21.4736
32.004291031706956 21.239
32.027453310562606 20.9457
32.05061693318573 20.6877
32.07396288236386 20.5373
32.09712920658542 20.433
32.12029687812702 20.3085
32.14346589817093 20.3565
32.166817291729984 20.4921
32.18998902288583 20.5223
32.21316210610336 20.4797
32.23633654256711 20.5151
32.259693399663725 20.6712
32.282870556771144 20.7416
32.30604907069099 20.9377
32.329228942610065 21.1415
32.35259128243769 21.268
32.375773884550505 21.3242
32.398957848235646 21.4045
32.422143174682176 21.3622
32.445511016471215 21.1464
32.468699082679954 21.0778
32.49188851523011 20.8381
32.51507931531304 20.623
32.538452678331 20.4627
32.56164622776311 20.2532
32.58484114831493 19.9955
32.60803744118015 19.9824
32.631416344731896 19.7775
32.654615396551876 19.6983
32.67781582427913 19.4439
32.701198898634416 19.405
32.72440209253756 19.2769
32.747606665947124 19.1329
32.77081262006088 19.0047
32.79420126883317 18.8476
32.81740999876112 18.8271
32.840620112999424 18.7675
32.86383161274818 18.6635
32.88722585534586 18.594
32.91044014056596 18.7269
32.933655814909734 18.6553
32.95687287957963 18.6025
32.98027273544904 18.6361
33.00349259526636 18.5873
33.026713849030116 18.5851
33.04993649794511 18.6476
33.073341986570746 18.7485
33.09656744032826 18.7843
33.11979429286444 18.8213
33.14302254538647 18.8483
33.166433686291185 18.775
33.18966475336992 18.6822
33.212897224069096 18.5631
33.23613109959831 18.5209
33.259547912343415 18.4641
33.2827846121627 18.44
33.306022720453775 18.4372
33.32926223842861 18.3535
33.352684742614166 18.3406
33.37592709463173 18.3322
33.399170859982064 18.2939
33.422597648419426 18.3484
33.44584425514446 18.3947
33.46909227885668 18.4725
33.4923417207723 18.5478
33.51577423505344 18.7338
33.539026528130385 18.8535
33.56228024307245 19.0229
33.585535381098246 19.1006
33.60897364093058 19.1792
33.63223163992385 19.2751
33.6554910656699 19.2936
33.678751919389796 19.4224
33.702195944520106 19.4168
33.72545966903325 19.3441
33.74872482519663 19.2964
33.771991414233746 19.2778
33.79544122444841 19.1202
33.81871069412428 18.9331
33.84198160035767 18.73
33.86525394437455 18.5186
33.88870955949969 18.2727
33.911984794020626 18.1372
33.93526147001624 18.0432
33.958539588715006 17.8786
33.98200102861669 17.8056
34.0052820477047 17.8133
34.02856451319451 17.8015
34.05203033759056 17.7219
34.07531571090147 17.7853
34.09860253431845 17.7592
34.121890809074316 17.6504
34.145362493118924 17.5933
34.16865368561615 17.5979
34.191946333164054 17.5565
34.21524043699793 17.5857
34.23871800066799 17.5836
34.26201503218366 17.573
34.28531352370466 17.6573
34.30861347646881 17.6615
34.33209693978188 17.7369
34.3553998301885 17.7665
34.378704185565205 17.7098
34.402010007152356 17.5701
34.42549939016683 17.4931
34.44880815937748 17.4725
34.472118398533134 17.3402
34.49543010887669 17.2588
34.51892543169198 17.2129
34.54224009966052 17.1284
34.56555624255917 17.0938
34.58887386163339 17.005
34.61237514439016 16.9945
34.6356957311114 16.9463
34.65901779775809 16.9782
34.68252356662995 16.9946
34.705848608458616 17.029
34.72917513396849 17.0691
34.75250314440949 17.1218
34.77601490857862 17.1737
34.799345904259795 17.1567
34.82267838863559 17.0751
34.846012362958525 17.0925
34.869530142679984 17.0178
34.89286711232212 16.8967
34.91620557568269 16.8063
34.93954553401677 16.7158
34.9630693495876 16.6212
34.986412313340814 16.6082
35.00975677584668 16.5376
35.033102738362956 16.4194
35.05663261012228 16.3914
35.0799815881786 16.432000000000002
35.10333207003229 16.3367
35.12668405694369 16.328
35.150220005273056 16.2586
35.17357501786656 16.3259
35.19693153931268 16.2713
35.220289570874385 16.2018
35.24383161619786 16.3019
35.267192683604904 16.2432
35.290555264930376 16.2369
35.314101899412165 16.3162
35.33746752422433 16.3009
35.36083466676374 16.3166
35.38420332829803 16.2648
35.407756095629054 16.2905
35.43112781085063 16.3148
35.45450104888391 16.2716
35.477875810999194 16.2871
35.50143473172161 16.2614
35.52481255774625 16.3148
35.54819191167777 16.2525
35.57157279478914 16.247
35.595137889488406 16.2876
35.61852184675279 16.2297
35.641907337029984 16.2588
35.665294361595684 16.2846
35.68886565090076 16.2989
35.7122557598848 16.3249
35.73564740699838 16.4149
35.759040593519934 16.5328
35.78261809810353 16.6016
35.80601437933051 16.6474
35.829412203814705 16.7212
35.85281157283719 16.8129
35.876395313415884 16.957
35.8997977874528 17.0037
35.92320180988546 17.0468
35.946790244133936 17.0527
35.97019737933222 17.1893
35.993606066789866 17.0941
36.01701630779276 17.0284
36.04061101440684 16.8918
36.06402437852291 16.761
36.08743930005611 16.6796
36.1108557802951 16.459
36.13445678011326 16.3781
36.15787639383515 16.2814
36.18129757014299 16.1933
36.20472031032821 16.0545
36.22832762423364 15.8998
36.25175350829375 15.8439
36.275180960119776 15.7772
36.298609981005924 15.7668
36.32222362992669 15.7721
36.34565580510207 15.7256
36.36908955323448 15.6942
36.39252487562093 15.5501
36.416144880530226 15.5536
36.43958336764275 15.6009
36.463023432914625 15.6238
36.486465077645676 15.6001
36.51009145956204 15.6488
36.53353627947859 15.6696
36.55698268276811 15.5901
36.58043067073321 15.6924
36.60406345072071 15.6866
36.62751462435344 15.7968
36.65096738658405 15.8096
36.67460498210655 15.8061
36.69806093788647 15.755
36.72151848619297 15.6403
36.744977628333636 15.5147
36.76862165890998 15.4551
36.79208400512205 15.4499
36.81554794910557 15.3043
36.83901349217101 15.308
36.862663978991606 15.2669
36.88613273667352 15.2714
36.90960309738324 15.2729
36.933075062434064 15.2648
36.95673202673572 15.3125
36.98020721697122 15.3697
37.003684015502365 15.3205
37.027162423645365 15.3695
37.050825886711465 15.435
37.07430753063053 15.3869
37.09779078812467 15.4494
37.121275660513014 15.4213
37.144945643673694 15.2959
37.16843376245278 15.2572
37.19192350009803 15.2449
37.215414857931435 15.1833
37.239091382563885 15.1115
37.262585997426164 14.9864
37.28608223645736 14.9389
37.309763684451696 14.8774
37.33326318851098 14.8002
37.356764320726555 14.7525
37.380267082425526 14.7501
37.40395510942588 14.6938
37.42746114683234 14.6393
37.45096881771841 14.6333
37.474478123414166 14.6134
37.49817275092816 14.5788
37.52168534303452 14.6046
37.54519957395567 14.4838
37.568715445024665 14.4983
37.592416694607714 14.4336
37.61593586281424 14.4635
37.63945667518264 14.468
37.66297913304891 14.3852
37.68668702630454 14.373
37.710212792059274 14.3161
37.733740207334854 14.3985
37.757269273470364 14.3977
37.780983832050374 14.3265
37.80451621684926 14.2755
37.82805025654007 14.3107
37.851585952464795 14.2135
37.8753071980695 14.1921
37.89884622345676 14.1282
37.92238690911902 14.0608
37.94611318753442 14.0635
37.969657210779765 14.0823
37.99320289834801 14.0799
38.016750251586465 14.081
38.04048325513017 14.1088
38.06403395679343 14.061
38.087586328183946 14.0684
38.11114037065203 14.0902
38.13488012115898 14.0763
38.1584375229181 14.1092
38.181996599821 14.0847
38.205557353221124 14.06
38.229303872575656 14.0611
38.2528679961576 13.9527
38.27643380031219 13.9896
38.30000128639589 14.0202
38.32375459653193 13.9332
38.34732546371299 13.8871
38.37089801690786 13.7673
38.39447225747609 13.729000000000001
38.418232380377425 13.6733
38.441810012983396 13.6669
38.46538933705673 13.6125
38.488970353960084 13.5974
38.51273731166058 13.5642
38.536321731567014 13.4833
38.55990784840681 13.4754
38.58367995004091 13.4757
38.60726947812959 13.4575
38.63086070726198 13.5238
38.654453638806274 13.4575
38.678232613930824 13.5096
38.70182896773327 13.543
38.72542702806741 13.5356
38.7490267963045 13.5969
38.77281266709232 13.4836
38.79641586862214 13.585
38.8200207821842 13.5117
38.843627409152944 13.495
38.86742019782782 13.4969
38.891030269149255 13.4414
38.914642058016156 13.4423
38.938255565806124 13.3851
38.96205529464307 13.3367
38.98567225787121 13.3321
39.00929094417078 13.2868
39.03291135492255 13.2625
39.05671804624804 13.214
39.080341923549106 13.200999999999999
39.103967529460334 13.2732
39.127594865365744 13.2535
39.15140854155791 13.2783
39.17503935514948 13.2798
39.19867190290282 13.337
39.22249083587951 13.2881
39.24612686969409 13.2998
39.269764641845306 13.2142
39.293404153722804 13.1049
39.317230110864074 13.0517
39.34087311998506 13.0216
39.36451787301696 12.9815
39.388164371352595 12.9085
39.41199737518003 12.8835
39.43564738196752 12.8726
39.45929913825317 12.8441
39.48295264543308 12.7764
39.506792718520884 12.7542
39.530449745387216 12.7531
39.55410852735203 12.7151
39.57776906581474 12.7087
39.60161623079 12.6803
39.625280300200025 12.6389
39.64894613032202 12.5934
39.67261372255866 12.5629
39.6964680021016 12.6024
39.72013913657293 12.5832
39.74381203738292 12.5852
39.76748670593756 12.5565
39.79134812278169 12.5374
39.81502634488497 12.554
39.83870633896685 12.4903
39.862388106436654 12.4596
39.88625668336918 12.4593
39.90994201572829 12.5067
39.933629125719285 12.4208
39.957503091207826 12.4291
39.9811937746168 12.4746
40.00488623990914 12.4535
40.02858048850006 12.3937
40.05246165409549 12.3273
40.076159487492085 12.2637
40.099859108448875 12.3586
40.123560518384345 12.3216
40.1474489070226 12.3108
40.171153913178564 12.2792
40.194860712584955 12.3046
40.2185693066637 12.3517
40.242464941335314 12.3659
40.26617714307655 12.3058
40.289891143772046 12.4028
40.3136069448471 12.375
40.33750984859743 12.3183
40.3612292688043 12.3434
40.3849504936829 12.3696
40.40867352466194 12.3332
40.43258372059144 12.2876
40.45631038219906 12.2809
40.48003885420956 12.2491
40.503769138055105 12.1892
40.52768664931955 12.1893
40.55142057531802 12.0636
40.57515631746428 12.0426
40.599079334038514 12.0107
40.62281872700477 12.0089
40.64655994043941 12.0103
40.67030297578061 12.0426
40.69423334835778 11.9849
40.71798004609188 11.9858
40.74172857006355 11.9308
40.76547892171441 11.8779
40.7894166736039 11.8776
40.813170699248566 11.8873
40.83692655691388 11.9122
40.86068424804498 11.8554
40.884629402612525 11.9028
40.908390779366385 11.9095
40.932153993938 11.8634
40.95591904777605 11.8135
40.979871628443995 11.8135
41.003640379561936 11.8205
41.02741097430883 11.7753
41.05118341413683 11.7279
41.075143444384416 11.7166
41.098919593177826 11.7491
41.1226975914255 11.7584
41.14647744058318 11.7187
41.170444943946755 11.6724
41.19422851378379 11.7049
41.218013938914645 11.7169
41.24198706625173 11.7334
41.26577622087193 11.728
41.289567235177785 11.7007
41.31336011063129 11.7271
41.337340752422875 11.7269
41.361137369129835 11.6787
41.38493585138705 11.6336
41.40873620066004 11.535
41.43272438060107 11.5053
41.45652848292052 11.4801
41.48033445666918 11.437999999999999
41.50414230331616 11.4103
41.528138045159764 11.3868
41.551949656675205 11.3446
41.575763145513235 11.2832
41.59957851314666 11.2625
41.62358184070442 11.2134
41.64740098505737 11.2437
41.6712220126409 11.2227
41.69504492493139 11.2244
41.71905586207357 11.2226
41.74288256296395 11.1682
41.766711153007456 11.1697
41.79054163368412 11.1486
41.814560204340054 11.1815
41.838394485526365 11.1234
41.86223066180303 11.112
41.88625497706819 11.0832
41.910094962812 11.0524
41.93393684811168 11.0471
41.95778063445365 11.05
41.981812625263366 11.0225
42.00566023303407 10.9918
42.029509746323676 11.0121
42.05336116662236 11.0058
42.077400857069705 10.9654
42.10125611078846 11.0168
42.12511327600405 11.0243
42.14897235421036 10.9629
42.173019768448455 10.9538
42.19688269209613 10.9509
42.22074753323349 10.9745
42.24461429335818 10.9793
42.268669455600495 10.9704
42.292540073217886 10.9787
42.31641261433284 10.9518
42.34028708044675 10.9493
42.36435001496739 10.9096
42.38822835065557 10.8506
42.41210861586426 10.8211
42.4359908120986 10.8025
42.46006154323262 10.7237
42.48394762115317 10.7276
42.507835634632315 10.7148
42.531912233047436 10.6258
42.55580413732265 10.5955
42.579697981698 10.5834
42.60359376768525 10.54
42.62767820545945 10.5306
42.65157789440821 10.5316
42.67547952952185 10.5382
42.699383112316 10.4773
42.72347541395347 10.44
42.74738291190531 10.4533
42.771292362102166 10.4245
42.795203766063516 10.4301
42.819303956130405 10.3769
42.843219287476536 10.3328
42.86713657716324 10.3083
42.89105582671383 10.3912
42.91516392983864 10.3035
42.939087119032166 10.286
42.963012272677304 10.2521
42.98693939230129 10.267999999999999
43.01105543317513 10.2618
43.034986504731386 10.2318
43.05891954686589 10.2232
43.08285456110972 10.1979
43.10697856448665 10.1518
43.130917542983475 10.1179
43.15485849820081 10.1178
43.17880143167367 10.1175
43.20293342237094 10.0816
43.226880332449 10.0401
43.25082922540554 10.0633
43.27496722682525 10.0613
43.29892010567796 10.0369
43.32287497204102 10.0376
43.34683182745632 9.954080000000001
43.370977859791836 9.96129
43.39493871351105 9.93132
43.41890156092628 9.94263
43.44286640358341 9.91677
43.46702049182749 9.907739999999999
43.49098934522816 9.84878
43.51496019852649 9.82682
43.5389330532723 9.80513
43.56309522248204 9.82286
43.58707210044314 9.82824
43.61105098451946 9.77977
43.63503187626491 9.777560000000001
43.659202151562134 9.78877
43.68318707902681 9.74227
43.70717401884041 9.76527
43.731162972560874 9.69674
43.75534137913236 9.68169
43.779334381108384 9.69004
43.803329401683186 9.63975
43.82732644241872 9.62781
43.8515130055166 9.60104
43.87551410707659 9.5745
43.89951723350145 9.59682
43.923709934595614 9.57591
43.94771713129917 9.57882
43.97172635758096 9.60885
43.99573761501002 9.57591
44.0199385169922 9.49916
44.04395385732619 9.50145
44.067971233533086 9.54968
44.09199064718605 9.50966
44.11619977548961 9.502289999999999
44.14022328470671 9.466569999999999
44.16424883610785 9.52309
44.18827643127035 9.49775
44.21249381139513 9.50886
44.236525514814076 9.489189999999999
44.26055926674478 9.47979
44.28459506876863 9.48277
44.3088207262813 9.48023
44.33286064928722 9.43379
44.35690262714919 9.38923
44.38094666145278 9.3558
44.4051806219871 9.34828
44.42922879003185 9.34272
44.45327901929361 9.30905
44.477331311362136 9.28783
44.501573600619416 9.25587
44.525630039221795 9.199860000000001
44.54968854541895 9.23456
44.573937102200176 9.20913
44.5979997645541 9.18713
44.622064499300315 9.181000000000001
44.64613130803592 9.16893
44.67038823869318 9.17271
44.69445921643748 9.13208
44.718532272981385 9.160219999999999
44.742607409926194 9.13979
44.76687274034801 9.12309
44.79095205918753 9.13797
44.81503346325094 9.0957
44.839116954143876 9.08032
44.86339071028742 9.08415
44.88747839599524 9.061639999999999
44.91156817336837 9.02557
44.93566004401666 9.0768
44.959942251908146 8.97385
44.984038330325966 8.96654
45.00813650686762 8.93241
45.03223678314731 8.936060000000001
45.05652746888232 8.94938
45.08063196592069 8.93685
45.104738567558705 8.93535
45.128847275414856 8.95209
45.15314646515866 8.89419
45.17725940679741 8.86529
45.20137445952892 8.868730000000001
45.22568004865265 8.90857
45.24979934496396 8.86542
45.27392075725247 8.82899
45.29804428714431 8.80733
45.322358426247604 8.78679
45.346486212804315 8.77293
45.370616121861914 8.75489
45.39474815505086 8.7386
45.41907087049246 8.686539999999999
45.4432071734666 8.68205
45.46734560548283 8.62925
45.49148616817604 8.63919
45.51581748638564 8.66489
45.5399623320197 8.650780000000001
45.56410931325473 8.57996
45.58825843173002 8.59675
45.61259837920865 8.57559
45.636751793816 8.57589
45.66090735060093 8.5003
45.68506505120716 8.51263
45.7094136545275 8.51256
45.73357566449271 8.510530000000001
45.75773982322992 8.499939999999999
45.78190613238733 8.49622
45.806263418194064 8.452639999999999
45.83043404997326 8.47183
45.85460683713677 8.43779
45.87897065658495 8.41715
45.90314777634752 8.45918
45.92732705646868 8.45314
45.9515084986045 8.41511
45.97588104735473 8.36397
46.00006683541565 8.36437
46.02425479047904 8.3627
46.04844491420549 8.364289999999999
46.0728262191024 8.34764
46.09702070211635 8.3227
46.12121735879483 8.33942
46.14541619080294 8.30903
46.169806278764455 8.308530000000001
46.194009483459034 8.26962
46.21821486849841 8.24394
46.24242243555223 8.23165
46.266821333570014 8.243160000000001
46.29103328674601 8.200439999999999
46.31524742696538 8.18144
46.33946375590237 8.16117
46.36387149104216 8.14504
46.38809221957392 8.10324
46.41231514186606 8.12509
46.436540259597464 8.124830000000001
46.460956858999374 8.115110000000001
46.48518638983522 8.07943
46.509418121166966 8.0869
46.533652054678114 8.03273
46.55807754555709 8.03961
46.58231590571962 8.06503
46.60655647313217 8.06634
46.630988654873654 8.02355
46.655233659129024 7.993469999999999
46.67948087571551 7.98715
46.70373030632484 7.99016
46.72817142736393 7.96829
46.752425308428684 7.928730000000001
46.77668140861147 7.94798
46.80093972960865 7.89328
46.82538981736788 7.861110000000001
46.849652602470904 7.877330000000001
46.87391761349769 7.8693
46.8981848521493 7.868189999999999
46.9226439341274 7.86367
46.946915650573224 7.80703
46.97118959976749 7.8235600000000005
46.99546578341598 7.79122
47.019933887188216 7.7582699999999996
47.04421456235744 7.78348
47.06849747711879 7.77982
47.09278263318286 7.72083
47.11725978640143 7.734189999999999
47.14154944775105 7.72399
47.165841355555656 7.719010000000001
47.1901355115306 7.645289999999999
47.214621741924994 7.69021
47.23892041698887 7.66851
47.26322134538975 7.62017
47.28771440635075 7.62482
47.31201986422527 7.5968100000000005
47.33632758061436 7.5608
47.360637557241866 7.52952
47.38513974410611 7.552860000000001
47.40945426407847 7.547000000000001
47.43377104948137 7.493060000000001
47.45809010204344 7.4982
47.48260144275502 7.49897
47.506925052572285 7.50068
47.53125093475548 7.475630000000001
47.55557909103813 7.46177
47.58009961361992 7.471360000000001
47.60443234110732 7.415780000000001
47.62876734791564 7.42213
47.65310463578333 7.407889999999999
47.6776343683373 7.40009
47.7019762413987 7.35389
47.72632040075572 7.36775
47.75066684815169 7.3776
47.77520581885936 7.37361
47.799556865477655 7.3329
47.823910205386 7.35162
47.84826584033272 7.32212
47.87281407745551 7.29218
47.89717432569297 7.2641
47.92153687423484 7.28901
47.94609208429692 7.280130000000001
47.97045925671401 7.26352
47.99482873471275 7.25731
48.01920052005013 7.2173
48.04376504619224 7.20873
48.068141469543484 7.20292
48.09252020552573 7.1986300000000005
48.11690125590099 7.171710000000001
48.1414751266064 7.16223
48.16586082917454 7.16245
48.19024885144316 7.13582
48.2146391951793 7.15262
48.239222439012764 7.132560000000001
48.26361744916137 7.119210000000001
48.28801478610016 7.10095
48.31241445160131 7.061089999999999
48.337007097209366 7.059989999999999
48.36141144338331 7.02998
48.38581812345755 6.95723
48.41022713920929 7.01842
48.434829215320704 6.99529
48.45924292604658 6.9778199999999995
48.48365897780325 7.00794
48.50807737237308 6.95741
48.532688907799276 6.98353
48.55711201168574 6.92772
48.581537463754074 6.9034699999999996
48.60615611725119 6.9337100000000005
48.63058628942721 6.92543
48.65501881516546 6.90212
48.6794536962573 6.88143
48.70408185970339 6.8614
48.72852147531801 6.86781
48.75296345168211 6.81787
48.77740779059232 6.8005
48.80204549302823 6.81502
48.82649458091802 6.841239999999999
48.85094603676547 6.819610000000001
48.87539986237231 6.787089999999999
48.90004713292306 6.775339999999999
48.92450572200832 6.756460000000001
48.94896668628025 6.7537
48.97343002754588 6.730989999999999
48.99808689542115 6.7456
49.02255501470614 6.754860000000001
49.04702551642794 6.702539999999999
49.0714984023988 6.71433
49.096164896893235 6.67594
49.120642575466796 6.63868
49.145122643748394 6.626869999999999
49.16960510355558 6.6096
49.19428125404938 6.6183
49.2187685210852 6.63035
49.243258185121555 6.625210000000001
49.26794160167084 6.568239999999999
49.2924360839405 6.54601
49.31693296869764 6.54704
49.34143225776915 6.5598
49.36612538195438 6.53945
49.39062950396021 6.52179
49.41513603578346 6.5255
49.4396449792564 6.49664
49.46434784069503 6.52067
49.488861631846454 6.47098
49.513377840166804 6.49708
49.537896467493745 6.4621
49.56260909589029 6.48597
49.587132585683285 6.47165
49.611658500018365 6.43904
49.636186840738596 6.40713
49.66090926588511 6.40996
49.685442483902584 6.38132
49.70997813385706 6.38564
49.734516217597076 6.39417
49.75924846937352 6.3918099999999995
49.7837914452858 6.370430000000001
49.80833686055187 6.351459999999999
49.83288471702571 6.352869999999999
49.85762682540054 6.32103
49.882179588965734 6.31323
49.9067347993235 6.27924
49.93129245833333 6.32488
49.95604445336378 6.26504
49.98060703442832 6.272390000000001
50.005172069746266 6.26954
50.02993150438364 6.2373199999999995
50.05450147301533 6.21992
50.07907390151433 6.20443
50.10364879174981 6.225280000000001
50.12841816587289 6.20956
50.1529980044635 6.19508
50.17758031042124 6.16309
50.20216508562089 6.165769999999999
50.22694442953363 6.14548
50.25153416817468 6.16438
50.27612638170508 6.1325400000000005
50.300721072005196 6.1105
50.325510416102105 6.10631
50.350110084975064 6.11515
50.37471223628208 6.0929
50.39931687190919 6.09288
50.424116246675766 6.0829
50.44872587605249 6.07619
50.47333799543065 6.07489
50.49795260670191 6.02913
50.52276204271512 6.0436
50.54738166295838 5.99213
50.57200378079314 6.021669999999999
50.596628398116835 5.99127
50.62144792604559 6.013330000000001
50.646077567609396 5.96617
50.670709714377715 5.96786
50.69553683636198 5.9688300000000005
50.72017401885922 5.93051
50.7448137122895 5.92059
50.76945591856022 5.92295
50.79429318636823 5.92513
50.818940443716784 5.900440000000001
50.84359021965163 5.91
50.868242516085964 5.9133
50.893089960641895 5.83761
50.917747323549435 5.83936
50.94240721271973 5.84034
50.96706963007175 5.82667
50.99192728239342 5.8295699999999995
51.01659478166073 5.8457099999999995
51.04126481489051 5.7767
51.06593738400761 5.80875
51.090805275207074 5.80154
51.11548294172845 5.78308
51.14016314993547 5.769430000000001
51.164845901758845 5.75666
51.18972406304274 5.71404
51.21441192780656 5.71659
51.23910234200271 5.7565599999999995
51.2637953075678 5.72238
51.288683770237945 5.6927
51.31338186432707 5.68738
51.33808251561888 5.68815
51.362978729967345 5.67727
51.387684521509755 5.6597800000000005
51.41239287610203 5.63711
51.437103795691165 5.6098099999999995
51.46201036644977 5.618130000000001
51.486726441956634 5.57828
51.51144508832545 5.57982
51.536166307509156 5.61691
51.56108326624387 5.56885
51.58580965706056 5.53164
51.61053862657523 5.55888
51.635270176746864 5.5397
51.66019755512065 5.51549
51.68493429268881 5.50571
51.70967361681515 5.52383
51.73441552946465 5.53486
51.759353359237934 5.52186
51.7841004750961 5.48182
51.80885018539685 5.48824
51.833602492111254 5.4431400000000005
51.8585508051424 5.437790000000001
51.883308330926425 5.39701
51.90806845906181 5.41518
51.932831191525715 5.44198
51.95779001977161 5.397390000000001
51.98255798721516 5.36163
52.00732856494335 5.38731
52.03229530577543 5.36452
52.057071130455945 5.37372
52.081849571391054 5.33325
52.106630630568695 5.336530000000001
52.13160794279417 5.30629
52.15639426492067 5.307119999999999
52.18118321127822 5.29033
52.205974783860896 5.2888
52.23096269971011 5.26567
52.255759551287994 5.2763800000000005
52.280559035098186 5.25741
52.30536115314103 5.21858
52.33035970494467 5.22394
52.35516711807904 5.24536
52.37997717147198 5.20796
52.40478986713005 5.21202
52.42979908731974 5.18999
52.454617094216 5.20927
52.47943774942214 5.1962
52.50426105495102 5.17479
52.529280976059844 5.161980000000001
52.554109609024096 5.15008
52.57894089837482 5.12716
52.60377484613117 5.08549
52.62880550079408 5.09317
52.65364479223379 5.096
52.67848674816189 5.08089
52.70352547971946 5.103219999999999
52.72837279155837 5.068919999999999
52.753222773982785 5.04927
52.778075429022984 5.05391
52.80312495150885 5.07531
52.827982978797436 5.046880000000001
52.85284368481815 5.03423
52.87770707160767 5.01804
52.90276741793998 4.9926900000000005
52.92763619336701 4.988519999999999
52.952507655698504 4.97926
52.977381806977576 5.00114
53.00245301017842 4.98707
53.02733256653592 4.98694
53.052214817996074 4.94983
53.077099766608484 4.90843
53.102181859804446 4.920730000000001
53.127072229988265 4.92774
53.15196530349892 4.94949
53.17686108239249 4.91122
53.20195409881522 4.89905
53.22685531582556 4.85725
53.25175924441303 4.87101
53.27666588664027 4.86158
53.30176985962693 4.82576
53.3266819565689 4.81061
53.35159677336455 4.7960400000000005
53.376514312083096 4.81415
53.40162927507703 4.8332
53.42655228516116 4.75476
53.45147802340193 4.77557
53.47660125628886 4.751
53.50153247842639 4.74883
53.52646643496923 4.77264
53.55140312799818 4.76746
53.576537409691696 4.73653
53.60147960336152 4.71727
53.626424539786164 4.67266
53.65137222105307 4.67075
53.67651758529126 4.67851
53.70147078399681 4.67736
53.72642673383343 4.64446
53.75138543689533 4.6580699999999995
53.776541917524526 4.6670300000000005
53.801506154876755 4.6355900000000005
53.826473151763246 4.62825
53.851442910284916 4.61367
53.87661054126026 4.60124
53.9015858509782 4.5909
53.92656392866066 4.59229
53.95154477641532 4.55999
53.976723591801296 4.5616
54.00171000771266 4.54969
54.02669920004598 4.58562
54.051691170915745 4.56566
54.076881204886796 4.5268
54.101878760928514 4.52651
54.12687910187696 4.48851
54.152077577768296 4.48728
54.1770835166946 4.4596800000000005
54.20209224691339 4.45044
54.22710377055121 4.45792
54.25231352511594 4.41523
54.27733066384342 4.42445
54.30235060239643 4.4339699999999995
54.32737334290836 4.42282
54.35259441062629 4.348319999999999
54.377622783395324 4.33354
54.40265396455061 4.3949
54.42768795623251 4.32701
54.45292037169559 4.28793
54.477960012857906 4.2744599999999995
54.50300247099511 4.28814
54.52804774825457 4.24181
54.55329154616743 4.19841
54.57834249018678 4.24951
54.6033962597977 4.1862
54.6284528571545 4.16746
54.653708072335164 4.219469999999999
54.67877035378786 4.20984
54.70383546947698 4.13693
54.72890342156389 4.16213
54.7541700889442 4.14789
54.77924374251975 4.1094
54.8043202390049 4.1287
54.82959552413022 4.09992
54.8546777351945 4.06631
54.87976279569621 4.03557
54.90485070780914 4.09002
54.930137506558005 3.99065
54.95523115074295 4.01187
54.98032765308844 3.9950099999999997
55.005427015775496 3.99612
55.03072536339621 3.95391
55.05583047570572 3.94759
55.080938454927676 3.9577699999999996
55.10604930325027 3.9186199999999998
55.131359235107396 3.8827
55.15647585066083 3.8549
55.181595341907496 3.8747199999999995
55.20671771104285 3.82115
55.232039262617704 3.81944
55.25716741665048 3.8058699999999996
55.28229845518636 3.79662
55.30743238042802 3.7686300000000004
55.33276558731939 3.6844900000000003
55.357905315183636 3.69268
55.383047936390035 3.7209800000000004
55.40819345314859 3.6998699999999998
55.433538351073295 3.65426
55.458689688238415 3.69805
55.483843927614096 3.6413900000000003
55.509197623043605 3.62849
55.53435769621134 3.6366
55.55952067826466 3.56196
55.5846865714265 3.57314
55.61005202069737 3.57349
55.63522376553902 3.5840199999999998
55.66039842818645 3.5942800000000004
55.68557601087004 3.5569300000000004
55.7109532500271 3.498
55.73613670233794 3.5563599999999997
