TT I
1.2716486653135266 7.60275
1.2939594142134223 6.951280000000001
1.3162702121660406 6.7995399999999995
1.3385810600174564 6.8183
1.3608919586137629 7.270230000000001
1.383202908801069 6.717280000000001
1.405513911425503 6.80765
1.4278249673332093 6.67944
1.4501343378461518 6.46654
1.4724455028545926 6.23538
1.4947567236847858 5.9106
1.517068001182951 6.462619999999999
1.5393793361953272 6.32745
1.5616907295681737 6.42169
1.5840021821477681 5.48004
1.60631369478041 5.0275099999999995
1.6286252683124185 5.68205
1.6509369035901333 4.88697
1.6732468618895553 5.07791
1.695558623192809 5.5546
1.7178704487808514 4.99368
1.7401823395001077 5.02365
1.7625012545597203 4.80731
1.7848028405262486 4.78065
1.8071218901122095 4.93076
1.8294236121921872 5.16748
1.8517427996910911 5.18244
1.8740620574440425 4.82167
1.8963639900671978 4.42181
1.9186833908139995 4.49315
1.9409854680117449 5.28176
1.9633050151394713 5.60637
1.9856246367570705 5.45866
2.0079269371922672 5.00195
2.03024671027244 4.183669999999999
2.0525491637446027 4.37823
2.074869091674931 4.27865
2.097171701569106 4.45377
2.1194917877373847 5.6391800000000005
2.141811954326636 4.89354
2.164114805233074 4.77036
2.186435135143035 5.72293
2.208738150935709 17.1871
2.231058647554722 37.7219
2.2533792288321184 28.6975
2.275682498336085 12.3769
2.298003251406138 6.17251
2.3203066942619714 5.21162
2.3426276225136022 4.76165
2.3649486396617507 5.26884
2.387252348930071 4.908919999999999
2.4095735463442893 4.79061
2.4318774374315884 4.86756
2.4541988185014043 5.22454
2.476502894794693 5.79594
2.498824462909887 5.74929
2.521146125856138 5.48417
2.5434504863470337 5.97208
2.5657723414244717 6.27768
2.588076895590662 7.53481
2.610398946189713 7.5160800000000005
2.6327210958598384 6.96559
2.6550259469304716 6.918080000000001
2.6773482972090137 6.58713
2.6996533504259 6.8983300000000005
2.7219759047039602 7.479660000000001
2.744298562293959 6.9507699999999994
2.7666039251246595 6.8594800000000005
2.7889267918020164 7.37259
2.8112323652516555 7.9878800000000005
2.833555444408179 8.16959
2.8558786311183852 7.614730000000001
2.8781845268938557 8.46147
2.9005079311721484 8.58902
2.9228140460410397 8.46766
2.9451376712799635 8.83948
2.967444008632326 9.541269999999999
2.9897678582247247 9.64724
3.0120918213106695 10.5046
3.0343984987899373 10.9307
3.0567226913198637 11.1057
3.079029599759726 11.7396
3.101354025127254 11.9597
3.123678568232338 12.7188
3.145985829517914 12.8609
3.16831061055229 13.4332
3.1906181112775593 14.4835
3.212943133635653 14.8466
3.2352682779763207 15.3223
3.2575761442691227 15.3487
3.2799015350264273 16.0498
3.302209649240067 16.6578
3.3245352898092655 16.7421
3.3468436553365257 17.6455
3.369169549113219 18.2691
3.3914955708171384 19.4979
3.413804319727358 19.5058
3.4361305997334863 19.8638
3.4584396084414553 19.5955
3.4807661501462652 20.8784
3.503092824025881 21.7969
3.5254022288463154 21.9621
3.5477291695206588 22.3292
3.5700388426251948 23.3666
3.5923660534916446 25.3175
3.6146934007816114 43.6465
3.637003482731501 113.97200000000001
3.6593311053109985 128.97299999999998
3.681641464033634 71.1617
3.7039693653009733 33.7769
3.726297407241705 26.9379
3.7486081875460804 26.5444
3.7709365132734978 27.0747
3.793247578841633 27.768
3.8155761917550093 27.5733
3.8378875459837216 27.393
3.8602164494827234 28.1927
3.882545499606844 29.0293
3.9048572932539183 29.9601
3.9271866390645718 30.1729
3.9494987298666713 30.5424
3.971828374764527 31.2522
3.9941581705403255 31.8194
4.016470713506008 32.6901
4.038800813471445 33.1431
4.061113662089144 33.7437
4.0834440696459176 34.5276
4.105774632334751 35.0212
4.128087945865126 35.9383
4.150418821249301 36.5999
4.172732448931298 38.2441
4.195063640413578 40.5122
4.2173775856475215 46.041000000000004
4.239709096631102 85.8362
4.262040768704612 307.272
4.284355196706267 433.01300000000003
4.306687193387355 278.08299999999997
4.329001947444346 99.4744
4.35133427213731 52.2782
4.373666762177566 46.9602
4.395982011761091 46.2694
4.418314834921175 47.6945
4.44063041906622 57.5884
4.4629635787515625 72.99
4.4852969080429785 73.2436
4.5076130004776225 58.5097
4.529946671403969 53.5169
4.552263106909177 52.7651
4.574597122877047 53.3284
4.596931312711224 53.8245
4.619248269273446 55.0229
4.6415828092605835 56.1209
4.663900117405352 57.4502
4.686235010953232 58.4953
4.708552674085913 59.9534
4.730887924602802 61.0099
4.753223354952695 62.8475
4.775541557023902 64.8554
4.797877349456786 66.4
4.820195915032126 67.9213
4.842532072957498 69.4789
4.864868414979744 71.4552
4.88718753227192 74.0003
4.909524244902505 75.9178
4.931843734218147 77.9597
4.954180820867835 80.3978
4.976518095879839 84.0957
4.998838149695359 87.1485
5.021175803844231 91.6702
5.043496238205739 94.9987
5.065834274903528 100.32799999999999
5.088172504230693 106.102
5.1104935158799565 114.699
5.132832132875765 147.115
5.155153533596801 210.09
5.1774925416746225 262.65
5.199814334878411 503.626
5.2221537374521505 1365.29
5.244493338631803 3119.55
5.266815727034316 6440.29
5.289155727832427 10814.9
5.311478517248165 9676.5
5.333818921080011 4183.1
5.356159527788849 942.852
5.3784829252032536 258.176
5.400823940070432 174.93099999999998
5.423147747031976 146.549
5.445489173474152 132.02700000000002
5.467830807066149 124.354
5.490155234831516 118.29899999999999
5.512497285125229 112.97399999999999
5.534822130975162 109.915
5.557164601388673 107.794
5.579489868738879 104.594
5.601832762690846 103.846
5.6241758697774475 102.661
5.646501775867269 101.53
5.668845311622074 99.6622
5.691171647754637 98.8708
5.713515615597765 97.4198
5.735859800852677 97.1779
5.758186788542988 96.6349
5.780531411018185 97.1682
5.802858837297399 96.399
5.825203900414495 96.5821
5.8475491852224 97.7661
5.869877275883075 98.1606
5.892223006467101 98.7931
5.914551544266608 101.074
5.936897724049891 104.921
5.959244129804903 112.44200000000001
5.981573344815301 139.49
6.0039202049061 258.885
6.026249875609095 560.474
6.04859719346037 1077.29
6.070927323278297 1994.13
6.093275102315365 3691.25
6.115623113320588 4815.76
6.137953938319995 3784.51
6.160302415650845 1463.82
6.182633708324452 367.836
6.2049826554078376 145.325
6.227331838745022 106.94
6.249663839443684 94.5395
6.27201349767565 90.2868
6.294345974611799 97.7189
6.316696111167083 115.073
6.339046488263839 108.305
6.361379686074702 87.7052
6.383730546639482 76.4994
6.406064229255215 72.5326
6.428415576718203 72.1088
6.450749747566656 70.2817
6.47310158535871 69.1979
6.495453669698332 68.3768
6.517788579421056 67.5637
6.540141159237969 66.4155
6.562476565766648 65.9543
6.5848296444934045 66.0733
6.607182974060425 65.4014
6.6295191323281015 65.6526
6.651872965955752 69.875
6.6742096296068985 104.071
6.6965639707294615 170.55900000000003
6.71891856698715 174.157
6.741255995248479 113.164
6.763611104154477 74.4288
6.785949046381137 63.2743
6.808304671371482 61.403
6.8306605557940046 61.5982
6.852999275508618 60.0869
6.875355681171544 59.7959
6.897694923437771 59.2794
6.92005185377892 59.2327
6.9423916220322655 58.9206
6.964749080490181 58.1798
6.987106804399774 58.1717
7.009447368180821 58.133
7.031805625367033 57.7866
7.054146723727803 57.8233
7.076505517631004 57.7958
7.098864581288365 57.5782
7.121206488070854 57.3528
7.143566093607822 57.2221
7.165908543567245 57.9575
7.188268694426048 58.2568
7.2106291193438095 58.1655
7.232972390625943 59.7572
7.255333366030969 76.001
7.277677189091925 148.555
7.300038718428332 219.62400000000002
7.322400526130865 185.21099999999998
7.344745183422596 106.83200000000001
7.367107550224791 67.395
7.389452767901992 59.066
7.411815697249891 57.9205
7.434161478756298 56.868
7.456524974096713 56.6298
7.478888753837185 56.4053
7.501235387657368 56.7489
7.523599738562711 56.6526
7.545946944825532 57.3522
7.568311870344528 57.5722
7.5906770845765665 57.9477
7.613025156078678 59.6291
7.635390950099687 61.615
7.657739602662809 60.428000000000004
7.680105979923558 58.6505
7.702472650212829 58.7776
7.724822180948224 58.0269
7.747189439655568 58.3149
7.769539560075357 57.9903
7.791907410653562 58.7218
7.81425812420825 58.8534
7.836626570110925 59.0547
7.858995315087906 59.6446
7.881346924933401 59.663000000000004
7.903716270417482 60.5617
7.926068482028405 60.8689
7.948438431475253 61.4483
7.9708086843180235 62.0412
7.993161805171116 62.7478
8.015532667162402 62.7936
8.037886398416653 64.3286
8.060257873014221 64.6831
8.082629655331942 65.0956
8.104984308787587 66.5686
8.127356708900503 70.3559
8.149711981398308 78.3419
8.172085002766314 81.8214
8.194458336181368 76.6385
8.216814543847752 72.6732
8.23918850371002 72.0572
8.26154533906492 72.5506
8.283919928836452 74.3517
8.306277395339652 75.3122
8.328652618483376 76.84
8.351028159736202 79.1639
8.373386579575245 81.624
8.395762759396959 83.6404
8.418121819038275 89.2172
8.440498640894003 107.15899999999999
8.462875785192262 127.04899999999999
8.485235811156207 143.52
8.507613602688501 192.22799999999998
8.529974277114228 299.01099999999997
8.552352719347912 441.798
8.574731488360351 644.323
8.59709314210385 1014.81
8.619472567021075 1541.64
8.64183487789147 2049.99
8.664214962183097 2004.17
8.686577933647762 1258.42
8.708958680784317 555.255
8.731339760774953 224.16299999999998
8.753703729764451 129.05700000000002
8.77608547780821 108.56700000000001
8.798450116065078 102.87
8.820832535634787 98.0368
8.843215292401656 95.8315
8.865580941199045 94.2773
8.887964374703538 92.9188
8.910330701447199 94.4028
8.932714815164482 98.2126
8.955099270424924 97.3116
8.977466620733543 92.8255
8.999851761421976 89.1373
9.022219798361645 86.9415
9.04460562795561 86.631
9.066991803441677 86.3664
9.089360876979615 86.0264
9.111747746589993 85.2818
9.13411751544971 85.1066
9.156505082664324 84.5341
9.178875550323522 85.2256
9.20126381862328 85.54700000000001
9.223652438908596 85.9268
9.246023961427412 85.9135
9.26841328802173 84.93299999999999
9.290785518039224 85.0455
9.313175554425882 85.6941
9.335565947154315 85.7078
9.357939245086508 85.9913
9.380330352834827 85.9909
9.40270436697103 86.0445
9.425096193225055 86.0472
9.447488380180165 87.3027
9.469863475295412 87.5087
9.492256385987508 87.5026
9.514632206018318 88.2131
9.537025843935714 88.5056
9.559402392368193 89.3501
9.581796761000229 90.602
9.604191496441521 91.8902
9.626569144158516 96.3302
9.648964615551032 102.92399999999999
9.671343000390081 105.186
9.693739211225699 101.807
9.716135793237463 97.8265
9.738515290448102 96.7585
9.760912617143402 97.6325
9.783292860202891 99.0852
9.805690935076182 100.185
9.828089385495742 101.329
9.850470754023561 104.16799999999999
9.872869957865444 113.649
9.89525208097539 134.276
9.917652041736662 151.885
9.940052382417589 151.313
9.962435644102392 158.194
9.984836746950979 199.553
10.007220771957746 279.059
10.029622640473708 388.85900000000004
10.052007432299963 527.74
10.074410069984072 719.2610000000001
10.096813093716005 1050.48
10.119199042482517 1500.04
10.141602840636468 1865.27
10.163989564971628 1788.75
10.186394141051062 1202.34
10.208799107559706 610.063
10.231187001965623 269.959
10.253592751657669 151.798
10.275981430388155 123.999
10.298387966769793 121.905
10.320794897965431 125.301
10.343184759907361 123.779
10.36559248305461 116.289
10.387983138083852 110.48200000000001
10.410391656691655 113.648
10.432800574501677 127.414
10.455192425893369 147.578
10.47760214443012 173.363
10.499994797678786 205.578
10.522405320453982 256.927
10.54479877906917 342.73800000000006
10.567210109595656 450.588
10.5896218454736 540.063
10.612016518879773 559.937
10.634429067781074 420.32300000000004
10.656824555333241 259.937
10.679237920773568 154.451
10.701651695961992 106.979
10.724048411481384 94.9164
10.746463008485165 91.2563
10.768860546937125 88.8646
10.791275969274796 86.7819
10.81369180576079 85.6142
10.836090585366925 84.5696
10.858507252467449 83.1911
10.88090686379991 82.0811
10.903324365036394 81.7338
10.925724811614439 82.0524
10.948143150509463 84.1426
10.970561909719066 83.4178
10.992963615930844 81.0056
11.015383218085756 78.0501
11.037785768347074 76.5205
11.06020621697282 75.6714
11.082627090322113 75.1446
11.105030913430326 74.8807
11.12745263854165 75.3438
11.149857314510728 80.45
11.172279894912576 89.2936
11.194702904450653 91.0606
11.217108866490921 85.4079
11.239532736615194 79.3058
11.26193956033512 76.0205
11.284364294577085 74.1699
11.306789462371718 71.4186
11.329197585398376 69.8726
11.351623622610898 69.5348
11.37403261614354 68.8669
11.396459526308487 68.7762
11.418869393879497 68.4332
11.441297180532617 67.7951
11.463725406927658 67.4527
11.486136592353875 67.3883
11.508565700543707 67.977
11.530977768845315 70.9893
11.553407762368774 72.2096
11.575838200059769 71.4832
11.598251599479612 68.868
11.620682927815501 66.6427
11.64309721895548 66.0203
11.665529441478206 65.4919
11.687962112597958 65.2766
11.710377748130886 65.6668
11.732811318753434 65.2056
11.755227854859067 65.4969
11.777662328529495 65.2957
11.800079768750786 65.2098
11.822515149015453 65.0188
11.844950984084935 65.2919
11.867369787303163 64.8091
11.889806534289491 64.8081
11.912226250487029 64.9468
11.934663912939751 65.2101
11.9571020346363 65.3805
11.979523127133968 65.1043
12.001962169624331 66.2994
12.024384183972964 67.7283
12.046824150809913 71.1923
12.069264581333726 77.5201
12.091687985297767 84.5821
12.11412934550045 92.7775
12.136553680195208 102.736
12.158995973632788 117.405
12.181438735204349 138.19
12.20386447284199 166.58900000000003
12.226308172985636 195.26
12.24873485024193 209.775
12.271179492516982 190.145
12.293607112949127 151.644
12.316052700916226 114.339
12.338498763250042 90.065
12.360927805303868 76.8928
12.383374818673879 70.7389
12.405804812803074 68.0767
12.428252780773262 67.1269
12.45070122756722 67.0902
12.473132656675375 67.0117
12.49558206341869 67.0212
12.518014453510101 66.8755
12.540464823770117 67.385
12.562915677315177 67.1642
12.58534951575545 67.8375
12.607801338171472 70.4886
12.630236146511358 77.7621
12.652688941369085 84.91799999999999
12.675124723177234 85.8503
12.697578494048786 80.3196
12.720032754458185 73.8169
12.742470003354093 70.905
12.764925245138771 70.3919
12.787363476431278 70.5238
12.809819703166806 70.9293
12.83227642391173 71.6456
12.854716135692716 72.4202
12.877173846755147 73.4587
12.899614549869717 73.6058
12.9220732548287 74.5305
12.94453245827299 75.0092
12.966974655289818 75.7253
12.989434858002571 76.7859
13.011878055298721 77.6998
13.034339260862497 78.387
13.056800969391883 79.8987
13.079245674017244 81.9276
13.101708390774869 84.7483
13.12415410463411 93.0143
13.146617833206086 107.096
13.169064559883248 121.85799999999999
13.191529303857127 137.81
13.213994557076367 154.845
13.236442809902437 178.09599999999998
13.258909083908291 213.78400000000002
13.28135835851934 261.527
13.30382565690295 326.052
13.326293469022952 396.505
13.348744283242008 438.98
13.371213125129904 411.39300000000003
13.39366497011003 323.411
13.416134845360597 220.273
13.438605238843131 149.987
13.46105863690397 119.148
13.483530069144786 114.645
13.505984506951902 120.337
13.528456981549432 130.868
13.550929978879088 142.41299999999998
13.573385983253365 157.75
13.595860028340867 182.17
13.618317081455832 216.332
13.64079217790333 261.58299999999997
13.663250283359057 312.942
13.685726434770173 363.30199999999996
13.708203115221277 368.074
13.730662806148091 314.629
13.75314054697177 237.417
13.775601299246777 160.205
13.798080104050406 113.624
13.820559442405358 92.3193
13.843021793671388 86.2925
13.865502201420897 83.8077
13.887965623051947 82.9288
13.910447103807167 81.7146
13.932929122629764 80.1581
13.955394156785959 79.8616
13.977877254034569 78.6475
14.000343367582113 77.7417
14.022827546871707 77.2122
14.045294743423524 76.4416
14.06778000837062 75.7155
14.090265817715476 75.47
14.112734645763819 75.2973
14.13522154619454 75.2433
14.157691466286913 75.561
14.180179461423874 75.0918
14.202668005486178 74.2306
14.22513957064374 73.3979
14.247629214846473 73.036
14.270101881097517 72.9853
14.29259262906496 73.3033
14.315083930490205 74.5625
14.337558255389705 74.8589
14.360050666019726 74.4689
14.382526101071944 73.3246
14.405019624534942 71.9549
14.427513705993134 71.2951
14.449990813291825 71.3207
14.47248601302899 71.0668
14.49496423954951 71.1987
14.517460561197822 71.2929
14.539939910570322 71.0544
14.562437357763558 71.6434
14.58493536931253 73.0775
14.607416409993311 74.27
14.62991555254159 75.4084
14.652397725157423 75.2602
14.674898002342799 74.0477
14.697398848433282 73.4688
14.719882725991326 73.9425
14.74238471217934 75.0852
14.764869730765593 78.6805
14.787372860692983 83.4031
14.809876564079925 88.7793
14.83236330125751 94.9648
14.854868153850365 101.65
14.877356041159485 110.195
14.899862046604186 121.69
14.922351087688757 139.131
14.944858249632887 161.767
14.967365991421232 189.604
14.989856770231246 214.285
15.012365673994204 227.196
15.03485761569738 212.02200000000002
15.05736768508665 175.396
15.07987833888692 136.924
15.102372032001655 104.839
15.124883856909658 84.4903
15.14737872204565 76.7521
15.169891721717274 74.0759
15.192405310371893 73.7468
15.214901940621196 74.4353
15.237416709527137 74.6361
15.259914520936249 74.8808
15.282430473753607 73.9141
15.304947020131227 72.4032
15.327446610371178 71.1091
15.349964346154254 69.9835
15.372465126703139 69.5623
15.394984055556009 69.1883
15.417486030076159 68.9676
15.44000615566487 68.6347
15.462526881230803 68.6874
15.485030653812652 68.9556
15.507552581617434 68.9635
15.530057557334603 69.1326
15.55258069104857 69.0534
15.575104429329837 68.7864
15.597611216864632 68.3259
15.620136166564563 68.3265
15.6426441664095 69.565
15.665170331202765 72.1235
15.687697105158826 76.2272
15.710206930593545 80.5101
15.732734925158933 85.1524
15.755245972089478 90.2118
15.77777519094324 96.5486
15.800287463046663 104.661
15.822817909869592 117.29899999999999
15.84534897229804 133.246
15.867863089299354 154.938
15.890395385222186 175.832
15.912910736597423 192.49
15.935444269699861 196.408
15.957978423016485 177.947
15.980495633101265 148.211
16.003031029129367 116.311
16.02554948280019 89.5225
16.048086125229432 74.5634
16.070623392487107 70.0518
16.09314371869582 68.671
16.11568223789321 67.4982
16.13820381691126 65.9684
16.160743591742527 64.5588
16.183283996022084 63.4669
16.205807461423195 62.2461
16.228349126881973 61.5946
16.25087385432698 61.3903
16.27341678466365 60.718999999999994
16.29594277784926 60.648999999999994
16.31848697676433 61.0925
16.341031811604868 61.8459
16.36355971058487 62.5323
16.3861058195587 62.1055
16.40863499352978 60.798
16.431182380342005 59.5057
16.453730407713202 58.7417
16.476261501364792 58.2657
16.498810812136167 57.684
16.52134319004079 57.7433
16.54389378792203 57.5764
16.566445031001553 57.6453
16.588979342490088 57.4388
16.61153187824822 57.2808
16.634067483263312 57.3764
16.656621315414416 57.035
16.679175797408888 56.5875
16.701713349928728 56.6722
16.72426913389191 56.948
16.74680798922351 57.2045
16.76936507887444 57.3606
16.791905240734874 57.3636
16.814463639794468 56.9868
16.837022695210294 57.2251
16.859564824093756 57.3883
16.882125194503903 58.3847
16.904668639217885 59.5637
16.927230328348003 59.8916
16.949792678493612 59.9197
16.972338104193863 59.0167
16.994901778652235 58.2628
17.017448529496576 57.9005
17.040013531998152 58.1381
17.06257920018044 58.7201
17.0851279459922 59.7487
17.107694947817667 60.4177
17.130245028099072 61.4941
17.15281336730298 62.5942
17.17536478578733 64.0144
17.19793446610687 65.5236
17.220504818648422 67.3078
17.243058251703697 69.3456
17.265629950971032 72.7408
17.288184731571736 76.9358
17.310757781306908 81.9987
17.33333150794385 84.829
17.355888317140174 86.009
17.37846339986244 83.3716
17.401021565958885 77.6335
17.42359800851343 71.3646
17.44617513265564 66.4222
17.468735341390783 63.2464
17.491261035594565 61.7236
17.51396340099364 61.3696
17.536490463869136 61.6587
17.559018209820174 61.6553
17.58154663977963 61.3831
17.604251766089718 61.6092
17.626781572227713 61.6966
17.64931206518155 62.0741
17.671843245885103 62.858999999999995
17.69455114821572 62.9053
17.717083712612634 63.2598
17.739616967569667 63.3513
17.762150914021706 63.5114
17.78486160749854 63.6555
17.807396945166804 64.1408
17.829932977143503 65.0956
17.85246970436452 66.8206
17.875183204129467 69.0461
17.897721330097664 71.9746
17.920260154126645 74.6069
17.942799677153296 77.4582
17.9655159983646 80.0552
17.988056927677544 83.5096
18.010598558807683 88.475
18.033140892692916 95.0062
18.05586005052525 103.065
18.07840379824407 113.50399999999999
18.10094825154059 125.82700000000001
18.12366954819864 137.659
18.146215420998306 145.411
18.16876200220057 143.975
18.191309292745153 132.722
18.214033452627167 118.131
18.236582170236648 102.964
18.259131600016456 92.3784
18.281681742907335 88.1273
18.304408781233683 89.2357
18.32696035875955 92.5666
18.349512652227624 97.6371
18.372065662579683 103.611
18.394795594587553 108.10700000000001
18.41735004715306 109.441
18.43990521943684 104.585
18.46246111238171 96.83
18.485193953325208 85.5693
18.507751296070428 76.5155
18.530309362314178 70.4038
18.552868153000343 67.108
18.57560391815056 65.0401
18.59816416623245 64.3565
18.620725141597372 63.9678
18.643286845190268 63.3344
18.666025549835414 62.8763
18.688588718427933 62.157
18.711152618092243 62.0121
18.73389353884365 61.7968
18.75645890921984 61.2539
18.77902501351406 60.8224
18.801591852673102 60.9137
18.824335739722738 60.4321
18.846904057212626 60.1677
18.8694731124168 59.9517
18.89204290628315 59.9226
18.914789774966803 59.6506
18.937361054791623 59.6061
18.959933076131318 59.1504
18.982505839934877 59.3836
19.00525570560582 59.4785
19.027829963004184 59.2862
19.05040496572238 59.3123
19.072980714710468 59.4337
19.095733592739563 59.5523
19.11831084296757 59.8218
19.140888842324735 60.5761
19.16346759176222 60.7632
19.18622349753803 61.5521
19.208803755869358 62.0855
19.231384767143577 62.6345
19.253966532312948 63.4829
19.276725481241822 64.6899
19.29930876296784 66.2926
19.3218928014549 68.7852
19.34465404436217 72.2577
19.36723960516257 75.6451
19.389825925592426 78.1236
19.412413006605938 78.9628
19.43517731967805 77.2352
19.457765930683355 73.5539
19.48035530514408 68.6378
19.50294544401556 64.4025
19.525712842708348 60.5387
19.54830451925909 58.347
19.570896963095727 56.7533
19.593490175174704 56.2133
19.616260674962184 55.9795
19.638855432416964 55.7667
19.661450960992624 55.757
19.68404726164677 55.4736
19.706820878021247 55.411
19.729418731756834 55.7115
19.752017360452857 55.3895
19.77461676506804 55.5885
19.797393513540218 55.8407
19.819994478951667 56.14
19.84259622316767 56.711000000000006
19.8651987471481 57.1203
19.887978643247177 57.5656
19.91058273574792 57.8005
19.933187610901943 58.3667
19.955969879466828 59.055
19.97857632894404 60.0345
20.00118356396599 61.0033
20.023791585494575 62.5302
20.046577028914875 64.8372
20.069186632506966 67.0648
20.091797025500632 69.6113
20.114408208858933 71.4859
20.137196842715273 72.8204
20.159809615886765 72.5109
20.18242318232135 69.9424
20.20503754298326 67.4731
20.227829382875154 65.3569
20.250445341109344 63.8422
20.27306209647285 63.4184
20.29567964993108 64.29
20.31847471147704 65.3587
20.34109387027612 66.8987
20.363713830075454 67.6747
20.386334591841646 67.4903
20.409132890679302 65.6087
20.431755265564437 62.696999999999996
20.454378445325528 59.4506
20.477002430930366 57.1915
20.499803982716553 55.3499
20.522429589228004 54.2245
20.54505600449589 53.6506
20.567683229489194 53.3977
20.590488049900088 52.7801
20.61311690359731 52.2462
20.63574656993626 52.0905
20.658553853717297 51.6032
20.681185154618298 51.6003
20.703817271080066 51.5728
20.72645020407368 51.1824
20.749260783967177 51.0695
20.771895359337133 51.0252
20.794530754161617 50.8833
20.817166969412938 50.7316
20.83998086114876 50.6269
20.86261872660049 50.5976
20.885257415405402 50.6981
20.90789692853701 50.5011
20.930714147864748 50.411
20.953355319030678 50.604
20.97599731745334 50.663000000000004
20.99864014410749 50.6759
21.021460706796564 50.5651
21.044105199328826 50.8901
21.06675052302631 50.9208
21.089396678865015 51.1381
21.112220600704806 51.283
21.134868430275347 51.4633
21.15751709492456 51.5732
21.180166595629693 51.8323
21.202993892429635 52.415
21.22564507473034 52.6638
21.24829709602816 53.0914
21.27112693608965 53.3096
21.293780644891275 53.4777
21.316435195634053 53.0357
21.339090589297417 52.4593
21.361923832041875 52.0116
21.384580921090404 51.257
21.407238856007325 50.6015
21.429897637773326 50.4371
21.45273429906592 50.2308
21.475394784108598 50.1847
21.498056118951983 50.0421
21.520718304578022 50.4647
21.543558400304388 50.6321
21.566222297108816 50.6564
21.58888704765135 50.8036
21.61155265291521 51.3687
21.63439619898156 51.6534
21.657063523335786 52.0621
21.67973170537063 52.4151
21.7024007460706 52.8626
21.72524775840385 53.49
21.747918526116475 54.2838
21.770590155457388 54.8617
21.79326264741238 56.0494
21.816113141960237 57.4477
21.838787368860547 59.0484
21.861462461341976 60.7046
21.884315579735777 62.7747
21.90699241312273 64.8584
21.92967011506078 66.4772
21.95234868653799 67.4395
21.9752053151131 66.9825
21.997885635446785 65.6537
22.020566828293532 63.4602
22.04324889464272 60.8487
22.066109049404666 58.9263
22.088792872571794 57.6762
22.111477572219204 57.6032
22.1341631493376 57.7241
22.157026846313123 57.8743
22.179714188221507 57.9732
22.202402410582668 57.3341
22.22509151438863 55.7148
22.24795876962584 54.3817
22.270649646204486 53.165
22.293341407213727 52.2443
22.316034053646906 51.6766
22.338904883215342 51.3024
22.36159931041458 51.1387
22.38429462602756 50.9626
22.40699083104897 50.934
22.429865251039757 50.8125
22.452563244831367 50.845
22.47526213102522 50.9058
22.49813925616515 50.6141
22.520839937143307 50.4908
22.543541513520587 50.4904
22.56624398629403 50.2834
22.589124730075895 50.4444
22.611829005656723 50.5024
22.63453418063466 50.3942
22.657240256008077 50.8058
22.680124634582935 50.8745
22.70283252079775 51.1223
22.725541310413075 51.5268
22.74825100442868 51.7616
22.771139033969575 52.0589
22.79385054687155 52.1844
22.81656296718292 52.663999999999994
22.83927629590484 53.2818
22.862167992606945 53.8795
22.88488314827121 54.8247
22.907599215359284 55.5314
22.93031619487366 56.6829
22.953211574954405 57.9103
22.975930389478226 59.0874
22.998650119445763 59.9311
23.02137076586092 60.095
23.044269845560063 59.5851
23.06699233506288 58.0658
23.089715744034912 56.1915
23.112617610931565 54.0664
23.135342869061212 52.4777
23.158069049684816 51.6077
23.1807961538087 51.0226
23.20370174880544 50.8811
23.226430710184808 50.7162
23.249160598093425 50.8033
23.271891413539002 50.9601
23.294800752937697 50.9648
23.31753343374794 51.0404
23.340267045128353 51.2706
23.36300158808808 51.4377
23.38591468821339 51.7092
23.408651104658304 52.0064
23.431388455719986 52.2292
23.454126742409 52.7638
23.4770436196085 53.1383
23.499783787914662 54.3755
23.522524894889884 55.1614
23.54526694154616 56.2969
23.56818761219047 57.4402
23.59093154860734 58.5225
23.613676427751283 59.7608
23.636422250635754 59.7054
23.659346731118656 58.9758
23.68209445191868 57.4098
23.704843119509587 55.178999999999995
23.72759273490623 52.9104
23.750521041644767 51.0309
23.77327256312355 49.6192
23.796025035462787 48.7549
23.818956224555475 48.2489
23.841710609113413 47.8763
23.86446594758979 47.7054
23.887222241002014 47.4748
23.910157285144578 47.0347
23.932915498962537 47.0889
23.955674670778713 46.9012
23.978434801611975 46.5843
24.001373717286125 46.4617
24.024135776723917 46.3935
24.046898798245582 46.2724
24.06966278287146 46.1176
24.092605586582614 46.0025
24.115371508023642 45.9983
24.1381383956401 45.6964
24.16090625045381 45.766999999999996
24.183852958731244 45.7643
24.206622758582608 45.645
24.229393528706886 45.38399999999999
24.252165270127392 45.5296
24.27511589952438 45.3638
24.297889594216997 45.1758
24.32066426328598 44.9201
24.34343990775613 45.211000000000006
24.36639447485003 45.0409
24.38917208083877 44.986999999999995
24.41195066531332 44.6879
24.43490819850244 44.9466
24.457688750692377 44.5822
24.48047028445616 44.4057
24.503252800821233 44.6254
24.526214300784112 44.7354
24.548998793132213 44.6596
24.57178427117417 44.4814
24.59457073593893 44.4638
24.617536219319863 44.5815
24.64032466834748 44.5671
24.663114107195035 44.4239
24.685904536893013 44.1952
24.708874020360852 44.3464
24.731666442613744 44.1583
24.754459858818787 43.9621
24.777254270007962 44.0287
24.80022777025625 43.8506
24.82302418230472 43.8702
24.845821592443674 43.8828
24.86862000170663 43.8535
24.891597535453727 43.7335
24.914397953892728 43.8604
24.93719937456671 43.8602
24.96000179851076 43.9179
24.98298338249997 44.0896
25.00578782394922 44.1619
25.028593271784167 44.3071
25.05157790644186 44.6245
25.07438537804115 44.7468
25.097193859145293 44.8168
25.120003350792075 45.0054
25.142992065061257 45.2802
25.165803588823465 45.7407
25.18861612625217 46.0902
25.211429678386736 46.1472
25.234422489079968 46.2595
25.257238081693636 46.25
25.280054692141732 46.3373
25.3028723214652 46.2763
25.325869245420463 46.303999999999995
25.348688923599397 46.3935
25.371509623787006 46.5732
25.394331347025812 46.4566
25.41733240110666 46.2474
25.440156181590016 45.7544
25.46298098826268 45.2483
25.48580682216873 44.6086
25.50881202326435 43.9706
25.53163992281684 43.4007
25.55446885274561 42.9125
25.577298814096377 42.5305
25.600308179121807 42.4941
25.623140214533745 42.5271
25.64597328451537 42.4238
25.66898578564376 42.2458
25.691820936010206 42.1873
25.714657124097695 42.1917
25.737494350954734 42.2321
25.760511045684957 42.086000000000006
25.783350361364224 42.0729
25.806190718969255 42.1964
25.82903211955018 42.2566
25.852053024868923 42.2544
25.874896522722523 42.2286
25.897741066713106 42.3272
25.920586657892454 42.2708
25.943611790812668 42.2612
25.966459487728237 42.2701
25.989308234998564 42.2318
26.01215803367705 42.6166
26.03518741123814 42.751999999999995
26.05803932412957 42.8431
26.080892291600094 42.7946
26.10374631470478 43.0862
26.12677995397268 43.2998
26.14963609978026 43.1911
26.172493304397875 42.9961
26.19535156888223 42.9111
26.218389486949604 42.4139
26.241249882640123 42.2244
26.26411134137826 42.051
26.28715248187403 41.8786
26.31001607820869 41.7639
26.3328807407756 41.5016
26.35574647063438 41.6846
26.37879191991473 41.5721
26.401659795896734 41.6584
26.424528742360263 41.838
26.447398760366614 41.9496
26.470448535598294 41.9464
26.49332070826805 42.0654
26.516193955675355 42.4531
26.53906827888316 42.6289
26.562122397260108 42.6192
26.584998883685063 42.8911
26.607876449110325 43.1428
26.63075509460056 43.2135
26.65381357334404 43.4452
26.67669439061878 43.6755
26.699576291163382 43.6576
26.722459276044212 43.5553
26.745522132402975 43.4005
26.768407297649354 43.1559
26.791293550442003 42.6859
26.814180891848974 42.44
26.837248143099337 42.1
26.860137673466657 42.0389
26.88302829566349 41.7805
26.90592001075963 41.698
26.92899167420566 41.567
26.951885586870763 41.0448
26.974780595655517 40.9916
26.99785558178161 40.8162
27.020752794605112 40.6005
27.043651106772522 40.3761
27.06655051935668 40.3726
27.089629948036183 40.1936
27.112531573292053 40.1249
27.135434302194138 40.2092
27.158338135817015 40.0216
27.181422024430987 40.0408
27.204328079372566 39.7721
27.22723524226965 40.005
27.250143514198573 40.0004
27.273231880156334 40.0787
27.296142382065014 39.8877
27.319053996245536 39.7687
27.341966723775965 39.8325
27.365059584515222 39.8633
27.38797455070062 39.8477
27.410890633481237 39.6974
27.433807833936918 39.8206
27.456905206923906 39.8933
27.47982465472398 39.8904
27.502745223449743 39.9177
27.525666914182825 40.098
27.548768816912457 39.9826
27.571692763693633 39.8181
27.59461783573812 40.0018
27.617723149491244 39.7559
27.640650484125285 39.8196
27.66357894728264 39.551
27.686508540048052 39.5744
27.709618414237887 39.3371
27.732550278321757 39.2889
27.755483275279115 39.3239
27.778417406196485 39.4804
27.801531858397514 39.402
27.824468269376716 39.1906
27.847405817586786 39.1737
27.870344504116094 39.332
27.893463551932008 39.3058
27.916404527281053 39.4397
27.93934664422563 39.538000000000004
27.962289903855886 39.6782
27.98541356491974 39.8831
28.00835912214229 39.9742
28.03130582533231 40.1564
28.054253675581805 40.4118
28.077381967556104 40.3058
28.100332124185126 40.4469
28.123283431160893 40.5293
28.146235889577238 40.2468
28.169368830154156 40.1105
28.192323603752033 40.1506
28.215279532083304 39.6251
28.238415973016764 39.3545
28.261374223145094 39.2372
28.284333631303806 39.1515
28.307294198589954 39.0116
28.330435319167677 38.7252
28.353398217078915 38.503
28.376362277420153 38.1794
28.39932750129032 38.1123
28.422473319286713 37.8955
28.44544088262495 37.8239
28.468409612800283 37.71
28.491379510913497 37.5063
28.51453004413313 37.4201
28.53750229057244 37.3284
28.56047570826344 37.2759
28.583450298308804 37.3658
28.606605564586562 37.1509
28.629582511831156 37.1531
28.65256063474956 36.9363
28.675539934446338 36.9815
28.698699951647605 36.844
28.72168161743193 36.8707
28.74466446331978 36.8886
28.767648490417624 36.7267
28.790813276438353 36.7809
28.813799678527303 36.7565
28.836787265157085 36.7239
28.859955641890075 36.7987
28.882945610203045 36.7294
28.905936766392035 36.5861
28.928929111566863 36.7361
28.952102288520145 36.6043
28.975097024308607 36.4687
28.998092952423807 36.3632
29.021090073977508 36.266
29.04426806913204 36.1554
29.067267590245258 36.1003
29.090268308143695 35.9456
29.11327022394099 35.8589
29.13645305530891 35.6719
29.159457379627167 35.7009
29.18246290519685 35.5524
29.20546963313352 35.6248
29.22865731875826 35.7227
29.25166646419296 35.6206
29.27467681535305 35.3646
29.29768837335608 35.4977
29.320880931312562 35.6136
29.34389491580634 35.4887
29.366910110507334 35.4454
29.38992651653503 35.4577
29.41312396492981 35.4986
29.436142806456754 35.4228
29.45916286268059 35.455
29.48236399319994 35.3225
29.50538649169417 35.2078
29.528410208259935 35.1926
29.55143514402014 34.9678
29.574641196749695 34.8038
29.597668583816574 34.6756
29.6206971934585 34.3812
29.64372702680042 34.4208
29.666938019934474 34.3243
29.689970313635285 34.2056
29.713003834422636 34.2045
29.73603858342347 34.1789
29.759254535188578 34.2761
29.78229175361658 34.1125
29.80533020365064 34.1908
29.82836988641968 34.1705
29.85159081507472 34.0109
29.874632976355343 33.9891
29.89767637376955 33.9626
29.920721008448314 33.8882
29.9439469322847 33.7402
29.96699405457564 33.6857
29.9900424175358 33.8147
30.013092022298157 33.7165
30.03632295963995 33.6186
30.059375061131373 33.6968
30.08242840783577 33.6757
30.105483000888153 33.6935
30.128718970092244 33.7103
30.151776069006917 33.5474
30.17483441768648 33.5788
30.198074175317235 33.5781
30.221135036724256 33.6778
30.24419715131772 33.6594
30.267260520236203 33.5655
30.290505341942243 33.5542
30.313571232750228 33.6597
30.336638381310948 33.5271
30.35970678876503 33.5802
30.38295669299435 33.4573
30.40602763151657 33.463
30.429099832366074 33.4475
30.452173296685572 33.279
30.47542830191959 33.2202
30.498504306502497 33.236999999999995
30.521581577995562 33.292
30.544660117543582 33.3475
30.56792024229725 33.2956
30.59100133132069 33.2652
30.614083691845494 33.2734
30.637167325018545 33.2302
30.660432587840603 33.4333
30.683518779717886 33.3085
30.70660624769615 33.3992
30.729694992924372 33.4033
30.75296541239743 33.3867
30.77605672557558 33.382
30.799149319462742 33.327
30.8224236211637 33.1798
30.845518789950724 33.1501
30.868615242910597 33.0819
30.891712981195973 32.8021
30.91499247215866 32.8072
30.938092794619365 32.7531
30.96119440587579 32.7751
30.984297307082752 32.6821
31.00758200598383 32.5699
31.030687500658694 32.4813
31.053794288760695 32.3701
31.076902371446767 32.3126
31.100192296997445 32.2956
31.12330298246119 32.2363
31.14641496599209 32.1887
31.169528248749216 32.1684
31.19282341969534 32.1017
31.215939314557186 32.1063
31.239056512134788 32.2348
31.262175013589378 32.0479
31.28547544871168 31.9527
31.30859657161541 32.0461
31.331719001892175 31.971999999999998
31.35484274070538 31.9935
31.378148458819545 32.0373
31.401274828443725 32.0047
31.424402510106933 32.0072
31.447712205419993 31.993000000000002
31.470842524931633 31.9238
31.493974159989783 32.0136
31.51710711176168 31.9348
31.54042212308802 31.9963
31.563557722100917 32.0116
31.586694641341655 31.9445
31.609832881979628 31.7957
31.63315322823208 31.5605
31.656294125521327 31.6004
31.679436347728515 31.5452
31.70257989602529 31.3841
31.725905596152327 31.2931
31.74905181052835 31.3589
31.772199354521323 31.288
31.79534822930507 31.3357
31.818679302290967 31.1982
31.84183085259981 31.3082
31.864983737233473 31.2822
31.88813795736804 31.1659
31.911474422233013 31.0986
31.934631327356435 31.2069
31.9577895715215 31.1226
31.980949155906522 31.151999999999997
32.004291031706956 31.2529
32.027453310562606 31.0629
32.05061693318573 31.0349
32.07396288236386 31.0527
32.09712920658542 30.9211
32.12029687812702 30.7675
32.14346589817093 30.7951
32.166817291729984 30.688000000000002
32.18998902288583 30.6783
32.21316210610336 30.6236
32.23633654256711 30.4525
32.259693399663725 30.436
32.282870556771144 30.266
32.30604907069099 30.2954
32.329228942610065 30.2397
32.35259128243769 30.0556
32.375773884550505 29.9774
32.398957848235646 29.9873
32.422143174682176 30.016
32.445511016471215 29.8798
32.468699082679954 29.8614
32.49188851523011 29.7281
32.51507931531304 29.6632
32.538452678331 29.7212
32.56164622776311 29.6472
32.58484114831493 29.5861
32.60803744118015 29.6666
32.631416344731896 29.6111
32.654615396551876 29.5843
32.67781582427913 29.5434
32.701198898634416 29.4243
32.72440209253756 29.3832
32.747606665947124 29.3666
32.77081262006088 29.2231
32.79420126883317 29.3114
32.81740999876112 29.3156
32.840620112999424 29.1506
32.86383161274818 29.1238
32.88722585534586 29.1805
32.91044014056596 29.0442
32.933655814909734 29.1255
32.95687287957963 29.1068
32.98027273544904 28.9678
33.00349259526636 28.9451
33.026713849030116 28.8754
33.04993649794511 28.8678
33.073341986570746 28.9085
33.09656744032826 28.9047
33.11979429286444 28.8408
33.14302254538647 28.746
33.166433686291185 28.6688
33.18966475336992 28.7103
33.212897224069096 28.6094
33.23613109959831 28.6023
33.259547912343415 28.561
33.2827846121627 28.6369
33.306022720453775 28.5733
33.32926223842861 28.4343
33.352684742614166 28.4651
33.37592709463173 28.4393
33.399170859982064 28.3445
33.422597648419426 28.2613
33.44584425514446 28.2046
33.46909227885668 28.2465
33.4923417207723 28.1011
33.51577423505344 28.1035
33.539026528130385 27.9376
33.56228024307245 27.9407
33.585535381098246 27.815
33.60897364093058 27.8186
33.63223163992385 27.7904
33.6554910656699 27.6289
33.678751919389796 27.6726
33.702195944520106 27.5783
33.72545966903325 27.6153
33.74872482519663 27.5443
33.771991414233746 27.5567
33.79544122444841 27.4563
33.81871069412428 27.3417
33.84198160035767 27.3673
33.86525394437455 27.4564
33.88870955949969 27.2913
33.911984794020626 27.3673
33.93526147001624 27.2821
33.958539588715006 27.1605
33.98200102861669 27.1521
34.0052820477047 27.1185
34.02856451319451 27.0604
34.05203033759056 27.0715
34.07531571090147 27.0071
34.09860253431845 26.9713
34.121890809074316 26.8365
34.145362493118924 26.9164
34.16865368561615 26.7955
34.191946333164054 26.8497
34.21524043699793 26.7985
34.23871800066799 26.7696
34.26201503218366 26.6329
34.28531352370466 26.6532
34.30861347646881 26.464000000000002
34.33209693978188 26.5028
34.3553998301885 26.5258
34.378704185565205 26.399
34.402010007152356 26.326999999999998
34.42549939016683 26.3121
34.44880815937748 26.2322
34.472118398533134 26.3168
34.49543010887669 26.2845
34.51892543169198 26.0507
34.54224009966052 26.0533
34.56555624255917 26.1961
34.58887386163339 26.0262
34.61237514439016 25.9881
34.6356957311114 26.0127
34.65901779775809 25.9005
34.68252356662995 25.8855
34.705848608458616 25.8942
34.72917513396849 25.8249
34.75250314440949 25.7966
34.77601490857862 25.7096
34.799345904259795 25.601
34.82267838863559 25.6157
34.846012362958525 25.5356
34.869530142679984 25.5999
34.89286711232212 25.4922
34.91620557568269 25.4563
34.93954553401677 25.4442
34.9630693495876 25.3517
34.986412313340814 25.3996
35.00975677584668 25.4083
35.033102738362956 25.3695
35.05663261012228 25.2822
35.0799815881786 25.2735
35.10333207003229 25.2021
35.12668405694369 25.2267
35.150220005273056 25.1407
35.17357501786656 25.1527
35.19693153931268 25.0987
35.220289570874385 25.1472
35.24383161619786 25.0235
35.267192683604904 25.0709
35.290555264930376 25.0749
35.314101899412165 24.987
35.33746752422433 24.9473
35.36083466676374 24.9753
35.38420332829803 24.8452
35.407756095629054 24.8862
35.43112781085063 24.8948
35.45450104888391 24.8075
35.477875810999194 24.8608
35.50143473172161 24.7484
35.52481255774625 24.759
35.54819191167777 24.6847
35.57157279478914 24.6587
35.595137889488406 24.5953
35.61852184675279 24.6116
35.641907337029984 24.579
35.665294361595684 24.5317
35.68886565090076 24.4164
35.7122557598848 24.4044
35.73564740699838 24.4227
35.759040593519934 24.4657
35.78261809810353 24.3754
35.80601437933051 24.2439
35.829412203814705 24.2183
35.85281157283719 24.0898
35.876395313415884 24.0996
35.8997977874528 23.9974
35.92320180988546 24.0535
35.946790244133936 23.9978
35.97019737933222 24.0351
35.993606066789866 23.9792
36.01701630779276 23.8471
36.04061101440684 23.7893
36.06402437852291 23.8399
36.08743930005611 23.8146
36.1108557802951 23.7707
36.13445678011326 23.7529
36.15787639383515 23.6837
36.18129757014299 23.7274
36.20472031032821 23.6007
36.22832762423364 23.5135
36.25175350829375 23.575
36.275180960119776 23.4171
36.298609981005924 23.4801
36.32222362992669 23.5272
36.34565580510207 23.5172
36.36908955323448 23.4004
36.39252487562093 23.2881
36.416144880530226 23.3106
36.43958336764275 23.3084
36.463023432914625 23.3043
36.486465077645676 23.1342
36.51009145956204 23.264
36.53353627947859 23.2346
36.55698268276811 23.241999999999997
36.58043067073321 23.1509
36.60406345072071 23.0121
36.62751462435344 22.9979
36.65096738658405 22.9917
36.67460498210655 22.9944
36.69806093788647 22.9519
36.72151848619297 22.8521
36.744977628333636 22.8377
36.76862165890998 22.7766
36.79208400512205 22.8224
36.81554794910557 22.8079
36.83901349217101 22.691
36.862663978991606 22.6596
36.88613273667352 22.6566
36.90960309738324 22.6388
36.933075062434064 22.5819
36.95673202673572 22.5114
36.98020721697122 22.5279
37.003684015502365 22.4602
37.027162423645365 22.471999999999998
37.050825886711465 22.4341
37.07430753063053 22.3466
37.09779078812467 22.2853
37.121275660513014 22.2957
37.144945643673694 22.2782
37.16843376245278 22.2635
37.19192350009803 22.1988
37.215414857931435 22.1104
37.239091382563885 22.0679
37.262585997426164 22.084
37.28608223645736 22.0428
37.309763684451696 22.0454
37.33326318851098 21.991999999999997
37.356764320726555 21.9803
37.380267082425526 21.9859
37.40395510942588 21.9914
37.42746114683234 21.8816
37.45096881771841 21.7941
37.474478123414166 21.763
37.49817275092816 21.7609
37.52168534303452 21.8162
37.54519957395567 21.6632
37.568715445024665 21.6105
37.592416694607714 21.6199
37.61593586281424 21.576999999999998
37.63945667518264 21.6601
37.66297913304891 21.5169
37.68668702630454 21.5187
37.710212792059274 21.4269
37.733740207334854 21.3737
37.757269273470364 21.3445
37.780983832050374 21.3596
37.80451621684926 21.319000000000003
37.82805025654007 21.3199
37.851585952464795 21.2768
37.8753071980695 21.1785
37.89884622345676 21.2099
37.92238690911902 21.0911
37.94611318753442 21.0438
37.969657210779765 21.0241
37.99320289834801 20.99
38.016750251586465 20.9026
38.04048325513017 20.9063
38.06403395679343 20.9496
38.087586328183946 20.8722
38.11114037065203 20.8962
38.13488012115898 20.8505
38.1584375229181 20.8066
38.181996599821 20.7702
38.205557353221124 20.7235
38.229303872575656 20.7035
38.2528679961576 20.6798
38.27643380031219 20.5967
38.30000128639589 20.6425
38.32375459653193 20.6058
38.34732546371299 20.5894
38.37089801690786 20.4523
38.39447225747609 20.4394
38.418232380377425 20.3665
38.441810012983396 20.3948
38.46538933705673 20.3659
38.488970353960084 20.4189
38.51273731166058 20.3315
38.536321731567014 20.3012
38.55990784840681 20.2453
38.58367995004091 20.2148
38.60726947812959 20.1237
38.63086070726198 20.1631
38.654453638806274 20.0687
38.678232613930824 20.0636
38.70182896773327 20.0573
38.72542702806741 20.0524
38.7490267963045 20.0092
38.77281266709232 19.9604
38.79641586862214 19.9237
38.8200207821842 19.8502
38.843627409152944 19.8883
38.86742019782782 19.8495
38.891030269149255 19.7691
38.914642058016156 19.741
38.938255565806124 19.7903
38.96205529464307 19.7158
38.98567225787121 19.6127
39.00929094417078 19.6718
39.03291135492255 19.6278
39.05671804624804 19.5863
39.080341923549106 19.5119
39.103967529460334 19.564
39.127594865365744 19.4897
39.15140854155791 19.3838
39.17503935514948 19.4039
39.19867190290282 19.4518
39.22249083587951 19.3549
39.24612686969409 19.3389
39.269764641845306 19.2793
39.293404153722804 19.3068
39.317230110864074 19.2443
39.34087311998506 19.1995
39.36451787301696 19.2235
39.388164371352595 19.0818
39.41199737518003 19.0768
39.43564738196752 19.0678
39.45929913825317 19.0004
39.48295264543308 18.9782
39.506792718520884 18.9392
39.530449745387216 18.9774
39.55410852735203 18.929000000000002
39.57776906581474 18.8549
39.60161623079 18.8961
39.625280300200025 18.9057
39.64894613032202 18.768
39.67261372255866 18.7322
39.6964680021016 18.7513
39.72013913657293 18.7655
39.74381203738292 18.7389
39.76748670593756 18.6599
39.79134812278169 18.6546
39.81502634488497 18.6311
39.83870633896685 18.6093
39.862388106436654 18.5129
39.88625668336918 18.5395
39.90994201572829 18.4894
39.933629125719285 18.4785
39.957503091207826 18.4296
39.9811937746168 18.4826
40.00488623990914 18.4572
40.02858048850006 18.4101
40.05246165409549 18.312
40.076159487492085 18.1716
40.099859108448875 18.2492
40.123560518384345 18.2676
40.1474489070226 18.1784
40.171153913178564 18.1265
40.194860712584955 18.104
40.2185693066637 18.1094
40.242464941335314 18.0575
40.26617714307655 18.0713
40.289891143772046 18.0427
40.3136069448471 17.9885
40.33750984859743 17.9764
40.3612292688043 17.9543
40.3849504936829 17.9623
40.40867352466194 17.921
40.43258372059144 17.8169
40.45631038219906 17.8607
40.48003885420956 17.8264
40.503769138055105 17.7832
40.52768664931955 17.7807
40.55142057531802 17.7548
40.57515631746428 17.703
40.599079334038514 17.6736
40.62281872700477 17.6575
40.64655994043941 17.5795
40.67030297578061 17.5542
40.69423334835778 17.5781
40.71798004609188 17.5261
40.74172857006355 17.496
40.76547892171441 17.469
40.7894166736039 17.5034
40.813170699248566 17.3748
40.83692655691388 17.3412
40.86068424804498 17.4303
40.884629402612525 17.3443
40.908390779366385 17.3108
40.932153993938 17.2641
40.95591904777605 17.2547
40.979871628443995 17.2434
41.003640379561936 17.2289
41.02741097430883 17.2227
41.05118341413683 17.1199
41.075143444384416 17.0799
41.098919593177826 17.0776
41.1226975914255 17.0502
41.14647744058318 17.0791
41.170444943946755 17.0248
41.19422851378379 16.9586
41.218013938914645 16.9226
41.24198706625173 16.9076
41.26577622087193 16.8715
41.289567235177785 16.8136
41.31336011063129 16.8427
41.337340752422875 16.8122
41.361137369129835 16.7854
41.38493585138705 16.7504
41.40873620066004 16.7084
41.43272438060107 16.6507
41.45652848292052 16.6131
41.48033445666918 16.6105
41.50414230331616 16.5454
41.528138045159764 16.5925
41.551949656675205 16.5218
41.575763145513235 16.5451
41.59957851314666 16.4802
41.62358184070442 16.4372
41.64740098505737 16.4461
41.6712220126409 16.375999999999998
41.69504492493139 16.3335
41.71905586207357 16.305
41.74288256296395 16.2909
41.766711153007456 16.2335
41.79054163368412 16.1963
41.814560204340054 16.2883
41.838394485526365 16.1987
41.86223066180303 16.2005
41.88625497706819 16.1747
41.910094962812 16.1356
41.93393684811168 16.1521
41.95778063445365 16.0278
41.981812625263366 15.9871
42.00566023303407 15.9864
42.029509746323676 15.9465
42.05336116662236 15.943
42.077400857069705 15.9894
42.10125611078846 15.8912
42.12511327600405 15.841
42.14897235421036 15.8455
42.173019768448455 15.8144
42.19688269209613 15.8082
42.22074753323349 15.8018
42.24461429335818 15.8067
42.268669455600495 15.7214
42.292540073217886 15.6928
42.31641261433284 15.6889
42.34028708044675 15.6667
42.36435001496739 15.6282
42.38822835065557 15.66
42.41210861586426 15.589
42.4359908120986 15.5987
42.46006154323262 15.5421
42.48394762115317 15.4691
42.507835634632315 15.4898
42.531912233047436 15.4684
42.55580413732265 15.4418
42.579697981698 15.4416
42.60359376768525 15.3507
42.62767820545945 15.3489
42.65157789440821 15.3386
42.67547952952185 15.3049
42.699383112316 15.2671
42.72347541395347 15.2014
42.74738291190531 15.1554
42.771292362102166 15.1575
42.795203766063516 15.1524
42.819303956130405 15.1049
42.843219287476536 15.1156
42.86713657716324 15.047
42.89105582671383 15.0561
42.91516392983864 15.064
42.939087119032166 15.0239
42.963012272677304 15.0327
42.98693939230129 15.0176
43.01105543317513 14.9609
43.034986504731386 14.9083
43.05891954686589 14.8557
43.08285456110972 14.8892
43.10697856448665 14.82
43.130917542983475 14.7903
43.15485849820081 14.7505
43.17880143167367 14.7199
43.20293342237094 14.6944
43.226880332449 14.6928
43.25082922540554 14.6555
43.27496722682525 14.6502
43.29892010567796 14.6242
43.32287497204102 14.619000000000002
43.34683182745632 14.5566
43.370977859791836 14.5431
43.39493871351105 14.5014
43.41890156092628 14.4947
43.44286640358341 14.5007
43.46702049182749 14.4854
43.49098934522816 14.4232
43.51496019852649 14.3983
43.5389330532723 14.3972
43.56309522248204 14.388
43.58707210044314 14.347000000000001
43.61105098451946 14.2868
43.63503187626491 14.2705
43.659202151562134 14.2218
43.68318707902681 14.2243
43.70717401884041 14.2201
43.731162972560874 14.1642
43.75534137913236 14.1113
43.779334381108384 14.1075
43.803329401683186 14.0803
43.82732644241872 14.0136
43.8515130055166 14.0148
43.87551410707659 14.0517
43.89951723350145 14.0167
43.923709934595614 13.9566
43.94771713129917 13.9529
43.97172635758096 13.984000000000002
43.99573761501002 13.9046
44.0199385169922 13.8982
44.04395385732619 13.8705
44.067971233533086 13.8308
44.09199064718605 13.7921
44.11619977548961 13.7852
44.14022328470671 13.7736
44.16424883610785 13.7435
44.18827643127035 13.732000000000001
44.21249381139513 13.7137
44.236525514814076 13.6682
44.26055926674478 13.6507
44.28459506876863 13.6792
44.3088207262813 13.5746
44.33286064928722 13.5625
44.35690262714919 13.5731
44.38094666145278 13.5324
44.4051806219871 13.5131
44.42922879003185 13.4497
44.45327901929361 13.4607
44.477331311362136 13.4126
44.501573600619416 13.389000000000001
44.525630039221795 13.3925
44.54968854541895 13.3782
44.573937102200176 13.3244
44.5979997645541 13.367
44.622064499300315 13.3543
44.64613130803592 13.3348
44.67038823869318 13.2228
44.69445921643748 13.2034
44.718532272981385 13.1334
44.742607409926194 13.1675
44.76687274034801 13.1675
44.79095205918753 13.1112
44.81503346325094 13.1148
44.839116954143876 13.0919
44.86339071028742 13.0536
44.88747839599524 13.0494
44.91156817336837 12.9981
44.93566004401666 12.988
44.959942251908146 12.9949
44.984038330325966 12.9522
45.00813650686762 12.909
45.03223678314731 12.8848
45.05652746888232 12.8949
45.08063196592069 12.8286
45.104738567558705 12.8278
45.128847275414856 12.7955
45.15314646515866 12.78
45.17725940679741 12.7166
45.20137445952892 12.7343
45.22568004865265 12.7428
45.24979934496396 12.6973
45.27392075725247 12.6798
45.29804428714431 12.6407
45.322358426247604 12.6145
45.346486212804315 12.6164
45.370616121861914 12.6119
45.39474815505086 12.577
45.41907087049246 12.5157
45.4432071734666 12.4703
45.46734560548283 12.517000000000001
45.49148616817604 12.4638
45.51581748638564 12.4576
45.5399623320197 12.3938
45.56410931325473 12.4013
45.58825843173002 12.4246
45.61259837920865 12.3649
45.636751793816 12.355
45.66090735060093 12.3219
45.68506505120716 12.3048
45.7094136545275 12.2592
45.73357566449271 12.1705
45.75773982322992 12.2027
45.78190613238733 12.1799
45.806263418194064 12.155999999999999
45.83043404997326 12.1758
45.85460683713677 12.1449
45.87897065658495 12.0863
45.90314777634752 12.0838
45.92732705646868 12.0069
45.9515084986045 12.0419
45.97588104735473 12.0486
46.00006683541565 11.9809
46.02425479047904 11.9951
46.04844491420549 11.9522
46.0728262191024 11.9735
46.09702070211635 11.9413
46.12121735879483 11.9225
46.14541619080294 11.9125
46.169806278764455 11.8958
46.194009483459034 11.8614
46.21821486849841 11.8459
46.24242243555223 11.8222
46.266821333570014 11.8018
46.29103328674601 11.7438
46.31524742696538 11.7591
46.33946375590237 11.7134
46.36387149104216 11.6595
46.38809221957392 11.6202
46.41231514186606 11.6522
46.436540259597464 11.6253
46.460956858999374 11.6088
46.48518638983522 11.6013
46.509418121166966 11.5758
46.533652054678114 11.5274
46.55807754555709 11.5572
46.58231590571962 11.5318
46.60655647313217 11.4373
46.630988654873654 11.4548
46.655233659129024 11.3951
46.67948087571551 11.4065
46.70373030632484 11.4015
46.72817142736393 11.3871
46.752425308428684 11.3447
46.77668140861147 11.3034
46.80093972960865 11.3084
46.82538981736788 11.2968
46.849652602470904 11.2437
46.87391761349769 11.2368
46.8981848521493 11.2126
46.9226439341274 11.2039
46.946915650573224 11.1449
46.97118959976749 11.1578
46.99546578341598 11.1225
47.019933887188216 11.1087
47.04421456235744 11.0982
47.06849747711879 11.1077
47.09278263318286 11.0235
47.11725978640143 10.9955
47.14154944775105 10.9832
47.165841355555656 10.9576
47.1901355115306 11.0034
47.214621741924994 10.99
47.23892041698887 10.9668
47.26322134538975 10.9167
47.28771440635075 10.8588
47.31201986422527 10.8429
47.33632758061436 10.8165
47.360637557241866 10.8377
47.38513974410611 10.8459
47.40945426407847 10.7685
47.43377104948137 10.7614
47.45809010204344 10.7306
47.48260144275502 10.7278
47.506925052572285 10.6995
47.53125093475548 10.7013
47.55557909103813 10.6799
47.58009961361992 10.5984
47.60443234110732 10.6133
47.62876734791564 10.6244
47.65310463578333 10.5755
47.6776343683373 10.5664
47.7019762413987 10.5085
47.72632040075572 10.5239
47.75066684815169 10.5397
47.77520581885936 10.5096
47.799556865477655 10.48
47.823910205386 10.4559
47.84826584033272 10.4709
47.87281407745551 10.4049
47.89717432569297 10.4101
47.92153687423484 10.4246
47.94609208429692 10.3687
47.97045925671401 10.3536
47.99482873471275 10.2979
48.01920052005013 10.2705
48.04376504619224 10.2729
48.068141469543484 10.280999999999999
48.09252020552573 10.2613
48.11690125590099 10.2619
48.1414751266064 10.2428
48.16586082917454 10.2107
48.19024885144316 10.1788
48.2146391951793 10.1478
48.239222439012764 10.1447
48.26361744916137 10.1264
48.28801478610016 10.131
48.31241445160131 10.1269
48.337007097209366 10.0741
48.36141144338331 10.0639
48.38581812345755 10.0384
48.41022713920929 10.0386
48.434829215320704 10.0147
48.45924292604658 10.015
48.48365897780325 9.96898
48.50807737237308 9.96701
48.532688907799276 9.95953
48.55711201168574 9.96057
48.581537463754074 9.90956
48.60615611725119 9.92874
48.63058628942721 9.85999
48.65501881516546 9.85693
48.6794536962573 9.85347
48.70408185970339 9.824760000000001
48.72852147531801 9.75117
48.75296345168211 9.75072
48.77740779059232 9.77126
48.80204549302823 9.74255
48.82649458091802 9.73771
48.85094603676547 9.71936
48.87539986237231 9.64055
48.90004713292306 9.68403
48.92450572200832 9.65429
48.94896668628025 9.61754
48.97343002754588 9.612
48.99808689542115 9.6035
49.02255501470614 9.56198
49.04702551642794 9.57128
49.0714984023988 9.53492
49.096164896893235 9.51555
49.120642575466796 9.51042
49.145122643748394 9.45712
49.16960510355558 9.462069999999999
49.19428125404938 9.427769999999999
49.2187685210852 9.463
49.243258185121555 9.42859
49.26794160167084 9.39461
49.2924360839405 9.39898
49.31693296869764 9.347539999999999
49.34143225776915 9.32347
49.36612538195438 9.31209
49.39062950396021 9.31065
49.41513603578346 9.29903
49.4396449792564 9.24103
49.46434784069503 9.23588
49.488861631846454 9.21712
49.513377840166804 9.19028
49.537896467493745 9.166830000000001
49.56260909589029 9.1561
49.587132585683285 9.15185
49.611658500018365 9.12778
49.636186840738596 9.14756
49.66090926588511 9.11097
49.685442483902584 9.05685
49.70997813385706 9.04299
49.734516217597076 9.02915
49.75924846937352 9.00566
49.7837914452858 9.02192
49.80833686055187 8.97127
49.83288471702571 8.975530000000001
49.85762682540054 8.96906
49.882179588965734 8.94993
49.9067347993235 8.926110000000001
49.93129245833333 8.89091
49.95604445336378 8.90047
49.98060703442832 8.8499
50.005172069746266 8.85294
50.02993150438364 8.82947
50.05450147301533 8.80679
50.07907390151433 8.81369
50.10364879174981 8.76168
50.12841816587289 8.75836
50.1529980044635 8.760530000000001
50.17758031042124 8.72846
50.20216508562089 8.739339999999999
50.22694442953363 8.694180000000001
50.25153416817468 8.66923
50.27612638170508 8.64856
50.300721072005196 8.64387
50.325510416102105 8.65713
50.350110084975064 8.60727
50.37471223628208 8.6089
50.39931687190919 8.63993
50.424116246675766 8.578610000000001
50.44872587605249 8.57324
50.47333799543065 8.556230000000001
50.49795260670191 8.55896
50.52276204271512 8.50405
50.54738166295838 8.49329
50.57200378079314 8.463989999999999
50.596628398116835 8.46015
50.62144792604559 8.47523
50.646077567609396 8.44566
50.670709714377715 8.419
50.69553683636198 8.41141
50.72017401885922 8.38602
50.7448137122895 8.31608
50.76945591856022 8.34041
50.79429318636823 8.32
50.818940443716784 8.32928
50.84359021965163 8.27555
50.868242516085964 8.23355
50.893089960641895 8.25506
50.917747323549435 8.26473
50.94240721271973 8.21688
50.96706963007175 8.21222
50.99192728239342 8.21597
51.01659478166073 8.21995
51.04126481489051 8.19126
51.06593738400761 8.15364
51.090805275207074 8.11992
51.11548294172845 8.12262
51.14016314993547 8.10784
51.164845901758845 8.067
51.18972406304274 8.0567
51.21441192780656 8.03435
51.23910234200271 8.05288
51.2637953075678 8.03578
51.288683770237945 7.98694
51.31338186432707 7.988180000000001
51.33808251561888 7.97854
51.362978729967345 7.933269999999999
51.387684521509755 7.97819
51.41239287610203 7.925510000000001
51.437103795691165 7.88375
51.46201036644977 7.89605
51.486726441956634 7.88052
51.51144508832545 7.864910000000001
51.536166307509156 7.850439999999999
51.56108326624387 7.83035
51.58580965706056 7.78867
51.61053862657523 7.799589999999999
51.635270176746864 7.800489999999999
51.66019755512065 7.758310000000001
51.68493429268881 7.71979
51.70967361681515 7.698639999999999
51.73441552946465 7.72231
51.759353359237934 7.704269999999999
51.7841004750961 7.718889999999999
51.80885018539685 7.657089999999999
51.833602492111254 7.63635
51.8585508051424 7.61875
51.883308330926425 7.62674
51.90806845906181 7.58395
51.932831191525715 7.576919999999999
51.95779001977161 7.5591
51.98255798721516 7.5399899999999995
52.00732856494335 7.5247
52.03229530577543 7.52831
52.057071130455945 7.496230000000001
52.081849571391054 7.42841
52.106630630568695 7.47668
52.13160794279417 7.45195
52.15639426492067 7.425269999999999
52.18118321127822 7.43031
52.205974783860896 7.39637
52.23096269971011 7.39385
52.255759551287994 7.39723
52.280559035098186 7.3726899999999995
52.30536115314103 7.37973
52.33035970494467 7.31359
52.35516711807904 7.3132399999999995
52.37997717147198 7.304930000000001
52.40478986713005 7.28525
52.42979908731974 7.2773699999999995
52.454617094216 7.25842
52.47943774942214 7.2465
52.50426105495102 7.23337
52.529280976059844 7.21475
52.554109609024096 7.20516
52.57894089837482 7.21622
52.60377484613117 7.16527
52.62880550079408 7.160069999999999
52.65364479223379 7.14929
52.67848674816189 7.118710000000001
52.70352547971946 7.07342
52.72837279155837 7.10399
52.753222773982785 7.04288
52.778075429022984 7.05457
52.80312495150885 7.03587
52.827982978797436 7.0488800000000005
52.85284368481815 6.995189999999999
52.87770707160767 6.98298
52.90276741793998 6.98389
52.92763619336701 6.98186
52.952507655698504 6.948180000000001
52.977381806977576 6.95023
53.00245301017842 6.93735
53.02733256653592 6.89845
53.052214817996074 6.927160000000001
53.077099766608484 6.909689999999999
53.102181859804446 6.8808
53.127072229988265 6.8944
53.15196530349892 6.859
53.17686108239249 6.83855
53.20195409881522 6.807860000000001
53.22685531582556 6.7834
53.25175924441303 6.79656
53.27666588664027 6.802989999999999
53.30176985962693 6.78148
53.3266819565689 6.744039999999999
53.35159677336455 6.74555
53.376514312083096 6.69793
53.40162927507703 6.711460000000001
53.42655228516116 6.68527
53.45147802340193 6.65262
53.47660125628886 6.631010000000001
53.50153247842639 6.627839999999999
53.52646643496923 6.62525
53.55140312799818 6.604480000000001
53.576537409691696 6.66143
53.60147960336152 6.5808100000000005
53.626424539786164 6.558269999999999
53.65137222105307 6.561260000000001
53.67651758529126 6.54938
53.70147078399681 6.53134
53.72642673383343 6.510269999999999
53.75138543689533 6.51084
53.776541917524526 6.5022199999999994
53.801506154876755 6.4812
53.826473151763246 6.47053
53.851442910284916 6.4609
53.87661054126026 6.3981900000000005
53.9015858509782 6.4041
53.92656392866066 6.41032
53.95154477641532 6.40209
53.976723591801296 6.3251800000000005
54.00171000771266 6.35602
54.02669920004598 6.33443
54.051691170915745 6.34736
54.076881204886796 6.3257900000000005
54.101878760928514 6.27747
54.12687910187696 6.25082
54.152077577768296 6.23419
54.1770835166946 6.18867
54.20209224691339 6.24355
54.22710377055121 6.2105
54.25231352511594 6.2081800000000005
54.27733066384342 6.17558
54.30235060239643 6.1454
54.32737334290836 6.15911
54.35259441062629 6.1002
54.377622783395324 6.11559
54.40265396455061 6.127730000000001
54.42768795623251 6.1096900000000005
54.45292037169559 6.05284
54.477960012857906 6.05384
54.50300247099511 6.033980000000001
54.52804774825457 6.01726
54.55329154616743 5.945180000000001
54.57834249018678 5.98575
54.6033962597977 5.949
54.6284528571545 5.94184
54.653708072335164 5.963419999999999
54.67877035378786 5.91019
54.70383546947698 5.86142
54.72890342156389 5.8499099999999995
54.7541700889442 5.8153
54.77924374251975 5.81874
54.8043202390049 5.80628
54.82959552413022 5.74545
54.8546777351945 5.7397800000000005
54.87976279569621 5.69716
54.90485070780914 5.72682
54.930137506558005 5.6893
54.95523115074295 5.704940000000001
54.98032765308844 5.654
55.005427015775496 5.6151
55.03072536339621 5.64211
55.05583047570572 5.6051400000000005
55.080938454927676 5.57039
55.10604930325027 5.56433
55.131359235107396 5.56002
55.15647585066083 5.4659
55.181595341907496 5.46589
55.20671771104285 5.456230000000001
55.232039262617704 5.46839
55.25716741665048 5.37907
55.28229845518636 5.36487
55.30743238042802 5.3143
55.33276558731939 5.30668
55.357905315183636 5.26725
55.383047936390035 5.24138
55.40819345314859 5.25989
55.433538351073295 5.19385
55.458689688238415 5.23923
55.483843927614096 5.17131
55.509197623043605 5.14164
55.53435769621134 5.11382
55.55952067826466 5.11303
55.5846865714265 5.12191
55.61005202069737 5.0597199999999996
55.63522376553902 5.110869999999999
55.66039842818645 5.030130000000001
55.68557601087004 5.0633300000000006
55.7109532500271 4.93679
55.73613670233794 4.95836
