TT I
1.2716486653135266 7.30635
1.2939594142134223 7.234380000000001
1.3162702121660406 6.49253
1.3385810600174564 6.3417699999999995
1.3608919586137629 6.31062
1.383202908801069 6.42894
1.405513911425503 5.67678
1.4278249673332093 6.3397
1.4501343378461518 6.0793800000000005
1.4724455028545926 5.65876
1.4947567236847858 6.00058
1.517068001182951 5.77934
1.5393793361953272 6.10502
1.5616907295681737 5.936030000000001
1.5840021821477681 5.4284099999999995
1.60631369478041 4.9247
1.6286252683124185 4.61701
1.6509369035901333 4.67161
1.6732468618895553 5.2122
1.695558623192809 4.86972
1.7178704487808514 5.18253
1.7401823395001077 4.97155
1.7625012545597203 4.83314
1.7848028405262486 5.14541
1.8071218901122095 4.77169
1.8294236121921872 4.49719
1.8517427996910911 4.36762
1.8740620574440425 3.96582
1.8963639900671978 4.84959
1.9186833908139995 4.87315
1.9409854680117449 4.71919
1.9633050151394713 4.49731
1.9856246367570705 4.60993
2.0079269371922672 4.86002
2.03024671027244 4.88039
2.0525491637446027 4.718459999999999
2.074869091674931 4.615559999999999
2.097171701569106 4.39508
2.1194917877373847 4.82214
2.141811954326636 4.93264
2.164114805233074 4.36834
2.186435135143035 5.58258
2.208738150935709 12.3488
2.231058647554722 21.2021
2.2533792288321184 16.3798
2.275682498336085 8.28796
2.298003251406138 5.78627
2.3203066942619714 5.63229
2.3426276225136022 4.86113
2.3649486396617507 4.88822
2.387252348930071 5.7112
2.4095735463442893 5.718380000000001
2.4318774374315884 5.58922
2.4541988185014043 5.9977
2.476502894794693 6.97243
2.498824462909887 6.517
2.521146125856138 6.90687
2.5434504863470337 6.87475
2.5657723414244717 7.93221
2.588076895590662 7.92738
2.610398946189713 7.859719999999999
2.6327210958598384 7.94924
2.6550259469304716 7.59145
2.6773482972090137 7.7156199999999995
2.6996533504259 7.499630000000001
2.7219759047039602 7.77105
2.744298562293959 7.70458
2.7666039251246595 7.67137
2.7889267918020164 8.01411
2.8112323652516555 8.33361
2.833555444408179 8.06482
2.8558786311183852 8.17683
2.8781845268938557 8.861989999999999
2.9005079311721484 8.71214
2.9228140460410397 8.95526
2.9451376712799635 8.90906
2.967444008632326 9.51075
2.9897678582247247 10.1309
3.0120918213106695 10.4981
3.0343984987899373 10.7196
3.0567226913198637 11.0876
3.079029599759726 11.4431
3.101354025127254 12.2086
3.123678568232338 12.5247
3.145985829517914 12.5556
3.16831061055229 13.2754
3.1906181112775593 14.2011
3.212943133635653 14.9755
3.2352682779763207 14.8855
3.2575761442691227 15.7114
3.2799015350264273 15.7888
3.302209649240067 16.4109
3.3245352898092655 17.1785
3.3468436553365257 17.2123
3.369169549113219 17.7563
3.3914955708171384 18.3326
3.413804319727358 18.9827
3.4361305997334863 19.0219
3.4584396084414553 19.496
3.4807661501462652 20.1242
3.503092824025881 21.1797
3.5254022288463154 21.0157
3.5477291695206588 21.5676
3.5700388426251948 22.1896
3.5923660534916446 23.671999999999997
3.6146934007816114 34.1597
3.637003482731501 68.8153
3.6593311053109985 75.9649
3.681641464033634 46.1403
3.7039693653009733 28.3534
3.726297407241705 25.7998
3.7486081875460804 25.3206
3.7709365132734978 25.9574
3.793247578841633 26.7962
3.8155761917550093 26.5948
3.8378875459837216 27.226
3.8602164494827234 27.835
3.882545499606844 27.9092
3.9048572932539183 29.1182
3.9271866390645718 29.1859
3.9494987298666713 29.2648
3.971828374764527 30.016
3.9941581705403255 30.603
4.016470713506008 31.4724
4.038800813471445 31.9792
4.061113662089144 32.4772
4.0834440696459176 33.5527
4.105774632334751 33.1065
4.128087945865126 34.0865
4.150418821249301 35.2293
4.172732448931298 36.4788
4.195063640413578 37.6821
4.2173775856475215 40.7765
4.239709096631102 63.5687
4.262040768704612 179.31099999999998
4.284355196706267 231.139
4.306687193387355 151.96200000000002
4.329001947444346 68.0426
4.35133427213731 46.5348
4.373666762177566 44.222
4.395982011761091 44.1218
4.418314834921175 45.4562
4.44063041906622 51.3909
4.4629635787515625 58.4443
4.4852969080429785 58.7967
4.5076130004776225 52.6671
4.529946671403969 51.8826
4.552263106909177 52.2224
4.574597122877047 52.6321
4.596931312711224 52.6077
4.619248269273446 53.3635
4.6415828092605835 54.3341
4.663900117405352 55.7315
4.686235010953232 56.8563
4.708552674085913 58.0879
4.730887924602802 59.9137
4.753223354952695 61.2037
4.775541557023902 62.8414
4.797877349456786 64.915
4.820195915032126 66.6271
4.842532072957498 67.6659
4.864868414979744 69.6426
4.88718753227192 72.7242
4.909524244902505 74.5095
4.931843734218147 75.6037
4.954180820867835 77.7716
4.976518095879839 80.7543
4.998838149695359 83.787
5.021175803844231 87.7765
5.043496238205739 91.0987
5.065834274903528 95.5012
5.088172504230693 100.291
5.1104935158799565 106.493
5.132832132875765 126.949
5.155153533596801 162.178
5.1774925416746225 200.14700000000002
5.199814334878411 395.961
5.2221537374521505 1090.89
5.244493338631803 3006.9
5.266815727034316 7852.95
5.289155727832427 12419.2
5.311478517248165 8582.69
5.333818921080011 2644.39
5.356159527788849 506.92800000000005
5.3784829252032536 183.774
5.400823940070432 144.437
5.423147747031976 128.137
5.445489173474152 118.557
5.467830807066149 114.35799999999999
5.490155234831516 110.714
5.512497285125229 106.492
5.534822130975162 104.271
5.557164601388673 102.03200000000001
5.579489868738879 99.7247
5.601832762690846 98.6005
5.6241758697774475 97.4128
5.646501775867269 96.4278
5.668845311622074 95.1873
5.691171647754637 94.4908
5.713515615597765 93.4983
5.735859800852677 92.7958
5.758186788542988 92.3426
5.780531411018185 92.7758
5.802858837297399 92.2493
5.825203900414495 92.6123
5.8475491852224 93.4992
5.869877275883075 93.7327
5.892223006467101 93.9881
5.914551544266608 95.366
5.936897724049891 98.37899999999999
5.959244129804903 105.087
5.981573344815301 129.364
6.0039202049061 233.456
6.026249875609095 494.906
6.04859719346037 1010.63
6.070927323278297 2272.22
6.093275102315365 4562.32
6.115623113320588 5221.14
6.137953938319995 3174.49
6.160302415650845 943.643
6.182633708324452 222.798
6.2049826554078376 111.353
6.227331838745022 91.4901
6.249663839443684 84.6806
6.27201349767565 81.7281
6.294345974611799 85.1705
6.316696111167083 92.1752
6.339046488263839 87.4848
6.361379686074702 76.8108
6.383730546639482 71.0877
6.406064229255215 68.9331
6.428415576718203 68.5167
6.450749747566656 67.3529
6.47310158535871 66.11399999999999
6.495453669698332 65.2408
6.517788579421056 64.5729
6.540141159237969 63.6927
6.562476565766648 63.1528
6.5848296444934045 62.5451
6.607182974060425 62.4622
6.6295191323281015 62.3447
6.651872965955752 64.4418
6.6742096296068985 83.1524
6.6965639707294615 114.181
6.71891856698715 114.13600000000001
6.741255995248479 83.3935
6.763611104154477 64.6808
6.785949046381137 59.6439
6.808304671371482 58.3371
6.8306605557940046 58.5622
6.852999275508618 57.4734
6.875355681171544 56.9295
6.897694923437771 56.586000000000006
6.92005185377892 56.4989
6.9423916220322655 56.2585
6.964749080490181 55.597
6.987106804399774 55.4142
7.009447368180821 55.8547
7.031805625367033 55.394
7.054146723727803 55.2365
7.076505517631004 54.6909
7.098864581288365 54.9421
7.121206488070854 54.55
7.143566093607822 54.7187
7.165908543567245 55.3803
7.188268694426048 55.3816
7.2106291193438095 55.1771
7.232972390625943 55.974
7.255333366030969 65.1093
7.277677189091925 102.64200000000001
7.300038718428332 135.458
7.322400526130865 116.249
7.344745183422596 78.2216
7.367107550224791 59.5275
7.389452767901992 55.6911
7.411815697249891 54.675
7.434161478756298 53.8449
7.456524974096713 54.0076
7.478888753837185 54.0025
7.501235387657368 54.1704
7.523599738562711 54.6033
7.545946944825532 54.8982
7.568311870344528 55.0469
7.5906770845765665 54.9507
7.613025156078678 56.1484
7.635390950099687 57.0445
7.657739602662809 56.1732
7.680105979923558 55.8151
7.702472650212829 56.016999999999996
7.724822180948224 55.9827
7.747189439655568 55.9019
7.769539560075357 56.3417
7.791907410653562 56.5859
7.81425812420825 56.5104
7.836626570110925 56.726000000000006
7.858995315087906 57.7011
7.881346924933401 57.5713
7.903716270417482 58.0146
7.926068482028405 58.4807
7.948438431475253 59.6804
7.9708086843180235 59.9581
7.993161805171116 60.3239
8.015532667162402 60.8969
8.037886398416653 62.1021
8.060257873014221 62.5747
8.082629655331942 62.8306
8.104984308787587 63.7915
8.127356708900503 66.4823
8.149711981398308 70.9856
8.172085002766314 72.9172
8.194458336181368 70.684
8.216814543847752 69.3326
8.23918850371002 69.6759
8.26154533906492 70.2639
8.283919928836452 71.9378
8.306277395339652 72.9563
8.328652618483376 74.3231
8.351028159736202 76.1766
8.373386579575245 78.8034
8.395762759396959 80.2668
8.418121819038275 84.8013
8.440498640894003 95.5014
8.462875785192262 108.35799999999999
8.485235811156207 126.52600000000001
8.507613602688501 179.325
8.529974277114228 271.41900000000004
8.552352719347912 410.30699999999996
8.574731488360351 682.971
8.59709314210385 1237.69
8.619472567021075 1927.91
8.64183487789147 2225.47
8.664214962183097 1759.48
8.686577933647762 890.953
8.708958680784317 347.475
8.731339760774953 152.501
8.753703729764451 108.09299999999999
8.77608547780821 98.2126
8.798450116065078 94.8702
8.820832535634787 92.2026
8.843215292401656 90.6176
8.865580941199045 90.0167
8.887964374703538 89.2534
8.910330701447199 89.6873
8.932714815164482 90.7305
8.955099270424924 89.4935
8.977466620733543 86.6055
8.999851761421976 84.8482
9.022219798361645 83.5985
9.04460562795561 83.5385
9.066991803441677 83.1962
9.089360876979615 83.2806
9.111747746589993 82.7484
9.13411751544971 82.0562
9.156505082664324 81.6396
9.178875550323522 82.2633
9.20126381862328 82.3842
9.223652438908596 82.5318
9.246023961427412 82.4211
9.26841328802173 81.9522
9.290785518039224 81.7882
9.313175554425882 82.9534
9.335565947154315 83.0893
9.357939245086508 83.3816
9.380330352834827 83.771
9.40270436697103 83.6133
9.425096193225055 83.4483
9.447488380180165 84.3267
9.469863475295412 84.5449
9.492256385987508 84.8256
9.514632206018318 85.2955
9.537025843935714 85.7253
9.559402392368193 86.5196
9.581796761000229 88.0199
9.604191496441521 88.5974
9.626569144158516 91.365
9.648964615551032 94.69200000000001
9.671343000390081 95.8805
9.693739211225699 94.7503
9.716135793237463 93.5522
9.738515290448102 93.1822
9.760912617143402 94.1057
9.783292860202891 95.8626
9.805690935076182 96.9624
9.828089385495742 97.7675
9.850470754023561 100.48899999999999
9.872869957865444 106.63
9.89525208097539 117.742
9.917652041736662 127.552
9.940052382417589 131.666
9.962435644102392 148.347
9.984836746950979 191.343
10.007220771957746 257.043
10.029622640473708 363.783
10.052007432299963 544.321
10.074410069984072 847.575
10.096813093716005 1301.89
10.119199042482517 1796.78
10.141602840636468 2014.3
10.163989564971628 1555.05
10.186394141051062 845.423
10.208799107559706 367.083
10.231187001965623 175.685
10.253592751657669 122.882
10.275981430388155 112.26799999999999
10.298387966769793 110.554
10.320794897965431 112.307
10.343184759907361 111.109
10.36559248305461 106.866
10.387983138083852 104.587
10.410391656691655 109.914
10.432800574501677 122.551
10.455192425893369 139.683
10.47760214443012 165.146
10.499994797678786 211.263
10.522405320453982 291.038
10.54479877906917 408.162
10.567210109595656 511.75800000000004
10.5896218454736 562.289
10.612016518879773 493.374
10.634429067781074 333.54
10.656824555333241 192.40900000000002
10.679237920773568 119.837
10.701651695961992 94.5091
10.724048411481384 88.8328
10.746463008485165 85.7764
10.768860546937125 84.7863
10.791275969274796 83.0542
10.81369180576079 82.0817
10.836090585366925 80.8889
10.858507252467449 79.6174
10.88090686379991 79.1533
10.903324365036394 78.5516
10.925724811614439 78.0057
10.948143150509463 78.6676
10.970561909719066 77.4821
10.992963615930844 76.3168
11.015383218085756 74.6886
11.037785768347074 73.1892
11.06020621697282 72.64
11.082627090322113 72.1154
11.105030913430326 71.6413
11.12745263854165 71.9508
11.149857314510728 74.0055
11.172279894912576 78.1819
11.194702904450653 78.0739
11.217108866490921 74.9398
11.239532736615194 72.0304
11.26193956033512 70.2527
11.284364294577085 69.0493
11.306789462371718 67.7888
11.329197585398376 66.8873
11.351623622610898 66.8995
11.37403261614354 65.9251
11.396459526308487 65.4895
11.418869393879497 65.2134
11.441297180532617 65.1545
11.463725406927658 64.5911
11.486136592353875 64.7871
11.508565700543707 65.1526
11.530977768845315 66.3099
11.553407762368774 66.5031
11.575838200059769 66.2717
11.598251599479612 64.7518
11.620682927815501 63.5781
11.64309721895548 63.2531
11.665529441478206 63.0768
11.687962112597958 62.7406
11.710377748130886 62.9656
11.732811318753434 62.8634
11.755227854859067 62.8694
11.777662328529495 63.0287
11.800079768750786 62.5846
11.822515149015453 62.4916
11.844950984084935 62.8487
11.867369787303163 62.3391
11.889806534289491 62.3818
11.912226250487029 62.7195
11.934663912939751 62.7202
11.9571020346363 62.9291
11.979523127133968 63.0273
12.001962169624331 63.8344
12.024384183972964 65.5082
12.046824150809913 68.859
12.069264581333726 73.6629
12.091687985297767 79.862
12.11412934550045 88.835
12.136553680195208 104.738
12.158995973632788 127.12299999999999
12.181438735204349 154.218
12.20386447284199 182.78799999999998
12.226308172985636 204.09799999999998
12.24873485024193 197.433
12.271179492516982 158.85
12.293607112949127 120.074
12.316052700916226 89.7619
12.338498763250042 74.6673
12.360927805303868 68.3503
12.383374818673879 65.3584
12.405804812803074 64.1558
12.428252780773262 63.8608
12.45070122756722 64.2638
12.473132656675375 63.8539
12.49558206341869 63.9768
12.518014453510101 64.1629
12.540464823770117 64.5908
12.562915677315177 64.7191
12.58534951575545 65.3268
12.607801338171472 66.6949
12.630236146511358 70.3347
12.652688941369085 73.6289
12.675124723177234 74.2984
12.697578494048786 71.988
12.720032754458185 68.8538
12.742470003354093 67.6858
12.764925245138771 67.7609
12.787363476431278 67.6559
12.809819703166806 68.2933
12.83227642391173 69.0581
12.854716135692716 69.7134
12.877173846755147 70.8475
12.899614549869717 70.9416
12.9220732548287 71.8385
12.94453245827299 72.542
12.966974655289818 73.2827
12.989434858002571 74.1857
13.011878055298721 74.9515
13.034339260862497 76.1016
13.056800969391883 77.3367
13.079245674017244 79.5259
13.101708390774869 82.6752
13.12415410463411 91.1285
13.146617833206086 102.969
13.169064559883248 114.51100000000001
13.191529303857127 129.106
13.213994557076367 152.782
13.236442809902437 191.02599999999998
13.258909083908291 248.261
13.28135835851934 316.433
13.30382565690295 379.38699999999994
13.326293469022952 432.92900000000003
13.348744283242008 419.845
13.371213125129904 346.13599999999997
13.39366497011003 249.574
13.416134845360597 165.046
13.438605238843131 120.249
13.46105863690397 106.02799999999999
13.483530069144786 107.721
13.505984506951902 113.18799999999999
13.528456981549432 122.46
13.550929978879088 137.833
13.573385983253365 162.974
13.595860028340867 203.04
13.618317081455832 255.08
13.64079217790333 313.737
13.663250283359057 355.92699999999996
13.685726434770173 370.62
13.708203115221277 325.643
13.730662806148091 245.796
13.75314054697177 169.637
13.775601299246777 119.385
13.798080104050406 93.3973
13.820559442405358 84.226
13.843021793671388 81.2041
13.865502201420897 80.0437
13.887965623051947 79.6565
13.910447103807167 78.6033
13.932929122629764 77.1148
13.955394156785959 76.6965
13.977877254034569 75.6075
14.000343367582113 74.771
14.022827546871707 74.2868
14.045294743423524 73.4315
14.06778000837062 72.8082
14.090265817715476 72.7273
14.112734645763819 72.188
14.13522154619454 72.1514
14.157691466286913 72.2032
14.180179461423874 71.9813
14.202668005486178 71.3127
14.22513957064374 70.4984
14.247629214846473 70.2925
14.270101881097517 69.858
14.29259262906496 70.2811
14.315083930490205 70.6761
14.337558255389705 70.9807
14.360050666019726 70.748
14.382526101071944 69.8437
14.405019624534942 69.1684
14.427513705993134 68.835
14.449990813291825 68.846
14.47248601302899 68.6444
14.49496423954951 68.7875
14.517460561197822 68.8863
14.539939910570322 68.632
14.562437357763558 69.0869
14.58493536931253 70.0863
14.607416409993311 70.5633
14.62991555254159 70.9559
14.652397725157423 70.8218
14.674898002342799 70.7498
14.697398848433282 70.5554
14.719882725991326 71.4992
14.74238471217934 72.7609
14.764869730765593 76.5451
14.787372860692983 80.2002
14.809876564079925 84.4757
14.83236330125751 90.2897
14.854868153850365 98.9875
14.877356041159485 112.943
14.899862046604186 132.373
14.922351087688757 157.97899999999998
14.944858249632887 188.727
14.967365991421232 212.97099999999998
14.989856770231246 227.55
15.012365673994204 215.998
15.03485761569738 182.6
15.05736768508665 140.442
15.07987833888692 108.184
15.102372032001655 86.6183
15.124883856909658 75.729
15.14737872204565 71.733
15.169891721717274 70.1517
15.192405310371893 69.7623
15.214901940621196 70.1079
15.237416709527137 70.0765
15.259914520936249 69.8222
15.282430473753607 69.2226
15.304947020131227 68.4225
15.327446610371178 67.5757
15.349964346154254 66.8718
15.372465126703139 66.6571
15.394984055556009 66.5397
15.417486030076159 66.488
15.44000615566487 66.1067
15.462526881230803 66.0481
15.485030653812652 65.84
15.507552581617434 65.8524
15.530057557334603 65.9389
15.55258069104857 66.1339
15.575104429329837 66.1639
15.597611216864632 65.842
15.620136166564563 66.3817
15.6426441664095 67.6664
15.665170331202765 70.2087
15.687697105158826 73.5842
15.710206930593545 76.6072
15.732734925158933 81.1381
15.755245972089478 87.6456
15.77777519094324 96.9101
15.800287463046663 110.23899999999999
15.822817909869592 129.814
15.84534897229804 150.822
15.867863089299354 175.44
15.890395385222186 190.274
15.912910736597423 194.382
15.935444269699861 177.528
15.957978423016485 151.135
15.980495633101265 116.70100000000001
16.003031029129367 92.235
16.02554948280019 74.8568
16.048086125229432 66.5791
16.070623392487107 64.275
16.09314371869582 63.5373
16.11568223789321 62.7223
16.13820381691126 61.7283
16.160743591742527 61.0002
16.183283996022084 60.2162
16.205807461423195 59.3629
16.228349126881973 58.7118
16.25087385432698 58.7769
16.27341678466365 58.0948
16.29594277784926 57.9685
16.31848697676433 58.1987
16.341031811604868 58.3125
16.36355971058487 58.4935
16.3861058195587 58.3451
16.40863499352978 57.2077
16.431182380342005 56.4551
16.453730407713202 56.0285
16.476261501364792 55.6874
16.498810812136167 55.3262
16.52134319004079 55.5083
16.54389378792203 55.2346
16.566445031001553 55.1318
16.588979342490088 54.8623
16.61153187824822 54.8092
16.634067483263312 54.5919
16.656621315414416 54.4705
16.679175797408888 54.2374
16.701713349928728 54.4052
16.72426913389191 54.636
16.74680798922351 54.8735
16.76936507887444 54.7277
16.791905240734874 54.8068
16.814463639794468 54.6128
16.837022695210294 54.8279
16.859564824093756 55.0916
16.882125194503903 55.5074
16.904668639217885 56.1862
16.927230328348003 56.2148
16.949792678493612 56.3995
16.972338104193863 55.8516
16.994901778652235 55.6504
17.017448529496576 55.563
17.040013531998152 56.0016
17.06257920018044 56.5774
17.0851279459922 57.1819
17.107694947817667 57.9646
17.130245028099072 58.8984
17.15281336730298 60.1897
17.17536478578733 61.7594
17.19793446610687 64.1511
17.220504818648422 67.1953
17.243058251703697 70.6479
17.265629950971032 75.1121
17.288184731571736 79.3469
17.310757781306908 83.432
17.33333150794385 83.6336
17.355888317140174 81.6571
17.37846339986244 75.8785
17.401021565958885 69.6393
17.42359800851343 64.4982
17.44617513265564 61.2129
17.468735341390783 59.6878
17.491261035594565 58.9993
17.51396340099364 58.9618
17.536490463869136 59.063
17.559018209820174 59.1356
17.58154663977963 59.3877
17.604251766089718 59.3561
17.626781572227713 59.5975
17.64931206518155 59.8756
17.671843245885103 60.3278
17.69455114821572 60.5998
17.717083712612634 60.8323
17.739616967569667 60.9973
17.762150914021706 61.3204
17.78486160749854 61.2813
17.807396945166804 62.0446
17.829932977143503 63.1948
17.85246970436452 64.983
17.875183204129467 66.8445
17.897721330097664 68.9
17.920260154126645 71.0791
17.942799677153296 74.2932
17.9655159983646 78.087
17.988056927677544 83.8338
18.010598558807683 91.8859
18.033140892692916 102.10600000000001
18.05586005052525 112.973
18.07840379824407 124.544
18.10094825154059 134.889
18.12366954819864 142.629
18.146215420998306 140.097
18.16876200220057 130.075
18.191309292745153 115.04799999999999
18.214033452627167 100.57
18.236582170236648 90.1194
18.259131600016456 85.9026
18.281681742907335 86.7087
18.304408781233683 91.2767
18.32696035875955 96.3965
18.349512652227624 100.74799999999999
18.372065662579683 104.99
18.394795594587553 105.523
18.41735004715306 101.35799999999999
18.43990521943684 94.1894
18.46246111238171 84.7127
18.485193953325208 75.2713
18.507751296070428 68.7354
18.530309362314178 65.1588
18.552868153000343 63.1692
18.57560391815056 61.8806
18.59816416623245 61.6069
18.620725141597372 61.2114
18.643286845190268 60.4049
18.666025549835414 60.2274
18.688588718427933 59.6698
18.711152618092243 59.5164
18.73389353884365 59.2358
18.75645890921984 58.7192
18.77902501351406 58.3949
18.801591852673102 58.4633
18.824335739722738 57.967
18.846904057212626 57.93
18.8694731124168 57.7523
18.89204290628315 57.5152
18.914789774966803 57.6254
18.937361054791623 57.0846
18.959933076131318 56.9181
18.982505839934877 56.8208
19.00525570560582 56.8845
19.027829963004184 56.8134
19.05040496572238 57.0862
19.072980714710468 56.9426
19.095733592739563 57.1609
19.11831084296757 57.5086
19.140888842324735 57.7723
19.16346759176222 58.1458
19.18622349753803 58.495
19.208803755869358 59.5057
19.231384767143577 60.7347
19.253966532312948 62.5101
19.276725481241822 64.7193
19.29930876296784 67.2699
19.3218928014549 70.5042
19.34465404436217 73.2963
19.36723960516257 75.8279
19.389825925592426 76.4148
19.412413006605938 74.9812
19.43517731967805 71.1546
19.457765930683355 66.7771
19.48035530514408 62.3051
19.50294544401556 58.8518
19.525712842708348 56.1494
19.54830451925909 54.7952
19.570896963095727 53.9497
19.593490175174704 53.7729
19.616260674962184 53.617
19.638855432416964 53.4002
19.661450960992624 53.5741
19.68404726164677 53.5771
19.706820878021247 53.2004
19.729418731756834 53.538000000000004
19.752017360452857 53.3074
19.77461676506804 53.6256
19.797393513540218 53.6897
19.819994478951667 53.8343
19.84259622316767 54.5112
19.8651987471481 54.7556
19.887978643247177 54.8369
19.91058273574792 55.2698
19.933187610901943 56.2741
19.955969879466828 57.5782
19.97857632894404 59.1363
20.00118356396599 60.9209
20.023791585494575 63.0175
20.046577028914875 65.7107
20.069186632506966 67.7904
20.091797025500632 69.4909
20.114408208858933 70.0539
20.137196842715273 69.5219
20.159809615886765 67.6047
20.18242318232135 65.0228
20.20503754298326 62.9858
20.227829382875154 62.0235
20.250445341109344 62.0992
20.27306209647285 62.7933
20.29567964993108 64.0328
20.31847471147704 64.9247
20.34109387027612 65.2409
20.363713830075454 64.7269
20.386334591841646 63.3297
20.409132890679302 60.4139
20.431755265564437 57.483999999999995
20.454378445325528 54.9205
20.477002430930366 53.1038
20.499803982716553 51.8215
20.522429589228004 51.0202
20.54505600449589 50.8082
20.567683229489194 50.5752
20.590488049900088 50.4102
20.61311690359731 50.0639
20.63574656993626 49.8543
20.658553853717297 49.6195
20.681185154618298 49.5338
20.703817271080066 49.4566
20.72645020407368 49.1028
20.749260783967177 49.0939
20.771895359337133 48.9174
20.794530754161617 48.8195
20.817166969412938 48.7586
20.83998086114876 48.6929
20.86261872660049 48.5303
20.885257415405402 48.5615
20.90789692853701 48.5802
20.930714147864748 48.6096
20.953355319030678 48.6249
20.97599731745334 48.6754
20.99864014410749 48.2963
21.021460706796564 48.6658
21.044105199328826 48.8092
21.06675052302631 48.9195
21.089396678865015 49.1696
21.112220600704806 49.4548
21.134868430275347 49.9561
21.15751709492456 50.0559
21.180166595629693 50.383
21.202993892429635 51.0653
21.22564507473034 51.2244
21.24829709602816 51.3368
21.27112693608965 51.3075
21.293780644891275 51.2677
21.316435195634053 50.4355
21.339090589297417 49.8318
21.361923832041875 49.3743
21.384580921090404 48.8691
21.407238856007325 48.4827
21.429897637773326 48.3395
21.45273429906592 48.3579
21.475394784108598 48.3492
21.498056118951983 48.2625
21.520718304578022 48.5422
21.543558400304388 48.6011
21.566222297108816 48.976000000000006
21.58888704765135 48.9052
21.61155265291521 49.3189
21.63439619898156 49.7629
21.657063523335786 49.9237
21.67973170537063 50.2675
21.7024007460706 50.9495
21.72524775840385 51.7071
21.747918526116475 52.8441
21.770590155457388 54.0371
21.79326264741238 55.6963
21.816113141960237 57.5649
21.838787368860547 59.5373
21.861462461341976 61.5884
21.884315579735777 63.2304
21.90699241312273 64.3485
21.92967011506078 64.8054
21.95234868653799 64.4678
21.9752053151131 62.9275
21.997885635446785 60.6943
22.020566828293532 58.6108
22.04324889464272 57.2436
22.066109049404666 56.2998
22.088792872571794 55.9277
22.111477572219204 56.0705
22.1341631493376 56.1167
22.157026846313123 55.7233
22.179714188221507 55.0738
22.202402410582668 53.9078
22.22509151438863 52.4577
22.24795876962584 51.1331
22.270649646204486 50.0951
22.293341407213727 49.6346
22.316034053646906 49.223
22.338904883215342 48.956
22.36159931041458 48.8383
22.38429462602756 48.8426
22.40699083104897 48.6085
22.429865251039757 48.8023
22.452563244831367 48.7884
22.47526213102522 48.5438
22.49813925616515 48.5438
22.520839937143307 48.5188
22.543541513520587 48.5355
22.56624398629403 48.4365
22.589124730075895 48.318000000000005
22.611829005656723 48.6034
22.63453418063466 48.5613
22.657240256008077 48.8496
22.680124634582935 49.0346
22.70283252079775 49.452
22.725541310413075 49.5356
22.74825100442868 49.7894
22.771139033969575 50.1317
22.79385054687155 50.4754
22.81656296718292 51.3592
22.83927629590484 52.3037
22.862167992606945 53.1669
22.88488314827121 54.2315
22.907599215359284 55.3056
22.93031619487366 56.2848
22.953211574954405 57.2209
22.975930389478226 57.9703
22.998650119445763 58.1367
23.02137076586092 57.0654
23.044269845560063 55.8045
23.06699233506288 53.9441
23.089715744034912 52.2896
23.112617610931565 50.7307
23.135342869061212 49.5693
23.158069049684816 48.9951
23.1807961538087 48.6183
23.20370174880544 48.5958
23.226430710184808 48.7833
23.249160598093425 48.9135
23.271891413539002 48.6122
23.294800752937697 48.7581
23.31753343374794 49.0443
23.340267045128353 49.115
23.36300158808808 49.4507
23.38591468821339 49.6858
23.408651104658304 50.2398
23.431388455719986 50.9124
23.454126742409 51.666000000000004
23.4770436196085 52.7568
23.499783787914662 54.2039
23.522524894889884 55.1682
23.54526694154616 56.0925
23.56818761219047 57.1997
23.59093154860734 57.6891
23.613676427751283 57.8825
23.636422250635754 56.6451
23.659346731118656 54.8151
23.68209445191868 53.0188
23.704843119509587 50.9001
23.72759273490623 49.1397
23.750521041644767 47.9447
23.77327256312355 47.0334
23.796025035462787 46.6119
23.818956224555475 46.0646
23.841710609113413 46.0094
23.86446594758979 45.7491
23.887222241002014 45.5513
23.910157285144578 45.101000000000006
23.932915498962537 45.0831
23.955674670778713 44.961000000000006
23.978434801611975 44.8427
24.001373717286125 44.7547
24.024135776723917 44.492
24.046898798245582 44.4264
24.06966278287146 44.2119
24.092605586582614 44.0698
24.115371508023642 44.1121
24.1381383956401 43.8978
24.16090625045381 43.9429
24.183852958731244 43.8347
24.206622758582608 43.8103
24.229393528706886 43.5949
24.252165270127392 43.5071
24.27511589952438 43.4905
24.297889594216997 43.3582
24.32066426328598 43.2889
24.34343990775613 43.2437
24.36639447485003 43.1015
24.38917208083877 43.0321
24.41195066531332 42.9327
24.43490819850244 42.9062
24.457688750692377 42.8749
24.48047028445616 42.8947
24.503252800821233 42.9563
24.526214300784112 42.9373
24.548998793132213 42.9722
24.57178427117417 42.8198
24.59457073593893 42.9078
24.617536219319863 42.8347
24.64032466834748 42.8516
24.663114107195035 42.5739
24.685904536893013 42.3988
24.708874020360852 42.4017
24.731666442613744 42.3497
24.754459858818787 42.2373
24.777254270007962 42.1427
24.80022777025625 42.277
24.82302418230472 42.2593
24.845821592443674 42.1905
24.86862000170663 42.1911
24.891597535453727 42.0375
24.914397953892728 42.4016
24.93719937456671 42.1484
24.96000179851076 42.2658
24.98298338249997 42.3768
25.00578782394922 42.6992
25.028593271784167 42.8336
25.05157790644186 43.1384
25.07438537804115 43.2258
25.097193859145293 43.5422
25.120003350792075 43.8691
25.142992065061257 44.1589
25.165803588823465 44.4579
25.18861612625217 44.5871
25.211429678386736 44.6798
25.234422489079968 44.7681
25.257238081693636 44.7139
25.280054692141732 44.78
25.3028723214652 44.6622
25.325869245420463 44.8311
25.348688923599397 44.9169
25.371509623787006 44.8791
25.394331347025812 44.5053
25.41733240110666 44.0084
25.440156181590016 43.3051
25.46298098826268 42.8403
25.48580682216873 42.2213
25.50881202326435 41.7283
25.53163992281684 41.3916
25.55446885274561 41.1065
25.577298814096377 40.814
25.600308179121807 40.729
25.623140214533745 40.72
25.64597328451537 40.8624
25.66898578564376 40.6142
25.691820936010206 40.5762
25.714657124097695 40.5782
25.737494350954734 40.52
25.760511045684957 40.2974
25.783350361364224 40.5785
25.806190718969255 40.5246
25.82903211955018 40.5719
25.852053024868923 40.5429
25.874896522722523 40.6767
25.897741066713106 40.5803
25.920586657892454 40.5483
25.943611790812668 40.7904
25.966459487728237 41.0029
25.989308234998564 40.9736
26.01215803367705 41.2755
26.03518741123814 41.4124
26.05803932412957 41.525
26.080892291600094 41.541000000000004
26.10374631470478 41.6572
26.12677995397268 41.6246
26.14963609978026 41.5599
26.172493304397875 41.2334
26.19535156888223 41.0308
26.218389486949604 40.6989
26.241249882640123 40.4351
26.26411134137826 40.1861
26.28715248187403 40.0721
26.31001607820869 40.0622
26.3328807407756 39.9471
26.35574647063438 40.1749
26.37879191991473 40.0836
26.401659795896734 40.0468
26.424528742360263 40.3229
26.447398760366614 40.4075
26.470448535598294 40.4646
26.49332070826805 40.7106
26.516193955675355 40.9646
26.53906827888316 41.2064
26.562122397260108 41.4442
26.584998883685063 41.7132
26.607876449110325 42.0356
26.63075509460056 42.1358
26.65381357334404 42.216
26.67669439061878 42.0545
26.699576291163382 42.0254
26.722459276044212 41.9616
26.745522132402975 41.4619
26.768407297649354 41.2781
26.791293550442003 40.9816
26.814180891848974 40.7846
26.837248143099337 40.5592
26.860137673466657 40.4411
26.88302829566349 40.1126
26.90592001075963 39.8536
26.92899167420566 39.8595
26.951885586870763 39.4825
26.974780595655517 39.3231
26.99785558178161 39.2201
27.020752794605112 38.9795
27.043651106772522 38.6705
27.06655051935668 38.7504
27.089629948036183 38.6309
27.112531573292053 38.6336
27.135434302194138 38.7334
27.158338135817015 38.4489
27.181422024430987 38.5683
27.204328079372566 38.4335
27.22723524226965 38.5126
27.250143514198573 38.5611
27.273231880156334 38.5062
27.296142382065014 38.4281
27.319053996245536 38.4229
27.341966723775965 38.4135
27.365059584515222 38.428000000000004
27.38797455070062 38.479
27.410890633481237 38.3219
27.433807833936918 38.4016
27.456905206923906 38.6046
27.47982465472398 38.4392
27.502745223449743 38.4683
27.525666914182825 38.632
27.548768816912457 38.5702
27.571692763693633 38.5156
27.59461783573812 38.416
27.617723149491244 38.1653
27.640650484125285 38.0817
27.66357894728264 38.0745
27.686508540048052 37.9105
27.709618414237887 37.9338
27.732550278321757 37.7849
27.755483275279115 37.8208
27.778417406196485 37.8912
27.801531858397514 37.8511
27.824468269376716 37.7797
27.847405817586786 37.7681
27.870344504116094 37.921
27.893463551932008 38.091
27.916404527281053 38.296
27.93934664422563 38.3721
27.962289903855886 38.4099
27.98541356491974 38.7842
28.00835912214229 38.8968
28.03130582533231 39.0918
28.054253675581805 39.1909
28.077381967556104 39.0169
28.100332124185126 38.9771
28.123283431160893 38.9485
28.146235889577238 38.7848
28.169368830154156 38.4384
28.192323603752033 38.3954
28.215279532083304 38.0659
28.238415973016764 37.9197
28.261374223145094 37.6896
28.284333631303806 37.5011
28.307294198589954 37.4027
28.330435319167677 37.0966
28.353398217078915 36.7641
28.376362277420153 36.6329
28.39932750129032 36.4556
28.422473319286713 36.3423
28.44544088262495 36.3391
28.468409612800283 36.1911
28.491379510913497 36.0283
28.51453004413313 35.936
28.53750229057244 35.9332
28.56047570826344 35.7943
28.583450298308804 35.864000000000004
28.606605564586562 35.5774
28.629582511831156 35.8095
28.65256063474956 35.5167
28.675539934446338 35.4828
28.698699951647605 35.5251
28.72168161743193 35.3534
28.74466446331978 35.455
28.767648490417624 35.4223
28.790813276438353 35.3957
28.813799678527303 35.3353
28.836787265157085 35.4336
28.859955641890075 35.4981
28.882945610203045 35.3895
28.905936766392035 35.3098
28.928929111566863 35.3895
28.952102288520145 35.283
28.975097024308607 35.1419
28.998092952423807 35.0301
29.021090073977508 34.8992
29.04426806913204 34.7877
29.067267590245258 34.5958
29.090268308143695 34.4901
29.11327022394099 34.4621
29.13645305530891 34.4274
29.159457379627167 34.3127
29.18246290519685 34.2704
29.20546963313352 34.2996
29.22865731875826 34.2837
29.25166646419296 34.3171
29.27467681535305 34.1964
29.29768837335608 34.2099
29.320880931312562 34.277
29.34389491580634 34.2365
29.366910110507334 34.1712
29.38992651653503 34.1654
29.41312396492981 34.2652
29.436142806456754 34.1919
29.45916286268059 33.9708
29.48236399319994 33.8301
29.50538649169417 33.7604
29.528410208259935 33.758
29.55143514402014 33.5399
29.574641196749695 33.3502
29.597668583816574 33.2534
29.6206971934585 33.0784
29.64372702680042 33.0274
29.666938019934474 33.0526
29.689970313635285 33.0022
29.713003834422636 32.9499
29.73603858342347 32.9227
29.759254535188578 32.8163
29.78229175361658 32.7647
29.80533020365064 32.7571
29.82836988641968 32.7453
29.85159081507472 32.7334
29.874632976355343 32.6985
29.89767637376955 32.7918
29.920721008448314 32.5635
29.9439469322847 32.5746
29.96699405457564 32.4892
29.9900424175358 32.5903
30.013092022298157 32.5312
30.03632295963995 32.3045
30.059375061131373 32.4454
30.08242840783577 32.5337
30.105483000888153 32.5205
30.128718970092244 32.3653
30.151776069006917 32.4131
30.17483441768648 32.4123
30.198074175317235 32.3072
30.221135036724256 32.3806
30.24419715131772 32.3749
30.267260520236203 32.2269
30.290505341942243 32.3033
30.313571232750228 32.3325
30.336638381310948 32.2899
30.35970678876503 32.2111
30.38295669299435 32.2263
30.40602763151657 32.1934
30.429099832366074 32.099000000000004
30.452173296685572 31.9827
30.47542830191959 31.9593
30.498504306502497 32.1029
30.521581577995562 32.1571
30.544660117543582 32.1488
30.56792024229725 32.0949
30.59100133132069 32.0772
30.614083691845494 32.0194
30.637167325018545 32.141
30.660432587840603 32.2777
30.683518779717886 32.1927
30.70660624769615 32.2161
30.729694992924372 32.1713
30.75296541239743 32.171
30.77605672557558 32.079
30.799149319462742 32.0965
30.8224236211637 31.9698
30.845518789950724 31.787
30.868615242910597 31.7763
30.891712981195973 31.6847
30.91499247215866 31.5777
30.938092794619365 31.506
30.96119440587579 31.4142
30.984297307082752 31.3573
31.00758200598383 31.1992
31.030687500658694 31.1352
31.053794288760695 31.107
31.076902371446767 31.0372
31.100192296997445 31.1268
31.12330298246119 31.0641
31.14641496599209 30.9159
31.169528248749216 30.9468
31.19282341969534 30.8516
31.215939314557186 30.9363
31.239056512134788 30.8857
31.262175013589378 30.8779
31.28547544871168 30.8305
31.30859657161541 30.8307
31.331719001892175 30.8397
31.35484274070538 30.9972
31.378148458819545 30.8588
31.401274828443725 30.8818
31.424402510106933 30.9198
31.447712205419993 31.0284
31.470842524931633 30.7978
31.493974159989783 30.7569
31.51710711176168 30.7694
31.54042212308802 30.7401
31.563557722100917 30.7489
31.586694641341655 30.5293
31.609832881979628 30.4353
31.63315322823208 30.4018
31.656294125521327 30.3021
31.679436347728515 30.2266
31.70257989602529 30.1684
31.725905596152327 30.0992
31.74905181052835 30.0128
31.772199354521323 30.1931
31.79534822930507 30.1142
31.818679302290967 30.1247
31.84183085259981 30.0869
31.864983737233473 30.0803
31.88813795736804 30.1832
31.911474422233013 30.0655
31.934631327356435 30.0369
31.9577895715215 30.0539
31.980949155906522 29.9773
32.004291031706956 30.0467
32.027453310562606 29.8804
32.05061693318573 29.7036
32.07396288236386 29.8631
32.09712920658542 29.7022
32.12029687812702 29.5408
32.14346589817093 29.4427
32.166817291729984 29.5175
32.18998902288583 29.4393
32.21316210610336 29.3199
32.23633654256711 29.2309
32.259693399663725 29.2372
32.282870556771144 29.1151
32.30604907069099 29.1435
32.329228942610065 29.1066
32.35259128243769 28.8493
32.375773884550505 28.8654
32.398957848235646 28.8616
32.422143174682176 28.9545
32.445511016471215 28.7662
32.468699082679954 28.6602
32.49188851523011 28.625999999999998
32.51507931531304 28.5509
32.538452678331 28.6241
32.56164622776311 28.4995
32.58484114831493 28.4659
32.60803744118015 28.4737
32.631416344731896 28.4931
32.654615396551876 28.3977
32.67781582427913 28.4097
32.701198898634416 28.2889
32.72440209253756 28.2965
32.747606665947124 28.2788
32.77081262006088 28.0757
32.79420126883317 28.0788
32.81740999876112 28.1721
32.840620112999424 28.0526
32.86383161274818 27.906999999999996
32.88722585534586 27.8685
32.91044014056596 27.9792
32.933655814909734 27.9976
32.95687287957963 27.9304
32.98027273544904 27.9451
33.00349259526636 27.8798
33.026713849030116 27.801
33.04993649794511 27.8328
33.073341986570746 27.7988
33.09656744032826 27.801
33.11979429286444 27.7233
33.14302254538647 27.7464
33.166433686291185 27.7474
33.18966475336992 27.7699
33.212897224069096 27.5679
33.23613109959831 27.5354
33.259547912343415 27.4709
33.2827846121627 27.51
33.306022720453775 27.4323
33.32926223842861 27.3117
33.352684742614166 27.3025
33.37592709463173 27.3657
33.399170859982064 27.2951
33.422597648419426 27.1002
33.44584425514446 26.9946
33.46909227885668 27.0319
33.4923417207723 26.8964
33.51577423505344 27.0488
33.539026528130385 26.9119
33.56228024307245 26.865
33.585535381098246 26.7052
33.60897364093058 26.6476
33.63223163992385 26.6597
33.6554910656699 26.5668
33.678751919389796 26.6819
33.702195944520106 26.4822
33.72545966903325 26.6135
33.74872482519663 26.5357
33.771991414233746 26.5255
33.79544122444841 26.4777
33.81871069412428 26.4408
33.84198160035767 26.3406
33.86525394437455 26.3989
33.88870955949969 26.3396
33.911984794020626 26.2877
33.93526147001624 26.2797
33.958539588715006 26.2317
33.98200102861669 26.0745
34.0052820477047 26.0097
34.02856451319451 26.0044
34.05203033759056 25.968000000000004
34.07531571090147 25.9602
34.09860253431845 25.8394
34.121890809074316 25.8525
34.145362493118924 25.8595
34.16865368561615 25.8053
34.191946333164054 25.744
34.21524043699793 25.7558
34.23871800066799 25.6784
34.26201503218366 25.6205
34.28531352370466 25.6807
34.30861347646881 25.5792
34.33209693978188 25.5264
34.3553998301885 25.4772
34.378704185565205 25.374000000000002
34.402010007152356 25.2683
34.42549939016683 25.3292
34.44880815937748 25.2949
34.472118398533134 25.2574
34.49543010887669 25.1976
34.51892543169198 25.0551
34.54224009966052 25.1507
34.56555624255917 25.2146
34.58887386163339 25.1223
34.61237514439016 24.9667
34.6356957311114 24.9414
34.65901779775809 24.8796
34.68252356662995 24.8564
34.705848608458616 24.8657
34.72917513396849 24.7487
34.75250314440949 24.759
34.77601490857862 24.7212
34.799345904259795 24.5606
34.82267838863559 24.6615
34.846012362958525 24.5435
34.869530142679984 24.6284
34.89286711232212 24.6172
34.91620557568269 24.5224
34.93954553401677 24.5542
34.9630693495876 24.4815
34.986412313340814 24.4841
35.00975677584668 24.4815
35.033102738362956 24.4186
35.05663261012228 24.3304
35.0799815881786 24.3726
35.10333207003229 24.3133
35.12668405694369 24.3076
35.150220005273056 24.2114
35.17357501786656 24.1946
35.19693153931268 24.1554
35.220289570874385 24.1345
35.24383161619786 24.1474
35.267192683604904 24.0733
35.290555264930376 23.9936
35.314101899412165 24.0514
35.33746752422433 23.9974
35.36083466676374 24.0359
35.38420332829803 24.0004
35.407756095629054 24.0566
35.43112781085063 23.958000000000002
35.45450104888391 23.8402
35.477875810999194 23.8269
35.50143473172161 23.8431
35.52481255774625 23.8983
35.54819191167777 23.7312
35.57157279478914 23.7044
35.595137889488406 23.6511
35.61852184675279 23.6815
35.641907337029984 23.6621
35.665294361595684 23.5715
35.68886565090076 23.5221
35.7122557598848 23.497
35.73564740699838 23.4483
35.759040593519934 23.3463
35.78261809810353 23.3761
35.80601437933051 23.2065
35.829412203814705 23.2654
35.85281157283719 23.1967
35.876395313415884 23.2306
35.8997977874528 23.1585
35.92320180988546 23.1666
35.946790244133936 23.0399
35.97019737933222 23.0711
35.993606066789866 23.1035
36.01701630779276 23.0179
36.04061101440684 23.0189
36.06402437852291 22.9538
36.08743930005611 22.9749
36.1108557802951 22.8641
36.13445678011326 22.8355
36.15787639383515 22.7546
36.18129757014299 22.7655
36.20472031032821 22.7275
36.22832762423364 22.7246
36.25175350829375 22.6909
36.275180960119776 22.5961
36.298609981005924 22.6874
36.32222362992669 22.5943
36.34565580510207 22.5909
36.36908955323448 22.5593
36.39252487562093 22.4131
36.416144880530226 22.372
36.43958336764275 22.4197
36.463023432914625 22.4447
36.486465077645676 22.2905
36.51009145956204 22.3934
36.53353627947859 22.386999999999997
36.55698268276811 22.2949
36.58043067073321 22.2756
36.60406345072071 22.1448
36.62751462435344 22.1557
36.65096738658405 22.1181
36.67460498210655 22.0661
36.69806093788647 22.031
36.72151848619297 21.9817
36.744977628333636 22.0111
36.76862165890998 21.9602
36.79208400512205 21.9434
36.81554794910557 21.9259
36.83901349217101 21.7778
36.862663978991606 21.763
36.88613273667352 21.7491
36.90960309738324 21.7566
36.933075062434064 21.7053
36.95673202673572 21.6325
36.98020721697122 21.6293
37.003684015502365 21.56
37.027162423645365 21.5887
37.050825886711465 21.5239
37.07430753063053 21.474
37.09779078812467 21.4835
37.121275660513014 21.4861
37.144945643673694 21.385
37.16843376245278 21.3879
37.19192350009803 21.3964
37.215414857931435 21.2843
37.239091382563885 21.2592
37.262585997426164 21.2692
37.28608223645736 21.3035
37.309763684451696 21.1704
37.33326318851098 21.1316
37.356764320726555 21.0824
37.380267082425526 21.0895
37.40395510942588 21.0996
37.42746114683234 20.9798
37.45096881771841 20.9822
37.474478123414166 20.9508
37.49817275092816 20.9431
37.52168534303452 20.9327
37.54519957395567 20.8191
37.568715445024665 20.7697
37.592416694607714 20.7628
37.61593586281424 20.7704
37.63945667518264 20.8002
37.66297913304891 20.662
37.68668702630454 20.6986
37.710212792059274 20.6272
37.733740207334854 20.6024
37.757269273470364 20.5413
37.780983832050374 20.4624
37.80451621684926 20.4957
37.82805025654007 20.468
37.851585952464795 20.427
37.8753071980695 20.3257
37.89884622345676 20.2786
37.92238690911902 20.3451
37.94611318753442 20.2278
37.969657210779765 20.2423
37.99320289834801 20.2248
38.016750251586465 20.2053
38.04048325513017 20.1763
38.06403395679343 20.1188
38.087586328183946 20.0758
38.11114037065203 20.0069
38.13488012115898 20.0469
38.1584375229181 19.9106
38.181996599821 19.8771
38.205557353221124 19.9328
38.229303872575656 19.9223
38.2528679961576 19.8654
38.27643380031219 19.8113
38.30000128639589 19.7826
38.32375459653193 19.7803
38.34732546371299 19.761
38.37089801690786 19.6925
38.39447225747609 19.6328
38.418232380377425 19.5979
38.441810012983396 19.5992
38.46538933705673 19.5987
38.488970353960084 19.6093
38.51273731166058 19.54
38.536321731567014 19.495
38.55990784840681 19.4542
38.58367995004091 19.3695
38.60726947812959 19.3267
38.63086070726198 19.3168
38.654453638806274 19.3522
38.678232613930824 19.3104
38.70182896773327 19.1815
38.72542702806741 19.201
38.7490267963045 19.2225
38.77281266709232 19.1903
38.79641586862214 19.1947
38.8200207821842 19.0352
38.843627409152944 19.1065
38.86742019782782 19.0325
38.891030269149255 19.0497
38.914642058016156 19.0058
38.938255565806124 18.9831
38.96205529464307 18.9524
38.98567225787121 18.8949
39.00929094417078 18.8732
39.03291135492255 18.8733
39.05671804624804 18.8179
39.080341923549106 18.7755
39.103967529460334 18.7671
39.127594865365744 18.7265
39.15140854155791 18.6948
39.17503935514948 18.6574
39.19867190290282 18.6191
39.22249083587951 18.5882
39.24612686969409 18.6504
39.269764641845306 18.587
39.293404153722804 18.54
39.317230110864074 18.4259
39.34087311998506 18.402
39.36451787301696 18.424
39.388164371352595 18.3503
39.41199737518003 18.409000000000002
39.43564738196752 18.3214
39.45929913825317 18.294
39.48295264543308 18.2852
39.506792718520884 18.2233
39.530449745387216 18.2316
39.55410852735203 18.1667
39.57776906581474 18.1951
39.60161623079 18.1658
39.625280300200025 18.1654
39.64894613032202 18.0153
39.67261372255866 18.0634
39.6964680021016 18.0991
39.72013913657293 17.9768
39.74381203738292 17.9835
39.76748670593756 17.9979
39.79134812278169 17.9284
39.81502634488497 17.9316
39.83870633896685 17.8756
39.862388106436654 17.7851
39.88625668336918 17.7226
39.90994201572829 17.7855
39.933629125719285 17.7302
39.957503091207826 17.7233
39.9811937746168 17.7135
40.00488623990914 17.6374
40.02858048850006 17.647000000000002
40.05246165409549 17.5761
40.076159487492085 17.5521
40.099859108448875 17.5345
40.123560518384345 17.5231
40.1474489070226 17.4847
40.171153913178564 17.4953
40.194860712584955 17.3841
40.2185693066637 17.401
40.242464941335314 17.3574
40.26617714307655 17.3071
40.289891143772046 17.3009
40.3136069448471 17.2704
40.33750984859743 17.2577
40.3612292688043 17.2543
40.3849504936829 17.2415
40.40867352466194 17.2408
40.43258372059144 17.1475
40.45631038219906 17.1354
40.48003885420956 17.0755
40.503769138055105 17.0501
40.52768664931955 17.0899
40.55142057531802 17.0349
40.57515631746428 17.0233
40.599079334038514 16.9775
40.62281872700477 16.9494
40.64655994043941 16.8955
40.67030297578061 16.8911
40.69423334835778 16.9365
40.71798004609188 16.8684
40.74172857006355 16.7967
40.76547892171441 16.7545
40.7894166736039 16.7818
40.813170699248566 16.680999999999997
40.83692655691388 16.6775
40.86068424804498 16.6615
40.884629402612525 16.6723
40.908390779366385 16.6376
40.932153993938 16.5816
40.95591904777605 16.5435
40.979871628443995 16.5546
41.003640379561936 16.4855
41.02741097430883 16.4898
41.05118341413683 16.4161
41.075143444384416 16.4034
41.098919593177826 16.4319
41.1226975914255 16.371
41.14647744058318 16.3488
41.170444943946755 16.2912
41.19422851378379 16.2965
41.218013938914645 16.2214
41.24198706625173 16.1866
41.26577622087193 16.2116
41.289567235177785 16.2172
41.31336011063129 16.1673
41.337340752422875 16.0596
41.361137369129835 16.1126
41.38493585138705 16.0623
41.40873620066004 16.0084
41.43272438060107 15.9674
41.45652848292052 15.9815
41.48033445666918 15.9471
41.50414230331616 15.9636
41.528138045159764 15.9455
41.551949656675205 15.8824
41.575763145513235 15.8206
41.59957851314666 15.7915
41.62358184070442 15.8131
41.64740098505737 15.804
41.6712220126409 15.7592
41.69504492493139 15.7115
41.71905586207357 15.6848
41.74288256296395 15.6665
41.766711153007456 15.6579
41.79054163368412 15.5747
41.814560204340054 15.6107
41.838394485526365 15.5277
41.86223066180303 15.556
41.88625497706819 15.5648
41.910094962812 15.5308
41.93393684811168 15.5031
41.95778063445365 15.4056
41.981812625263366 15.3738
42.00566023303407 15.38
42.029509746323676 15.3865
42.05336116662236 15.3557
42.077400857069705 15.3398
42.10125611078846 15.3591
42.12511327600405 15.2579
42.14897235421036 15.2193
42.173019768448455 15.1953
42.19688269209613 15.1364
42.22074753323349 15.1254
42.24461429335818 15.145
42.268669455600495 15.1008
42.292540073217886 15.0706
42.31641261433284 15.1392
42.34028708044675 15.0414
42.36435001496739 15.0001
42.38822835065557 14.9672
42.41210861586426 14.9311
42.4359908120986 14.9738
42.46006154323262 14.902000000000001
42.48394762115317 14.9193
42.507835634632315 14.8683
42.531912233047436 14.8356
42.55580413732265 14.7817
42.579697981698 14.8235
42.60359376768525 14.7673
42.62767820545945 14.7641
42.65157789440821 14.7491
42.67547952952185 14.7344
42.699383112316 14.7074
42.72347541395347 14.6235
42.74738291190531 14.5689
42.771292362102166 14.6187
42.795203766063516 14.5845
42.819303956130405 14.5627
42.843219287476536 14.5503
42.86713657716324 14.5028
42.89105582671383 14.5108
42.91516392983864 14.4211
42.939087119032166 14.4497
42.963012272677304 14.3871
42.98693939230129 14.4164
43.01105543317513 14.3168
43.034986504731386 14.3275
43.05891954686589 14.3022
43.08285456110972 14.2704
43.10697856448665 14.1978
43.130917542983475 14.1718
43.15485849820081 14.1636
43.17880143167367 14.1399
43.20293342237094 14.1679
43.226880332449 14.1514
43.25082922540554 14.1095
43.27496722682525 14.0768
43.29892010567796 14.050999999999998
43.32287497204102 14.0121
43.34683182745632 14.0139
43.370977859791836 13.9885
43.39493871351105 13.9137
43.41890156092628 13.9305
43.44286640358341 13.8984
43.46702049182749 13.8888
43.49098934522816 13.8563
43.51496019852649 13.8562
43.5389330532723 13.8033
43.56309522248204 13.7917
43.58707210044314 13.8174
43.61105098451946 13.743
43.63503187626491 13.7126
43.659202151562134 13.7072
43.68318707902681 13.6761
43.70717401884041 13.6539
43.731162972560874 13.597000000000001
43.75534137913236 13.5584
43.779334381108384 13.5907
43.803329401683186 13.5695
43.82732644241872 13.5112
43.8515130055166 13.4835
43.87551410707659 13.4652
43.89951723350145 13.4508
43.923709934595614 13.4396
43.94771713129917 13.440999999999999
43.97172635758096 13.4391
43.99573761501002 13.3943
44.0199385169922 13.3238
44.04395385732619 13.323
44.067971233533086 13.3147
44.09199064718605 13.297
44.11619977548961 13.2892
44.14022328470671 13.1887
44.16424883610785 13.242
44.18827643127035 13.1745
44.21249381139513 13.1321
44.236525514814076 13.1404
44.26055926674478 13.1165
44.28459506876863 13.1027
44.3088207262813 13.0779
44.33286064928722 13.044
44.35690262714919 13.0162
44.38094666145278 12.9857
44.4051806219871 12.9881
44.42922879003185 12.9384
44.45327901929361 12.8727
44.477331311362136 12.9426
44.501573600619416 12.8826
44.525630039221795 12.8608
44.54968854541895 12.8378
44.573937102200176 12.8034
44.5979997645541 12.7714
44.622064499300315 12.8011
44.64613130803592 12.7359
44.67038823869318 12.770999999999999
44.69445921643748 12.722999999999999
44.718532272981385 12.7029
44.742607409926194 12.6685
44.76687274034801 12.6485
44.79095205918753 12.5898
44.81503346325094 12.6438
44.839116954143876 12.5886
44.86339071028742 12.5494
44.88747839599524 12.5009
44.91156817336837 12.4989
44.93566004401666 12.4977
44.959942251908146 12.5106
44.984038330325966 12.4284
45.00813650686762 12.3913
45.03223678314731 12.3911
45.05652746888232 12.4389
45.08063196592069 12.38
45.104738567558705 12.2909
45.128847275414856 12.2845
45.15314646515866 12.2563
45.17725940679741 12.2551
45.20137445952892 12.2144
45.22568004865265 12.225999999999999
45.24979934496396 12.2408
45.27392075725247 12.1715
45.29804428714431 12.1525
45.322358426247604 12.1423
45.346486212804315 12.0937
45.370616121861914 12.0608
45.39474815505086 12.0631
45.41907087049246 12.0351
45.4432071734666 12.0132
45.46734560548283 12.0244
45.49148616817604 12.03
45.51581748638564 11.972999999999999
45.5399623320197 11.9365
45.56410931325473 11.9092
45.58825843173002 11.9331
45.61259837920865 11.9126
45.636751793816 11.845999999999998
45.66090735060093 11.8163
45.68506505120716 11.7838
45.7094136545275 11.773
45.73357566449271 11.7654
45.75773982322992 11.7216
45.78190613238733 11.7406
45.806263418194064 11.6806
45.83043404997326 11.6936
45.85460683713677 11.6685
45.87897065658495 11.6492
45.90314777634752 11.5881
45.92732705646868 11.5632
45.9515084986045 11.6108
45.97588104735473 11.5742
46.00006683541565 11.5225
46.02425479047904 11.5136
46.04844491420549 11.4897
46.0728262191024 11.5276
46.09702070211635 11.4482
46.12121735879483 11.4324
46.14541619080294 11.4365
46.169806278764455 11.4396
46.194009483459034 11.4229
46.21821486849841 11.4171
46.24242243555223 11.382
46.266821333570014 11.2981
46.29103328674601 11.2998
46.31524742696538 11.2896
46.33946375590237 11.2513
46.36387149104216 11.2411
46.38809221957392 11.2209
46.41231514186606 11.2262
46.436540259597464 11.1892
46.460956858999374 11.1642
46.48518638983522 11.1189
46.509418121166966 11.1217
46.533652054678114 11.1018
46.55807754555709 11.0614
46.58231590571962 11.0947
46.60655647313217 11.0318
46.630988654873654 11.0088
46.655233659129024 10.9628
46.67948087571551 10.9402
46.70373030632484 10.9728
46.72817142736393 10.964
46.752425308428684 10.9375
46.77668140861147 10.8986
46.80093972960865 10.8925
46.82538981736788 10.8623
46.849652602470904 10.8233
46.87391761349769 10.8224
46.8981848521493 10.7849
46.9226439341274 10.7805
46.946915650573224 10.702
46.97118959976749 10.677
46.99546578341598 10.6495
47.019933887188216 10.6498
47.04421456235744 10.6472
47.06849747711879 10.6577
47.09278263318286 10.6625
47.11725978640143 10.6215
47.14154944775105 10.5587
47.165841355555656 10.5488
47.1901355115306 10.5539
47.214621741924994 10.5593
47.23892041698887 10.5312
47.26322134538975 10.4985
47.28771440635075 10.4953
47.31201986422527 10.469000000000001
47.33632758061436 10.4438
47.360637557241866 10.4201
47.38513974410611 10.4037
47.40945426407847 10.3884
47.43377104948137 10.3869
47.45809010204344 10.3553
47.48260144275502 10.2762
47.506925052572285 10.2632
47.53125093475548 10.2492
47.55557909103813 10.2507
47.58009961361992 10.2511
47.60443234110732 10.1967
47.62876734791564 10.2191
47.65310463578333 10.203
47.6776343683373 10.1781
47.7019762413987 10.1519
47.72632040075572 10.1472
47.75066684815169 10.1028
47.77520581885936 10.0773
47.799556865477655 10.049
47.823910205386 10.0349
47.84826584033272 10.0024
47.87281407745551 9.98189
47.89717432569297 10.0174
47.92153687423484 10.0102
47.94609208429692 9.998619999999999
47.97045925671401 9.945160000000001
47.99482873471275 9.93717
48.01920052005013 9.90242
48.04376504619224 9.88568
48.068141469543484 9.89688
48.09252020552573 9.85745
48.11690125590099 9.82005
48.1414751266064 9.84962
48.16586082917454 9.8152
48.19024885144316 9.766169999999999
48.2146391951793 9.7819
48.239222439012764 9.80006
48.26361744916137 9.73274
48.28801478610016 9.74638
48.31241445160131 9.72452
48.337007097209366 9.66282
48.36141144338331 9.66531
48.38581812345755 9.61881
48.41022713920929 9.64783
48.434829215320704 9.61288
48.45924292604658 9.60297
48.48365897780325 9.60323
48.50807737237308 9.55234
48.532688907799276 9.52616
48.55711201168574 9.53101
48.581537463754074 9.49334
48.60615611725119 9.50462
48.63058628942721 9.48236
48.65501881516546 9.47644
48.6794536962573 9.42071
48.70408185970339 9.38912
48.72852147531801 9.3834
48.75296345168211 9.34821
48.77740779059232 9.37537
48.80204549302823 9.36454
48.82649458091802 9.361260000000001
48.85094603676547 9.31893
48.87539986237231 9.31322
48.90004713292306 9.28872
48.92450572200832 9.26698
48.94896668628025 9.22609
48.97343002754588 9.188139999999999
48.99808689542115 9.20203
49.02255501470614 9.21068
49.04702551642794 9.188039999999999
49.0714984023988 9.19387
49.096164896893235 9.13026
49.120642575466796 9.1264
49.145122643748394 9.101510000000001
49.16960510355558 9.08458
49.19428125404938 9.08188
49.2187685210852 9.043239999999999
49.243258185121555 9.04447
49.26794160167084 9.00897
49.2924360839405 8.9761
49.31693296869764 8.95694
49.34143225776915 8.96999
49.36612538195438 8.92998
49.39062950396021 8.9449
49.41513603578346 8.924610000000001
49.4396449792564 8.86924
49.46434784069503 8.88073
49.488861631846454 8.85955
49.513377840166804 8.8676
49.537896467493745 8.809510000000001
49.56260909589029 8.77997
49.587132585683285 8.80645
49.611658500018365 8.78452
49.636186840738596 8.76375
49.66090926588511 8.73488
49.685442483902584 8.717360000000001
49.70997813385706 8.71297
49.734516217597076 8.679739999999999
49.75924846937352 8.68092
49.7837914452858 8.66605
49.80833686055187 8.63001
49.83288471702571 8.60667
49.85762682540054 8.61541
49.882179588965734 8.59417
49.9067347993235 8.58222
49.93129245833333 8.569239999999999
49.95604445336378 8.5547
49.98060703442832 8.537980000000001
50.005172069746266 8.51154
50.02993150438364 8.485560000000001
50.05450147301533 8.47974
50.07907390151433 8.49066
50.10364879174981 8.44322
50.12841816587289 8.41916
50.1529980044635 8.40932
50.17758031042124 8.39198
50.20216508562089 8.36456
50.22694442953363 8.34773
50.25153416817468 8.35657
50.27612638170508 8.340869999999999
50.300721072005196 8.282110000000001
50.325510416102105 8.27848
50.350110084975064 8.25315
50.37471223628208 8.23144
50.39931687190919 8.24997
50.424116246675766 8.21772
50.44872587605249 8.21386
50.47333799543065 8.22005
50.49795260670191 8.199119999999999
50.52276204271512 8.15564
50.54738166295838 8.133280000000001
50.57200378079314 8.133939999999999
50.596628398116835 8.10753
50.62144792604559 8.141
50.646077567609396 8.1166
50.670709714377715 8.08118
50.69553683636198 8.061860000000001
50.72017401885922 8.05875
50.7448137122895 8.05498
50.76945591856022 8.04091
50.79429318636823 8.00097
50.818940443716784 7.96974
50.84359021965163 7.944960000000001
50.868242516085964 7.999630000000001
50.893089960641895 7.97266
50.917747323549435 7.90693
50.94240721271973 7.892360000000001
50.96706963007175 7.9173
50.99192728239342 7.865889999999999
51.01659478166073 7.88855
51.04126481489051 7.878080000000001
51.06593738400761 7.81915
51.090805275207074 7.82448
51.11548294172845 7.7765
51.14016314993547 7.795039999999999
51.164845901758845 7.76894
51.18972406304274 7.7457199999999995
51.21441192780656 7.741569999999999
51.23910234200271 7.700010000000001
51.2637953075678 7.696330000000001
51.288683770237945 7.68169
51.31338186432707 7.649789999999999
51.33808251561888 7.58632
51.362978729967345 7.64712
51.387684521509755 7.647869999999999
51.41239287610203 7.639939999999999
51.437103795691165 7.58962
51.46201036644977 7.55947
51.486726441956634 7.533289999999999
51.51144508832545 7.5624899999999995
51.536166307509156 7.53653
51.56108326624387 7.506
51.58580965706056 7.521610000000001
51.61053862657523 7.50525
51.635270176746864 7.452189999999999
51.66019755512065 7.47807
51.68493429268881 7.46758
51.70967361681515 7.42904
51.73441552946465 7.39157
51.759353359237934 7.39415
51.7841004750961 7.38715
51.80885018539685 7.36683
51.833602492111254 7.35177
51.8585508051424 7.32021
51.883308330926425 7.326060000000001
51.90806845906181 7.29063
51.932831191525715 7.27338
51.95779001977161 7.25662
51.98255798721516 7.2470300000000005
52.00732856494335 7.23725
52.03229530577543 7.20396
52.057071130455945 7.2203800000000005
52.081849571391054 7.20205
52.106630630568695 7.21247
52.13160794279417 7.18383
52.15639426492067 7.13012
52.18118321127822 7.14675
52.205974783860896 7.17528
52.23096269971011 7.14325
52.255759551287994 7.09645
52.280559035098186 7.08299
52.30536115314103 7.073010000000001
52.33035970494467 7.0617399999999995
52.35516711807904 7.026269999999999
52.37997717147198 7.01928
52.40478986713005 6.987539999999999
52.42979908731974 6.97238
52.454617094216 6.9487
52.47943774942214 6.945410000000001
52.50426105495102 6.95182
52.529280976059844 6.9409600000000005
52.554109609024096 6.90878
52.57894089837482 6.91935
52.60377484613117 6.8642
52.62880550079408 6.89588
52.65364479223379 6.85325
52.67848674816189 6.823410000000001
52.70352547971946 6.84395
52.72837279155837 6.81623
52.753222773982785 6.8250399999999996
52.778075429022984 6.80415
52.80312495150885 6.77158
52.827982978797436 6.79254
52.85284368481815 6.759360000000001
52.87770707160767 6.714739999999999
52.90276741793998 6.69503
52.92763619336701 6.70591
52.952507655698504 6.6957
52.977381806977576 6.68737
53.00245301017842 6.65965
53.02733256653592 6.68613
53.052214817996074 6.673830000000001
53.077099766608484 6.64699
53.102181859804446 6.5804800000000006
53.127072229988265 6.552309999999999
53.15196530349892 6.585369999999999
53.17686108239249 6.56381
53.20195409881522 6.55147
53.22685531582556 6.566389999999999
53.25175924441303 6.523630000000001
53.27666588664027 6.52274
53.30176985962693 6.46994
53.3266819565689 6.46018
53.35159677336455 6.42692
53.376514312083096 6.440119999999999
53.40162927507703 6.47829
53.42655228516116 6.45653
53.45147802340193 6.39272
53.47660125628886 6.4154800000000005
53.50153247842639 6.40677
53.52646643496923 6.3939
53.55140312799818 6.37483
53.576537409691696 6.3411
53.60147960336152 6.3542
53.626424539786164 6.2958099999999995
53.65137222105307 6.27301
53.67651758529126 6.2819
53.70147078399681 6.2517
53.72642673383343 6.25544
53.75138543689533 6.28089
53.776541917524526 6.26352
53.801506154876755 6.2725800000000005
53.826473151763246 6.20447
53.851442910284916 6.17021
53.87661054126026 6.1830300000000005
53.9015858509782 6.16214
53.92656392866066 6.1714
53.95154477641532 6.14264
53.976723591801296 6.16057
54.00171000771266 6.17764
54.02669920004598 6.09103
54.051691170915745 6.08325
54.076881204886796 6.03533
54.101878760928514 6.04904
54.12687910187696 6.03374
54.152077577768296 6.0349699999999995
54.1770835166946 6.00528
54.20209224691339 6.01243
54.22710377055121 5.95655
54.25231352511594 5.97345
54.27733066384342 5.90897
54.30235060239643 5.9389400000000006
54.32737334290836 5.9501800000000005
54.35259441062629 5.91501
54.377622783395324 5.89918
54.40265396455061 5.89612
54.42768795623251 5.88469
54.45292037169559 5.82035
54.477960012857906 5.81732
54.50300247099511 5.7923599999999995
54.52804774825457 5.79856
54.55329154616743 5.78052
54.57834249018678 5.7735
54.6033962597977 5.7320400000000005
54.6284528571545 5.7447099999999995
54.653708072335164 5.6498800000000005
54.67877035378786 5.69757
54.70383546947698 5.63689
54.72890342156389 5.59776
54.7541700889442 5.607530000000001
54.77924374251975 5.61849
54.8043202390049 5.57605
54.82959552413022 5.50659
54.8546777351945 5.53066
54.87976279569621 5.50845
54.90485070780914 5.48278
54.930137506558005 5.44942
54.95523115074295 5.49389
54.98032765308844 5.50591
55.005427015775496 5.42016
55.03072536339621 5.38999
55.05583047570572 5.33849
55.080938454927676 5.38317
55.10604930325027 5.35216
55.131359235107396 5.36388
55.15647585066083 5.30152
55.181595341907496 5.30261
55.20671771104285 5.26202
55.232039262617704 5.23039
55.25716741665048 5.17598
55.28229845518636 5.19835
55.30743238042802 5.1826300000000005
55.33276558731939 5.1635599999999995
55.357905315183636 5.17053
55.383047936390035 5.10879
55.40819345314859 5.066319999999999
55.433538351073295 5.0441199999999995
55.458689688238415 5.081869999999999
55.483843927614096 5.00101
55.509197623043605 4.98501
55.53435769621134 4.93885
55.55952067826466 4.94271
55.5846865714265 4.95355
55.61005202069737 4.94488
55.63522376553902 4.917680000000001
55.66039842818645 4.8326199999999995
55.68557601087004 4.79862
55.7109532500271 4.7791
55.73613670233794 4.83444
