TT I
1.2716486653135266 7.18945
1.2939594142134223 7.2644899999999994
1.3162702121660406 6.9838
1.3385810600174564 7.0179100000000005
1.3608919586137629 6.84025
1.383202908801069 6.661580000000001
1.405513911425503 6.16961
1.4278249673332093 6.37941
1.4501343378461518 6.54145
1.4724455028545926 6.52631
1.4947567236847858 5.95953
1.517068001182951 6.47086
1.5393793361953272 6.43665
1.5616907295681737 5.54005
1.5840021821477681 4.941409999999999
1.60631369478041 5.505669999999999
1.6286252683124185 5.33344
1.6509369035901333 5.20046
1.6732468618895553 4.98493
1.695558623192809 5.05516
1.7178704487808514 5.3815
1.7401823395001077 4.49054
1.7625012545597203 4.87054
1.7848028405262486 5.23995
1.8071218901122095 4.4111400000000005
1.8294236121921872 4.60909
1.8517427996910911 4.8623400000000006
1.8740620574440425 4.90911
1.8963639900671978 4.854830000000001
1.9186833908139995 4.78814
1.9409854680117449 4.55054
1.9633050151394713 4.5465
1.9856246367570705 4.6978
2.0079269371922672 4.6405
2.03024671027244 4.6786900000000005
2.0525491637446027 4.5578199999999995
2.074869091674931 4.25181
2.097171701569106 4.8452
2.1194917877373847 5.29902
2.141811954326636 5.1748199999999995
2.164114805233074 5.1730599999999995
2.186435135143035 5.95881
2.208738150935709 13.4599
2.231058647554722 26.5037
2.2533792288321184 20.4487
2.275682498336085 9.73731
2.298003251406138 5.50484
2.3203066942619714 5.1275
2.3426276225136022 5.07784
2.3649486396617507 5.62312
2.387252348930071 6.19531
2.4095735463442893 6.28643
2.4318774374315884 5.657
2.4541988185014043 5.83171
2.476502894794693 6.08214
2.498824462909887 7.3113399999999995
2.521146125856138 6.909489999999999
2.5434504863470337 6.812310000000001
2.5657723414244717 7.083360000000001
2.588076895590662 7.19442
2.610398946189713 7.72394
2.6327210958598384 7.78102
2.6550259469304716 7.989269999999999
2.6773482972090137 7.51587
2.6996533504259 8.26345
2.7219759047039602 8.68435
2.744298562293959 7.563689999999999
2.7666039251246595 8.194180000000001
2.7889267918020164 8.2337
2.8112323652516555 7.86158
2.833555444408179 7.94181
2.8558786311183852 8.41881
2.8781845268938557 8.63033
2.9005079311721484 8.761519999999999
2.9228140460410397 8.57616
2.9451376712799635 8.972610000000001
2.967444008632326 9.02544
2.9897678582247247 9.871189999999999
3.0120918213106695 10.3565
3.0343984987899373 10.698
3.0567226913198637 11.0928
3.079029599759726 11.645999999999999
3.101354025127254 12.1185
3.123678568232338 11.9739
3.145985829517914 12.8675
3.16831061055229 13.875
3.1906181112775593 14.2949
3.212943133635653 14.9968
3.2352682779763207 14.9412
3.2575761442691227 15.5779
3.2799015350264273 15.8399
3.302209649240067 16.453
3.3245352898092655 17.0008
3.3468436553365257 17.6688
3.369169549113219 17.8575
3.3914955708171384 18.4009
3.413804319727358 19.0627
3.4361305997334863 19.3827
3.4584396084414553 19.4108
3.4807661501462652 20.1023
3.503092824025881 21.1819
3.5254022288463154 21.2842
3.5477291695206588 22.0479
3.5700388426251948 22.4725
3.5923660534916446 23.9061
3.6146934007816114 38.7572
3.637003482731501 85.264
3.6593311053109985 93.9903
3.681641464033634 54.917
3.7039693653009733 30.7348
3.726297407241705 25.823
3.7486081875460804 25.7819
3.7709365132734978 26.3464
3.793247578841633 26.8657
3.8155761917550093 26.9066
3.8378875459837216 26.8505
3.8602164494827234 27.5426
3.882545499606844 28.3133
3.9048572932539183 29.2514
3.9271866390645718 29.8012
3.9494987298666713 30.2774
3.971828374764527 30.5817
3.9941581705403255 30.921
4.016470713506008 31.4629
4.038800813471445 32.1869
4.061113662089144 32.9584
4.0834440696459176 33.7744
4.105774632334751 34.2178
4.128087945865126 34.9246
4.150418821249301 35.4091
4.172732448931298 37.1789
4.195063640413578 39.068000000000005
4.2173775856475215 42.3454
4.239709096631102 73.3711
4.262040768704612 224.646
4.284355196706267 299.498
4.306687193387355 192.632
4.329001947444346 77.756
4.35133427213731 48.2142
4.373666762177566 44.563
4.395982011761091 44.6656
4.418314834921175 45.9734
4.44063041906622 53.1768
4.4629635787515625 64.1184
4.4852969080429785 63.7016
4.5076130004776225 54.1806
4.529946671403969 50.367
4.552263106909177 50.5025
4.574597122877047 51.4563
4.596931312711224 52.5276
4.619248269273446 53.3347
4.6415828092605835 54.9012
4.663900117405352 55.943999999999996
4.686235010953232 57.1845
4.708552674085913 58.2097
4.730887924602802 59.8425
4.753223354952695 61.6232
4.775541557023902 62.6484
4.797877349456786 64.4169
4.820195915032126 66.1882
4.842532072957498 67.7961
4.864868414979744 69.7522
4.88718753227192 71.5288
4.909524244902505 73.7577
4.931843734218147 75.8975
4.954180820867835 78.5065
4.976518095879839 81.925
4.998838149695359 84.6399
5.021175803844231 88.1752
5.043496238205739 91.65899999999999
5.065834274903528 95.8252
5.088172504230693 101.781
5.1104935158799565 108.22399999999999
5.132832132875765 130.99200000000002
5.155153533596801 174.333
5.1774925416746225 212.271
5.199814334878411 388.421
5.2221537374521505 1115.37
5.244493338631803 3039.4
5.266815727034316 7719.9
5.289155727832427 12243.7
5.311478517248165 8968.67
5.333818921080011 3117.45
5.356159527788849 634.285
5.3784829252032536 196.861
5.400823940070432 147.623
5.423147747031976 130.569
5.445489173474152 120.66799999999999
5.467830807066149 114.495
5.490155234831516 110.115
5.512497285125229 106.85700000000001
5.534822130975162 105.521
5.557164601388673 103.179
5.579489868738879 99.6624
5.601832762690846 99.0788
5.6241758697774475 98.4048
5.646501775867269 97.3041
5.668845311622074 96.3051
5.691171647754637 95.2328
5.713515615597765 93.6771
5.735859800852677 92.8295
5.758186788542988 92.3906
5.780531411018185 92.4814
5.802858837297399 92.2496
5.825203900414495 92.3292
5.8475491852224 92.1136
5.869877275883075 93.1571
5.892223006467101 94.4636
5.914551544266608 96.3249
5.936897724049891 98.8147
5.959244129804903 105.515
5.981573344815301 126.22
6.0039202049061 227.233
6.026249875609095 498.30400000000003
6.04859719346037 1041.04
6.070927323278297 2253.22
6.093275102315365 4409.98
6.115623113320588 5425.04
6.137953938319995 3356.58
6.160302415650845 1114.54
6.182633708324452 264.704
6.2049826554078376 117.68700000000001
6.227331838745022 94.8418
6.249663839443684 86.7834
6.27201349767565 83.4941
6.294345974611799 88.4657
6.316696111167083 99.3011
6.339046488263839 94.2094
6.361379686074702 80.0555
6.383730546639482 72.2974
6.406064229255215 69.0402
6.428415576718203 68.8783
6.450749747566656 67.5525
6.47310158535871 66.4054
6.495453669698332 65.7058
6.517788579421056 65.152
6.540141159237969 64.1985
6.562476565766648 63.7685
6.5848296444934045 63.0176
6.607182974060425 62.7597
6.6295191323281015 63.0358
6.651872965955752 66.3097
6.6742096296068985 91.0781
6.6965639707294615 134.584
6.71891856698715 134.09799999999998
6.741255995248479 92.7248
6.763611104154477 67.6006
6.785949046381137 60.5471
6.808304671371482 58.8689
6.8306605557940046 58.3321
6.852999275508618 57.7509
6.875355681171544 57.538000000000004
6.897694923437771 57.0884
6.92005185377892 57.5613
6.9423916220322655 56.7713
6.964749080490181 55.9983
6.987106804399774 56.4582
7.009447368180821 56.5408
7.031805625367033 55.8298
7.054146723727803 55.6165
7.076505517631004 55.3498
7.098864581288365 55.7116
7.121206488070854 55.5655
7.143566093607822 55.2557
7.165908543567245 55.4659
7.188268694426048 55.8533
7.2106291193438095 55.6844
7.232972390625943 57.076
7.255333366030969 68.7081
7.277677189091925 120.24700000000001
7.300038718428332 164.662
7.322400526130865 139.638
7.344745183422596 87.9769
7.367107550224791 61.74100000000001
7.389452767901992 56.6846
7.411815697249891 55.8969
7.434161478756298 54.8632
7.456524974096713 54.768
7.478888753837185 54.8567
7.501235387657368 55.0365
7.523599738562711 55.2237
7.545946944825532 55.1484
7.568311870344528 55.5369
7.5906770845765665 55.6316
7.613025156078678 57.0957
7.635390950099687 58.3796
7.657739602662809 57.4048
7.680105979923558 56.0877
7.702472650212829 56.4225
7.724822180948224 56.1826
7.747189439655568 56.4655
7.769539560075357 56.5627
7.791907410653562 56.7181
7.81425812420825 56.9853
7.836626570110925 57.0919
7.858995315087906 58.1034
7.881346924933401 58.2479
7.903716270417482 58.555
7.926068482028405 59.0617
7.948438431475253 59.4248
7.9708086843180235 60.0464
7.993161805171116 60.9946
8.015532667162402 61.2545
8.037886398416653 62.3419
8.060257873014221 62.422
8.082629655331942 63.1493
8.104984308787587 64.3255
8.127356708900503 67.3435
8.149711981398308 73.0313
8.172085002766314 75.1044
8.194458336181368 71.9166
8.216814543847752 69.6816
8.23918850371002 69.6668
8.26154533906492 70.876
8.283919928836452 72.3806
8.306277395339652 73.5712
8.328652618483376 74.7482
8.351028159736202 76.8836
8.373386579575245 79.2405
8.395762759396959 81.2033
8.418121819038275 86.0881
8.440498640894003 98.7364
8.462875785192262 112.95700000000001
8.485235811156207 127.31200000000001
8.507613602688501 172.11
8.529974277114228 269.474
8.552352719347912 414.915
8.574731488360351 685.107
8.59709314210385 1213.19
8.619472567021075 1896.16
8.64183487789147 2211.13
8.664214962183097 1805.93
8.686577933647762 952.686
8.708958680784317 376.381
8.731339760774953 167.863
8.753703729764451 112.58
8.77608547780821 100.045
8.798450116065078 96.12700000000001
8.820832535634787 93.0967
8.843215292401656 91.3358
8.865580941199045 90.0985
8.887964374703538 89.0543
8.910330701447199 90.0305
8.932714815164482 92.3882
8.955099270424924 91.2912
8.977466620733543 88.3403
8.999851761421976 86.0348
9.022219798361645 84.4033
9.04460562795561 84.1146
9.066991803441677 83.2473
9.089360876979615 83.2823
9.111747746589993 82.9748
9.13411751544971 82.7248
9.156505082664324 82.5515
9.178875550323522 82.7274
9.20126381862328 82.602
9.223652438908596 83.4408
9.246023961427412 83.3568
9.26841328802173 82.2955
9.290785518039224 82.1602
9.313175554425882 83.0838
9.335565947154315 83.1515
9.357939245086508 83.2501
9.380330352834827 83.3449
9.40270436697103 83.6173
9.425096193225055 83.3562
9.447488380180165 84.4505
9.469863475295412 84.7248
9.492256385987508 84.9974
9.514632206018318 85.8221
9.537025843935714 86.3315
9.559402392368193 87.1051
9.581796761000229 87.6576
9.604191496441521 88.5712
9.626569144158516 92.0216
9.648964615551032 96.7293
9.671343000390081 98.5415
9.693739211225699 96.2631
9.716135793237463 93.8867
9.738515290448102 93.5348
9.760912617143402 94.6171
9.783292860202891 95.671
9.805690935076182 97.0822
9.828089385495742 98.0807
9.850470754023561 100.51899999999999
9.872869957865444 108.285
9.89525208097539 122.77
9.917652041736662 135.017
9.940052382417589 135.812
9.962435644102392 144.966
9.984836746950979 185.541
10.007220771957746 255.005
10.029622640473708 361.401
10.052007432299963 541.773
10.074410069984072 825.5169999999999
10.096813093716005 1261.82
10.119199042482517 1707.54
10.141602840636468 1904.19
10.163989564971628 1591.18
10.186394141051062 898.945
10.208799107559706 395.375
10.231187001965623 185.505
10.253592751657669 126.01700000000001
10.275981430388155 114.089
10.298387966769793 113.167
10.320794897965431 115.434
10.343184759907361 114.325
10.36559248305461 108.979
10.387983138083852 105.368
10.410391656691655 108.395
10.432800574501677 120.87299999999999
10.455192425893369 139.094
10.47760214443012 166.109
10.499994797678786 208.9
10.522405320453982 289.57099999999997
10.54479877906917 402.62800000000004
10.567210109595656 513.381
10.5896218454736 561.706
10.612016518879773 504.11800000000005
10.634429067781074 343.171
10.656824555333241 193.294
10.679237920773568 119.992
10.701651695961992 95.6123
10.724048411481384 89.7151
10.746463008485165 86.8331
10.768860546937125 85.3712
10.791275969274796 83.4826
10.81369180576079 82.601
10.836090585366925 81.4621
10.858507252467449 80.5846
10.88090686379991 79.5007
10.903324365036394 78.8642
10.925724811614439 78.7155
10.948143150509463 79.979
10.970561909719066 78.8857
10.992963615930844 76.936
11.015383218085756 75.1159
11.037785768347074 73.7026
11.06020621697282 73.2487
11.082627090322113 72.5282
11.105030913430326 72.1026
11.12745263854165 72.7311
11.149857314510728 76.0122
11.172279894912576 81.5098
11.194702904450653 81.8856
11.217108866490921 78.2955
11.239532736615194 74.0681
11.26193956033512 72.0709
11.284364294577085 70.639
11.306789462371718 68.7522
11.329197585398376 67.6041
11.351623622610898 67.3459
11.37403261614354 66.5823
11.396459526308487 66.40100000000001
11.418869393879497 65.8865
11.441297180532617 65.6456
11.463725406927658 65.2945
11.486136592353875 64.9146
11.508565700543707 65.4965
11.530977768845315 67.2526
11.553407762368774 67.9532
11.575838200059769 67.6877
11.598251599479612 65.6364
11.620682927815501 64.1347
11.64309721895548 64.0502
11.665529441478206 63.5663
11.687962112597958 63.2926
11.710377748130886 63.7154
11.732811318753434 63.39
11.755227854859067 63.0399
11.777662328529495 63.1405
11.800079768750786 62.9195
11.822515149015453 62.7721
11.844950984084935 62.9859
11.867369787303163 62.8919
11.889806534289491 62.8682
11.912226250487029 63.1386
11.934663912939751 63.5022
11.9571020346363 63.396
11.979523127133968 63.3061
12.001962169624331 63.9603
12.024384183972964 65.1807
12.046824150809913 68.6886
12.069264581333726 74.4072
12.091687985297767 80.4231
12.11412934550045 90.3906
12.136553680195208 104.712
12.158995973632788 126.777
12.181438735204349 153.346
12.20386447284199 182.076
12.226308172985636 205.56099999999998
12.24873485024193 201.19799999999998
12.271179492516982 165.872
12.293607112949127 127.266
12.316052700916226 94.0454
12.338498763250042 77.9685
12.360927805303868 70.3025
12.383374818673879 66.5832
12.405804812803074 64.735
12.428252780773262 64.8212
12.45070122756722 64.8425
12.473132656675375 64.5637
12.49558206341869 64.649
12.518014453510101 64.4886
12.540464823770117 64.8029
12.562915677315177 64.8052
12.58534951575545 65.7112
12.607801338171472 68.0263
12.630236146511358 72.8957
12.652688941369085 77.2981
12.675124723177234 77.8846
12.697578494048786 74.2626
12.720032754458185 70.2689
12.742470003354093 68.4573
12.764925245138771 68.15899999999999
12.787363476431278 68.3784
12.809819703166806 68.7683
12.83227642391173 69.3959
12.854716135692716 69.8861
12.877173846755147 71.1612
12.899614549869717 71.3674
12.9220732548287 72.3151
12.94453245827299 72.6951
12.966974655289818 73.7703
12.989434858002571 74.8191
13.011878055298721 75.4827
13.034339260862497 76.2444
13.056800969391883 77.7318
13.079245674017244 79.7541
13.101708390774869 81.7963
13.12415410463411 89.5327
13.146617833206086 102.348
13.169064559883248 115.064
13.191529303857127 130.47899999999998
13.213994557076367 153.476
13.236442809902437 189.94
13.258909083908291 243.333
13.28135835851934 303.732
13.30382565690295 373.096
13.326293469022952 424.38300000000004
13.348744283242008 431.463
13.371213125129904 362.50300000000004
13.39366497011003 262.01599999999996
13.416134845360597 172.472
13.438605238843131 122.714
13.46105863690397 106.48700000000001
13.483530069144786 107.12899999999999
13.505984506951902 113.17299999999999
13.528456981549432 123.45700000000001
13.550929978879088 139.018
13.573385983253365 162.855
13.595860028340867 200.91099999999997
13.618317081455832 250.94799999999998
13.64079217790333 304.025
13.663250283359057 350.86800000000005
13.685726434770173 371.999
13.708203115221277 344.249
13.730662806148091 261.875
13.75314054697177 185.167
13.775601299246777 128.787
13.798080104050406 97.2838
13.820559442405358 85.7136
13.843021793671388 82.1205
13.865502201420897 80.7833
13.887965623051947 80.0839
13.910447103807167 78.9462
13.932929122629764 77.5446
13.955394156785959 77.1373
13.977877254034569 76.1853
14.000343367582113 75.3692
14.022827546871707 75.0219
14.045294743423524 74.30199999999999
14.06778000837062 73.6331
14.090265817715476 73.4971
14.112734645763819 72.8727
14.13522154619454 72.6655
14.157691466286913 72.7691
14.180179461423874 72.4969
14.202668005486178 71.7801
14.22513957064374 71.2688
14.247629214846473 70.8578
14.270101881097517 70.6624
14.29259262906496 71.0594
14.315083930490205 71.7646
14.337558255389705 71.9841
14.360050666019726 71.4682
14.382526101071944 70.4469
14.405019624534942 69.8256
14.427513705993134 69.1541
14.449990813291825 69.1675
14.47248601302899 69.1406
14.49496423954951 69.3707
14.517460561197822 69.2265
14.539939910570322 68.925
14.562437357763558 69.5698
14.58493536931253 70.7762
14.607416409993311 71.6142
14.62991555254159 72.0907
14.652397725157423 71.9402
14.674898002342799 71.6432
14.697398848433282 70.882
14.719882725991326 71.6001
14.74238471217934 72.6936
14.764869730765593 76.3977
14.787372860692983 80.3915
14.809876564079925 84.7996
14.83236330125751 90.809
14.854868153850365 99.4827
14.877356041159485 112.71799999999999
14.899862046604186 131.601
14.922351087688757 155.539
14.944858249632887 183.73
14.967365991421232 209.73
14.989856770231246 223.197
15.012365673994204 220.109
15.03485761569738 188.67700000000002
15.05736768508665 148.914
15.07987833888692 113.25
15.102372032001655 89.7092
15.124883856909658 76.9804
15.14737872204565 72.5129
15.169891721717274 71.0778
15.192405310371893 70.9021
15.214901940621196 71.3094
15.237416709527137 71.458
15.259914520936249 71.5059
15.282430473753607 70.4787
15.304947020131227 69.327
15.327446610371178 68.4375
15.349964346154254 67.4999
15.372465126703139 67.2448
15.394984055556009 67.0207
15.417486030076159 66.8686
15.44000615566487 66.6605
15.462526881230803 66.3766
15.485030653812652 66.5028
15.507552581617434 66.5751
15.530057557334603 66.699
15.55258069104857 66.7148
15.575104429329837 66.5843
15.597611216864632 66.2716
15.620136166564563 66.6636
15.6426441664095 67.6032
15.665170331202765 69.9098
15.687697105158826 73.4163
15.710206930593545 76.9874
15.732734925158933 81.097
15.755245972089478 87.8459
15.77777519094324 96.8981
15.800287463046663 109.995
15.822817909869592 128.249
15.84534897229804 148.506
15.867863089299354 171.886
15.890395385222186 188.315
15.912910736597423 195.21200000000002
15.935444269699861 181.08700000000002
15.957978423016485 154.959
15.980495633101265 122.26799999999999
16.003031029129367 95.53
16.02554948280019 76.0059
16.048086125229432 67.5907
16.070623392487107 65.5326
16.09314371869582 64.8093
16.11568223789321 63.8441
16.13820381691126 62.7849
16.160743591742527 61.875
16.183283996022084 61.005
16.205807461423195 59.7171
16.228349126881973 59.3567
16.25087385432698 59.327
16.27341678466365 58.7032
16.29594277784926 58.62
16.31848697676433 58.992
16.341031811604868 59.321000000000005
16.36355971058487 59.4367
16.3861058195587 59.1599
16.40863499352978 57.8593
16.431182380342005 57.0638
16.453730407713202 56.5885
16.476261501364792 56.3281
16.498810812136167 55.9841
16.52134319004079 56.0216
16.54389378792203 55.9119
16.566445031001553 55.4585
16.588979342490088 55.3876
16.61153187824822 55.2907
16.634067483263312 55.2472
16.656621315414416 54.9923
16.679175797408888 54.9478
16.701713349928728 55.0279
16.72426913389191 55.1533
16.74680798922351 55.1783
16.76936507887444 55.2806
16.791905240734874 55.3947
16.814463639794468 55.2557
16.837022695210294 55.2501
16.859564824093756 55.5842
16.882125194503903 56.175
16.904668639217885 56.9491
16.927230328348003 57.0416
16.949792678493612 57.0731
16.972338104193863 56.7095
16.994901778652235 56.0561
17.017448529496576 55.9775
17.040013531998152 56.2394
17.06257920018044 56.7563
17.0851279459922 57.7696
17.107694947817667 58.4602
17.130245028099072 59.0689
17.15281336730298 60.646
17.17536478578733 62.3071
17.19793446610687 64.3179
17.220504818648422 67.2949
17.243058251703697 70.3809
17.265629950971032 74.8765
17.288184731571736 78.7861
17.310757781306908 83.0151
17.33333150794385 84.1529
17.355888317140174 82.2537
17.37846339986244 78.083
17.401021565958885 71.4891
17.42359800851343 66.1779
17.44617513265564 62.1004
17.468735341390783 60.2489
17.491261035594565 59.6854
17.51396340099364 59.3518
17.536490463869136 59.6834
17.559018209820174 59.5113
17.58154663977963 59.5797
17.604251766089718 59.6839
17.626781572227713 59.9118
17.64931206518155 60.1453
17.671843245885103 60.8324
17.69455114821572 61.006
17.717083712612634 61.1471
17.739616967569667 61.4159
17.762150914021706 61.8638
17.78486160749854 61.8379
17.807396945166804 62.3833
17.829932977143503 63.1954
17.85246970436452 64.9081
17.875183204129467 67.051
17.897721330097664 69.0466
17.920260154126645 71.7138
17.942799677153296 74.7566
17.9655159983646 78.4086
17.988056927677544 84.0107
18.010598558807683 91.6855
18.033140892692916 101.072
18.05586005052525 111.051
18.07840379824407 122.646
18.10094825154059 133.58100000000002
18.12366954819864 141.437
18.146215420998306 141.94
18.16876200220057 132.093
18.191309292745153 117.51799999999999
18.214033452627167 103.147
18.236582170236648 91.5006
18.259131600016456 86.4591
18.281681742907335 86.8308
18.304408781233683 91.0616
18.32696035875955 96.3995
18.349512652227624 101.181
18.372065662579683 105.735
18.394795594587553 107.087
18.41735004715306 103.666
18.43990521943684 96.4646
18.46246111238171 87.1457
18.485193953325208 77.484
18.507751296070428 70.4224
18.530309362314178 66.3029
18.552868153000343 63.7361
18.57560391815056 62.3709
18.59816416623245 62.1748
18.620725141597372 61.7148
18.643286845190268 61.2659
18.666025549835414 61.0079
18.688588718427933 60.3212
18.711152618092243 59.9061
18.73389353884365 59.7309
18.75645890921984 59.2976
18.77902501351406 59.0096
18.801591852673102 58.9205
18.824335739722738 58.1695
18.846904057212626 58.3447
18.8694731124168 58.1566
18.89204290628315 58.1756
18.914789774966803 57.9493
18.937361054791623 57.6337
18.959933076131318 57.3316
18.982505839934877 57.5105
19.00525570560582 57.6753
19.027829963004184 57.2751
19.05040496572238 57.4115
19.072980714710468 57.4401
19.095733592739563 57.5241
19.11831084296757 57.9207
19.140888842324735 58.3981
19.16346759176222 58.7149
19.18622349753803 59.108000000000004
19.208803755869358 60.0579
19.231384767143577 60.9665
19.253966532312948 62.4996
19.276725481241822 64.9998
19.29930876296784 66.9786
19.3218928014549 69.9497
19.34465404436217 73.0688
19.36723960516257 75.5657
19.389825925592426 76.8416
19.412413006605938 75.7208
19.43517731967805 72.4027
19.457765930683355 67.8046
19.48035530514408 63.1937
19.50294544401556 59.5744
19.525712842708348 56.8804
19.54830451925909 55.4757
19.570896963095727 54.553000000000004
19.593490175174704 54.2362
19.616260674962184 54.1798
19.638855432416964 53.8601
19.661450960992624 53.9577
19.68404726164677 53.739
19.706820878021247 53.7121
19.729418731756834 54.0175
19.752017360452857 53.6343
19.77461676506804 53.9042
19.797393513540218 53.9097
19.819994478951667 54.3721
19.84259622316767 55.0831
19.8651987471481 55.382
19.887978643247177 55.4346
19.91058273574792 56.0582
19.933187610901943 56.8177
19.955969879466828 57.9634
19.97857632894404 59.1587
20.00118356396599 60.7225
20.023791585494575 63.0921
20.046577028914875 65.7811
20.069186632506966 67.9013
20.091797025500632 69.6541
20.114408208858933 70.4932
20.137196842715273 70.2235
20.159809615886765 68.4185
20.18242318232135 65.9822
20.20503754298326 63.7626
20.227829382875154 62.5041
20.250445341109344 62.3571
20.27306209647285 63.173
20.29567964993108 64.2029
20.31847471147704 65.1485
20.34109387027612 66.1581
20.363713830075454 66.0512
20.386334591841646 64.6653
20.409132890679302 61.9205
20.431755265564437 58.4653
20.454378445325528 55.6766
20.477002430930366 53.8301
20.499803982716553 52.6024
20.522429589228004 51.8029
20.54505600449589 51.4279
20.567683229489194 51.3006
20.590488049900088 50.9114
20.61311690359731 50.6416
20.63574656993626 50.5421
20.658553853717297 50.1195
20.681185154618298 50.0806
20.703817271080066 49.7766
20.72645020407368 49.5828
20.749260783967177 49.4479
20.771895359337133 49.316
20.794530754161617 49.1831
20.817166969412938 49.1849
20.83998086114876 49.125
20.86261872660049 49.0968
20.885257415405402 49.1504
20.90789692853701 48.9921
20.930714147864748 48.9062
20.953355319030678 49.0203
20.97599731745334 49.0898
20.99864014410749 48.9353
21.021460706796564 49.0772
21.044105199328826 49.0854
21.06675052302631 49.3353
21.089396678865015 49.5919
21.112220600704806 49.8423
21.134868430275347 50.0849
21.15751709492456 50.3251
21.180166595629693 50.7679
21.202993892429635 51.2027
21.22564507473034 51.5436
21.24829709602816 51.8155
21.27112693608965 51.8448
21.293780644891275 51.7468
21.316435195634053 51.0256
21.339090589297417 50.2683
21.361923832041875 49.8047
21.384580921090404 49.3199
21.407238856007325 49.0813
21.429897637773326 48.7792
21.45273429906592 48.8043
21.475394784108598 48.8531
21.498056118951983 48.6808
21.520718304578022 48.9793
21.543558400304388 49.0914
21.566222297108816 49.2374
21.58888704765135 49.2734
21.61155265291521 49.5881
21.63439619898156 49.9252
21.657063523335786 50.2662
21.67973170537063 50.8226
21.7024007460706 51.3657
21.72524775840385 51.8385
21.747918526116475 53.1102
21.770590155457388 54.3095
21.79326264741238 55.8653
21.816113141960237 57.5403
21.838787368860547 59.3815
21.861462461341976 61.1545
21.884315579735777 63.244
21.90699241312273 64.6234
21.92967011506078 65.1271
21.95234868653799 64.9031
21.9752053151131 63.3866
21.997885635446785 61.6193
22.020566828293532 59.7799
22.04324889464272 58.0435
22.066109049404666 56.7832
22.088792872571794 56.229
22.111477572219204 56.3534
22.1341631493376 56.4644
22.157026846313123 56.3331
22.179714188221507 55.6629
22.202402410582668 54.5289
22.22509151438863 53.1061
22.24795876962584 51.6924
22.270649646204486 50.7847
22.293341407213727 50.1306
22.316034053646906 49.71
22.338904883215342 49.46
22.36159931041458 49.4554
22.38429462602756 49.3612
22.40699083104897 49.1738
22.429865251039757 49.2864
22.452563244831367 49.303000000000004
22.47526213102522 49.2894
22.49813925616515 49.0275
22.520839937143307 48.8889
22.543541513520587 48.9701
22.56624398629403 48.6543
22.589124730075895 48.7058
22.611829005656723 49.1697
22.63453418063466 49.0645
22.657240256008077 49.3318
22.680124634582935 49.5924
22.70283252079775 49.5001
22.725541310413075 49.8854
22.74825100442868 50.1971
22.771139033969575 50.6352
22.79385054687155 50.8228
22.81656296718292 51.4453
22.83927629590484 52.4545
22.862167992606945 53.2439
22.88488314827121 54.4627
22.907599215359284 55.4984
22.93031619487366 56.5463
22.953211574954405 57.4759
22.975930389478226 58.4289
22.998650119445763 58.6887
23.02137076586092 57.7199
23.044269845560063 56.4133
23.06699233506288 54.6932
23.089715744034912 52.7896
23.112617610931565 51.3531
23.135342869061212 50.1475
23.158069049684816 49.4796
23.1807961538087 49.0536
23.20370174880544 49.0374
23.226430710184808 49.0759
23.249160598093425 49.1411
23.271891413539002 49.1402
23.294800752937697 49.2614
23.31753343374794 49.5708
23.340267045128353 49.5573
23.36300158808808 49.9217
23.38591468821339 50.1526
23.408651104658304 50.6988
23.431388455719986 51.2798
23.454126742409 52.0639
23.4770436196085 52.9955
23.499783787914662 54.3199
23.522524894889884 55.2118
23.54526694154616 56.2829
23.56818761219047 57.44
23.59093154860734 57.9108
23.613676427751283 58.3793
23.636422250635754 57.4568
23.659346731118656 55.83
23.68209445191868 53.781000000000006
23.704843119509587 51.7367
23.72759273490623 49.7653
23.750521041644767 48.3515
23.77327256312355 47.4203
23.796025035462787 46.848
23.818956224555475 46.3551
23.841710609113413 46.2095
23.86446594758979 46.0168
23.887222241002014 45.9578
23.910157285144578 45.6348
23.932915498962537 45.5459
23.955674670778713 45.4016
23.978434801611975 45.1796
24.001373717286125 45.0044
24.024135776723917 44.8659
24.046898798245582 44.8439
24.06966278287146 44.7563
24.092605586582614 44.5425
24.115371508023642 44.4748
24.1381383956401 44.4124
24.16090625045381 44.2361
24.183852958731244 44.2274
24.206622758582608 44.131
24.229393528706886 43.8883
24.252165270127392 43.849
24.27511589952438 43.843999999999994
24.297889594216997 43.6906
24.32066426328598 43.5975
24.34343990775613 43.5306
24.36639447485003 43.6059
24.38917208083877 43.4526
24.41195066531332 43.4275
24.43490819850244 43.4243
24.457688750692377 43.2874
24.48047028445616 43.3361
24.503252800821233 43.3465
24.526214300784112 43.41
24.548998793132213 43.335
24.57178427117417 43.21
24.59457073593893 43.4167
24.617536219319863 43.2447
24.64032466834748 43.2603
24.663114107195035 43.0275
24.685904536893013 42.8136
24.708874020360852 42.6059
24.731666442613744 42.6675
24.754459858818787 42.6148
24.777254270007962 42.6659
24.80022777025625 42.7424
24.82302418230472 42.5481
24.845821592443674 42.5087
24.86862000170663 42.4438
24.891597535453727 42.5492
24.914397953892728 42.7525
24.93719937456671 42.6174
24.96000179851076 42.7213
24.98298338249997 42.8697
25.00578782394922 43.0927
25.028593271784167 43.2887
25.05157790644186 43.6079
25.07438537804115 43.7686
25.097193859145293 43.9801
25.120003350792075 44.163000000000004
25.142992065061257 44.3975
25.165803588823465 44.7169
25.18861612625217 44.888999999999996
25.211429678386736 44.9669
25.234422489079968 45.0621
25.257238081693636 45.0926
25.280054692141732 45.1485
25.3028723214652 45.0023
25.325869245420463 45.081
25.348688923599397 45.2622
25.371509623787006 45.1133
25.394331347025812 44.8937
25.41733240110666 44.5147
25.440156181590016 43.7065
25.46298098826268 43.3319
25.48580682216873 42.6442
25.50881202326435 42.0941
25.53163992281684 41.6675
25.55446885274561 41.4135
25.577298814096377 41.2049
25.600308179121807 41.2706
25.623140214533745 41.2587
25.64597328451537 41.1312
25.66898578564376 40.8526
25.691820936010206 41.0083
25.714657124097695 40.8568
25.737494350954734 40.8479
25.760511045684957 40.7936
25.783350361364224 40.7619
25.806190718969255 40.7848
25.82903211955018 41.02
25.852053024868923 40.9456
25.874896522722523 40.9593
25.897741066713106 40.8798
25.920586657892454 41.0214
25.943611790812668 41.1535
25.966459487728237 41.3946
25.989308234998564 41.3318
26.01215803367705 41.6296
26.03518741123814 41.8096
26.05803932412957 41.9572
26.080892291600094 41.9941
26.10374631470478 41.8771
26.12677995397268 41.8634
26.14963609978026 41.9263
26.172493304397875 41.6518
26.19535156888223 41.4216
26.218389486949604 40.99100000000001
26.241249882640123 40.7604
26.26411134137826 40.5348
26.28715248187403 40.5294
26.31001607820869 40.4722
26.3328807407756 40.2707
26.35574647063438 40.4282
26.37879191991473 40.3017
26.401659795896734 40.3333
26.424528742360263 40.6357
26.447398760366614 40.7691
26.470448535598294 40.8578
26.49332070826805 41.0133
26.516193955675355 41.3237
26.53906827888316 41.6096
26.562122397260108 41.6247
26.584998883685063 41.9924
26.607876449110325 42.1919
26.63075509460056 42.4442
26.65381357334404 42.5102
26.67669439061878 42.4979
26.699576291163382 42.355
26.722459276044212 42.3271
26.745522132402975 41.995
26.768407297649354 41.687
26.791293550442003 41.3026
26.814180891848974 41.1107
26.837248143099337 40.9213
26.860137673466657 40.6996
26.88302829566349 40.4512
26.90592001075963 40.274
26.92899167420566 40.1574
26.951885586870763 39.8754
26.974780595655517 39.522
26.99785558178161 39.4426
27.020752794605112 39.2874
27.043651106772522 39.1376
27.06655051935668 39.0833
27.089629948036183 38.9917
27.112531573292053 38.9992
27.135434302194138 39.0606
27.158338135817015 38.9616
27.181422024430987 39.0208
27.204328079372566 38.8764
27.22723524226965 38.9079
27.250143514198573 38.9127
27.273231880156334 38.9863
27.296142382065014 38.7842
27.319053996245536 38.7584
27.341966723775965 38.7385
27.365059584515222 38.7289
27.38797455070062 38.8743
27.410890633481237 38.7019
27.433807833936918 38.7502
27.456905206923906 38.8585
27.47982465472398 38.8589
27.502745223449743 38.7122
27.525666914182825 38.9067
27.548768816912457 38.9369
27.571692763693633 38.7246
27.59461783573812 38.7234
27.617723149491244 38.4592
27.640650484125285 38.4562
27.66357894728264 38.3503
27.686508540048052 38.4707
27.709618414237887 38.2863
27.732550278321757 38.1646
27.755483275279115 38.044000000000004
27.778417406196485 38.1994
27.801531858397514 38.2039
27.824468269376716 38.0904
27.847405817586786 38.1658
27.870344504116094 38.3724
27.893463551932008 38.2542
27.916404527281053 38.5808
27.93934664422563 38.6275
27.962289903855886 38.6286
27.98541356491974 38.8255
28.00835912214229 39.0524
28.03130582533231 39.3736
28.054253675581805 39.3628
28.077381967556104 39.2661
28.100332124185126 39.2899
28.123283431160893 39.2624
28.146235889577238 39.082
28.169368830154156 38.828
28.192323603752033 38.5976
28.215279532083304 38.3894
28.238415973016764 38.2692
28.261374223145094 38.1707
28.284333631303806 37.9411
28.307294198589954 37.6985
28.330435319167677 37.4739
28.353398217078915 37.1968
28.376362277420153 37.0125
28.39932750129032 36.8098
28.422473319286713 36.644
28.44544088262495 36.6057
28.468409612800283 36.5083
28.491379510913497 36.2537
28.51453004413313 36.2092
28.53750229057244 36.1684
28.56047570826344 36.1497
28.583450298308804 36.1462
28.606605564586562 35.8893
28.629582511831156 35.9941
28.65256063474956 35.8711
28.675539934446338 35.8821
28.698699951647605 35.8829
28.72168161743193 35.6938
28.74466446331978 35.7971
28.767648490417624 35.8252
28.790813276438353 35.7642
28.813799678527303 35.7022
28.836787265157085 35.6488
28.859955641890075 35.7601
28.882945610203045 35.6754
28.905936766392035 35.4599
28.928929111566863 35.6875
28.952102288520145 35.5997
28.975097024308607 35.4459
28.998092952423807 35.3489
29.021090073977508 35.1428
29.04426806913204 35.1653
29.067267590245258 34.9946
29.090268308143695 34.8652
29.11327022394099 34.8859
29.13645305530891 34.7297
29.159457379627167 34.6634
29.18246290519685 34.6401
29.20546963313352 34.6273
29.22865731875826 34.6316
29.25166646419296 34.5654
29.27467681535305 34.3916
29.29768837335608 34.4749
29.320880931312562 34.5211
29.34389491580634 34.4754
29.366910110507334 34.5
29.38992651653503 34.4418
29.41312396492981 34.4368
29.436142806456754 34.4191
29.45916286268059 34.3632
29.48236399319994 34.1825
29.50538649169417 33.9839
29.528410208259935 33.9706
29.55143514402014 33.8153
29.574641196749695 33.5998
29.597668583816574 33.5533
29.6206971934585 33.4838
29.64372702680042 33.3607
29.666938019934474 33.3499
29.689970313635285 33.2568
29.713003834422636 33.2684
29.73603858342347 33.1317
29.759254535188578 33.0572
29.78229175361658 32.9979
29.80533020365064 33.0457
29.82836988641968 33.1214
29.85159081507472 32.9936
29.874632976355343 32.9431
29.89767637376955 32.9449
29.920721008448314 32.8308
29.9439469322847 32.9089
29.96699405457564 32.8016
29.9900424175358 32.7882
30.013092022298157 32.7601
30.03632295963995 32.622
30.059375061131373 32.6991
30.08242840783577 32.7825
30.105483000888153 32.6658
30.128718970092244 32.605
30.151776069006917 32.6477
30.17483441768648 32.7546
30.198074175317235 32.6002
30.221135036724256 32.7207
30.24419715131772 32.5912
30.267260520236203 32.5616
30.290505341942243 32.562
30.313571232750228 32.6429
30.336638381310948 32.5642
30.35970678876503 32.5144
30.38295669299435 32.563
30.40602763151657 32.4092
30.429099832366074 32.5115
30.452173296685572 32.4439
30.47542830191959 32.3907
30.498504306502497 32.2589
30.521581577995562 32.413000000000004
30.544660117543582 32.3958
30.56792024229725 32.3512
30.59100133132069 32.3535
30.614083691845494 32.3107
30.637167325018545 32.3641
30.660432587840603 32.3623
30.683518779717886 32.3844
30.70660624769615 32.4422
30.729694992924372 32.4089
30.75296541239743 32.3739
30.77605672557558 32.3672
30.799149319462742 32.3183
30.8224236211637 32.169000000000004
30.845518789950724 32.1055
30.868615242910597 32.0385
30.891712981195973 31.8982
30.91499247215866 31.7877
30.938092794619365 31.8745
30.96119440587579 31.6946
30.984297307082752 31.6639
31.00758200598383 31.6283
31.030687500658694 31.549
31.053794288760695 31.3717
31.076902371446767 31.2555
31.100192296997445 31.3904
31.12330298246119 31.3522
31.14641496599209 31.1474
31.169528248749216 31.2524
31.19282341969534 31.1382
31.215939314557186 31.2249
31.239056512134788 31.1141
31.262175013589378 31.1238
31.28547544871168 31.1532
31.30859657161541 31.0463
31.331719001892175 31.0339
31.35484274070538 31.1523
31.378148458819545 31.1047
31.401274828443725 31.1682
31.424402510106933 31.1324
31.447712205419993 31.138
31.470842524931633 30.9568
31.493974159989783 31.0916
31.51710711176168 31.0445
31.54042212308802 31.0332
31.563557722100917 30.9857
31.586694641341655 30.8934
31.609832881979628 30.7649
31.63315322823208 30.7019
31.656294125521327 30.6034
31.679436347728515 30.5653
31.70257989602529 30.4613
31.725905596152327 30.4251
31.74905181052835 30.3662
31.772199354521323 30.4224
31.79534822930507 30.4202
31.818679302290967 30.4062
31.84183085259981 30.3685
31.864983737233473 30.3611
31.88813795736804 30.4332
31.911474422233013 30.2704
31.934631327356435 30.279
31.9577895715215 30.2026
31.980949155906522 30.28
32.004291031706956 30.2279
32.027453310562606 30.1834
32.05061693318573 29.9877
32.07396288236386 30.0325
32.09712920658542 29.9636
32.12029687812702 29.8499
32.14346589817093 29.7706
32.166817291729984 29.7828
32.18998902288583 29.7005
32.21316210610336 29.5714
32.23633654256711 29.5186
32.259693399663725 29.5264
32.282870556771144 29.3312
32.30604907069099 29.4325
32.329228942610065 29.2965
32.35259128243769 29.1605
32.375773884550505 29.1083
32.398957848235646 29.0834
32.422143174682176 28.999000000000002
32.445511016471215 28.8881
32.468699082679954 29.0009
32.49188851523011 28.9866
32.51507931531304 28.9222
32.538452678331 28.8733
32.56164622776311 28.7001
32.58484114831493 28.6855
32.60803744118015 28.8128
32.631416344731896 28.6518
32.654615396551876 28.5778
32.67781582427913 28.6498
32.701198898634416 28.5263
32.72440209253756 28.4262
32.747606665947124 28.4316
32.77081262006088 28.4356
32.79420126883317 28.3709
32.81740999876112 28.337
32.840620112999424 28.3043
32.86383161274818 28.2387
32.88722585534586 28.2119
32.91044014056596 28.3497
32.933655814909734 28.2677
32.95687287957963 28.1988
32.98027273544904 28.113000000000003
33.00349259526636 28.0148
33.026713849030116 28.0554
33.04993649794511 28.0192
33.073341986570746 28.0121
33.09656744032826 27.9582
33.11979429286444 27.9446
33.14302254538647 28.0251
33.166433686291185 27.8583
33.18966475336992 27.9203
33.212897224069096 27.8301
33.23613109959831 27.7722
33.259547912343415 27.6886
33.2827846121627 27.7115
33.306022720453775 27.653000000000002
33.32926223842861 27.5959
33.352684742614166 27.549
33.37592709463173 27.5656
33.399170859982064 27.5327
33.422597648419426 27.5519
33.44584425514446 27.3303
33.46909227885668 27.2898
33.4923417207723 27.2491
33.51577423505344 27.2691
33.539026528130385 27.1654
33.56228024307245 27.1031
33.585535381098246 26.9686
33.60897364093058 26.9462
33.63223163992385 27.0149
33.6554910656699 26.8968
33.678751919389796 26.8564
33.702195944520106 26.9044
33.72545966903325 26.8443
33.74872482519663 26.7197
33.771991414233746 26.7491
33.79544122444841 26.6289
33.81871069412428 26.5922
33.84198160035767 26.5132
33.86525394437455 26.6046
33.88870955949969 26.5174
33.911984794020626 26.4656
33.93526147001624 26.4527
33.958539588715006 26.4007
33.98200102861669 26.3318
34.0052820477047 26.2323
34.02856451319451 26.2465
34.05203033759056 26.2036
34.07531571090147 26.1695
34.09860253431845 26.1827
34.121890809074316 26.0698
34.145362493118924 26.0676
34.16865368561615 26.0145
34.191946333164054 25.9593
34.21524043699793 26.0412
34.23871800066799 25.9127
34.26201503218366 25.7077
34.28531352370466 25.7628
34.30861347646881 25.7483
34.33209693978188 25.7842
34.3553998301885 25.7126
34.378704185565205 25.6822
34.402010007152356 25.6555
34.42549939016683 25.5598
34.44880815937748 25.4346
34.472118398533134 25.4208
34.49543010887669 25.4259
34.51892543169198 25.3165
34.54224009966052 25.3637
34.56555624255917 25.3409
34.58887386163339 25.2664
34.61237514439016 25.2163
34.6356957311114 25.1575
34.65901779775809 25.073
34.68252356662995 25.1365
34.705848608458616 25.0862
34.72917513396849 25.0802
34.75250314440949 24.9877
34.77601490857862 24.904
34.799345904259795 24.8656
34.82267838863559 24.8231
34.846012362958525 24.8653
34.869530142679984 24.7472
34.89286711232212 24.7862
34.91620557568269 24.8084
34.93954553401677 24.6663
34.9630693495876 24.6292
34.986412313340814 24.6562
35.00975677584668 24.638
35.033102738362956 24.5585
35.05663261012228 24.5224
35.0799815881786 24.5972
35.10333207003229 24.4102
35.12668405694369 24.4581
35.150220005273056 24.3854
35.17357501786656 24.3681
35.19693153931268 24.3292
35.220289570874385 24.3388
35.24383161619786 24.3389
35.267192683604904 24.3444
35.290555264930376 24.2755
35.314101899412165 24.2711
35.33746752422433 24.2408
35.36083466676374 24.2102
35.38420332829803 24.1552
35.407756095629054 24.1758
35.43112781085063 24.1573
35.45450104888391 24.1599
35.477875810999194 24.1267
35.50143473172161 24.0255
35.52481255774625 24.0769
35.54819191167777 23.8923
35.57157279478914 23.8997
35.595137889488406 23.9404
35.61852184675279 23.8784
35.641907337029984 23.8402
35.665294361595684 23.8293
35.68886565090076 23.7738
35.7122557598848 23.68
35.73564740699838 23.6812
35.759040593519934 23.5994
35.78261809810353 23.6331
35.80601437933051 23.5173
35.829412203814705 23.4625
35.85281157283719 23.4577
35.876395313415884 23.4526
35.8997977874528 23.3705
35.92320180988546 23.3998
35.946790244133936 23.2645
35.97019737933222 23.3336
35.993606066789866 23.2116
36.01701630779276 23.2581
36.04061101440684 23.1918
36.06402437852291 23.1798
36.08743930005611 23.2277
36.1108557802951 23.0406
36.13445678011326 23.0653
36.15787639383515 23.0507
36.18129757014299 22.9566
36.20472031032821 22.9811
36.22832762423364 22.8804
36.25175350829375 22.8623
36.275180960119776 22.7977
36.298609981005924 22.9412
36.32222362992669 22.9004
36.34565580510207 22.8101
36.36908955323448 22.7378
36.39252487562093 22.6089
36.416144880530226 22.5994
36.43958336764275 22.5974
36.463023432914625 22.586
36.486465077645676 22.4731
36.51009145956204 22.4971
36.53353627947859 22.5368
36.55698268276811 22.4794
36.58043067073321 22.3966
36.60406345072071 22.3304
36.62751462435344 22.3315
36.65096738658405 22.2968
36.67460498210655 22.2746
36.69806093788647 22.3211
36.72151848619297 22.1533
36.744977628333636 22.2435
36.76862165890998 22.129
36.79208400512205 22.0759
36.81554794910557 22.076999999999998
36.83901349217101 21.976
36.862663978991606 21.9658
36.88613273667352 21.9433
36.90960309738324 21.9973
36.933075062434064 21.9324
36.95673202673572 21.951
36.98020721697122 21.8274
37.003684015502365 21.7592
37.027162423645365 21.7282
37.050825886711465 21.781999999999996
37.07430753063053 21.7116
37.09779078812467 21.6614
37.121275660513014 21.6846
37.144945643673694 21.6123
37.16843376245278 21.5448
37.19192350009803 21.5518
37.215414857931435 21.4665
37.239091382563885 21.3836
37.262585997426164 21.434
37.28608223645736 21.4236
37.309763684451696 21.3924
37.33326318851098 21.2709
37.356764320726555 21.2854
37.380267082425526 21.2512
37.40395510942588 21.2308
37.42746114683234 21.1968
37.45096881771841 21.0931
37.474478123414166 21.1535
37.49817275092816 21.0492
37.52168534303452 21.1161
37.54519957395567 20.9904
37.568715445024665 20.9922
37.592416694607714 20.9961
37.61593586281424 20.9581
37.63945667518264 20.9151
37.66297913304891 20.8952
37.68668702630454 20.9086
37.710212792059274 20.7626
37.733740207334854 20.7259
37.757269273470364 20.7059
37.780983832050374 20.7124
37.80451621684926 20.7647
37.82805025654007 20.7015
37.851585952464795 20.5685
37.8753071980695 20.4953
37.89884622345676 20.4967
37.92238690911902 20.5083
37.94611318753442 20.4646
37.969657210779765 20.4761
37.99320289834801 20.4045
38.016750251586465 20.4002
38.04048325513017 20.2996
38.06403395679343 20.2715
38.087586328183946 20.1788
38.11114037065203 20.2686
38.13488012115898 20.2074
38.1584375229181 20.1358
38.181996599821 20.1147
38.205557353221124 20.0614
38.229303872575656 20.0717
38.2528679961576 20.0776
38.27643380031219 20.0126
38.30000128639589 19.9484
38.32375459653193 19.9361
38.34732546371299 19.9362
38.37089801690786 19.8327
38.39447225747609 19.8285
38.418232380377425 19.8551
38.441810012983396 19.8162
38.46538933705673 19.6636
38.488970353960084 19.7707
38.51273731166058 19.6887
38.536321731567014 19.6853
38.55990784840681 19.5339
38.58367995004091 19.5448
38.60726947812959 19.5286
38.63086070726198 19.5231
38.654453638806274 19.5018
38.678232613930824 19.4186
38.70182896773327 19.3873
38.72542702806741 19.3933
38.7490267963045 19.4451
38.77281266709232 19.3345
38.79641586862214 19.309
38.8200207821842 19.2626
38.843627409152944 19.2566
38.86742019782782 19.2928
38.891030269149255 19.2457
38.914642058016156 19.1942
38.938255565806124 19.1834
38.96205529464307 19.1395
38.98567225787121 19.1082
39.00929094417078 19.1
39.03291135492255 19.0135
39.05671804624804 18.99
39.080341923549106 18.9571
39.103967529460334 18.9461
39.127594865365744 18.9323
39.15140854155791 18.809
39.17503935514948 18.8596
39.19867190290282 18.7792
39.22249083587951 18.754
39.24612686969409 18.7662
39.269764641845306 18.7922
39.293404153722804 18.6948
39.317230110864074 18.6245
39.34087311998506 18.6345
39.36451787301696 18.6102
39.388164371352595 18.524
39.41199737518003 18.5137
39.43564738196752 18.4955
39.45929913825317 18.4629
39.48295264543308 18.4294
39.506792718520884 18.3806
39.530449745387216 18.3845
39.55410852735203 18.326
39.57776906581474 18.3455
39.60161623079 18.267
39.625280300200025 18.2732
39.64894613032202 18.2028
39.67261372255866 18.2139
39.6964680021016 18.2266
39.72013913657293 18.2194
39.74381203738292 18.149
39.76748670593756 18.167
39.79134812278169 18.1202
39.81502634488497 18.0769
39.83870633896685 18.0152
39.862388106436654 17.9701
39.88625668336918 17.9854
39.90994201572829 18.012999999999998
39.933629125719285 17.8684
39.957503091207826 17.814
39.9811937746168 17.9018
40.00488623990914 17.8476
40.02858048850006 17.7955
40.05246165409549 17.752
40.076159487492085 17.7613
40.099859108448875 17.6964
40.123560518384345 17.6623
40.1474489070226 17.6564
40.171153913178564 17.6452
40.194860712584955 17.6049
40.2185693066637 17.6221
40.242464941335314 17.5167
40.26617714307655 17.5153
40.289891143772046 17.4438
40.3136069448471 17.4498
40.33750984859743 17.4774
40.3612292688043 17.3888
40.3849504936829 17.3114
40.40867352466194 17.2993
40.43258372059144 17.3012
40.45631038219906 17.3247
40.48003885420956 17.2783
40.503769138055105 17.2737
40.52768664931955 17.2497
40.55142057531802 17.2181
40.57515631746428 17.1925
40.599079334038514 17.1375
40.62281872700477 17.1157
40.64655994043941 17.0384
40.67030297578061 17.0445
40.69423334835778 17.0371
40.71798004609188 17.0083
40.74172857006355 16.9681
40.76547892171441 16.9393
40.7894166736039 16.8604
40.813170699248566 16.895
40.83692655691388 16.8093
40.86068424804498 16.8674
40.884629402612525 16.8659
40.908390779366385 16.8336
40.932153993938 16.761
40.95591904777605 16.7193
40.979871628443995 16.7235
41.003640379561936 16.617
41.02741097430883 16.6159
41.05118341413683 16.6553
41.075143444384416 16.5987
41.098919593177826 16.5483
41.1226975914255 16.5116
41.14647744058318 16.5022
41.170444943946755 16.5052
41.19422851378379 16.4946
41.218013938914645 16.3813
41.24198706625173 16.3806
41.26577622087193 16.379
41.289567235177785 16.3105
41.31336011063129 16.2839
41.337340752422875 16.265
41.361137369129835 16.2624
41.38493585138705 16.2089
41.40873620066004 16.1917
41.43272438060107 16.1208
41.45652848292052 16.1342
41.48033445666918 16.1034
41.50414230331616 16.0926
41.528138045159764 16.0473
41.551949656675205 15.9643
41.575763145513235 15.9811
41.59957851314666 16.0006
41.62358184070442 15.9113
41.64740098505737 15.9607
41.6712220126409 15.8884
41.69504492493139 15.8756
41.71905586207357 15.8525
41.74288256296395 15.859000000000002
41.766711153007456 15.7962
41.79054163368412 15.7509
41.814560204340054 15.8362
41.838394485526365 15.7751
41.86223066180303 15.7314
41.88625497706819 15.703
41.910094962812 15.6439
41.93393684811168 15.6377
41.95778063445365 15.5089
41.981812625263366 15.5489
42.00566023303407 15.5241
42.029509746323676 15.5208
42.05336116662236 15.4818
42.077400857069705 15.472000000000001
42.10125611078846 15.444
42.12511327600405 15.4603
42.14897235421036 15.3869
42.173019768448455 15.3891
42.19688269209613 15.3828
42.22074753323349 15.3034
42.24461429335818 15.2414
42.268669455600495 15.2119
42.292540073217886 15.2262
42.31641261433284 15.2034
42.34028708044675 15.1375
42.36435001496739 15.1616
42.38822835065557 15.1487
42.41210861586426 15.1039
42.4359908120986 15.0669
42.46006154323262 15.0588
42.48394762115317 14.9708
42.507835634632315 14.9582
42.531912233047436 14.9123
42.55580413732265 14.9189
42.579697981698 14.9228
42.60359376768525 14.9013
42.62767820545945 14.8711
42.65157789440821 14.8529
42.67547952952185 14.8821
42.699383112316 14.7793
42.72347541395347 14.7655
42.74738291190531 14.7043
42.771292362102166 14.7136
42.795203766063516 14.6807
42.819303956130405 14.698
42.843219287476536 14.6183
42.86713657716324 14.6452
42.89105582671383 14.5927
42.91516392983864 14.5506
42.939087119032166 14.5449
42.963012272677304 14.5662
42.98693939230129 14.4802
43.01105543317513 14.4571
43.034986504731386 14.4355
43.05891954686589 14.4159
43.08285456110972 14.4227
43.10697856448665 14.3714
43.130917542983475 14.3085
43.15485849820081 14.3609
43.17880143167367 14.2872
43.20293342237094 14.2439
43.226880332449 14.2473
43.25082922540554 14.2488
43.27496722682525 14.1918
43.29892010567796 14.1688
43.32287497204102 14.1527
43.34683182745632 14.123
43.370977859791836 14.0756
43.39493871351105 14.0734
43.41890156092628 14.0559
43.44286640358341 13.9642
43.46702049182749 13.9938
43.49098934522816 13.9492
43.51496019852649 13.9282
43.5389330532723 13.9403
43.56309522248204 13.8642
43.58707210044314 13.8823
43.61105098451946 13.8559
43.63503187626491 13.8113
43.659202151562134 13.7898
43.68318707902681 13.8266
43.70717401884041 13.8043
43.731162972560874 13.7167
43.75534137913236 13.6664
43.779334381108384 13.6736
43.803329401683186 13.6622
43.82732644241872 13.6304
43.8515130055166 13.6521
43.87551410707659 13.6041
43.89951723350145 13.6051
43.923709934595614 13.5026
43.94771713129917 13.5522
43.97172635758096 13.5037
43.99573761501002 13.4666
44.0199385169922 13.5043
44.04395385732619 13.4601
44.067971233533086 13.4087
44.09199064718605 13.3788
44.11619977548961 13.3374
44.14022328470671 13.2922
44.16424883610785 13.3253
44.18827643127035 13.3072
44.21249381139513 13.2747
44.236525514814076 13.2569
44.26055926674478 13.2688
44.28459506876863 13.244000000000002
44.3088207262813 13.2148
44.33286064928722 13.1461
44.35690262714919 13.112
44.38094666145278 13.0821
44.4051806219871 13.1072
44.42922879003185 13.0611
44.45327901929361 13.0546
44.477331311362136 12.9561
44.501573600619416 13.0079
44.525630039221795 12.9876
44.54968854541895 12.9754
44.573937102200176 12.9595
44.5979997645541 12.8979
44.622064499300315 12.9435
44.64613130803592 12.8808
44.67038823869318 12.8764
44.69445921643748 12.8211
44.718532272981385 12.7711
44.742607409926194 12.7894
44.76687274034801 12.7673
44.79095205918753 12.6902
44.81503346325094 12.7049
44.839116954143876 12.6865
44.86339071028742 12.6692
44.88747839599524 12.6521
44.91156817336837 12.5974
44.93566004401666 12.5886
44.959942251908146 12.6068
44.984038330325966 12.5025
45.00813650686762 12.4856
45.03223678314731 12.4969
45.05652746888232 12.4805
45.08063196592069 12.4554
45.104738567558705 12.453
45.128847275414856 12.4101
45.15314646515866 12.347999999999999
45.17725940679741 12.3718
45.20137445952892 12.3807
45.22568004865265 12.2811
45.24979934496396 12.2957
45.27392075725247 12.3469
45.29804428714431 12.3256
45.322358426247604 12.2383
45.346486212804315 12.1952
45.370616121861914 12.1907
45.39474815505086 12.1695
45.41907087049246 12.1626
45.4432071734666 12.1539
45.46734560548283 12.1587
45.49148616817604 12.1277
45.51581748638564 12.0805
45.5399623320197 12.0499
45.56410931325473 11.999
45.58825843173002 11.9979
45.61259837920865 11.9709
45.636751793816 12.0166
45.66090735060093 11.9243
45.68506505120716 11.8871
45.7094136545275 11.8799
45.73357566449271 11.878
45.75773982322992 11.8405
45.78190613238733 11.8001
45.806263418194064 11.8004
45.83043404997326 11.8074
45.85460683713677 11.8187
45.87897065658495 11.7501
45.90314777634752 11.7324
45.92732705646868 11.706
45.9515084986045 11.6959
45.97588104735473 11.6928
46.00006683541565 11.6721
46.02425479047904 11.6564
46.04844491420549 11.6419
46.0728262191024 11.5764
46.09702070211635 11.5615
46.12121735879483 11.5489
46.14541619080294 11.5301
46.169806278764455 11.4932
46.194009483459034 11.4364
46.21821486849841 11.443
46.24242243555223 11.4459
46.266821333570014 11.3924
46.29103328674601 11.3735
46.31524742696538 11.4084
46.33946375590237 11.3816
46.36387149104216 11.3343
46.38809221957392 11.2905
46.41231514186606 11.3139
46.436540259597464 11.2845
46.460956858999374 11.245999999999999
46.48518638983522 11.2467
46.509418121166966 11.2231
46.533652054678114 11.1869
46.55807754555709 11.1476
46.58231590571962 11.1712
46.60655647313217 11.1012
46.630988654873654 11.091
46.655233659129024 11.0796
46.67948087571551 11.0524
46.70373030632484 11.0166
46.72817142736393 11.0456
46.752425308428684 11.0046
46.77668140861147 11.0006
46.80093972960865 10.9219
46.82538981736788 10.9421
46.849652602470904 10.8973
46.87391761349769 10.9206
46.8981848521493 10.8719
46.9226439341274 10.8842
46.946915650573224 10.817
46.97118959976749 10.8066
46.99546578341598 10.7696
47.019933887188216 10.7723
47.04421456235744 10.7558
47.06849747711879 10.6977
47.09278263318286 10.6917
47.11725978640143 10.719000000000001
47.14154944775105 10.6633
47.165841355555656 10.669
47.1901355115306 10.673
47.214621741924994 10.6212
47.23892041698887 10.6004
47.26322134538975 10.5591
47.28771440635075 10.5679
47.31201986422527 10.5248
47.33632758061436 10.5512
47.360637557241866 10.5146
47.38513974410611 10.4717
47.40945426407847 10.4483
47.43377104948137 10.4475
47.45809010204344 10.4456
47.48260144275502 10.384
47.506925052572285 10.3607
47.53125093475548 10.3412
47.55557909103813 10.3505
47.58009961361992 10.3046
47.60443234110732 10.297
47.62876734791564 10.3187
47.65310463578333 10.2835
47.6776343683373 10.2415
47.7019762413987 10.2203
47.72632040075572 10.2027
47.75066684815169 10.1702
47.77520581885936 10.1526
47.799556865477655 10.146
47.823910205386 10.1421
47.84826584033272 10.1607
47.87281407745551 10.1072
47.89717432569297 10.101
47.92153687423484 10.075
47.94609208429692 10.0313
47.97045925671401 10.0453
47.99482873471275 10.0028
48.01920052005013 10.0257
48.04376504619224 10.027999999999999
48.068141469543484 9.96764
48.09252020552573 9.9562
48.11690125590099 9.969510000000001
48.1414751266064 9.878630000000001
48.16586082917454 9.8967
48.19024885144316 9.861080000000001
48.2146391951793 9.874
48.239222439012764 9.863380000000001
48.26361744916137 9.8244
48.28801478610016 9.81775
48.31241445160131 9.76101
48.337007097209366 9.74648
48.36141144338331 9.71464
48.38581812345755 9.68671
48.41022713920929 9.7424
48.434829215320704 9.67362
48.45924292604658 9.67685
48.48365897780325 9.6617
48.50807737237308 9.628
48.532688907799276 9.67068
48.55711201168574 9.601180000000001
48.581537463754074 9.6062
48.60615611725119 9.61722
48.63058628942721 9.58452
48.65501881516546 9.52016
48.6794536962573 9.53174
48.70408185970339 9.50619
48.72852147531801 9.486469999999999
48.75296345168211 9.468760000000001
48.77740779059232 9.46879
48.80204549302823 9.45267
48.82649458091802 9.43994
48.85094603676547 9.39033
48.87539986237231 9.36701
48.90004713292306 9.3788
48.92450572200832 9.338230000000001
48.94896668628025 9.34095
48.97343002754588 9.29833
48.99808689542115 9.294410000000001
49.02255501470614 9.30355
49.04702551642794 9.25201
49.0714984023988 9.27014
49.096164896893235 9.19745
49.120642575466796 9.17913
49.145122643748394 9.179889999999999
49.16960510355558 9.1747
49.19428125404938 9.124789999999999
49.2187685210852 9.12917
49.243258185121555 9.10474
49.26794160167084 9.08807
49.2924360839405 9.09014
49.31693296869764 9.03166
49.34143225776915 9.01068
49.36612538195438 9.02196
49.39062950396021 9.03298
49.41513603578346 8.972560000000001
49.4396449792564 8.93228
49.46434784069503 8.97676
49.488861631846454 8.951889999999999
49.513377840166804 8.92779
49.537896467493745 8.91634
49.56260909589029 8.86001
49.587132585683285 8.8836
49.611658500018365 8.87663
49.636186840738596 8.81997
49.66090926588511 8.80829
49.685442483902584 8.81597
49.70997813385706 8.76649
49.734516217597076 8.787989999999999
49.75924846937352 8.763919999999999
49.7837914452858 8.803339999999999
49.80833686055187 8.725489999999999
49.83288471702571 8.71598
49.85762682540054 8.709489999999999
49.882179588965734 8.658430000000001
49.9067347993235 8.6482
49.93129245833333 8.64352
49.95604445336378 8.619589999999999
49.98060703442832 8.61861
50.005172069746266 8.59426
50.02993150438364 8.54744
50.05450147301533 8.54384
50.07907390151433 8.51487
50.10364879174981 8.52629
50.12841816587289 8.520710000000001
50.1529980044635 8.4909
50.17758031042124 8.47279
50.20216508562089 8.46473
50.22694442953363 8.44993
50.25153416817468 8.39597
50.27612638170508 8.406239999999999
50.300721072005196 8.38979
50.325510416102105 8.37604
50.350110084975064 8.36155
50.37471223628208 8.35027
50.39931687190919 8.31396
50.424116246675766 8.29545
50.44872587605249 8.29527
50.47333799543065 8.32732
50.49795260670191 8.28717
50.52276204271512 8.25442
50.54738166295838 8.24338
50.57200378079314 8.23865
50.596628398116835 8.176960000000001
50.62144792604559 8.19389
50.646077567609396 8.19822
50.670709714377715 8.19844
50.69553683636198 8.160110000000001
50.72017401885922 8.11858
50.7448137122895 8.13664
50.76945591856022 8.072339999999999
50.79429318636823 8.08198
50.818940443716784 8.054
50.84359021965163 8.024280000000001
50.868242516085964 8.02788
50.893089960641895 8.017439999999999
50.917747323549435 8.00707
50.94240721271973 7.978910000000001
50.96706963007175 7.927460000000001
50.99192728239342 7.94115
51.01659478166073 7.9367399999999995
51.04126481489051 7.92183
51.06593738400761 7.928789999999999
51.090805275207074 7.89677
51.11548294172845 7.876710000000001
51.14016314993547 7.87972
51.164845901758845 7.85497
51.18972406304274 7.840789999999999
51.21441192780656 7.7878
51.23910234200271 7.8103
51.2637953075678 7.778580000000001
51.288683770237945 7.7142100000000005
51.31338186432707 7.7589999999999995
51.33808251561888 7.75355
51.362978729967345 7.735869999999999
51.387684521509755 7.708410000000001
51.41239287610203 7.676989999999999
51.437103795691165 7.657760000000001
51.46201036644977 7.63255
51.486726441956634 7.62529
51.51144508832545 7.61526
51.536166307509156 7.557230000000001
51.56108326624387 7.5566699999999996
51.58580965706056 7.568110000000001
51.61053862657523 7.57878
51.635270176746864 7.53299
51.66019755512065 7.52612
51.68493429268881 7.5292699999999995
51.70967361681515 7.5255
51.73441552946465 7.516380000000001
51.759353359237934 7.50329
51.7841004750961 7.46587
51.80885018539685 7.43967
51.833602492111254 7.4168
51.8585508051424 7.39305
51.883308330926425 7.37935
51.90806845906181 7.350230000000001
51.932831191525715 7.32673
51.95779001977161 7.29732
51.98255798721516 7.29585
52.00732856494335 7.25846
52.03229530577543 7.2728
52.057071130455945 7.31447
52.081849571391054 7.278410000000001
52.106630630568695 7.271380000000001
52.13160794279417 7.22035
52.15639426492067 7.19763
52.18118321127822 7.19954
52.205974783860896 7.1584699999999994
52.23096269971011 7.14394
52.255759551287994 7.1634
52.280559035098186 7.171010000000001
52.30536115314103 7.13162
52.33035970494467 7.1272199999999994
52.35516711807904 7.1227800000000006
52.37997717147198 7.07728
52.40478986713005 7.07453
52.42979908731974 7.0571600000000005
52.454617094216 7.056769999999999
52.47943774942214 7.0316
52.50426105495102 7.00718
52.529280976059844 7.02274
52.554109609024096 7.03368
52.57894089837482 6.979489999999999
52.60377484613117 6.96059
52.62880550079408 6.90163
52.65364479223379 6.9003
52.67848674816189 6.90682
52.70352547971946 6.895969999999999
52.72837279155837 6.87427
52.753222773982785 6.811839999999999
52.778075429022984 6.8411100000000005
52.80312495150885 6.83565
52.827982978797436 6.828410000000001
52.85284368481815 6.8209
52.87770707160767 6.81623
52.90276741793998 6.811710000000001
52.92763619336701 6.772939999999999
52.952507655698504 6.7095199999999995
52.977381806977576 6.7493300000000005
53.00245301017842 6.73712
53.02733256653592 6.7737
53.052214817996074 6.724710000000001
53.077099766608484 6.69968
53.102181859804446 6.66874
53.127072229988265 6.67598
53.15196530349892 6.635260000000001
53.17686108239249 6.63916
53.20195409881522 6.6120399999999995
53.22685531582556 6.59015
53.25175924441303 6.5503599999999995
53.27666588664027 6.58708
53.30176985962693 6.56353
53.3266819565689 6.5149300000000006
53.35159677336455 6.52192
53.376514312083096 6.544580000000001
53.40162927507703 6.5153
53.42655228516116 6.51133
53.45147802340193 6.47816
53.47660125628886 6.49025
53.50153247842639 6.4275
53.52646643496923 6.41222
53.55140312799818 6.4451
53.576537409691696 6.41728
53.60147960336152 6.38128
53.626424539786164 6.39848
53.65137222105307 6.37901
53.67651758529126 6.38671
53.70147078399681 6.33674
53.72642673383343 6.33891
53.75138543689533 6.33865
53.776541917524526 6.35216
53.801506154876755 6.31611
53.826473151763246 6.23896
53.851442910284916 6.27604
53.87661054126026 6.25209
53.9015858509782 6.21738
53.92656392866066 6.22663
53.95154477641532 6.206580000000001
53.976723591801296 6.19674
54.00171000771266 6.18573
54.02669920004598 6.12881
54.051691170915745 6.142930000000001
54.076881204886796 6.11451
54.101878760928514 6.09376
54.12687910187696 6.07368
54.152077577768296 6.1029
54.1770835166946 6.07481
54.20209224691339 6.06912
54.22710377055121 6.05376
54.25231352511594 6.07025
54.27733066384342 6.0227
54.30235060239643 6.0024
54.32737334290836 5.98945
54.35259441062629 5.9443
54.377622783395324 5.921880000000001
54.40265396455061 5.91686
54.42768795623251 5.91399
54.45292037169559 5.88709
54.477960012857906 5.88871
54.50300247099511 5.84772
54.52804774825457 5.82221
54.55329154616743 5.79502
54.57834249018678 5.81011
54.6033962597977 5.78287
54.6284528571545 5.77915
54.653708072335164 5.725140000000001
54.67877035378786 5.72559
54.70383546947698 5.76952
54.72890342156389 5.69516
54.7541700889442 5.6735
54.77924374251975 5.6468
54.8043202390049 5.6184
54.82959552413022 5.61029
54.8546777351945 5.53151
54.87976279569621 5.5772900000000005
54.90485070780914 5.60122
54.930137506558005 5.50589
54.95523115074295 5.53768
54.98032765308844 5.51208
55.005427015775496 5.4614
55.03072536339621 5.4711099999999995
55.05583047570572 5.43896
55.080938454927676 5.39685
55.10604930325027 5.42079
55.131359235107396 5.44195
55.15647585066083 5.35679
55.181595341907496 5.3281
55.20671771104285 5.32659
55.232039262617704 5.2828599999999994
55.25716741665048 5.26586
55.28229845518636 5.28342
55.30743238042802 5.179930000000001
55.33276558731939 5.19717
55.357905315183636 5.19571
55.383047936390035 5.1239099999999995
55.40819345314859 5.10041
55.433538351073295 5.1369
55.458689688238415 5.09501
55.483843927614096 5.04444
55.509197623043605 5.02459
55.53435769621134 4.99519
55.55952067826466 5.00706
55.5846865714265 4.9482
55.61005202069737 4.95073
55.63522376553902 4.97656
55.66039842818645 4.91009
55.68557601087004 4.90616
55.7109532500271 4.84501
55.73613670233794 4.87873
