TT I
1.2716486653135266 7.57073
1.2939594142134223 7.44544
1.3162702121660406 6.92523
1.3385810600174564 7.360810000000001
1.3608919586137629 6.9079
1.383202908801069 6.5115
1.405513911425503 5.95885
1.4278249673332093 6.802860000000001
1.4501343378461518 6.9253
1.4724455028545926 6.712860000000001
1.4947567236847858 6.08251
1.517068001182951 6.32745
1.5393793361953272 6.71104
1.5616907295681737 6.5855
1.5840021821477681 5.93382
1.60631369478041 5.54594
1.6286252683124185 6.03389
1.6509369035901333 5.441330000000001
1.6732468618895553 5.96448
1.695558623192809 5.3468800000000005
1.7178704487808514 5.48874
1.7401823395001077 5.172619999999999
1.7625012545597203 5.22853
1.7848028405262486 5.36565
1.8071218901122095 4.87695
1.8294236121921872 4.8114
1.8517427996910911 4.539219999999999
1.8740620574440425 4.77316
1.8963639900671978 4.59302
1.9186833908139995 4.8355
1.9409854680117449 4.99951
1.9633050151394713 4.58156
1.9856246367570705 4.66392
2.0079269371922672 5.00718
2.03024671027244 4.7420599999999995
2.0525491637446027 5.17026
2.074869091674931 4.8779900000000005
2.097171701569106 4.94004
2.1194917877373847 4.79515
2.141811954326636 5.28755
2.164114805233074 5.10426
2.186435135143035 5.50865
2.208738150935709 12.6557
2.231058647554722 26.3533
2.2533792288321184 20.2031
2.275682498336085 9.615730000000001
2.298003251406138 5.72466
2.3203066942619714 5.26917
2.3426276225136022 5.1942900000000005
2.3649486396617507 4.92248
2.387252348930071 5.30524
2.4095735463442893 5.15798
2.4318774374315884 5.41346
2.4541988185014043 5.67397
2.476502894794693 5.602
2.498824462909887 5.84543
2.521146125856138 6.1455400000000004
2.5434504863470337 6.23226
2.5657723414244717 6.7921
2.588076895590662 6.612419999999999
2.610398946189713 7.30595
2.6327210958598384 6.633780000000001
2.6550259469304716 7.32978
2.6773482972090137 7.6354
2.6996533504259 7.21012
2.7219759047039602 7.77446
2.744298562293959 7.88103
2.7666039251246595 7.20585
2.7889267918020164 7.681
2.8112323652516555 8.29994
2.833555444408179 8.32643
2.8558786311183852 8.014619999999999
2.8781845268938557 8.77555
2.9005079311721484 9.4181
2.9228140460410397 8.93136
2.9451376712799635 9.01675
2.967444008632326 9.536669999999999
2.9897678582247247 10.1154
3.0120918213106695 10.7903
3.0343984987899373 10.6192
3.0567226913198637 10.4882
3.079029599759726 11.4788
3.101354025127254 12.0491
3.123678568232338 12.9424
3.145985829517914 13.2937
3.16831061055229 13.5806
3.1906181112775593 14.6759
3.212943133635653 15.0424
3.2352682779763207 14.5133
3.2575761442691227 15.3388
3.2799015350264273 15.8375
3.302209649240067 16.36
3.3245352898092655 16.882
3.3468436553365257 17.6589
3.369169549113219 17.9837
3.3914955708171384 19.2761
3.413804319727358 19.2657
3.4361305997334863 19.39
3.4584396084414553 20.1361
3.4807661501462652 20.3474
3.503092824025881 21.3003
3.5254022288463154 21.8505
3.5477291695206588 22.1609
3.5700388426251948 22.9825
3.5923660534916446 24.5054
3.6146934007816114 37.6593
3.637003482731501 84.4174
3.6593311053109985 93.3271
3.681641464033634 55.1044
3.7039693653009733 30.2298
3.726297407241705 26.2577
3.7486081875460804 26.2549
3.7709365132734978 26.4382
3.793247578841633 26.8632
3.8155761917550093 27.3314
3.8378875459837216 27.4443
3.8602164494827234 27.8781
3.882545499606844 28.5982
3.9048572932539183 29.0056
3.9271866390645718 29.9045
3.9494987298666713 30.429000000000002
3.971828374764527 30.5362
3.9941581705403255 31.5382
4.016470713506008 32.0615
4.038800813471445 32.6782
4.061113662089144 33.4451
4.0834440696459176 34.3856
4.105774632334751 34.8069
4.128087945865126 36.0277
4.150418821249301 36.4787
4.172732448931298 37.3212
4.195063640413578 39.4217
4.2173775856475215 43.4454
4.239709096631102 72.6483
4.262040768704612 225.36900000000003
4.284355196706267 298.665
4.306687193387355 195.12099999999998
4.329001947444346 78.9056
4.35133427213731 48.5483
4.373666762177566 45.659
4.395982011761091 45.6112
4.418314834921175 46.7895
4.44063041906622 54.6499
4.4629635787515625 64.8019
4.4852969080429785 64.3118
4.5076130004776225 55.2759
4.529946671403969 52.5047
4.552263106909177 52.4991
4.574597122877047 52.85
4.596931312711224 54.015
4.619248269273446 55.0373
4.6415828092605835 55.6408
4.663900117405352 56.6195
4.686235010953232 58.2738
4.708552674085913 59.7755
4.730887924602802 61.5405
4.753223354952695 62.9738
4.775541557023902 64.6805
4.797877349456786 66.04
4.820195915032126 68.059
4.842532072957498 69.322
4.864868414979744 71.6181
4.88718753227192 74.2976
4.909524244902505 76.536
4.931843734218147 77.7791
4.954180820867835 80.8603
4.976518095879839 84.3355
4.998838149695359 87.2958
5.021175803844231 91.6123
5.043496238205739 95.8041
5.065834274903528 100.741
5.088172504230693 107.096
5.1104935158799565 115.323
5.132832132875765 141.716
5.155153533596801 188.34900000000002
5.1774925416746225 244.808
5.199814334878411 535.523
5.2221537374521505 1468.21
5.244493338631803 3473.46
5.266815727034316 7238.8
5.289155727832427 11398.5
5.311478517248165 9158.17
5.333818921080011 3601.62
5.356159527788849 789.95
5.3784829252032536 231.562
5.400823940070432 163.732
5.423147747031976 140.345
5.445489173474152 127.682
5.467830807066149 121.02799999999999
5.490155234831516 116.008
5.512497285125229 111.535
5.534822130975162 108.85700000000001
5.557164601388673 106.272
5.579489868738879 103.15700000000001
5.601832762690846 102.37799999999999
5.6241758697774475 101.749
5.646501775867269 100.714
5.668845311622074 99.3326
5.691171647754637 98.6471
5.713515615597765 96.9335
5.735859800852677 96.1333
5.758186788542988 96.1799
5.780531411018185 96.4688
5.802858837297399 96.0727
5.825203900414495 96.2594
5.8475491852224 97.5892
5.869877275883075 98.09700000000001
5.892223006467101 98.8095
5.914551544266608 100.889
5.936897724049891 105.508
5.959244129804903 114.087
5.981573344815301 144.627
6.0039202049061 285.086
6.026249875609095 613.869
6.04859719346037 1189.44
6.070927323278297 2227.12
6.093275102315365 3955.92
6.115623113320588 4732.71
6.137953938319995 3495.86
6.160302415650845 1269.09
6.182633708324452 306.39099999999996
6.2049826554078376 130.548
6.227331838745022 101.50299999999999
6.249663839443684 91.395
6.27201349767565 87.0521
6.294345974611799 91.6801
6.316696111167083 102.334
6.339046488263839 96.7507
6.361379686074702 82.3516
6.383730546639482 73.9337
6.406064229255215 71.36
6.428415576718203 70.9726
6.450749747566656 69.3383
6.47310158535871 68.0466
6.495453669698332 67.2038
6.517788579421056 66.8521
6.540141159237969 65.6584
6.562476565766648 65.3028
6.5848296444934045 64.8159
6.607182974060425 64.5162
6.6295191323281015 64.3325
6.651872965955752 67.2088
6.6742096296068985 91.1365
6.6965639707294615 134.852
6.71891856698715 135.18
6.741255995248479 94.1854
6.763611104154477 68.6317
6.785949046381137 61.8
6.808304671371482 60.4436
6.8306605557940046 60.0506
6.852999275508618 58.7308
6.875355681171544 58.2935
6.897694923437771 58.4558
6.92005185377892 57.9942
6.9423916220322655 57.9472
6.964749080490181 57.5372
6.987106804399774 56.9872
7.009447368180821 57.4981
7.031805625367033 56.8135
7.054146723727803 56.7608
7.076505517631004 56.7197
7.098864581288365 56.6599
7.121206488070854 56.8969
7.143566093607822 56.111999999999995
7.165908543567245 56.8009
7.188268694426048 57.0832
7.2106291193438095 56.7488
7.232972390625943 57.9395
7.255333366030969 69.4198
7.277677189091925 120.484
7.300038718428332 164.53900000000002
7.322400526130865 140.309
7.344745183422596 89.2649
7.367107550224791 62.9723
7.389452767901992 57.855
7.411815697249891 56.5785
7.434161478756298 56.028999999999996
7.456524974096713 56.2132
7.478888753837185 55.6922
7.501235387657368 56.0903
7.523599738562711 56.1781
7.545946944825532 56.5149
7.568311870344528 56.9555
7.5906770845765665 56.872
7.613025156078678 58.2339
7.635390950099687 59.5617
7.657739602662809 58.9374
7.680105979923558 57.6697
7.702472650212829 57.7401
7.724822180948224 57.5942
7.747189439655568 57.8205
7.769539560075357 57.9206
7.791907410653562 58.3116
7.81425812420825 57.8801
7.836626570110925 58.5633
7.858995315087906 59.501000000000005
7.881346924933401 59.3951
7.903716270417482 60.0876
7.926068482028405 60.582
7.948438431475253 61.0221
7.9708086843180235 61.6917
7.993161805171116 62.3537
8.015532667162402 62.4474
8.037886398416653 63.5983
8.060257873014221 64.1455
8.082629655331942 64.5551
8.104984308787587 65.7209
8.127356708900503 69.1787
8.149711981398308 74.7943
8.172085002766314 76.86399999999999
8.194458336181368 73.8128
8.216814543847752 71.3657
8.23918850371002 71.6812
8.26154533906492 72.5667
8.283919928836452 74.0919
8.306277395339652 75.0968
8.328652618483376 76.5736
8.351028159736202 78.9251
8.373386579575245 81.317
8.395762759396959 83.7658
8.418121819038275 88.8829
8.440498640894003 102.554
8.462875785192262 118.626
8.485235811156207 140.391
8.507613602688501 205.81400000000002
8.529974277114228 319.074
8.552352719347912 469.01300000000003
8.574731488360351 720.193
8.59709314210385 1139.32
8.619472567021075 1667.12
8.64183487789147 2096.03
8.664214962183097 1881.76
8.686577933647762 1109.26
8.708958680784317 456.657
8.731339760774953 190.537
8.753703729764451 121.155
8.77608547780821 104.791
8.798450116065078 100.069
8.820832535634787 96.1345
8.843215292401656 94.485
8.865580941199045 92.8478
8.887964374703538 91.7626
8.910330701447199 92.4235
8.932714815164482 94.7606
8.955099270424924 93.5401
8.977466620733543 90.741
8.999851761421976 87.7527
9.022219798361645 86.2749
9.04460562795561 85.7952
9.066991803441677 85.3945
9.089360876979615 85.8163
9.111747746589993 84.8079
9.13411751544971 84.365
9.156505082664324 83.931
9.178875550323522 84.3005
9.20126381862328 84.5154
9.223652438908596 84.7789
9.246023961427412 85.0491
9.26841328802173 84.4708
9.290785518039224 84.2719
9.313175554425882 85.4008
9.335565947154315 85.7071
9.357939245086508 85.8054
9.380330352834827 85.7307
9.40270436697103 86.0664
9.425096193225055 85.5684
9.447488380180165 86.5548
9.469863475295412 86.8111
9.492256385987508 87.4844
9.514632206018318 87.666
9.537025843935714 88.397
9.559402392368193 88.9161
9.581796761000229 90.1132
9.604191496441521 91.2829
9.626569144158516 95.0039
9.648964615551032 99.4139
9.671343000390081 100.58200000000001
9.693739211225699 98.6346
9.716135793237463 96.2074
9.738515290448102 96.1707
9.760912617143402 97.0716
9.783292860202891 98.5897
9.805690935076182 99.8139
9.828089385495742 100.791
9.850470754023561 103.34100000000001
9.872869957865444 110.84100000000001
9.89525208097539 126.133
9.917652041736662 139.071
9.940052382417589 142.28
9.962435644102392 160.65200000000002
9.984836746950979 214.12400000000002
10.007220771957746 296.197
10.029622640473708 411.995
10.052007432299963 587.053
10.074410069984072 829.012
10.096813093716005 1180.37
10.119199042482517 1620.98
10.141602840636468 1897.59
10.163989564971628 1723.93
10.186394141051062 1087.49
10.208799107559706 497.284
10.231187001965623 228.99400000000003
10.253592751657669 140.513
10.275981430388155 120.176
10.298387966769793 117.95
10.320794897965431 119.34200000000001
10.343184759907361 118.417
10.36559248305461 112.458
10.387983138083852 109.016
10.410391656691655 114.902
10.432800574501677 130.887
10.455192425893369 151.765
10.47760214443012 179.75099999999998
10.499994797678786 221.517
10.522405320453982 285.682
10.54479877906917 378.73400000000004
10.567210109595656 477.731
10.5896218454736 540.766
10.612016518879773 525.971
10.634429067781074 376.741
10.656824555333241 222.331
10.679237920773568 133.195
10.701651695961992 100.963
10.724048411481384 92.9783
10.746463008485165 89.6661
10.768860546937125 87.45700000000001
10.791275969274796 85.8279
10.81369180576079 84.3812
10.836090585366925 83.1429
10.858507252467449 82.5336
10.88090686379991 81.2655
10.903324365036394 80.811
10.925724811614439 80.3954
10.948143150509463 81.8713
10.970561909719066 80.9187
10.992963615930844 78.848
11.015383218085756 76.9412
11.037785768347074 75.4458
11.06020621697282 74.8292
11.082627090322113 74.2701
11.105030913430326 73.8454
11.12745263854165 74.3617
11.149857314510728 77.0442
11.172279894912576 82.9856
11.194702904450653 83.8154
11.217108866490921 80.1665
11.239532736615194 75.546
11.26193956033512 73.3244
11.284364294577085 71.9107
11.306789462371718 70.2666
11.329197585398376 69.3651
11.351623622610898 68.8844
11.37403261614354 68.0061
11.396459526308487 68.0075
11.418869393879497 67.6045
11.441297180532617 67.1612
11.463725406927658 66.6905
11.486136592353875 66.7657
11.508565700543707 67.3133
11.530977768845315 69.2077
11.553407762368774 69.6147
11.575838200059769 69.1722
11.598251599479612 67.1493
11.620682927815501 65.7129
11.64309721895548 65.4297
11.665529441478206 65.3019
11.687962112597958 64.6259
11.710377748130886 64.8261
11.732811318753434 64.992
11.755227854859067 64.7267
11.777662328529495 64.6847
11.800079768750786 64.6767
11.822515149015453 64.3765
11.844950984084935 64.6074
11.867369787303163 64.331
11.889806534289491 64.4189
11.912226250487029 64.6634
11.934663912939751 64.6878
11.9571020346363 64.9654
11.979523127133968 64.9607
12.001962169624331 65.8617
12.024384183972964 67.5275
12.046824150809913 71.9738
12.069264581333726 78.4718
12.091687985297767 85.4005
12.11412934550045 94.0659
12.136553680195208 107.509
12.158995973632788 125.76
12.181438735204349 149.496
12.20386447284199 175.668
12.226308172985636 201.09
12.24873485024193 207.769
12.271179492516982 180.142
12.293607112949127 135.679
12.316052700916226 102.594
12.338498763250042 82.4542
12.360927805303868 72.8386
12.383374818673879 68.7006
12.405804812803074 66.8044
12.428252780773262 66.5841
12.45070122756722 66.2557
12.473132656675375 66.0091
12.49558206341869 66.3904
12.518014453510101 66.298
12.540464823770117 66.4134
12.562915677315177 66.7852
12.58534951575545 67.3481
12.607801338171472 69.1558
12.630236146511358 74.0698
12.652688941369085 78.8727
12.675124723177234 79.5876
12.697578494048786 76.0948
12.720032754458185 71.6923
12.742470003354093 69.9767
12.764925245138771 70.0232
12.787363476431278 70.0786
12.809819703166806 70.5784
12.83227642391173 71.5083
12.854716135692716 71.6879
12.877173846755147 72.8142
12.899614549869717 73.1299
12.9220732548287 73.9636
12.94453245827299 74.628
12.966974655289818 75.7666
12.989434858002571 76.5833
13.011878055298721 77.4864
13.034339260862497 78.2594
13.056800969391883 79.73100000000001
13.079245674017244 82.2609
13.101708390774869 85.6462
13.12415410463411 95.3502
13.146617833206086 109.991
13.169064559883248 124.069
13.191529303857127 140.414
13.213994557076367 162.47
13.236442809902437 194.44
13.258909083908291 239.05700000000002
13.28135835851934 289.651
13.30382565690295 347.07
13.326293469022952 405.473
13.348744283242008 427.974
13.371213125129904 382.148
13.39366497011003 288.306
13.416134845360597 192.873
13.438605238843131 134.32399999999998
13.46105863690397 114.325
13.483530069144786 115.16
13.505984506951902 122.17200000000001
13.528456981549432 132.859
13.550929978879088 147.628
13.573385983253365 168.333
13.595860028340867 198.986
13.618317081455832 236.479
13.64079217790333 282.215
13.663250283359057 328.73400000000004
13.685726434770173 358.69599999999997
13.708203115221277 344.82099999999997
13.730662806148091 282.78
13.75314054697177 206.75400000000002
13.775601299246777 140.054
13.798080104050406 103.988
13.820559442405358 89.3661
13.843021793671388 84.6211
13.865502201420897 82.7579
13.887965623051947 82.1829
13.910447103807167 81.048
13.932929122629764 79.6008
13.955394156785959 79.3874
13.977877254034569 78.3073
14.000343367582113 77.426
14.022827546871707 76.3951
14.045294743423524 75.8619
14.06778000837062 75.234
14.090265817715476 75.0714
14.112734645763819 74.8179
14.13522154619454 74.5043
14.157691466286913 74.5773
14.180179461423874 74.3988
14.202668005486178 73.5798
14.22513957064374 72.9965
14.247629214846473 72.5473
14.270101881097517 72.3265
14.29259262906496 72.4834
14.315083930490205 73.2045
14.337558255389705 73.4785
14.360050666019726 73.3766
14.382526101071944 72.3911
14.405019624534942 71.6103
14.427513705993134 71.0155
14.449990813291825 71.1299
14.47248601302899 70.7581
14.49496423954951 71.0011
14.517460561197822 71.1551
14.539939910570322 70.6812
14.562437357763558 71.2679
14.58493536931253 72.291
14.607416409993311 73.0088
14.62991555254159 73.9602
14.652397725157423 74.0263
14.674898002342799 73.3262
14.697398848433282 72.7918
14.719882725991326 73.7591
14.74238471217934 75.3979
14.764869730765593 79.8958
14.787372860692983 84.5325
14.809876564079925 89.6545
14.83236330125751 95.9689
14.854868153850365 104.48700000000001
14.877356041159485 116.55799999999999
14.899862046604186 131.726
14.922351087688757 151.297
14.944858249632887 173.514
14.967365991421232 198.356
14.989856770231246 217.271
15.012365673994204 221.084
15.03485761569738 197.237
15.05736768508665 159.032
15.07987833888692 122.76799999999999
15.102372032001655 95.4313
15.124883856909658 80.2076
15.14737872204565 74.9939
15.169891721717274 73.3427
15.192405310371893 72.6241
15.214901940621196 72.8724
15.237416709527137 72.785
15.259914520936249 72.7049
15.282430473753607 72.1335
15.304947020131227 70.9159
15.327446610371178 70.2941
15.349964346154254 69.2505
15.372465126703139 68.8358
15.394984055556009 68.6941
15.417486030076159 68.4307
15.44000615566487 67.9137
15.462526881230803 67.9645
15.485030653812652 68.357
15.507552581617434 68.4246
15.530057557334603 68.4083
15.55258069104857 68.41
15.575104429329837 68.3142
15.597611216864632 68.1061
15.620136166564563 68.6115
15.6426441664095 69.9131
15.665170331202765 73.1612
15.687697105158826 77.1013
15.710206930593545 81.5841
15.732734925158933 86.2914
15.755245972089478 92.0532
15.77777519094324 100.318
15.800287463046663 111.352
15.822817909869592 126.419
15.84534897229804 142.622
15.867863089299354 163.361
15.890395385222186 181.06599999999997
15.912910736597423 194.963
15.935444269699861 191.764
15.957978423016485 167.78599999999997
15.980495633101265 135.24200000000002
16.003031029129367 105.00200000000001
16.02554948280019 81.7769
16.048086125229432 70.8272
16.070623392487107 67.7571
16.09314371869582 66.5141
16.11568223789321 65.6445
16.13820381691126 64.4996
16.160743591742527 63.5563
16.183283996022084 62.4086
16.205807461423195 61.4323
16.228349126881973 60.8935
16.25087385432698 60.6608
16.27341678466365 60.2244
16.29594277784926 59.983000000000004
16.31848697676433 60.1102
16.341031811604868 60.3166
16.36355971058487 60.8817
16.3861058195587 60.7038
16.40863499352978 59.5559
16.431182380342005 58.4944
16.453730407713202 57.9122
16.476261501364792 57.6782
16.498810812136167 57.1724
16.52134319004079 57.4347
16.54389378792203 57.1876
16.566445031001553 56.9352
16.588979342490088 56.956
16.61153187824822 56.7919
16.634067483263312 56.5609
16.656621315414416 56.4862
16.679175797408888 56.4593
16.701713349928728 56.3862
16.72426913389191 56.6119
16.74680798922351 56.565
16.76936507887444 56.6434
16.791905240734874 56.6543
16.814463639794468 56.4708
16.837022695210294 56.4276
16.859564824093756 57.0625
16.882125194503903 57.6069
16.904668639217885 58.2506
16.927230328348003 58.2277
16.949792678493612 58.6829
16.972338104193863 57.9272
16.994901778652235 57.3595
17.017448529496576 57.2397
17.040013531998152 57.6565
17.06257920018044 58.2811
17.0851279459922 59.5932
17.107694947817667 60.358999999999995
17.130245028099072 61.3173
17.15281336730298 62.8605
17.17536478578733 64.2534
17.19793446610687 66.2531
17.220504818648422 68.8393
17.243058251703697 71.1694
17.265629950971032 74.5441
17.288184731571736 78.4568
17.310757781306908 82.7976
17.33333150794385 84.7345
17.355888317140174 84.1319
17.37846339986244 80.5609
17.401021565958885 74.7012
17.42359800851343 68.7717
17.44617513265564 64.6983
17.468735341390783 62.2922
17.491261035594565 61.0133
17.51396340099364 60.7461
17.536490463869136 61.1552
17.559018209820174 61.0654
17.58154663977963 61.1357
17.604251766089718 61.1501
17.626781572227713 61.5985
17.64931206518155 61.8974
17.671843245885103 62.2852
17.69455114821572 62.2766
17.717083712612634 62.8355
17.739616967569667 62.9688
17.762150914021706 63.3278
17.78486160749854 63.3446
17.807396945166804 64.0291
17.829932977143503 65.1548
17.85246970436452 67.4457
17.875183204129467 70.015
17.897721330097664 72.4488
17.920260154126645 74.9447
17.942799677153296 78.1161
17.9655159983646 81.7003
17.988056927677544 86.3965
18.010598558807683 92.6612
18.033140892692916 100.677
18.05586005052525 109.09299999999999
18.07840379824407 118.74
18.10094825154059 129.19299999999998
18.12366954819864 139.38
18.146215420998306 144.024
18.16876200220057 138.876
18.191309292745153 126.212
18.214033452627167 111.977
18.236582170236648 98.3931
18.259131600016456 90.8463
18.281681742907335 88.6552
18.304408781233683 91.0235
18.32696035875955 94.8252
18.349512652227624 98.9109
18.372065662579683 104.164
18.394795594587553 107.564
18.41735004715306 106.535
18.43990521943684 100.45299999999999
18.46246111238171 91.429
18.485193953325208 81.1087
18.507751296070428 73.0622
18.530309362314178 68.3724
18.552868153000343 65.8081
18.57560391815056 64.2815
18.59816416623245 63.8808
18.620725141597372 63.0902
18.643286845190268 62.8031
18.666025549835414 62.5197
18.688588718427933 61.746
18.711152618092243 61.651
18.73389353884365 61.3665
18.75645890921984 60.8169
18.77902501351406 60.5152
18.801591852673102 60.4941
18.824335739722738 59.9468
18.846904057212626 60.026
18.8694731124168 59.6306
18.89204290628315 59.7068
18.914789774966803 59.3981
18.937361054791623 59.0138
18.959933076131318 58.7878
18.982505839934877 58.8322
19.00525570560582 58.9104
19.027829963004184 58.7974
19.05040496572238 58.9955
19.072980714710468 58.823
19.095733592739563 59.1738
19.11831084296757 59.6021
19.140888842324735 60.1846
19.16346759176222 60.5887
19.18622349753803 61.163999999999994
19.208803755869358 61.9836
19.231384767143577 62.9017
19.253966532312948 64.0909
19.276725481241822 65.743
19.29930876296784 67.5387
19.3218928014549 69.8346
19.34465404436217 72.8126
19.36723960516257 75.3058
19.389825925592426 77.6613
19.412413006605938 77.7431
19.43517731967805 75.1419
19.457765930683355 71.1465
19.48035530514408 66.3137
19.50294544401556 62.0424
19.525712842708348 58.9473
19.54830451925909 57.2118
19.570896963095727 56.0494
19.593490175174704 55.6794
19.616260674962184 55.5741
19.638855432416964 55.4441
19.661450960992624 55.5722
19.68404726164677 55.2721
19.706820878021247 55.086999999999996
19.729418731756834 55.1826
19.752017360452857 55.0566
19.77461676506804 55.1631
19.797393513540218 55.398999999999994
19.819994478951667 55.9661
19.84259622316767 56.348
19.8651987471481 56.9057
19.887978643247177 57.0885
19.91058273574792 57.5256
19.933187610901943 58.4549
19.955969879466828 59.4411
19.97857632894404 60.6017
20.00118356396599 61.6812
20.023791585494575 63.5312
20.046577028914875 65.8332
20.069186632506966 67.8818
20.091797025500632 69.9967
20.114408208858933 71.2946
20.137196842715273 71.8584
20.159809615886765 71.1333
20.18242318232135 68.6072
20.20503754298326 66.2363
20.227829382875154 64.4962
20.250445341109344 63.7674
20.27306209647285 63.7585
20.29567964993108 64.5601
20.31847471147704 65.6465
20.34109387027612 66.9046
20.363713830075454 67.0905
20.386334591841646 66.4825
20.409132890679302 64.0803
20.431755265564437 60.9015
20.454378445325528 57.713
20.477002430930366 55.7736
20.499803982716553 54.2737
20.522429589228004 53.2179
20.54505600449589 52.8259
20.567683229489194 52.5046
20.590488049900088 52.3229
20.61311690359731 51.7609
20.63574656993626 51.6542
20.658553853717297 51.3836
20.681185154618298 51.2117
20.703817271080066 51.0689
20.72645020407368 50.6733
20.749260783967177 50.5205
20.771895359337133 50.5902
20.794530754161617 50.5161
20.817166969412938 50.5547
20.83998086114876 50.4712
20.86261872660049 50.4627
20.885257415405402 50.2909
20.90789692853701 50.1475
20.930714147864748 50.0944
20.953355319030678 50.43600000000001
20.97599731745334 50.2438
20.99864014410749 50.0858
21.021460706796564 50.2679
21.044105199328826 50.467
21.06675052302631 50.7177
21.089396678865015 50.8163
21.112220600704806 50.9588
21.134868430275347 51.4124
21.15751709492456 51.6258
21.180166595629693 51.7307
21.202993892429635 52.0804
21.22564507473034 52.7454
21.24829709602816 53.0698
21.27112693608965 53.0484
21.293780644891275 53.1007
21.316435195634053 52.4581
21.339090589297417 51.9141
21.361923832041875 51.4654
21.384580921090404 50.6693
21.407238856007325 50.1705
21.429897637773326 50.0537
21.45273429906592 49.8533
21.475394784108598 50.0805
21.498056118951983 49.9267
21.520718304578022 50.1185
21.543558400304388 50.2798
21.566222297108816 50.5258
21.58888704765135 50.75899999999999
21.61155265291521 51.1445
21.63439619898156 51.5812
21.657063523335786 51.8652
21.67973170537063 52.4334
21.7024007460706 52.9544
21.72524775840385 53.5975
21.747918526116475 54.6163
21.770590155457388 55.5242
21.79326264741238 56.9014
21.816113141960237 58.5198
21.838787368860547 59.938
21.861462461341976 61.6627
21.884315579735777 63.423
21.90699241312273 64.9956
21.92967011506078 66.5053
21.95234868653799 66.7648
21.9752053151131 65.8431
21.997885635446785 64.2146
22.020566828293532 62.2643
22.04324889464272 59.9618
22.066109049404666 58.0441
22.088792872571794 57.301
22.111477572219204 57.1238
22.1341631493376 57.4604
22.157026846313123 57.5697
22.179714188221507 57.1697
22.202402410582668 56.1902
22.22509151438863 54.7449
22.24795876962584 53.3005
22.270649646204486 52.4242
22.293341407213727 51.6263
22.316034053646906 51.045
22.338904883215342 50.7641
22.36159931041458 50.5798
22.38429462602756 50.6533
22.40699083104897 50.3289
22.429865251039757 50.4493
22.452563244831367 50.4979
22.47526213102522 50.5061
22.49813925616515 50.3218
22.520839937143307 50.3628
22.543541513520587 50.2129
22.56624398629403 49.9381
22.589124730075895 49.9723
22.611829005656723 50.4035
22.63453418063466 50.3467
22.657240256008077 50.6038
22.680124634582935 50.724
22.70283252079775 50.9161
22.725541310413075 51.2831
22.74825100442868 51.6108
22.771139033969575 51.9162
22.79385054687155 52.1763
22.81656296718292 52.7549
22.83927629590484 53.637
22.862167992606945 54.4147
22.88488314827121 55.3371
22.907599215359284 56.132
22.93031619487366 57.0749
22.953211574954405 57.8303
22.975930389478226 58.9041
22.998650119445763 59.4267
23.02137076586092 59.2026
23.044269845560063 58.3374
23.06699233506288 56.8545
23.089715744034912 54.8467
23.112617610931565 53.1787
23.135342869061212 51.7178
23.158069049684816 51.0483
23.1807961538087 50.4959
23.20370174880544 50.3912
23.226430710184808 50.6108
23.249160598093425 50.5798
23.271891413539002 50.6457
23.294800752937697 50.5171
23.31753343374794 50.826
23.340267045128353 50.9608
23.36300158808808 51.3282
23.38591468821339 51.5687
23.408651104658304 51.8897
23.431388455719986 52.4712
23.454126742409 53.2567
23.4770436196085 53.9557
23.499783787914662 55.0534
23.522524894889884 55.533
23.54526694154616 56.7112
23.56818761219047 57.6967
23.59093154860734 58.5096
23.613676427751283 59.2844
23.636422250635754 58.9921
23.659346731118656 57.7711
23.68209445191868 56.1526
23.704843119509587 53.9886
23.72759273490623 51.7493
23.750521041644767 50.1034
23.77327256312355 48.8355
23.796025035462787 48.1492
23.818956224555475 47.6557
23.841710609113413 47.4852
23.86446594758979 47.2956
23.887222241002014 46.9098
23.910157285144578 46.6722
23.932915498962537 46.6907
23.955674670778713 46.5009
23.978434801611975 46.2474
24.001373717286125 46.0665
24.024135776723917 46.0019
24.046898798245582 45.9237
24.06966278287146 45.8942
24.092605586582614 45.6849
24.115371508023642 45.4904
24.1381383956401 45.3965
24.16090625045381 45.3413
24.183852958731244 45.3661
24.206622758582608 45.2757
24.229393528706886 45.1233
24.252165270127392 45.0764
24.27511589952438 45.0188
24.297889594216997 44.9289
24.32066426328598 44.7689
24.34343990775613 44.6351
24.36639447485003 44.4623
24.38917208083877 44.526
24.41195066531332 44.4751
24.43490819850244 44.5609
24.457688750692377 44.3213
24.48047028445616 44.3036
24.503252800821233 44.4497
24.526214300784112 44.3176
24.548998793132213 44.4742
24.57178427117417 44.3301
24.59457073593893 44.3473
24.617536219319863 44.2995
24.64032466834748 44.3783
24.663114107195035 44.2155
24.685904536893013 44.0722
24.708874020360852 43.8094
24.731666442613744 43.9289
24.754459858818787 43.725
24.777254270007962 43.7306
24.80022777025625 43.7198
24.82302418230472 43.7015
24.845821592443674 43.5677
24.86862000170663 43.4123
24.891597535453727 43.3083
24.914397953892728 43.571999999999996
24.93719937456671 43.477
24.96000179851076 43.803000000000004
24.98298338249997 44.0739
25.00578782394922 44.1635
25.028593271784167 44.2511
25.05157790644186 44.5529
25.07438537804115 44.611999999999995
25.097193859145293 44.9215
25.120003350792075 45.0298
25.142992065061257 45.3625
25.165803588823465 45.6349
25.18861612625217 45.8875
25.211429678386736 45.9486
25.234422489079968 46.0297
25.257238081693636 46.1304
25.280054692141732 46.1503
25.3028723214652 45.8931
25.325869245420463 45.9802
25.348688923599397 46.0621
25.371509623787006 46.0652
25.394331347025812 46.1284
25.41733240110666 45.787
25.440156181590016 45.1889
25.46298098826268 44.7103
25.48580682216873 43.9868
25.50881202326435 43.3908
25.53163992281684 42.8294
25.55446885274561 42.4994
25.577298814096377 42.1313
25.600308179121807 42.0661
25.623140214533745 42.2257
25.64597328451537 42.1633
25.66898578564376 41.9136
25.691820936010206 41.8581
25.714657124097695 41.7804
25.737494350954734 41.9725
25.760511045684957 41.8311
25.783350361364224 41.8147
25.806190718969255 41.8229
25.82903211955018 41.909
25.852053024868923 41.9876
25.874896522722523 41.9822
25.897741066713106 41.968
25.920586657892454 42.0334
25.943611790812668 42.1103
25.966459487728237 42.2548
25.989308234998564 42.2396
26.01215803367705 42.527
26.03518741123814 42.7162
26.05803932412957 42.9294
26.080892291600094 42.7639
26.10374631470478 42.6957
26.12677995397268 42.9302
26.14963609978026 42.9485
26.172493304397875 42.7615
26.19535156888223 42.5332
26.218389486949604 42.0874
26.241249882640123 41.8572
26.26411134137826 41.762
26.28715248187403 41.7649
26.31001607820869 41.4924
26.3328807407756 41.2923
26.35574647063438 41.5494
26.37879191991473 41.3792
26.401659795896734 41.382
26.424528742360263 41.5077
26.447398760366614 41.728
26.470448535598294 41.7518
26.49332070826805 41.9241
26.516193955675355 42.3616
26.53906827888316 42.538000000000004
26.562122397260108 42.5014
26.584998883685063 42.7904
26.607876449110325 43.0315
26.63075509460056 43.1906
26.65381357334404 43.3418
26.67669439061878 43.4815
26.699576291163382 43.4724
26.722459276044212 43.5222
26.745522132402975 43.0668
26.768407297649354 42.7566
26.791293550442003 42.2426
26.814180891848974 42.1659
26.837248143099337 41.876999999999995
26.860137673466657 41.5958
26.88302829566349 41.4478
26.90592001075963 41.3292
26.92899167420566 41.1783
26.951885586870763 40.7599
26.974780595655517 40.5192
26.99785558178161 40.4319
27.020752794605112 40.2867
27.043651106772522 40.122
27.06655051935668 40.0059
27.089629948036183 39.9422
27.112531573292053 39.9775
27.135434302194138 40.0489
27.158338135817015 39.7506
27.181422024430987 39.8578
27.204328079372566 39.6808
27.22723524226965 39.7766
27.250143514198573 39.8577
27.273231880156334 39.8421
27.296142382065014 39.6369
27.319053996245536 39.5208
27.341966723775965 39.5917
27.365059584515222 39.6205
27.38797455070062 39.7876
27.410890633481237 39.7311
27.433807833936918 39.5847
27.456905206923906 39.6259
27.47982465472398 39.6021
27.502745223449743 39.6543
27.525666914182825 39.8168
27.548768816912457 39.7061
27.571692763693633 39.7517
27.59461783573812 39.5765
27.617723149491244 39.5439
27.640650484125285 39.4651
27.66357894728264 39.3383
27.686508540048052 39.3458
27.709618414237887 39.1165
27.732550278321757 39.0109
27.755483275279115 39.0124
27.778417406196485 39.0119
27.801531858397514 39.1074
27.824468269376716 38.9849
27.847405817586786 39.1785
27.870344504116094 39.2626
27.893463551932008 39.2931
27.916404527281053 39.4523
27.93934664422563 39.482
27.962289903855886 39.4082
27.98541356491974 39.6424
28.00835912214229 39.7357
28.03130582533231 39.9954
28.054253675581805 40.1826
28.077381967556104 40.2944
28.100332124185126 40.0986
28.123283431160893 40.0755
28.146235889577238 39.9923
28.169368830154156 39.7749
28.192323603752033 39.7299
28.215279532083304 39.4765
28.238415973016764 39.1097
28.261374223145094 39.0035
28.284333631303806 38.8837
28.307294198589954 38.7769
28.330435319167677 38.3153
28.353398217078915 38.1633
28.376362277420153 37.9253
28.39932750129032 37.7495
28.422473319286713 37.5197
28.44544088262495 37.4896
28.468409612800283 37.3357
28.491379510913497 37.2668
28.51453004413313 37.1156
28.53750229057244 37.1206
28.56047570826344 37.0582
28.583450298308804 37.0946
28.606605564586562 36.7771
28.629582511831156 36.8324
28.65256063474956 36.7353
28.675539934446338 36.7276
28.698699951647605 36.7596
28.72168161743193 36.5653
28.74466446331978 36.6708
28.767648490417624 36.5185
28.790813276438353 36.5039
28.813799678527303 36.4998
28.836787265157085 36.5296
28.859955641890075 36.4689
28.882945610203045 36.5283
28.905936766392035 36.3678
28.928929111566863 36.5081
28.952102288520145 36.3793
28.975097024308607 36.3034
28.998092952423807 36.1729
29.021090073977508 36.056
29.04426806913204 35.9902
29.067267590245258 35.7627
29.090268308143695 35.6647
29.11327022394099 35.6653
29.13645305530891 35.5406
29.159457379627167 35.453
29.18246290519685 35.4461
29.20546963313352 35.3693
29.22865731875826 35.3373
29.25166646419296 35.3575
29.27467681535305 35.1328
29.29768837335608 35.3348
29.320880931312562 35.195
29.34389491580634 35.3427
29.366910110507334 35.2068
29.38992651653503 35.2137
29.41312396492981 35.2091
29.436142806456754 35.1208
29.45916286268059 35.2405
29.48236399319994 35.0436
29.50538649169417 34.9494
29.528410208259935 34.875
29.55143514402014 34.5623
29.574641196749695 34.4348
29.597668583816574 34.3309
29.6206971934585 34.1047
29.64372702680042 34.2163
29.666938019934474 34.1543
29.689970313635285 34.0618
29.713003834422636 33.9806
29.73603858342347 33.9477
29.759254535188578 33.8642
29.78229175361658 33.8734
29.80533020365064 33.9164
29.82836988641968 33.8983
29.85159081507472 33.7859
29.874632976355343 33.7184
29.89767637376955 33.8414
29.920721008448314 33.5244
29.9439469322847 33.6001
29.96699405457564 33.5327
29.9900424175358 33.5881
30.013092022298157 33.5429
30.03632295963995 33.5046
30.059375061131373 33.4395
30.08242840783577 33.5615
30.105483000888153 33.591
30.128718970092244 33.33
30.151776069006917 33.4219
30.17483441768648 33.4767
30.198074175317235 33.3593
30.221135036724256 33.4228
30.24419715131772 33.2981
30.267260520236203 33.2724
30.290505341942243 33.3754
30.313571232750228 33.4851
30.336638381310948 33.3904
30.35970678876503 33.2534
30.38295669299435 33.2461
30.40602763151657 33.2484
30.429099832366074 33.1158
30.452173296685572 32.9754
30.47542830191959 33.0382
30.498504306502497 33.0438
30.521581577995562 33.1612
30.544660117543582 33.2112
30.56792024229725 33.1206
30.59100133132069 33.1697
30.614083691845494 33.1553
30.637167325018545 33.1868
30.660432587840603 33.2309
30.683518779717886 33.0116
30.70660624769615 33.124
30.729694992924372 33.2435
30.75296541239743 33.2155
30.77605672557558 33.1029
30.799149319462742 33.0732
30.8224236211637 33.0027
30.845518789950724 32.9154
30.868615242910597 32.8363
30.891712981195973 32.6345
30.91499247215866 32.6191
30.938092794619365 32.5925
30.96119440587579 32.51
30.984297307082752 32.3503
31.00758200598383 32.3108
31.030687500658694 32.2711
31.053794288760695 32.1608
31.076902371446767 32.1002
31.100192296997445 32.2574
31.12330298246119 32.1357
31.14641496599209 31.8918
31.169528248749216 31.8726
31.19282341969534 31.9399
31.215939314557186 31.8892
31.239056512134788 31.9579
31.262175013589378 31.8381
31.28547544871168 31.8355
31.30859657161541 31.7629
31.331719001892175 31.7706
31.35484274070538 31.7707
31.378148458819545 31.839000000000002
31.401274828443725 31.8365
31.424402510106933 31.8399
31.447712205419993 31.8685
31.470842524931633 31.6548
31.493974159989783 31.7192
31.51710711176168 31.7227
31.54042212308802 31.6979
31.563557722100917 31.6576
31.586694641341655 31.6015
31.609832881979628 31.4447
31.63315322823208 31.3709
31.656294125521327 31.3424
31.679436347728515 31.2563
31.70257989602529 31.0979
31.725905596152327 31.1621
31.74905181052835 31.0706
31.772199354521323 31.1651
31.79534822930507 31.0651
31.818679302290967 31.0414
31.84183085259981 31.0192
31.864983737233473 30.9836
31.88813795736804 31.0132
31.911474422233013 30.9708
31.934631327356435 30.9737
31.9577895715215 31.0271
31.980949155906522 31.0142
32.004291031706956 30.9226
32.027453310562606 30.791
32.05061693318573 30.8289
32.07396288236386 30.761
32.09712920658542 30.6476
32.12029687812702 30.4975
32.14346589817093 30.4884
32.166817291729984 30.4784
32.18998902288583 30.3316
32.21316210610336 30.2719
32.23633654256711 30.1438
32.259693399663725 30.1872
32.282870556771144 30.0556
32.30604907069099 30.1221
32.329228942610065 29.9971
32.35259128243769 29.8859
32.375773884550505 29.8673
32.398957848235646 29.8235
32.422143174682176 29.7852
32.445511016471215 29.5855
32.468699082679954 29.6448
32.49188851523011 29.7149
32.51507931531304 29.6484
32.538452678331 29.6617
32.56164622776311 29.5003
32.58484114831493 29.4108
32.60803744118015 29.5134
32.631416344731896 29.3809
32.654615396551876 29.3552
32.67781582427913 29.318
32.701198898634416 29.2534
32.72440209253756 29.141
32.747606665947124 29.1077
32.77081262006088 29.0524
32.79420126883317 29.0539
32.81740999876112 29.0717
32.840620112999424 28.9943
32.86383161274818 28.8761
32.88722585534586 28.8966
32.91044014056596 28.9837
32.933655814909734 28.9236
32.95687287957963 28.8979
32.98027273544904 28.7897
33.00349259526636 28.7845
33.026713849030116 28.7765
33.04993649794511 28.7171
33.073341986570746 28.6943
33.09656744032826 28.642
33.11979429286444 28.6133
33.14302254538647 28.5587
33.166433686291185 28.6074
33.18966475336992 28.5887
33.212897224069096 28.4426
33.23613109959831 28.4657
33.259547912343415 28.3735
33.2827846121627 28.4644
33.306022720453775 28.4096
33.32926223842861 28.2488
33.352684742614166 28.2797
33.37592709463173 28.1821
33.399170859982064 28.2396
33.422597648419426 28.0895
33.44584425514446 28.0241
33.46909227885668 27.9551
33.4923417207723 27.7916
33.51577423505344 27.8641
33.539026528130385 27.7573
33.56228024307245 27.7418
33.585535381098246 27.489
33.60897364093058 27.5597
33.63223163992385 27.5384
33.6554910656699 27.4996
33.678751919389796 27.5438
33.702195944520106 27.3607
33.72545966903325 27.36
33.74872482519663 27.3418
33.771991414233746 27.4643
33.79544122444841 27.3353
33.81871069412428 27.2388
33.84198160035767 27.2137
33.86525394437455 27.3622
33.88870955949969 27.2049
33.911984794020626 27.1795
33.93526147001624 27.1087
33.958539588715006 27.0201
33.98200102861669 26.9184
34.0052820477047 26.9001
34.02856451319451 26.8681
34.05203033759056 26.8536
34.07531571090147 26.8257
34.09860253431845 26.7361
34.121890809074316 26.7299
34.145362493118924 26.6864
34.16865368561615 26.5776
34.191946333164054 26.5675
34.21524043699793 26.6139
34.23871800066799 26.5875
34.26201503218366 26.4135
34.28531352370466 26.4412
34.30861347646881 26.3688
34.33209693978188 26.4105
34.3553998301885 26.3964
34.378704185565205 26.3071
34.402010007152356 26.1257
34.42549939016683 26.2264
34.44880815937748 26.0162
34.472118398533134 26.1388
34.49543010887669 26.0258
34.51892543169198 25.8381
34.54224009966052 25.928
34.56555624255917 25.9609
34.58887386163339 25.8448
34.61237514439016 25.7519
34.6356957311114 25.8346
34.65901779775809 25.7321
34.68252356662995 25.613000000000003
34.705848608458616 25.6414
34.72917513396849 25.6299
34.75250314440949 25.5748
34.77601490857862 25.5013
34.799345904259795 25.3632
34.82267838863559 25.3919
34.846012362958525 25.4166
34.869530142679984 25.4596
34.89286711232212 25.3161
34.91620557568269 25.3844
34.93954553401677 25.2882
34.9630693495876 25.2984
34.986412313340814 25.2485
35.00975677584668 25.1869
35.033102738362956 25.184
35.05663261012228 25.0505
35.0799815881786 25.2344
35.10333207003229 25.0819
35.12668405694369 25.0834
35.150220005273056 25.0322
35.17357501786656 24.9614
35.19693153931268 24.9351
35.220289570874385 24.8761
35.24383161619786 24.8601
35.267192683604904 24.9114
35.290555264930376 24.8422
35.314101899412165 24.7804
35.33746752422433 24.7706
35.36083466676374 24.7668
35.38420332829803 24.7393
35.407756095629054 24.7202
35.43112781085063 24.7295
35.45450104888391 24.6144
35.477875810999194 24.7193
35.50143473172161 24.6427
35.52481255774625 24.5437
35.54819191167777 24.5619
35.57157279478914 24.4099
35.595137889488406 24.4141
35.61852184675279 24.4559
35.641907337029984 24.4545
35.665294361595684 24.3281
35.68886565090076 24.2288
35.7122557598848 24.2784
35.73564740699838 24.226
35.759040593519934 24.2679
35.78261809810353 24.113000000000003
35.80601437933051 24.1111
35.829412203814705 24.0673
35.85281157283719 23.9786
35.876395313415884 24.0438
35.8997977874528 23.8348
35.92320180988546 23.9248
35.946790244133936 23.7327
35.97019737933222 23.8014
35.993606066789866 23.7994
36.01701630779276 23.7323
36.04061101440684 23.7046
36.06402437852291 23.7584
36.08743930005611 23.7108
36.1108557802951 23.6063
36.13445678011326 23.6362
36.15787639383515 23.533
36.18129757014299 23.4427
36.20472031032821 23.4544
36.22832762423364 23.398000000000003
36.25175350829375 23.3785
36.275180960119776 23.2442
36.298609981005924 23.311999999999998
36.32222362992669 23.379
36.34565580510207 23.2783
36.36908955323448 23.2363
36.39252487562093 23.092
36.416144880530226 23.1249
36.43958336764275 23.0716
36.463023432914625 23.1395
36.486465077645676 22.9937
36.51009145956204 23.0682
36.53353627947859 23.0225
36.55698268276811 23.041999999999998
36.58043067073321 22.9852
36.60406345072071 22.8804
36.62751462435344 22.9412
36.65096738658405 22.7999
36.67460498210655 22.8577
36.69806093788647 22.8241
36.72151848619297 22.7101
36.744977628333636 22.815
36.76862165890998 22.6815
36.79208400512205 22.6451
36.81554794910557 22.6301
36.83901349217101 22.5326
36.862663978991606 22.4675
36.88613273667352 22.4511
36.90960309738324 22.4332
36.933075062434064 22.4574
36.95673202673572 22.4079
36.98020721697122 22.2941
37.003684015502365 22.1751
37.027162423645365 22.2568
37.050825886711465 22.2987
37.07430753063053 22.2236
37.09779078812467 22.1247
37.121275660513014 22.1475
37.144945643673694 22.0669
37.16843376245278 22.0309
37.19192350009803 22.0089
37.215414857931435 22.037
37.239091382563885 21.9289
37.262585997426164 21.9115
37.28608223645736 21.9116
37.309763684451696 21.8772
37.33326318851098 21.8014
37.356764320726555 21.8122
37.380267082425526 21.7451
37.40395510942588 21.7392
37.42746114683234 21.7334
37.45096881771841 21.554000000000002
37.474478123414166 21.5383
37.49817275092816 21.5464
37.52168534303452 21.5485
37.54519957395567 21.4784
37.568715445024665 21.5068
37.592416694607714 21.399
37.61593586281424 21.4696
37.63945667518264 21.4453
37.66297913304891 21.4253
37.68668702630454 21.3684
37.710212792059274 21.326
37.733740207334854 21.2657
37.757269273470364 21.2111
37.780983832050374 21.1285
37.80451621684926 21.139
37.82805025654007 21.1071
37.851585952464795 21.0743
37.8753071980695 21.0217
37.89884622345676 20.9742
37.92238690911902 20.9992
37.94611318753442 20.921
37.969657210779765 20.9268
37.99320289834801 20.9022
38.016750251586465 20.8103
38.04048325513017 20.7971
38.06403395679343 20.6991
38.087586328183946 20.7165
38.11114037065203 20.6272
38.13488012115898 20.645
38.1584375229181 20.6346
38.181996599821 20.5674
38.205557353221124 20.549
38.229303872575656 20.5023
38.2528679961576 20.4962
38.27643380031219 20.5248
38.30000128639589 20.4307
38.32375459653193 20.4267
38.34732546371299 20.4559
38.37089801690786 20.2497
38.39447225747609 20.3291
38.418232380377425 20.2705
38.441810012983396 20.2647
38.46538933705673 20.1982
38.488970353960084 20.1888
38.51273731166058 20.2284
38.536321731567014 20.0794
38.55990784840681 20.0372
38.58367995004091 20.025
38.60726947812959 20.029
38.63086070726198 20.0096
38.654453638806274 19.9281
38.678232613930824 19.9018
38.70182896773327 19.8549
38.72542702806741 19.8524
38.7490267963045 19.7881
38.77281266709232 19.8235
38.79641586862214 19.7684
38.8200207821842 19.7735
38.843627409152944 19.7655
38.86742019782782 19.6222
38.891030269149255 19.5892
38.914642058016156 19.6207
38.938255565806124 19.5668
38.96205529464307 19.5532
38.98567225787121 19.5555
39.00929094417078 19.5029
39.03291135492255 19.4932
39.05671804624804 19.4511
39.080341923549106 19.4344
39.103967529460334 19.416
39.127594865365744 19.3009
39.15140854155791 19.2885
39.17503935514948 19.3036
39.19867190290282 19.282
39.22249083587951 19.1788
39.24612686969409 19.1933
39.269764641845306 19.1765
39.293404153722804 19.1069
39.317230110864074 19.0373
39.34087311998506 19.1112
39.36451787301696 18.9973
39.388164371352595 18.9189
39.41199737518003 18.9992
39.43564738196752 18.9063
39.45929913825317 18.875999999999998
39.48295264543308 18.8719
39.506792718520884 18.8268
39.530449745387216 18.8345
39.55410852735203 18.7718
39.57776906581474 18.8107
39.60161623079 18.7502
39.625280300200025 18.753
39.64894613032202 18.7101
39.67261372255866 18.6011
39.6964680021016 18.6563
39.72013913657293 18.5527
39.74381203738292 18.5488
39.76748670593756 18.5888
39.79134812278169 18.5037
39.81502634488497 18.5114
39.83870633896685 18.4302
39.862388106436654 18.4188
39.88625668336918 18.4023
39.90994201572829 18.3812
39.933629125719285 18.2984
39.957503091207826 18.2824
39.9811937746168 18.2982
40.00488623990914 18.2445
40.02858048850006 18.1678
40.05246165409549 18.1388
40.076159487492085 18.11
40.099859108448875 18.0929
40.123560518384345 18.0473
40.1474489070226 18.134
40.171153913178564 18.0483
40.194860712584955 18.0089
40.2185693066637 17.9575
40.242464941335314 17.8779
40.26617714307655 17.8918
40.289891143772046 17.8756
40.3136069448471 17.8533
40.33750984859743 17.8927
40.3612292688043 17.8526
40.3849504936829 17.7724
40.40867352466194 17.7391
40.43258372059144 17.7321
40.45631038219906 17.7681
40.48003885420956 17.6638
40.503769138055105 17.6848
40.52768664931955 17.6222
40.55142057531802 17.5612
40.57515631746428 17.4777
40.599079334038514 17.4873
40.62281872700477 17.4387
40.64655994043941 17.4379
40.67030297578061 17.453
40.69423334835778 17.4025
40.71798004609188 17.3697
40.74172857006355 17.3155
40.76547892171441 17.2871
40.7894166736039 17.3182
40.813170699248566 17.2409
40.83692655691388 17.2519
40.86068424804498 17.2751
40.884629402612525 17.189
40.908390779366385 17.1925
40.932153993938 17.17
40.95591904777605 17.1059
40.979871628443995 17.0694
41.003640379561936 17.0329
41.02741097430883 17.0933
41.05118341413683 17.0173
41.075143444384416 16.9728
41.098919593177826 16.9503
41.1226975914255 16.9596
41.14647744058318 16.8607
41.170444943946755 16.8227
41.19422851378379 16.8102
41.218013938914645 16.7686
41.24198706625173 16.741
41.26577622087193 16.7743
41.289567235177785 16.7316
41.31336011063129 16.6896
41.337340752422875 16.6658
41.361137369129835 16.6653
41.38493585138705 16.6106
41.40873620066004 16.5627
41.43272438060107 16.5558
41.45652848292052 16.5206
41.48033445666918 16.4629
41.50414230331616 16.4569
41.528138045159764 16.4276
41.551949656675205 16.3648
41.575763145513235 16.3927
41.59957851314666 16.3202
41.62358184070442 16.3076
41.64740098505737 16.3315
41.6712220126409 16.2223
41.69504492493139 16.1628
41.71905586207357 16.1749
41.74288256296395 16.1617
41.766711153007456 16.1768
41.79054163368412 16.1475
41.814560204340054 16.1473
41.838394485526365 16.1339
41.86223066180303 16.0227
41.88625497706819 16.0517
41.910094962812 16.0095
41.93393684811168 15.9649
41.95778063445365 15.8713
41.981812625263366 15.8871
42.00566023303407 15.8738
42.029509746323676 15.9031
42.05336116662236 15.8299
42.077400857069705 15.8187
42.10125611078846 15.8173
42.12511327600405 15.7879
42.14897235421036 15.7426
42.173019768448455 15.7144
42.19688269209613 15.712
42.22074753323349 15.714
42.24461429335818 15.7042
42.268669455600495 15.5651
42.292540073217886 15.5783
42.31641261433284 15.5257
42.34028708044675 15.5045
42.36435001496739 15.4775
42.38822835065557 15.5096
42.41210861586426 15.4462
42.4359908120986 15.4077
42.46006154323262 15.3627
42.48394762115317 15.329
42.507835634632315 15.3296
42.531912233047436 15.3191
42.55580413732265 15.3036
42.579697981698 15.2095
42.60359376768525 15.2253
42.62767820545945 15.2571
42.65157789440821 15.1771
42.67547952952185 15.1269
42.699383112316 15.0892
42.72347541395347 15.055
42.74738291190531 15.0083
42.771292362102166 15.0812
42.795203766063516 15.0364
42.819303956130405 15.0083
42.843219287476536 14.987
42.86713657716324 14.9998
42.89105582671383 14.9928
42.91516392983864 14.9176
42.939087119032166 14.8655
42.963012272677304 14.8438
42.98693939230129 14.8337
43.01105543317513 14.7979
43.034986504731386 14.7867
43.05891954686589 14.7231
43.08285456110972 14.7186
43.10697856448665 14.7119
43.130917542983475 14.6762
43.15485849820081 14.6657
43.17880143167367 14.6392
43.20293342237094 14.6145
43.226880332449 14.6067
43.25082922540554 14.5356
43.27496722682525 14.5171
43.29892010567796 14.4781
43.32287497204102 14.4424
43.34683182745632 14.4745
43.370977859791836 14.4261
43.39493871351105 14.4106
43.41890156092628 14.4059
43.44286640358341 14.3593
43.46702049182749 14.3783
43.49098934522816 14.2552
43.51496019852649 14.2297
43.5389330532723 14.2481
43.56309522248204 14.1999
43.58707210044314 14.1593
43.61105098451946 14.1194
43.63503187626491 14.1641
43.659202151562134 14.09
43.68318707902681 14.1244
43.70717401884041 14.084000000000001
43.731162972560874 14.0263
43.75534137913236 14.0376
43.779334381108384 14.0139
43.803329401683186 13.9848
43.82732644241872 14.0093
43.8515130055166 13.9723
43.87551410707659 13.8724
43.89951723350145 13.876
43.923709934595614 13.8533
43.94771713129917 13.8507
43.97172635758096 13.8102
43.99573761501002 13.7911
44.0199385169922 13.7274
44.04395385732619 13.7104
44.067971233533086 13.7651
44.09199064718605 13.674000000000001
44.11619977548961 13.6586
44.14022328470671 13.6326
44.16424883610785 13.6262
44.18827643127035 13.5893
44.21249381139513 13.5982
44.236525514814076 13.5726
44.26055926674478 13.5541
44.28459506876863 13.5495
44.3088207262813 13.4847
44.33286064928722 13.4314
44.35690262714919 13.3865
44.38094666145278 13.3857
44.4051806219871 13.3881
44.42922879003185 13.3775
44.45327901929361 13.3403
44.477331311362136 13.3303
44.501573600619416 13.2716
44.525630039221795 13.2169
44.54968854541895 13.2364
44.573937102200176 13.2484
44.5979997645541 13.1844
44.622064499300315 13.1713
44.64613130803592 13.1369
44.67038823869318 13.1963
44.69445921643748 13.1407
44.718532272981385 13.0616
44.742607409926194 13.0939
44.76687274034801 12.9993
44.79095205918753 12.9386
44.81503346325094 12.9641
44.839116954143876 12.9489
44.86339071028742 12.952
44.88747839599524 12.9199
44.91156817336837 12.8969
44.93566004401666 12.8631
44.959942251908146 12.8651
44.984038330325966 12.838
45.00813650686762 12.8086
45.03223678314731 12.7656
45.05652746888232 12.7201
45.08063196592069 12.7178
45.104738567558705 12.7246
45.128847275414856 12.6795
45.15314646515866 12.6802
45.17725940679741 12.6978
45.20137445952892 12.6285
45.22568004865265 12.5899
45.24979934496396 12.6047
45.27392075725247 12.5764
45.29804428714431 12.5406
45.322358426247604 12.5455
45.346486212804315 12.5097
45.370616121861914 12.5312
45.39474815505086 12.4524
45.41907087049246 12.3771
45.4432071734666 12.3861
45.46734560548283 12.3838
45.49148616817604 12.3829
45.51581748638564 12.3296
45.5399623320197 12.3802
45.56410931325473 12.3013
45.58825843173002 12.277999999999999
45.61259837920865 12.2516
45.636751793816 12.2205
45.66090735060093 12.2362
45.68506505120716 12.1785
45.7094136545275 12.1545
45.73357566449271 12.1137
45.75773982322992 12.1281
45.78190613238733 12.075999999999999
45.806263418194064 11.9857
45.83043404997326 12.0865
45.85460683713677 12.0655
45.87897065658495 11.9573
45.90314777634752 11.9502
45.92732705646868 11.967
45.9515084986045 11.9275
45.97588104735473 11.9118
46.00006683541565 11.925999999999998
46.02425479047904 11.9324
46.04844491420549 11.8819
46.0728262191024 11.8232
46.09702070211635 11.8432
46.12121735879483 11.8109
46.14541619080294 11.7853
46.169806278764455 11.8118
46.194009483459034 11.7471
46.21821486849841 11.75
46.24242243555223 11.7168
46.266821333570014 11.6606
46.29103328674601 11.6635
46.31524742696538 11.6652
46.33946375590237 11.6381
46.36387149104216 11.6099
46.38809221957392 11.5797
46.41231514186606 11.5063
46.436540259597464 11.5547
46.460956858999374 11.501
46.48518638983522 11.495999999999999
46.509418121166966 11.4694
46.533652054678114 11.4489
46.55807754555709 11.4371
46.58231590571962 11.4341
46.60655647313217 11.3965
46.630988654873654 11.3336
46.655233659129024 11.300999999999998
46.67948087571551 11.3386
46.70373030632484 11.3326
46.72817142736393 11.2881
46.752425308428684 11.2598
46.77668140861147 11.2262
46.80093972960865 11.1839
46.82538981736788 11.1625
46.849652602470904 11.1727
46.87391761349769 11.1423
46.8981848521493 11.1199
46.9226439341274 11.125
46.946915650573224 11.0613
46.97118959976749 11.0764
46.99546578341598 11.0008
47.019933887188216 11.0277
47.04421456235744 11.0237
47.06849747711879 10.9756
47.09278263318286 10.9686
47.11725978640143 10.9685
47.14154944775105 10.9443
47.165841355555656 10.905999999999999
47.1901355115306 10.8684
47.214621741924994 10.8481
47.23892041698887 10.883
47.26322134538975 10.8308
47.28771440635075 10.7897
47.31201986422527 10.8099
47.33632758061436 10.7945
47.360637557241866 10.7406
47.38513974410611 10.7549
47.40945426407847 10.7219
47.43377104948137 10.6914
47.45809010204344 10.6472
47.48260144275502 10.625
47.506925052572285 10.5965
47.53125093475548 10.5916
47.55557909103813 10.5838
47.58009961361992 10.5382
47.60443234110732 10.5422
47.62876734791564 10.5568
47.65310463578333 10.5242
47.6776343683373 10.5298
47.7019762413987 10.4726
47.72632040075572 10.4068
47.75066684815169 10.468
47.77520581885936 10.4246
47.799556865477655 10.3636
47.823910205386 10.4076
47.84826584033272 10.3493
47.87281407745551 10.3174
47.89717432569297 10.3056
47.92153687423484 10.3233
47.94609208429692 10.2746
47.97045925671401 10.2429
47.99482873471275 10.2349
48.01920052005013 10.2267
48.04376504619224 10.1935
48.068141469543484 10.2203
48.09252020552573 10.1855
48.11690125590099 10.193
48.1414751266064 10.1445
48.16586082917454 10.1177
48.19024885144316 10.1035
48.2146391951793 10.0564
48.239222439012764 10.0936
48.26361744916137 10.0681
48.28801478610016 10.0414
48.31241445160131 10.0051
48.337007097209366 9.99814
48.36141144338331 9.94215
48.38581812345755 9.91458
48.41022713920929 9.91601
48.434829215320704 9.92189
48.45924292604658 9.93575
48.48365897780325 9.91821
48.50807737237308 9.86317
48.532688907799276 9.81868
48.55711201168574 9.835339999999999
48.581537463754074 9.8036
48.60615611725119 9.79625
48.63058628942721 9.84118
48.65501881516546 9.73073
48.6794536962573 9.71091
48.70408185970339 9.699010000000001
48.72852147531801 9.706439999999999
48.75296345168211 9.67417
48.77740779059232 9.65882
48.80204549302823 9.675510000000001
48.82649458091802 9.627180000000001
48.85094603676547 9.614469999999999
48.87539986237231 9.59393
48.90004713292306 9.61613
48.92450572200832 9.606580000000001
48.94896668628025 9.515039999999999
48.97343002754588 9.50891
48.99808689542115 9.52241
49.02255501470614 9.54562
49.04702551642794 9.47927
49.0714984023988 9.464839999999999
49.096164896893235 9.46577
49.120642575466796 9.455219999999999
49.145122643748394 9.40835
49.16960510355558 9.37861
49.19428125404938 9.3667
49.2187685210852 9.39263
49.243258185121555 9.326039999999999
49.26794160167084 9.30636
49.2924360839405 9.30665
49.31693296869764 9.24501
49.34143225776915 9.20882
49.36612538195438 9.18712
49.39062950396021 9.17778
49.41513603578346 9.21786
49.4396449792564 9.18805
49.46434784069503 9.17517
49.488861631846454 9.13596
49.513377840166804 9.147089999999999
49.537896467493745 9.1329
49.56260909589029 9.079239999999999
49.587132585683285 9.0945
49.611658500018365 9.07227
49.636186840738596 9.053289999999999
49.66090926588511 9.05223
49.685442483902584 9.0129
49.70997813385706 8.94998
49.734516217597076 8.982000000000001
49.75924846937352 8.9301
49.7837914452858 8.92408
49.80833686055187 8.958639999999999
49.83288471702571 8.91201
49.85762682540054 8.90376
49.882179588965734 8.86995
49.9067347993235 8.858360000000001
49.93129245833333 8.84083
49.95604445336378 8.818760000000001
49.98060703442832 8.82488
50.005172069746266 8.77645
50.02993150438364 8.77265
50.05450147301533 8.74747
50.07907390151433 8.7252
50.10364879174981 8.71072
50.12841816587289 8.69486
50.1529980044635 8.65888
50.17758031042124 8.63925
50.20216508562089 8.653880000000001
50.22694442953363 8.66075
50.25153416817468 8.590010000000001
50.27612638170508 8.5725
50.300721072005196 8.57718
50.325510416102105 8.5438
50.350110084975064 8.531360000000001
50.37471223628208 8.54468
50.39931687190919 8.50528
50.424116246675766 8.51528
50.44872587605249 8.5203
50.47333799543065 8.49952
50.49795260670191 8.47772
50.52276204271512 8.40959
50.54738166295838 8.40731
50.57200378079314 8.443610000000001
50.596628398116835 8.446710000000001
50.62144792604559 8.42137
50.646077567609396 8.349960000000001
50.670709714377715 8.36647
50.69553683636198 8.30317
50.72017401885922 8.31573
50.7448137122895 8.28393
50.76945591856022 8.28262
50.79429318636823 8.25953
50.818940443716784 8.22148
50.84359021965163 8.19598
50.868242516085964 8.22608
50.893089960641895 8.163689999999999
50.917747323549435 8.17371
50.94240721271973 8.17378
50.96706963007175 8.12205
50.99192728239342 8.11629
51.01659478166073 8.09961
51.04126481489051 8.09057
51.06593738400761 8.08642
51.090805275207074 8.08279
51.11548294172845 8.053560000000001
51.14016314993547 8.041
51.164845901758845 8.00797
51.18972406304274 7.98976
51.21441192780656 7.98107
51.23910234200271 7.96868
51.2637953075678 7.93
51.288683770237945 7.948110000000001
51.31338186432707 7.92737
51.33808251561888 7.90793
51.362978729967345 7.881139999999999
51.387684521509755 7.84161
51.41239287610203 7.84267
51.437103795691165 7.830439999999999
51.46201036644977 7.82626
51.486726441956634 7.80289
51.51144508832545 7.77999
51.536166307509156 7.763489999999999
51.56108326624387 7.77711
51.58580965706056 7.73078
51.61053862657523 7.72584
51.635270176746864 7.68277
51.66019755512065 7.70736
51.68493429268881 7.68955
51.70967361681515 7.71823
51.73441552946465 7.641769999999999
51.759353359237934 7.63945
51.7841004750961 7.617210000000001
51.80885018539685 7.59892
51.833602492111254 7.594539999999999
51.8585508051424 7.5671800000000005
51.883308330926425 7.554069999999999
51.90806845906181 7.551939999999999
51.932831191525715 7.485060000000001
51.95779001977161 7.5045
51.98255798721516 7.474939999999999
52.00732856494335 7.4712
52.03229530577543 7.45546
52.057071130455945 7.458130000000001
52.081849571391054 7.40297
52.106630630568695 7.403919999999999
52.13160794279417 7.3599
52.15639426492067 7.37563
52.18118321127822 7.36446
52.205974783860896 7.336139999999999
52.23096269971011 7.340389999999999
52.255759551287994 7.3348
52.280559035098186 7.30355
52.30536115314103 7.30145
52.33035970494467 7.2648600000000005
52.35516711807904 7.2881100000000005
52.37997717147198 7.239330000000001
52.40478986713005 7.203110000000001
52.42979908731974 7.2078
52.454617094216 7.219239999999999
52.47943774942214 7.17847
52.50426105495102 7.1883300000000006
52.529280976059844 7.183489999999999
52.554109609024096 7.14992
52.57894089837482 7.0957300000000005
52.60377484613117 7.07401
52.62880550079408 7.130960000000001
52.65364479223379 7.09755
52.67848674816189 7.065760000000001
52.70352547971946 7.097339999999999
52.72837279155837 7.04046
52.753222773982785 7.00386
52.778075429022984 6.991960000000001
52.80312495150885 7.00586
52.827982978797436 6.97501
52.85284368481815 6.988569999999999
52.87770707160767 6.95264
52.90276741793998 6.94923
52.92763619336701 6.9214
52.952507655698504 6.9017100000000005
52.977381806977576 6.87855
53.00245301017842 6.8794699999999995
53.02733256653592 6.8813
53.052214817996074 6.819660000000001
53.077099766608484 6.83245
53.102181859804446 6.8212600000000005
53.127072229988265 6.82183
53.15196530349892 6.80093
53.17686108239249 6.770010000000001
53.20195409881522 6.7598899999999995
53.22685531582556 6.7484
53.25175924441303 6.69994
53.27666588664027 6.69928
53.30176985962693 6.69004
53.3266819565689 6.688680000000001
53.35159677336455 6.66522
53.376514312083096 6.66695
53.40162927507703 6.650339999999999
53.42655228516116 6.59262
53.45147802340193 6.64002
53.47660125628886 6.622610000000001
53.50153247842639 6.59978
53.52646643496923 6.58105
53.55140312799818 6.56168
53.576537409691696 6.53581
53.60147960336152 6.51729
53.626424539786164 6.46063
53.65137222105307 6.47193
53.67651758529126 6.46705
53.70147078399681 6.46109
53.72642673383343 6.43789
53.75138543689533 6.482
53.776541917524526 6.50711
53.801506154876755 6.44211
53.826473151763246 6.44182
53.851442910284916 6.40304
53.87661054126026 6.35922
53.9015858509782 6.36867
53.92656392866066 6.33081
53.95154477641532 6.3148599999999995
53.976723591801296 6.3438099999999995
54.00171000771266 6.3320099999999995
54.02669920004598 6.300330000000001
54.051691170915745 6.284269999999999
54.076881204886796 6.24616
54.101878760928514 6.264880000000001
54.12687910187696 6.28008
54.152077577768296 6.25128
54.1770835166946 6.1964
54.20209224691339 6.2064900000000005
54.22710377055121 6.1671
54.25231352511594 6.15279
54.27733066384342 6.10166
54.30235060239643 6.14773
54.32737334290836 6.13136
54.35259441062629 6.07908
54.377622783395324 6.04706
54.40265396455061 6.01872
54.42768795623251 6.01331
54.45292037169559 6.01169
54.477960012857906 5.98894
54.50300247099511 6.00387
54.52804774825457 5.98421
54.55329154616743 5.92528
54.57834249018678 5.93922
54.6033962597977 5.85968
54.6284528571545 5.8596
54.653708072335164 5.85725
54.67877035378786 5.87475
54.70383546947698 5.80898
54.72890342156389 5.83531
54.7541700889442 5.79624
54.77924374251975 5.791530000000001
54.8043202390049 5.764069999999999
54.82959552413022 5.7522199999999994
54.8546777351945 5.69503
54.87976279569621 5.68016
54.90485070780914 5.71778
54.930137506558005 5.65963
54.95523115074295 5.65004
54.98032765308844 5.65989
55.005427015775496 5.59922
55.03072536339621 5.56725
55.05583047570572 5.5001
55.080938454927676 5.52803
55.10604930325027 5.492430000000001
55.131359235107396 5.47933
55.15647585066083 5.52002
55.181595341907496 5.48016
55.20671771104285 5.4393400000000005
55.232039262617704 5.4145
55.25716741665048 5.398540000000001
55.28229845518636 5.36878
55.30743238042802 5.2954
55.33276558731939 5.29766
55.357905315183636 5.27261
55.383047936390035 5.22688
55.40819345314859 5.22935
55.433538351073295 5.18698
55.458689688238415 5.20725
55.483843927614096 5.1167300000000004
55.509197623043605 5.0978
55.53435769621134 5.05885
55.55952067826466 5.117
55.5846865714265 5.08324
55.61005202069737 5.0246
55.63522376553902 5.03334
55.66039842818645 4.97325
55.68557601087004 5.0268
55.7109532500271 4.91151
55.73613670233794 4.98424
