TT I
1.2716486653135266 7.184810000000001
1.2939594142134223 7.073689999999999
1.3162702121660406 6.82768
1.3385810600174564 6.99443
1.3608919586137629 6.329680000000001
1.383202908801069 6.22047
1.405513911425503 5.97642
1.4278249673332093 6.28561
1.4501343378461518 6.17813
1.4724455028545926 5.660480000000001
1.4947567236847858 6.48002
1.517068001182951 5.83861
1.5393793361953272 6.2914699999999995
1.5616907295681737 5.35936
1.5840021821477681 5.2815199999999995
1.60631369478041 4.77597
1.6286252683124185 4.96863
1.6509369035901333 5.31495
1.6732468618895553 5.393680000000001
1.695558623192809 4.28731
1.7178704487808514 5.1312
1.7401823395001077 4.77797
1.7625012545597203 5.00092
1.7848028405262486 5.350969999999999
1.8071218901122095 4.91071
1.8294236121921872 4.27682
1.8517427996910911 4.27222
1.8740620574440425 4.82843
1.8963639900671978 4.647
1.9186833908139995 4.477180000000001
1.9409854680117449 4.46246
1.9633050151394713 4.22066
1.9856246367570705 4.33256
2.0079269371922672 4.585380000000001
2.03024671027244 4.377730000000001
2.0525491637446027 4.18467
2.074869091674931 4.79858
2.097171701569106 4.64962
2.1194917877373847 4.70725
2.141811954326636 4.68072
2.164114805233074 4.82691
2.186435135143035 4.88382
2.208738150935709 8.564639999999999
2.231058647554722 15.2365
2.2533792288321184 12.2359
2.275682498336085 7.03897
2.298003251406138 5.6631800000000005
2.3203066942619714 5.51178
2.3426276225136022 5.36395
2.3649486396617507 5.6368599999999995
2.387252348930071 5.83784
2.4095735463442893 6.15801
2.4318774374315884 6.665939999999999
2.4541988185014043 6.877000000000001
2.476502894794693 7.0018
2.498824462909887 7.27185
2.521146125856138 7.46501
2.5434504863470337 7.57808
2.5657723414244717 7.801
2.588076895590662 8.36613
2.610398946189713 8.394810000000001
2.6327210958598384 8.212710000000001
2.6550259469304716 8.30673
2.6773482972090137 8.41793
2.6996533504259 7.74925
2.7219759047039602 8.30418
2.744298562293959 8.53472
2.7666039251246595 7.62275
2.7889267918020164 8.22975
2.8112323652516555 7.68514
2.833555444408179 8.97
2.8558786311183852 8.66713
2.8781845268938557 8.872869999999999
2.9005079311721484 9.29701
2.9228140460410397 9.01758
2.9451376712799635 9.41843
2.967444008632326 9.56205
2.9897678582247247 9.75515
3.0120918213106695 10.2318
3.0343984987899373 10.4996
3.0567226913198637 10.9796
3.079029599759726 11.624
3.101354025127254 12.3258
3.123678568232338 12.739
3.145985829517914 12.5619
3.16831061055229 13.3075
3.1906181112775593 14.2968
3.212943133635653 15.0732
3.2352682779763207 15.4109
3.2575761442691227 15.3047
3.2799015350264273 16.2098
3.302209649240067 16.1452
3.3245352898092655 16.6653
3.3468436553365257 17.1567
3.369169549113219 17.3705
3.3914955708171384 18.7365
3.413804319727358 19.1553
3.4361305997334863 18.8682
3.4584396084414553 19.4143
3.4807661501462652 19.7017
3.503092824025881 20.4404
3.5254022288463154 20.3848
3.5477291695206588 21.3239
3.5700388426251948 21.9734
3.5923660534916446 23.5321
3.6146934007816114 30.247
3.637003482731501 50.3784
3.6593311053109985 53.7091
3.681641464033634 37.1492
3.7039693653009733 26.7821
3.726297407241705 25.0387
3.7486081875460804 25.054000000000002
3.7709365132734978 25.6113
3.793247578841633 26.1773
3.8155761917550093 26.444000000000003
3.8378875459837216 26.5757
3.8602164494827234 26.8727
3.882545499606844 27.7076
3.9048572932539183 28.189
3.9271866390645718 28.7715
3.9494987298666713 29.1751
3.971828374764527 29.9766
3.9941581705403255 30.6702
4.016470713506008 31.4355
4.038800813471445 31.7088
4.061113662089144 32.1854
4.0834440696459176 33.3345
4.105774632334751 33.6058
4.128087945865126 34.0574
4.150418821249301 34.3101
4.172732448931298 35.7899
4.195063640413578 36.6274
4.2173775856475215 38.9691
4.239709096631102 54.2955
4.262040768704612 123.181
4.284355196706267 156.185
4.306687193387355 108.81200000000001
4.329001947444346 57.6693
4.35133427213731 43.9338
4.373666762177566 43.2578
4.395982011761091 43.1168
4.418314834921175 44.3302
4.44063041906622 48.233000000000004
4.4629635787515625 53.1391
4.4852969080429785 54.2976
4.5076130004776225 52.7122
4.529946671403969 55.9817
4.552263106909177 59.8924
4.574597122877047 56.9334
4.596931312711224 53.8194
4.619248269273446 52.9962
4.6415828092605835 54.0194
4.663900117405352 55.1145
4.686235010953232 56.6632
4.708552674085913 57.792
4.730887924602802 59.3853
4.753223354952695 61.4522
4.775541557023902 64.6185
4.797877349456786 67.9005
4.820195915032126 68.4056
4.842532072957498 67.9389
4.864868414979744 70.4072
4.88718753227192 74.9742
4.909524244902505 75.9619
4.931843734218147 76.0531
4.954180820867835 77.8151
4.976518095879839 80.79
4.998838149695359 83.1016
5.021175803844231 86.4392
5.043496238205739 89.9692
5.065834274903528 94.4503
5.088172504230693 99.3769
5.1104935158799565 105.382
5.132832132875765 124.49
5.155153533596801 155.526
5.1774925416746225 196.174
5.199814334878411 398.098
5.2221537374521505 1019.76
5.244493338631803 2876.81
5.266815727034316 7964.75
5.289155727832427 12438.8
5.311478517248165 8166.43
5.333818921080011 2477.58
5.356159527788849 480.582
5.3784829252032536 190.054
5.400823940070432 151.66
5.423147747031976 129.1
5.445489173474152 118.913
5.467830807066149 118.06299999999999
5.490155234831516 117.978
5.512497285125229 111.249
5.534822130975162 105.477
5.557164601388673 101.574
5.579489868738879 98.2407
5.601832762690846 96.9557
5.6241758697774475 96.3476
5.646501775867269 95.4107
5.668845311622074 94.1903
5.691171647754637 93.7535
5.713515615597765 92.7006
5.735859800852677 92.2556
5.758186788542988 93.2871
5.780531411018185 96.9643
5.802858837297399 97.3689
5.825203900414495 96.9466
5.8475491852224 100.426
5.869877275883075 100.34700000000001
5.892223006467101 95.9665
5.914551544266608 94.3987
5.936897724049891 96.9587
5.959244129804903 103.935
5.981573344815301 130.774
6.0039202049061 238.896
6.026249875609095 474.57
6.04859719346037 965.74
6.070927323278297 2251.13
6.093275102315365 4596.98
6.115623113320588 5217.51
6.137953938319995 3007.18
6.160302415650845 863.951
6.182633708324452 206.345
6.2049826554078376 106.601
6.227331838745022 89.4017
6.249663839443684 82.6826
6.27201349767565 79.2649
6.294345974611799 80.9641
6.316696111167083 84.5406
6.339046488263839 81.3223
6.361379686074702 74.0473
6.383730546639482 69.953
6.406064229255215 69.2481
6.428415576718203 70.3226
6.450749747566656 69.0125
6.47310158535871 66.5126
6.495453669698332 64.6679
6.517788579421056 63.6117
6.540141159237969 62.7084
6.562476565766648 62.2859
6.5848296444934045 62.2532
6.607182974060425 62.5247
6.6295191323281015 62.3432
6.651872965955752 63.1015
6.6742096296068985 73.6356
6.6965639707294615 91.8181
6.71891856698715 90.0845
6.741255995248479 73.1467
6.763611104154477 61.8708
6.785949046381137 58.6599
6.808304671371482 58.8985
6.8306605557940046 60.3975
6.852999275508618 59.3914
6.875355681171544 57.4097
6.897694923437771 56.013000000000005
6.92005185377892 55.4928
6.9423916220322655 55.5934
6.964749080490181 54.96
6.987106804399774 55.2092
7.009447368180821 55.705
7.031805625367033 55.5327
7.054146723727803 55.0917
7.076505517631004 54.7102
7.098864581288365 54.3512
7.121206488070854 54.3651
7.143566093607822 54.5254
7.165908543567245 55.4671
7.188268694426048 56.1796
7.2106291193438095 54.8995
7.232972390625943 54.6736
7.255333366030969 59.993
7.277677189091925 81.4196
7.300038718428332 102.4
7.322400526130865 93.8877
7.344745183422596 68.8952
7.367107550224791 56.6367
7.389452767901992 54.3193
7.411815697249891 54.0896
7.434161478756298 53.3943
7.456524974096713 53.0415
7.478888753837185 53.1193
7.501235387657368 53.3881
7.523599738562711 53.8945
7.545946944825532 54.1585
7.568311870344528 54.3051
7.5906770845765665 54.477
7.613025156078678 55.0874
7.635390950099687 55.7586
7.657739602662809 55.702
7.680105979923558 55.4619
7.702472650212829 56.5449
7.724822180948224 56.0443
7.747189439655568 55.8561
7.769539560075357 55.2761
7.791907410653562 56.0333
7.81425812420825 55.8921
7.836626570110925 56.1634
7.858995315087906 56.9898
7.881346924933401 57.1708
7.903716270417482 57.5834
7.926068482028405 58.0266
7.948438431475253 58.7921
7.9708086843180235 59.0037
7.993161805171116 59.8194
8.015532667162402 60.2926
8.037886398416653 61.5429
8.060257873014221 62.1332
8.082629655331942 63.0513
8.104984308787587 63.6784
8.127356708900503 66.1032
8.149711981398308 70.1712
8.172085002766314 72.2555
8.194458336181368 70.2816
8.216814543847752 68.6463
8.23918850371002 69.1568
8.26154533906492 69.6365
8.283919928836452 71.319
8.306277395339652 72.1856
8.328652618483376 73.4082
8.351028159736202 75.637
8.373386579575245 77.9166
8.395762759396959 79.6543
8.418121819038275 83.3857
8.440498640894003 91.3958
8.462875785192262 102.595
8.485235811156207 126.265
8.507613602688501 176.926
8.529974277114228 258.216
8.552352719347912 381.975
8.574731488360351 656.59
8.59709314210385 1220.88
8.619472567021075 1951.46
8.64183487789147 2212.3
8.664214962183097 1739.67
8.686577933647762 848.544
8.708958680784317 315.66
8.731339760774953 147.22799999999998
8.753703729764451 106.774
8.77608547780821 96.9426
8.798450116065078 93.9126
8.820832535634787 91.6636
8.843215292401656 91.5203
8.865580941199045 91.7445
8.887964374703538 90.994
8.910330701447199 91.4325
8.932714815164482 91.4416
8.955099270424924 88.9363
8.977466620733543 86.1487
8.999851761421976 84.4219
9.022219798361645 83.348
9.04460562795561 83.3195
9.066991803441677 83.2933
9.089360876979615 83.5445
9.111747746589993 83.3269
9.13411751544971 82.2525
9.156505082664324 81.6142
9.178875550323522 81.6458
9.20126381862328 81.2211
9.223652438908596 81.5565
9.246023961427412 81.4824
9.26841328802173 81.2041
9.290785518039224 82.0907
9.313175554425882 84.0135
9.335565947154315 85.475
9.357939245086508 85.8681
9.380330352834827 85.1475
9.40270436697103 85.4057
9.425096193225055 85.0947
9.447488380180165 84.6808
9.469863475295412 84.2482
9.492256385987508 84.3738
9.514632206018318 84.6958
9.537025843935714 84.919
9.559402392368193 86.2951
9.581796761000229 88.8103
9.604191496441521 91.0466
9.626569144158516 93.8542
9.648964615551032 95.4581
9.671343000390081 94.8432
9.693739211225699 93.1705
9.716135793237463 92.3474
9.738515290448102 92.3926
9.760912617143402 93.7661
9.783292860202891 96.2226
9.805690935076182 98.7122
9.828089385495742 99.3867
9.850470754023561 100.65299999999999
9.872869957865444 104.454
9.89525208097539 111.727
9.917652041736662 119.12700000000001
9.940052382417589 126.587
9.962435644102392 150.39
9.984836746950979 189.709
10.007220771957746 245.54
10.029622640473708 343.217
10.052007432299963 520.332
10.074410069984072 835.579
10.096813093716005 1317.17
10.119199042482517 1820.73
10.141602840636468 2001.04
10.163989564971628 1513.44
10.186394141051062 813.328
10.208799107559706 348.584
10.231187001965623 169.761
10.253592751657669 120.02600000000001
10.275981430388155 110.068
10.298387966769793 108.53
10.320794897965431 108.486
10.343184759907361 107.439
10.36559248305461 104.66
10.387983138083852 104.262
10.410391656691655 110.652
10.432800574501677 121.35
10.455192425893369 136.58700000000002
10.47760214443012 162.122
10.499994797678786 208.562
10.522405320453982 294.107
10.54479877906917 425.056
10.567210109595656 537.7
10.5896218454736 579.362
10.612016518879773 487.769
10.634429067781074 321.601
10.656824555333241 184.40900000000002
10.679237920773568 115.069
10.701651695961992 93.5591
10.724048411481384 87.9704
10.746463008485165 85.3511
10.768860546937125 84.0015
10.791275969274796 82.3547
10.81369180576079 81.4376
10.836090585366925 79.9769
10.858507252467449 79.0859
10.88090686379991 78.0588
10.903324365036394 77.4476
10.925724811614439 77.0104
10.948143150509463 77.8128
10.970561909719066 77.6146
10.992963615930844 76.6382
11.015383218085756 74.6027
11.037785768347074 73.0334
11.06020621697282 72.4862
11.082627090322113 71.34
11.105030913430326 70.8676
11.12745263854165 70.6104
11.149857314510728 71.5516
11.172279894912576 74.2186
11.194702904450653 73.9323
11.217108866490921 71.7492
11.239532736615194 69.3465
11.26193956033512 68.6023
11.284364294577085 68.1276
11.306789462371718 66.6516
11.329197585398376 66.3146
11.351623622610898 66.1826
11.37403261614354 65.4326
11.396459526308487 65.2501
11.418869393879497 64.624
11.441297180532617 64.2783
11.463725406927658 64.115
11.486136592353875 63.9239
11.508565700543707 64.2821
11.530977768845315 64.84100000000001
11.553407762368774 65.0098
11.575838200059769 64.7668
11.598251599479612 63.5885
11.620682927815501 62.8994
11.64309721895548 62.9646
11.665529441478206 62.3507
11.687962112597958 62.1092
11.710377748130886 62.0474
11.732811318753434 61.9019
11.755227854859067 62.1503
11.777662328529495 62.2118
11.800079768750786 62.1702
11.822515149015453 62.1908
11.844950984084935 62.2618
11.867369787303163 61.8821
11.889806534289491 61.6995
11.912226250487029 62.005
11.934663912939751 62.2165
11.9571020346363 62.2367
11.979523127133968 62.5621
12.001962169624331 63.7689
12.024384183972964 65.2177
12.046824150809913 68.22399999999999
12.069264581333726 72.3434
12.091687985297767 77.6839
12.11412934550045 86.7133
12.136553680195208 102.791
12.158995973632788 128.208
12.181438735204349 160.222
12.20386447284199 193.33900000000003
12.226308172985636 216.437
12.24873485024193 203.65099999999998
12.271179492516982 165.351
12.293607112949127 117.806
12.316052700916226 87.4894
12.338498763250042 72.3244
12.360927805303868 66.3746
12.383374818673879 64.5115
12.405804812803074 63.4627
12.428252780773262 63.1907
12.45070122756722 63.4523
12.473132656675375 63.5715
12.49558206341869 64.1346
12.518014453510101 64.2439
12.540464823770117 64.1495
12.562915677315177 64.265
12.58534951575545 64.6746
12.607801338171472 65.1676
12.630236146511358 67.6201
12.652688941369085 69.8936
12.675124723177234 70.3337
12.697578494048786 69.1821
12.720032754458185 67.3593
12.742470003354093 66.6438
12.764925245138771 67.0888
12.787363476431278 67.5047
12.809819703166806 67.9234
12.83227642391173 68.6127
12.854716135692716 69.3346
12.877173846755147 70.5194
12.899614549869717 70.6898
12.9220732548287 71.6919
12.94453245827299 72.2544
12.966974655289818 73.4765
12.989434858002571 73.7122
13.011878055298721 74.544
13.034339260862497 75.1742
13.056800969391883 76.6633
13.079245674017244 79.3634
13.101708390774869 83.7203
13.12415410463411 91.7197
13.146617833206086 101.25200000000001
13.169064559883248 111.094
13.191529303857127 125.288
13.213994557076367 148.828
13.236442809902437 188.593
13.258909083908291 248.46200000000002
13.28135835851934 314.175
13.30382565690295 393.207
13.326293469022952 427.695
13.348744283242008 413.39300000000003
13.371213125129904 333.175
13.39366497011003 235.328
13.416134845360597 156.532
13.438605238843131 118.031
13.46105863690397 105.243
13.483530069144786 105.86
13.505984506951902 110.45200000000001
13.528456981549432 120.079
13.550929978879088 135.134
13.573385983253365 161.265
13.595860028340867 201.17
13.618317081455832 258.194
13.64079217790333 316.759
13.663250283359057 364.02099999999996
13.685726434770173 374.897
13.708203115221277 328.353
13.730662806148091 244.649
13.75314054697177 169.67700000000002
13.775601299246777 118.17299999999999
13.798080104050406 92.73100000000001
13.820559442405358 83.5999
13.843021793671388 80.5253
13.865502201420897 79.1231
13.887965623051947 78.82300000000001
13.910447103807167 77.9251
13.932929122629764 76.3274
13.955394156785959 76.1531
13.977877254034569 75.0711
14.000343367582113 74.1946
14.022827546871707 73.5758
14.045294743423524 73.0012
14.06778000837062 72.2581
14.090265817715476 72.2009
14.112734645763819 71.7955
14.13522154619454 71.5102
14.157691466286913 71.2162
14.180179461423874 70.9533
14.202668005486178 70.3581
14.22513957064374 70.0163
14.247629214846473 69.834
14.270101881097517 69.3493
14.29259262906496 69.4426
14.315083930490205 69.7886
14.337558255389705 69.5763
14.360050666019726 69.7122
14.382526101071944 69.1355
14.405019624534942 68.646
14.427513705993134 68.2382
14.449990813291825 68.2004
14.47248601302899 68.1304
14.49496423954951 68.2452
14.517460561197822 68.2741
14.539939910570322 68.2278
14.562437357763558 68.3374
14.58493536931253 68.77199999999999
14.607416409993311 69.0164
14.62991555254159 69.5059
14.652397725157423 69.6068
14.674898002342799 69.6964
14.697398848433282 70.0483
14.719882725991326 71.1661
14.74238471217934 73.3069
14.764869730765593 76.4069
14.787372860692983 79.1964
14.809876564079925 83.0661
14.83236330125751 88.5119
14.854868153850365 97.3596
14.877356041159485 111.624
14.899862046604186 132.07399999999998
14.922351087688757 159.909
14.944858249632887 190.079
14.967365991421232 218.87900000000002
14.989856770231246 229.36700000000002
15.012365673994204 220.183
15.03485761569738 187.525
15.05736768508665 140.586
15.07987833888692 107.208
15.102372032001655 85.5809
15.124883856909658 74.4064
15.14737872204565 71.2487
15.169891721717274 70.0577
15.192405310371893 69.6409
15.214901940621196 69.3231
15.237416709527137 68.8015
15.259914520936249 68.8348
15.282430473753607 67.9206
15.304947020131227 67.4269
15.327446610371178 66.9359
15.349964346154254 66.2055
15.372465126703139 66.1238
15.394984055556009 65.9128
15.417486030076159 65.7146
15.44000615566487 65.062
15.462526881230803 64.9358
15.485030653812652 65.1724
15.507552581617434 65.3477
15.530057557334603 65.4015
15.55258069104857 65.285
15.575104429329837 65.1289
15.597611216864632 65.0404
15.620136166564563 65.7826
15.6426441664095 67.3046
15.665170331202765 70.1057
15.687697105158826 72.4766
15.710206930593545 75.3797
15.732734925158933 79.3105
15.755245972089478 85.4639
15.77777519094324 95.0153
15.800287463046663 109.045
15.822817909869592 129.509
15.84534897229804 152.994
15.867863089299354 177.585
15.890395385222186 195.329
15.912910736597423 197.12400000000002
15.935444269699861 179.63099999999997
15.957978423016485 146.398
15.980495633101265 113.11200000000001
16.003031029129367 88.5515
16.02554948280019 72.1063
16.048086125229432 65.5009
16.070623392487107 63.3876
16.09314371869582 62.4262
16.11568223789321 61.7357
16.13820381691126 60.89
16.160743591742527 60.2038
16.183283996022084 59.5469
16.205807461423195 58.528
16.228349126881973 58.123000000000005
16.25087385432698 58.071000000000005
16.27341678466365 57.5435
16.29594277784926 57.2233
16.31848697676433 57.193999999999996
16.341031811604868 57.2355
16.36355971058487 57.095
16.3861058195587 56.8696
16.40863499352978 56.2584
16.431182380342005 55.5633
16.453730407713202 55.3158
16.476261501364792 55.0479
16.498810812136167 54.7959
16.52134319004079 54.9787
16.54389378792203 54.8067
16.566445031001553 54.6878
16.588979342490088 54.613
16.61153187824822 54.2017
16.634067483263312 54.272
16.656621315414416 54.1009
16.679175797408888 53.7947
16.701713349928728 54.0872
16.72426913389191 54.1588
16.74680798922351 54.1187
16.76936507887444 54.0825
16.791905240734874 54.2184
16.814463639794468 54.0199
16.837022695210294 54.1631
16.859564824093756 54.222
16.882125194503903 54.4666
16.904668639217885 55.0194
16.927230328348003 54.9009
16.949792678493612 55.2156
16.972338104193863 55.0095
16.994901778652235 54.9062
17.017448529496576 55.0346
17.040013531998152 55.3707
17.06257920018044 55.9972
17.0851279459922 56.6604
17.107694947817667 57.4985
17.130245028099072 58.2625
17.15281336730298 59.2949
17.17536478578733 61.3018
17.19793446610687 63.6051
17.220504818648422 66.6501
17.243058251703697 70.4422
17.265629950971032 75.1931
17.288184731571736 80.3481
17.310757781306908 83.8518
17.33333150794385 83.5688
17.355888317140174 80.7965
17.37846339986244 74.8933
17.401021565958885 68.5658
17.42359800851343 63.4829
17.44617513265564 60.6509
17.468735341390783 59.2208
17.491261035594565 58.4545
17.51396340099364 58.4034
17.536490463869136 58.6877
17.559018209820174 58.4639
17.58154663977963 58.4756
17.604251766089718 58.883
17.626781572227713 59.1949
17.64931206518155 59.3117
17.671843245885103 59.6226
17.69455114821572 59.8148
17.717083712612634 59.9291
17.739616967569667 60.4725
17.762150914021706 60.7728
17.78486160749854 60.8949
17.807396945166804 61.9545
17.829932977143503 63.2
17.85246970436452 64.8006
17.875183204129467 66.0691
17.897721330097664 67.8885
17.920260154126645 69.9906
17.942799677153296 73.223
17.9655159983646 77.2478
17.988056927677544 82.7989
18.010598558807683 90.9798
18.033140892692916 101.744
18.05586005052525 113.663
18.07840379824407 125.53299999999999
18.10094825154059 136.028
18.12366954819864 141.484
18.146215420998306 138.57399999999998
18.16876200220057 126.759
18.191309292745153 111.98200000000001
18.214033452627167 98.6958
18.236582170236648 88.8754
18.259131600016456 84.7377
18.281681742907335 86.0607
18.304408781233683 91.0772
18.32696035875955 96.5362
18.349512652227624 102.11200000000001
18.372065662579683 105.2
18.394795594587553 105.115
18.41735004715306 99.9793
18.43990521943684 91.984
18.46246111238171 82.5189
18.485193953325208 74.0914
18.507751296070428 67.7622
18.530309362314178 64.3118
18.552868153000343 62.5118
18.57560391815056 61.2443
18.59816416623245 60.8109
18.620725141597372 60.3969
18.643286845190268 60.089
18.666025549835414 59.6448
18.688588718427933 59.1607
18.711152618092243 58.7827
18.73389353884365 58.7217
18.75645890921984 58.2092
18.77902501351406 58.1048
18.801591852673102 58.1158
18.824335739722738 57.427
18.846904057212626 57.489
18.8694731124168 57.23
18.89204290628315 56.9286
18.914789774966803 56.983999999999995
18.937361054791623 56.4549
18.959933076131318 56.2304
18.982505839934877 56.226000000000006
19.00525570560582 56.448
19.027829963004184 56.3695
19.05040496572238 56.3259
19.072980714710468 56.2979
19.095733592739563 56.599
19.11831084296757 56.6907
19.140888842324735 56.927
19.16346759176222 56.9764
19.18622349753803 57.6117
19.208803755869358 58.5698
19.231384767143577 59.9597
19.253966532312948 61.7916
19.276725481241822 63.7829
19.29930876296784 66.4805
19.3218928014549 69.4274
19.34465404436217 72.6037
19.36723960516257 75.1538
19.389825925592426 75.4183
19.412413006605938 74.1508
19.43517731967805 70.0785
19.457765930683355 65.4512
19.48035530514408 61.0941
19.50294544401556 57.7245
19.525712842708348 55.5267
19.54830451925909 54.3366
19.570896963095727 53.4246
19.593490175174704 53.3552
19.616260674962184 53.4017
19.638855432416964 52.9456
19.661450960992624 53.2836
19.68404726164677 52.9783
19.706820878021247 52.6696
19.729418731756834 52.9138
19.752017360452857 52.6462
19.77461676506804 53.0315
19.797393513540218 53.3248
19.819994478951667 53.449
19.84259622316767 53.8024
19.8651987471481 54.0286
19.887978643247177 54.3348
19.91058273574792 54.906000000000006
19.933187610901943 55.5359
19.955969879466828 56.7256
19.97857632894404 58.3972
20.00118356396599 60.4428
20.023791585494575 62.5917
20.046577028914875 65.5593
20.069186632506966 67.6002
20.091797025500632 69.4583
20.114408208858933 69.6292
20.137196842715273 68.7259
20.159809615886765 66.8478
20.18242318232135 64.3233
20.20503754298326 62.3526
20.227829382875154 61.3639
20.250445341109344 61.6081
20.27306209647285 62.6997
20.29567964993108 64.0375
20.31847471147704 64.9898
20.34109387027612 65.2075
20.363713830075454 64.2658
20.386334591841646 62.6328
20.409132890679302 59.8578
20.431755265564437 56.607
20.454378445325528 54.0089
20.477002430930366 52.4926
20.499803982716553 51.2305
20.522429589228004 50.5258
20.54505600449589 50.0831
20.567683229489194 49.9355
20.590488049900088 49.7681
20.61311690359731 49.6147
20.63574656993626 49.6123
20.658553853717297 49.2631
20.681185154618298 49.0546
20.703817271080066 48.9806
20.72645020407368 48.4667
20.749260783967177 48.4469
20.771895359337133 48.5179
20.794530754161617 48.4655
20.817166969412938 48.5127
20.83998086114876 48.1987
20.86261872660049 48.1519
20.885257415405402 48.159
20.90789692853701 48.0779
20.930714147864748 48.137
20.953355319030678 48.1039
20.97599731745334 48.0836
20.99864014410749 47.8887
21.021460706796564 47.8939
21.044105199328826 48.3526
21.06675052302631 48.3873
21.089396678865015 48.6603
21.112220600704806 48.9399
21.134868430275347 49.504
21.15751709492456 49.6387
21.180166595629693 50.0692
21.202993892429635 50.4346
21.22564507473034 50.8048
21.24829709602816 51.0106
21.27112693608965 50.8595
21.293780644891275 50.8458
21.316435195634053 50.0849
21.339090589297417 49.3418
21.361923832041875 48.903999999999996
21.384580921090404 48.2011
21.407238856007325 47.8486
21.429897637773326 47.7166
21.45273429906592 47.9178
21.475394784108598 47.8497
21.498056118951983 47.9259
21.520718304578022 48.0019
21.543558400304388 48.1871
21.566222297108816 48.3623
21.58888704765135 48.5629
21.61155265291521 48.8067
21.63439619898156 49.2056
21.657063523335786 49.5007
21.67973170537063 49.8346
21.7024007460706 50.3461
21.72524775840385 51.2173
21.747918526116475 52.3008
21.770590155457388 53.7281
21.79326264741238 55.309
21.816113141960237 57.0143
21.838787368860547 59.0356
21.861462461341976 61.1316
21.884315579735777 62.897
21.90699241312273 63.6858
21.92967011506078 64.0203
21.95234868653799 63.4905
21.9752053151131 61.9141
21.997885635446785 59.8469
22.020566828293532 57.9802
22.04324889464272 56.58
22.066109049404666 55.7194
22.088792872571794 55.5605
22.111477572219204 55.6697
22.1341631493376 55.687
22.157026846313123 55.2616
22.179714188221507 54.506
22.202402410582668 53.114
22.22509151438863 51.7851
22.24795876962584 50.3968
22.270649646204486 49.688
22.293341407213727 49.1111
22.316034053646906 48.6936
22.338904883215342 48.4645
22.36159931041458 48.3829
22.38429462602756 48.2744
22.40699083104897 48.0232
22.429865251039757 47.9774
22.452563244831367 48.3347
22.47526213102522 48.3311
22.49813925616515 48.2143
22.520839937143307 48.1209
22.543541513520587 48.2468
22.56624398629403 48.1224
22.589124730075895 47.9611
22.611829005656723 48.2898
22.63453418063466 48.2692
22.657240256008077 48.4887
22.680124634582935 48.55
22.70283252079775 48.68899999999999
22.725541310413075 48.975
22.74825100442868 49.2634
22.771139033969575 49.7386
22.79385054687155 49.9307
22.81656296718292 50.7283
22.83927629590484 51.68600000000001
22.862167992606945 52.8524
22.88488314827121 53.9804
22.907599215359284 55.16
22.93031619487366 56.1904
22.953211574954405 57.1281
22.975930389478226 57.5153
22.998650119445763 57.4375
23.02137076586092 56.6303
23.044269845560063 54.9176
23.06699233506288 53.3079
23.089715744034912 51.5795
23.112617610931565 50.1022
23.135342869061212 49.1992
23.158069049684816 48.588
23.1807961538087 48.2748
23.20370174880544 48.391000000000005
23.226430710184808 48.3232
23.249160598093425 48.4362
23.271891413539002 48.2974
23.294800752937697 48.3447
23.31753343374794 48.5594
23.340267045128353 48.633
23.36300158808808 48.9808
23.38591468821339 49.4166
23.408651104658304 49.7809
23.431388455719986 50.2467
23.454126742409 51.2577
23.4770436196085 52.3702
23.499783787914662 53.6632
23.522524894889884 54.8422
23.54526694154616 55.8461
23.56818761219047 56.8811
23.59093154860734 57.3151
23.613676427751283 57.5026
23.636422250635754 56.2196
23.659346731118656 54.3899
23.68209445191868 52.413999999999994
23.704843119509587 50.3718
23.72759273490623 48.5772
23.750521041644767 47.3742
23.77327256312355 46.4719
23.796025035462787 45.8117
23.818956224555475 45.4561
23.841710609113413 45.4835
23.86446594758979 45.3047
23.887222241002014 45.028
23.910157285144578 44.6715
23.932915498962537 44.6841
23.955674670778713 44.4222
23.978434801611975 44.3197
24.001373717286125 44.3037
24.024135776723917 44.103
24.046898798245582 44.1205
24.06966278287146 43.9571
24.092605586582614 43.8968
24.115371508023642 43.668
24.1381383956401 43.5157
24.16090625045381 43.4444
24.183852958731244 43.2897
24.206622758582608 43.2577
24.229393528706886 43.1888
24.252165270127392 43.2466
24.27511589952438 43.113
24.297889594216997 42.8905
24.32066426328598 42.8508
24.34343990775613 42.7717
24.36639447485003 42.6032
24.38917208083877 42.5559
24.41195066531332 42.4651
24.43490819850244 42.6523
24.457688750692377 42.6094
24.48047028445616 42.4845
24.503252800821233 42.5131
24.526214300784112 42.6174
24.548998793132213 42.4701
24.57178427117417 42.3808
24.59457073593893 42.5509
24.617536219319863 42.5523
24.64032466834748 42.515
24.663114107195035 42.3943
24.685904536893013 42.0179
24.708874020360852 41.9414
24.731666442613744 41.8904
24.754459858818787 41.8183
24.777254270007962 41.7667
24.80022777025625 41.7776
24.82302418230472 41.6992
24.845821592443674 41.8764
24.86862000170663 41.7877
24.891597535453727 41.5613
24.914397953892728 41.8085
24.93719937456671 41.6304
24.96000179851076 41.9441
24.98298338249997 42.1366
25.00578782394922 42.4004
25.028593271784167 42.6199
25.05157790644186 42.743
25.07438537804115 42.8427
25.097193859145293 43.1776
25.120003350792075 43.291000000000004
25.142992065061257 43.7705
25.165803588823465 44.1409
25.18861612625217 44.2443
25.211429678386736 44.1826
25.234422489079968 44.2247
25.257238081693636 44.281000000000006
25.280054692141732 44.449
25.3028723214652 44.5269
25.325869245420463 44.5044
25.348688923599397 44.5833
25.371509623787006 44.3951
25.394331347025812 44.0058
25.41733240110666 43.4455
25.440156181590016 42.8338
25.46298098826268 42.3445
25.48580682216873 41.74
25.50881202326435 41.3409
25.53163992281684 40.8518
25.55446885274561 40.7454
25.577298814096377 40.4915
25.600308179121807 40.4019
25.623140214533745 40.562
25.64597328451537 40.4478
25.66898578564376 40.0606
25.691820936010206 40.1111
25.714657124097695 40.1457
25.737494350954734 40.1184
25.760511045684957 39.9411
25.783350361364224 40.1126
25.806190718969255 40.0452
25.82903211955018 40.168
25.852053024868923 40.1426
25.874896522722523 40.1089
25.897741066713106 40.1131
25.920586657892454 40.3788
25.943611790812668 40.5173
25.966459487728237 40.5979
25.989308234998564 40.5709
26.01215803367705 40.9115
26.03518741123814 41.1751
26.05803932412957 41.1643
26.080892291600094 41.1665
26.10374631470478 41.1513
26.12677995397268 41.1468
26.14963609978026 41.2242
26.172493304397875 40.8266
26.19535156888223 40.6586
26.218389486949604 40.1776
26.241249882640123 39.9517
26.26411134137826 39.7738
26.28715248187403 39.7799
26.31001607820869 39.5467
26.3328807407756 39.5463
26.35574647063438 39.7027
26.37879191991473 39.614000000000004
26.401659795896734 39.6718
26.424528742360263 39.829
26.447398760366614 39.9734
26.470448535598294 40.1142
26.49332070826805 40.3484
26.516193955675355 40.6491
26.53906827888316 40.8513
26.562122397260108 41.02
26.584998883685063 41.4371
26.607876449110325 41.618
26.63075509460056 41.6777
26.65381357334404 41.839
26.67669439061878 41.76
26.699576291163382 41.516999999999996
26.722459276044212 41.4275
26.745522132402975 41.0976
26.768407297649354 40.8701
26.791293550442003 40.5274
26.814180891848974 40.2794
26.837248143099337 40.1181
26.860137673466657 40.0632
26.88302829566349 39.759
26.90592001075963 39.4115
26.92899167420566 39.411
26.951885586870763 39.0451
26.974780595655517 38.795
26.99785558178161 38.7154
27.020752794605112 38.5863
27.043651106772522 38.4283
27.06655051935668 38.5827
27.089629948036183 38.3267
27.112531573292053 38.3723
27.135434302194138 38.4
27.158338135817015 38.1349
27.181422024430987 38.1528
27.204328079372566 38.0688
27.22723524226965 38.016999999999996
27.250143514198573 38.1918
27.273231880156334 38.1561
27.296142382065014 37.9995
27.319053996245536 37.9332
27.341966723775965 38.0584
27.365059584515222 38.1307
27.38797455070062 38.2298
27.410890633481237 38.1106
27.433807833936918 38.074
27.456905206923906 38.2019
27.47982465472398 38.1146
27.502745223449743 37.973
27.525666914182825 38.3179
27.548768816912457 38.173
27.571692763693633 38.1602
27.59461783573812 38.0195
27.617723149491244 37.7679
27.640650484125285 37.6894
27.66357894728264 37.6404
27.686508540048052 37.5544
27.709618414237887 37.5629
27.732550278321757 37.3803
27.755483275279115 37.414
27.778417406196485 37.6049
27.801531858397514 37.4482
27.824468269376716 37.3384
27.847405817586786 37.4864
27.870344504116094 37.663000000000004
27.893463551932008 37.7029
27.916404527281053 37.8487
27.93934664422563 37.9399
27.962289903855886 38.2088
27.98541356491974 38.3452
28.00835912214229 38.4696
28.03130582533231 38.6815
28.054253675581805 38.8884
28.077381967556104 38.7504
28.100332124185126 38.6813
28.123283431160893 38.4336
28.146235889577238 38.3868
28.169368830154156 38.1745
28.192323603752033 38.0029
28.215279532083304 37.7455
28.238415973016764 37.5059
28.261374223145094 37.3114
28.284333631303806 37.1387
28.307294198589954 36.9382
28.330435319167677 36.5887
28.353398217078915 36.3298
28.376362277420153 36.2435
28.39932750129032 36.0983
28.422473319286713 35.9485
28.44544088262495 36.009
28.468409612800283 35.78
28.491379510913497 35.4902
28.51453004413313 35.5436
28.53750229057244 35.4828
28.56047570826344 35.5155
28.583450298308804 35.5904
28.606605564586562 35.3358
28.629582511831156 35.3681
28.65256063474956 35.2688
28.675539934446338 35.3337
28.698699951647605 35.2777
28.72168161743193 35.1721
28.74466446331978 35.2598
28.767648490417624 35.1031
28.790813276438353 35.0711
28.813799678527303 35.0917
28.836787265157085 35.0191
28.859955641890075 35.1355
28.882945610203045 35.0924
28.905936766392035 35.008
28.928929111566863 35.0212
28.952102288520145 34.8999
28.975097024308607 34.77
28.998092952423807 34.6253
29.021090073977508 34.5358
29.04426806913204 34.4985
29.067267590245258 34.2005
29.090268308143695 34.1458
29.11327022394099 34.1379
29.13645305530891 34.1263
29.159457379627167 34.1183
29.18246290519685 33.9524
29.20546963313352 33.9067
29.22865731875826 34.0143
29.25166646419296 34.0287
29.27467681535305 33.8353
29.29768837335608 33.9331
29.320880931312562 33.9864
29.34389491580634 33.9626
29.366910110507334 33.8581
29.38992651653503 33.9991
29.41312396492981 33.8679
29.436142806456754 33.7493
29.45916286268059 33.6483
29.48236399319994 33.5103
29.50538649169417 33.3531
29.528410208259935 33.2518
29.55143514402014 33.2801
29.574641196749695 33.0634
29.597668583816574 32.9252
29.6206971934585 32.6969
29.64372702680042 32.7472
29.666938019934474 32.7171
29.689970313635285 32.5957
29.713003834422636 32.6937
29.73603858342347 32.5847
29.759254535188578 32.5313
29.78229175361658 32.4232
29.80533020365064 32.4655
29.82836988641968 32.5587
29.85159081507472 32.4281
29.874632976355343 32.4083
29.89767637376955 32.4173
29.920721008448314 32.3634
29.9439469322847 32.2216
29.96699405457564 32.1347
29.9900424175358 32.2404
30.013092022298157 32.1392
30.03632295963995 32.0528
30.059375061131373 32.2206
30.08242840783577 32.2834
30.105483000888153 32.1156
30.128718970092244 32.0434
30.151776069006917 32.077
30.17483441768648 32.1941
30.198074175317235 32.0357
30.221135036724256 32.0662
30.24419715131772 32.0273
30.267260520236203 31.8947
30.290505341942243 31.9376
30.313571232750228 31.9378
30.336638381310948 31.9823
30.35970678876503 31.9147
30.38295669299435 31.9162
30.40602763151657 31.8703
30.429099832366074 31.7216
30.452173296685572 31.7414
30.47542830191959 31.721999999999998
30.498504306502497 31.711
30.521581577995562 31.7678
30.544660117543582 31.8347
30.56792024229725 31.8181
30.59100133132069 31.9274
30.614083691845494 31.7977
30.637167325018545 31.7962
30.660432587840603 31.8768
30.683518779717886 31.8583
30.70660624769615 31.971
30.729694992924372 31.871
30.75296541239743 31.8745
30.77605672557558 31.855
30.799149319462742 31.7241
30.8224236211637 31.682
30.845518789950724 31.5893
30.868615242910597 31.4751
30.891712981195973 31.323
30.91499247215866 31.1563
30.938092794619365 31.2318
30.96119440587579 31.0726
30.984297307082752 30.9783
31.00758200598383 30.9093
31.030687500658694 30.8175
31.053794288760695 30.8095
31.076902371446767 30.778000000000002
31.100192296997445 30.8003
31.12330298246119 30.7137
31.14641496599209 30.66
31.169528248749216 30.6591
31.19282341969534 30.6045
31.215939314557186 30.5192
31.239056512134788 30.5727
31.262175013589378 30.5951
31.28547544871168 30.615
31.30859657161541 30.5751
31.331719001892175 30.5312
31.35484274070538 30.5129
31.378148458819545 30.6212
31.401274828443725 30.6278
31.424402510106933 30.6343
31.447712205419993 30.6908
31.470842524931633 30.5166
31.493974159989783 30.5504
31.51710711176168 30.483
31.54042212308802 30.4928
31.563557722100917 30.3944
31.586694641341655 30.3354
31.609832881979628 30.186999999999998
31.63315322823208 30.1458
31.656294125521327 30.0087
31.679436347728515 29.9931
31.70257989602529 29.8264
31.725905596152327 29.8028
31.74905181052835 29.8578
31.772199354521323 29.8636
31.79534822930507 29.8103
31.818679302290967 29.8798
31.84183085259981 29.8004
31.864983737233473 29.7692
31.88813795736804 29.8685
31.911474422233013 29.7604
31.934631327356435 29.791
31.9577895715215 29.7068
31.980949155906522 29.706
32.004291031706956 29.6761
32.027453310562606 29.625999999999998
32.05061693318573 29.508000000000003
32.07396288236386 29.5489
32.09712920658542 29.3876
32.12029687812702 29.2309
32.14346589817093 29.1535
32.166817291729984 29.1886
32.18998902288583 29.1609
32.21316210610336 29.0563
32.23633654256711 28.9664
32.259693399663725 28.9538
32.282870556771144 28.8424
32.30604907069099 28.9218
32.329228942610065 28.8358
32.35259128243769 28.6941
32.375773884550505 28.6316
32.398957848235646 28.6184
32.422143174682176 28.5212
32.445511016471215 28.5304
32.468699082679954 28.4768
32.49188851523011 28.3507
32.51507931531304 28.3206
32.538452678331 28.2985
32.56164622776311 28.2048
32.58484114831493 28.1922
32.60803744118015 28.2703
32.631416344731896 28.1801
32.654615396551876 28.1005
32.67781582427913 28.0629
32.701198898634416 27.9846
32.72440209253756 27.9189
32.747606665947124 28.0524
32.77081262006088 27.9069
32.79420126883317 27.9377
32.81740999876112 27.88
32.840620112999424 27.8021
32.86383161274818 27.778000000000002
32.88722585534586 27.7326
32.91044014056596 27.8219
32.933655814909734 27.7548
32.95687287957963 27.6889
32.98027273544904 27.6106
33.00349259526636 27.5733
33.026713849030116 27.5976
33.04993649794511 27.5594
33.073341986570746 27.56
33.09656744032826 27.5308
33.11979429286444 27.516
33.14302254538647 27.5438
33.166433686291185 27.4357
33.18966475336992 27.4922
33.212897224069096 27.3391
33.23613109959831 27.2715
33.259547912343415 27.247
33.2827846121627 27.3445
33.306022720453775 27.1337
33.32926223842861 27.0071
33.352684742614166 27.1109
33.37592709463173 27.0693
33.399170859982064 27.0025
33.422597648419426 26.918000000000003
33.44584425514446 26.8797
33.46909227885668 26.7908
33.4923417207723 26.6454
33.51577423505344 26.7001
33.539026528130385 26.5574
33.56228024307245 26.5692
33.585535381098246 26.5149
33.60897364093058 26.4436
33.63223163992385 26.4546
33.6554910656699 26.2538
33.678751919389796 26.3371
33.702195944520106 26.3185
33.72545966903325 26.3232
33.74872482519663 26.2426
33.771991414233746 26.2657
33.79544122444841 26.2423
33.81871069412428 26.1751
33.84198160035767 26.087
33.86525394437455 26.1426
33.88870955949969 26.1103
33.911984794020626 26.0352
33.93526147001624 26.0344
33.958539588715006 25.8922
33.98200102861669 25.8183
34.0052820477047 25.7622
34.02856451319451 25.845
34.05203033759056 25.7642
34.07531571090147 25.6614
34.09860253431845 25.645
34.121890809074316 25.6197
34.145362493118924 25.6137
34.16865368561615 25.5948
34.191946333164054 25.5093
34.21524043699793 25.4848
34.23871800066799 25.4794
34.26201503218366 25.4101
34.28531352370466 25.3615
34.30861347646881 25.2871
34.33209693978188 25.2668
34.3553998301885 25.2694
34.378704185565205 25.2002
34.402010007152356 25.1028
34.42549939016683 25.1005
34.44880815937748 24.9759
34.472118398533134 24.9366
34.49543010887669 24.9297
34.51892543169198 24.8844
34.54224009966052 24.91
34.56555624255917 24.878
34.58887386163339 24.7511
34.61237514439016 24.8095
34.6356957311114 24.6772
34.65901779775809 24.6565
34.68252356662995 24.6835
34.705848608458616 24.6753
34.72917513396849 24.6115
34.75250314440949 24.5493
34.77601490857862 24.5165
34.799345904259795 24.4593
34.82267838863559 24.4486
34.846012362958525 24.4099
34.869530142679984 24.3609
34.89286711232212 24.4104
34.91620557568269 24.3183
34.93954553401677 24.2394
34.9630693495876 24.2039
34.986412313340814 24.2372
35.00975677584668 24.198
35.033102738362956 24.1539
35.05663261012228 24.083000000000002
35.0799815881786 24.0988
35.10333207003229 24.0312
35.12668405694369 24.0059
35.150220005273056 23.9892
35.17357501786656 24.0127
35.19693153931268 23.9108
35.220289570874385 23.9591
35.24383161619786 23.9407
35.267192683604904 23.9367
35.290555264930376 23.8725
35.314101899412165 23.8151
35.33746752422433 23.7956
35.36083466676374 23.7656
35.38420332829803 23.7087
35.407756095629054 23.7835
35.43112781085063 23.7254
35.45450104888391 23.6649
35.477875810999194 23.6551
35.50143473172161 23.522
35.52481255774625 23.6517
35.54819191167777 23.5155
35.57157279478914 23.5447
35.595137889488406 23.456
35.61852184675279 23.4496
35.641907337029984 23.3507
35.665294361595684 23.3039
35.68886565090076 23.2832
35.7122557598848 23.2885
35.73564740699838 23.2225
35.759040593519934 23.2525
35.78261809810353 23.2177
35.80601437933051 23.1228
35.829412203814705 23.0681
35.85281157283719 22.9855
35.876395313415884 23.0456
35.8997977874528 23.0635
35.92320180988546 22.9678
35.946790244133936 22.8977
35.97019737933222 22.9247
35.993606066789866 22.8011
36.01701630779276 22.8095
36.04061101440684 22.7372
36.06402437852291 22.8506
36.08743930005611 22.7945
36.1108557802951 22.6032
36.13445678011326 22.5934
36.15787639383515 22.6411
36.18129757014299 22.5695
36.20472031032821 22.5828
36.22832762423364 22.4469
36.25175350829375 22.4267
36.275180960119776 22.3771
36.298609981005924 22.3812
36.32222362992669 22.4336
36.34565580510207 22.3902
36.36908955323448 22.2556
36.39252487562093 22.188000000000002
36.416144880530226 22.1923
36.43958336764275 22.1876
36.463023432914625 22.1931
36.486465077645676 22.1207
36.51009145956204 22.1471
36.53353627947859 22.1364
36.55698268276811 22.1146
36.58043067073321 22.053
36.60406345072071 21.8736
36.62751462435344 21.9307
36.65096738658405 21.9625
36.67460498210655 21.9488
36.69806093788647 21.8896
36.72151848619297 21.7679
36.744977628333636 21.8895
36.76862165890998 21.7499
36.79208400512205 21.7435
36.81554794910557 21.7038
36.83901349217101 21.6278
36.862663978991606 21.615
36.88613273667352 21.6459
36.90960309738324 21.5787
36.933075062434064 21.5497
36.95673202673572 21.4462
36.98020721697122 21.4499
37.003684015502365 21.3579
37.027162423645365 21.3395
37.050825886711465 21.3164
37.07430753063053 21.206999999999997
37.09779078812467 21.2355
37.121275660513014 21.1966
37.144945643673694 21.1754
37.16843376245278 21.1536
37.19192350009803 21.1488
37.215414857931435 21.066999999999997
37.239091382563885 21.0362
37.262585997426164 21.0555
37.28608223645736 21.1317
37.309763684451696 20.980999999999998
37.33326318851098 20.9254
37.356764320726555 20.9263
37.380267082425526 20.8877
37.40395510942588 20.9058
37.42746114683234 20.813000000000002
37.45096881771841 20.7911
37.474478123414166 20.8139
37.49817275092816 20.7319
37.52168534303452 20.6819
37.54519957395567 20.5652
37.568715445024665 20.6238
37.592416694607714 20.6136
37.61593586281424 20.6304
37.63945667518264 20.6446
37.66297913304891 20.4216
37.68668702630454 20.493000000000002
37.710212792059274 20.3632
37.733740207334854 20.3765
37.757269273470364 20.392
37.780983832050374 20.3114
37.80451621684926 20.2946
37.82805025654007 20.2297
37.851585952464795 20.211
37.8753071980695 20.1333
37.89884622345676 20.1337
37.92238690911902 20.1165
37.94611318753442 20.0925
37.969657210779765 20.0771
37.99320289834801 20.0632
38.016750251586465 20.0478
38.04048325513017 19.9659
38.06403395679343 19.9308
38.087586328183946 19.9597
38.11114037065203 19.9088
38.13488012115898 19.9224
38.1584375229181 19.7868
38.181996599821 19.7517
38.205557353221124 19.7435
38.229303872575656 19.6696
38.2528679961576 19.6789
38.27643380031219 19.5776
38.30000128639589 19.6002
38.32375459653193 19.563
38.34732546371299 19.6515
38.37089801690786 19.5441
38.39447225747609 19.4253
38.418232380377425 19.4727
38.441810012983396 19.4486
38.46538933705673 19.4505
38.488970353960084 19.3802
38.51273731166058 19.3699
38.536321731567014 19.3071
38.55990784840681 19.2918
38.58367995004091 19.2036
38.60726947812959 19.1868
38.63086070726198 19.1961
38.654453638806274 19.1781
38.678232613930824 19.0821
38.70182896773327 19.032
38.72542702806741 19.0914
38.7490267963045 19.0601
38.77281266709232 18.955
38.79641586862214 18.9341
38.8200207821842 18.9464
38.843627409152944 18.9469
38.86742019782782 18.9058
38.891030269149255 18.8959
38.914642058016156 18.8451
38.938255565806124 18.804000000000002
38.96205529464307 18.7793
38.98567225787121 18.7616
39.00929094417078 18.7233
39.03291135492255 18.7473
39.05671804624804 18.676
39.080341923549106 18.6868
39.103967529460334 18.6749
39.127594865365744 18.5402
39.15140854155791 18.4975
39.17503935514948 18.4599
39.19867190290282 18.4846
39.22249083587951 18.432000000000002
39.24612686969409 18.4098
39.269764641845306 18.4284
39.293404153722804 18.3349
39.317230110864074 18.2634
39.34087311998506 18.2544
39.36451787301696 18.2428
39.388164371352595 18.1746
39.41199737518003 18.189
39.43564738196752 18.1355
39.45929913825317 18.0678
39.48295264543308 18.1601
39.506792718520884 18.098
39.530449745387216 18.0046
39.55410852735203 18.0129
39.57776906581474 18.0463
39.60161623079 18.0006
39.625280300200025 17.9586
39.64894613032202 17.8655
39.67261372255866 17.8551
39.6964680021016 17.861
39.72013913657293 17.8543
39.74381203738292 17.8548
39.76748670593756 17.8468
39.79134812278169 17.7797
39.81502634488497 17.7862
39.83870633896685 17.7274
39.862388106436654 17.6378
39.88625668336918 17.5829
39.90994201572829 17.5947
39.933629125719285 17.5677
39.957503091207826 17.4986
39.9811937746168 17.5244
40.00488623990914 17.5117
40.02858048850006 17.4349
40.05246165409549 17.4316
40.076159487492085 17.3893
40.099859108448875 17.4037
40.123560518384345 17.3718
40.1474489070226 17.3574
40.171153913178564 17.269000000000002
40.194860712584955 17.2949
40.2185693066637 17.2268
40.242464941335314 17.2076
40.26617714307655 17.2319
40.289891143772046 17.1955
40.3136069448471 17.1526
40.33750984859743 17.1119
40.3612292688043 17.0945
40.3849504936829 17.0701
40.40867352466194 17.039
40.43258372059144 16.9748
40.45631038219906 16.9999
40.48003885420956 16.9338
40.503769138055105 16.9294
40.52768664931955 16.9306
40.55142057531802 16.9314
40.57515631746428 16.8874
40.599079334038514 16.8703
40.62281872700477 16.7239
40.64655994043941 16.7733
40.67030297578061 16.713
40.69423334835778 16.708
40.71798004609188 16.679000000000002
40.74172857006355 16.6566
40.76547892171441 16.6237
40.7894166736039 16.6027
40.813170699248566 16.5352
40.83692655691388 16.5163
40.86068424804498 16.6278
40.884629402612525 16.5252
40.908390779366385 16.4936
40.932153993938 16.4193
40.95591904777605 16.3603
40.979871628443995 16.4076
41.003640379561936 16.3694
41.02741097430883 16.3949
41.05118341413683 16.3277
41.075143444384416 16.2866
41.098919593177826 16.3454
41.1226975914255 16.2686
41.14647744058318 16.2466
41.170444943946755 16.1579
41.19422851378379 16.1881
41.218013938914645 16.1065
41.24198706625173 16.0494
41.26577622087193 16.0076
41.289567235177785 16.0111
41.31336011063129 16.0368
41.337340752422875 16.0091
41.361137369129835 15.9906
41.38493585138705 15.9525
41.40873620066004 15.9069
41.43272438060107 15.9152
41.45652848292052 15.897
41.48033445666918 15.8551
41.50414230331616 15.8314
41.528138045159764 15.7853
41.551949656675205 15.7854
41.575763145513235 15.6924
41.59957851314666 15.6641
41.62358184070442 15.6507
41.64740098505737 15.6687
41.6712220126409 15.6288
41.69504492493139 15.5631
41.71905586207357 15.6109
41.74288256296395 15.5627
41.766711153007456 15.512
41.79054163368412 15.449000000000002
41.814560204340054 15.478
41.838394485526365 15.4283
41.86223066180303 15.4623
41.88625497706819 15.3681
41.910094962812 15.3808
41.93393684811168 15.3958
41.95778063445365 15.307
41.981812625263366 15.2681
42.00566023303407 15.2299
42.029509746323676 15.2224
42.05336116662236 15.2345
42.077400857069705 15.1982
42.10125611078846 15.1193
42.12511327600405 15.0814
42.14897235421036 15.1192
42.173019768448455 15.0989
42.19688269209613 15.0284
42.22074753323349 15.0011
42.24461429335818 15.0033
42.268669455600495 14.948
42.292540073217886 14.9458
42.31641261433284 14.9414
42.34028708044675 14.9143
42.36435001496739 14.8918
42.38822835065557 14.8625
42.41210861586426 14.8074
42.4359908120986 14.8309
42.46006154323262 14.7847
42.48394762115317 14.7488
42.507835634632315 14.7311
42.531912233047436 14.7191
42.55580413732265 14.6782
42.579697981698 14.6497
42.60359376768525 14.5925
42.62767820545945 14.5898
42.65157789440821 14.5518
42.67547952952185 14.5644
42.699383112316 14.5442
42.72347541395347 14.4537
42.74738291190531 14.4214
42.771292362102166 14.4696
42.795203766063516 14.4747
42.819303956130405 14.4138
42.843219287476536 14.3769
42.86713657716324 14.3794
42.89105582671383 14.3476
42.91516392983864 14.3076
42.939087119032166 14.2604
42.963012272677304 14.2627
42.98693939230129 14.2167
43.01105543317513 14.2212
43.034986504731386 14.1505
43.05891954686589 14.1566
43.08285456110972 14.1646
43.10697856448665 14.0906
43.130917542983475 14.0908
43.15485849820081 14.0634
43.17880143167367 14.0049
43.20293342237094 14.0028
43.226880332449 13.9829
43.25082922540554 13.9658
43.27496722682525 13.9832
43.29892010567796 13.9361
43.32287497204102 13.8589
43.34683182745632 13.8623
43.370977859791836 13.8436
43.39493871351105 13.838
43.41890156092628 13.8306
43.44286640358341 13.8129
43.46702049182749 13.7533
43.49098934522816 13.7493
43.51496019852649 13.7191
43.5389330532723 13.7068
43.56309522248204 13.6756
43.58707210044314 13.6505
43.61105098451946 13.5679
43.63503187626491 13.583
43.659202151562134 13.589
43.68318707902681 13.5042
43.70717401884041 13.5267
43.731162972560874 13.5109
43.75534137913236 13.4362
43.779334381108384 13.4243
43.803329401683186 13.3927
43.82732644241872 13.3842
43.8515130055166 13.3988
43.87551410707659 13.3699
43.89951723350145 13.3463
43.923709934595614 13.3384
43.94771713129917 13.2655
43.97172635758096 13.263
43.99573761501002 13.2319
44.0199385169922 13.2187
44.04395385732619 13.1836
44.067971233533086 13.1567
44.09199064718605 13.1365
44.11619977548961 13.0989
44.14022328470671 13.079
44.16424883610785 13.1047
44.18827643127035 13.0641
44.21249381139513 13.005999999999998
44.236525514814076 12.9728
44.26055926674478 12.979000000000001
44.28459506876863 13.0009
44.3088207262813 12.9561
44.33286064928722 12.9283
44.35690262714919 12.9455
44.38094666145278 12.8744
44.4051806219871 12.8636
44.42922879003185 12.8409
44.45327901929361 12.7676
44.477331311362136 12.7703
44.501573600619416 12.7734
44.525630039221795 12.8005
44.54968854541895 12.7943
44.573937102200176 12.7227
44.5979997645541 12.7451
44.622064499300315 12.6722
44.64613130803592 12.5895
44.67038823869318 12.6382
44.69445921643748 12.5824
44.718532272981385 12.5551
44.742607409926194 12.5785
44.76687274034801 12.5801
44.79095205918753 12.5487
44.81503346325094 12.4467
44.839116954143876 12.4259
44.86339071028742 12.4565
44.88747839599524 12.4036
44.91156817336837 12.3798
44.93566004401666 12.4046
44.959942251908146 12.385
44.984038330325966 12.3374
45.00813650686762 12.2833
45.03223678314731 12.2609
45.05652746888232 12.2331
45.08063196592069 12.2237
45.104738567558705 12.2162
45.128847275414856 12.196
45.15314646515866 12.1608
45.17725940679741 12.1807
45.20137445952892 12.1153
45.22568004865265 12.1096
45.24979934496396 12.1185
45.27392075725247 12.0838
45.29804428714431 12.043
45.322358426247604 12.0235
45.346486212804315 12.0083
45.370616121861914 12.0129
45.39474815505086 11.9881
45.41907087049246 11.9208
45.4432071734666 11.9153
45.46734560548283 11.904000000000002
45.49148616817604 11.8984
45.51581748638564 11.8428
45.5399623320197 11.8335
45.56410931325473 11.7892
45.58825843173002 11.8202
45.61259837920865 11.7803
45.636751793816 11.7444
45.66090735060093 11.7164
45.68506505120716 11.7201
45.7094136545275 11.6884
45.73357566449271 11.6357
45.75773982322992 11.6548
45.78190613238733 11.6416
45.806263418194064 11.5846
45.83043404997326 11.5589
45.85460683713677 11.5396
45.87897065658495 11.537
45.90314777634752 11.527000000000001
45.92732705646868 11.5333
45.9515084986045 11.495
45.97588104735473 11.491
46.00006683541565 11.4485
46.02425479047904 11.4074
46.04844491420549 11.3749
46.0728262191024 11.3783
46.09702070211635 11.3976
46.12121735879483 11.3696
46.14541619080294 11.3692
46.169806278764455 11.3451
46.194009483459034 11.2943
46.21821486849841 11.2835
46.24242243555223 11.2133
46.266821333570014 11.2254
46.29103328674601 11.1619
46.31524742696538 11.1767
46.33946375590237 11.1238
46.36387149104216 11.0914
46.38809221957392 11.1036
46.41231514186606 11.0674
46.436540259597464 11.0814
46.460956858999374 11.0924
46.48518638983522 11.0336
46.509418121166966 11.0065
46.533652054678114 11.0122
46.55807754555709 10.9548
46.58231590571962 10.9625
46.60655647313217 10.979000000000001
46.630988654873654 10.9303
46.655233659129024 10.886
46.67948087571551 10.8933
46.70373030632484 10.8662
46.72817142736393 10.8652
46.752425308428684 10.8376
46.77668140861147 10.8148
46.80093972960865 10.7952
46.82538981736788 10.7719
46.849652602470904 10.761
46.87391761349769 10.7253
46.8981848521493 10.68
46.9226439341274 10.6946
46.946915650573224 10.6453
46.97118959976749 10.6143
46.99546578341598 10.5924
47.019933887188216 10.5663
47.04421456235744 10.620999999999999
47.06849747711879 10.6118
47.09278263318286 10.5535
47.11725978640143 10.5393
47.14154944775105 10.5181
47.165841355555656 10.4788
47.1901355115306 10.4075
47.214621741924994 10.4173
47.23892041698887 10.4144
47.26322134538975 10.3575
47.28771440635075 10.3634
47.31201986422527 10.3601
47.33632758061436 10.3575
47.360637557241866 10.3442
47.38513974410611 10.3412
47.40945426407847 10.2857
47.43377104948137 10.2929
47.45809010204344 10.2436
47.48260144275502 10.2101
47.506925052572285 10.1979
47.53125093475548 10.1862
47.55557909103813 10.1885
47.58009961361992 10.1798
47.60443234110732 10.1372
47.62876734791564 10.1088
47.65310463578333 10.075
47.6776343683373 10.0882
47.7019762413987 10.0597
47.72632040075572 10.0288
47.75066684815169 10.0486
47.77520581885936 10.0174
47.799556865477655 9.977030000000001
47.823910205386 9.94097
47.84826584033272 9.97685
47.87281407745551 9.936010000000001
47.89717432569297 9.89992
47.92153687423484 9.88636
47.94609208429692 9.85855
47.97045925671401 9.87653
47.99482873471275 9.8454
48.01920052005013 9.838189999999999
48.04376504619224 9.77875
48.068141469543484 9.81374
48.09252020552573 9.77621
48.11690125590099 9.79129
48.1414751266064 9.73269
48.16586082917454 9.70125
48.19024885144316 9.6894
48.2146391951793 9.74067
48.239222439012764 9.6746
48.26361744916137 9.66439
48.28801478610016 9.614460000000001
48.31241445160131 9.58354
48.337007097209366 9.602360000000001
48.36141144338331 9.61283
48.38581812345755 9.57417
48.41022713920929 9.54594
48.434829215320704 9.53711
48.45924292604658 9.523
48.48365897780325 9.50411
48.50807737237308 9.47043
48.532688907799276 9.47447
48.55711201168574 9.44312
48.581537463754074 9.452160000000001
48.60615611725119 9.40373
48.63058628942721 9.37455
48.65501881516546 9.37169
48.6794536962573 9.351280000000001
48.70408185970339 9.333
48.72852147531801 9.31602
48.75296345168211 9.295630000000001
48.77740779059232 9.290460000000001
48.80204549302823 9.30643
48.82649458091802 9.28089
48.85094603676547 9.2392
48.87539986237231 9.22508
48.90004713292306 9.22316
48.92450572200832 9.189010000000001
48.94896668628025 9.184460000000001
48.97343002754588 9.15451
48.99808689542115 9.154010000000001
49.02255501470614 9.14193
49.04702551642794 9.12548
49.0714984023988 9.08629
49.096164896893235 9.06033
49.120642575466796 9.0214
49.145122643748394 9.04755
49.16960510355558 9.03835
49.19428125404938 8.98248
49.2187685210852 8.97382
49.243258185121555 8.99237
49.26794160167084 8.96824
49.2924360839405 8.90822
49.31693296869764 8.89152
49.34143225776915 8.88188
49.36612538195438 8.84398
49.39062950396021 8.867
49.41513603578346 8.84021
49.4396449792564 8.80991
49.46434784069503 8.83811
49.488861631846454 8.80056
49.513377840166804 8.82357
49.537896467493745 8.786760000000001
49.56260909589029 8.73375
49.587132585683285 8.76205
49.611658500018365 8.69197
49.636186840738596 8.67672
49.66090926588511 8.68357
49.685442483902584 8.64482
49.70997813385706 8.61295
49.734516217597076 8.626439999999999
49.75924846937352 8.60697
49.7837914452858 8.5785
49.80833686055187 8.53011
49.83288471702571 8.51723
49.85762682540054 8.51521
49.882179588965734 8.48589
49.9067347993235 8.49526
49.93129245833333 8.4704
49.95604445336378 8.45218
49.98060703442832 8.44929
50.005172069746266 8.44241
50.02993150438364 8.41421
50.05450147301533 8.37856
50.07907390151433 8.389330000000001
50.10364879174981 8.38015
50.12841816587289 8.37522
50.1529980044635 8.33442
50.17758031042124 8.32076
50.20216508562089 8.309289999999999
50.22694442953363 8.30515
50.25153416817468 8.26384
50.27612638170508 8.25099
50.300721072005196 8.25855
50.325510416102105 8.24579
50.350110084975064 8.22015
50.37471223628208 8.198039999999999
50.39931687190919 8.1779
50.424116246675766 8.16897
50.44872587605249 8.13177
50.47333799543065 8.144169999999999
50.49795260670191 8.15345
50.52276204271512 8.10965
50.54738166295838 8.05016
50.57200378079314 8.063839999999999
50.596628398116835 8.04655
50.62144792604559 8.04562
50.646077567609396 8.02021
50.670709714377715 8.037289999999999
50.69553683636198 7.998880000000001
50.72017401885922 7.9673300000000005
50.7448137122895 7.9504
50.76945591856022 7.939039999999999
50.79429318636823 7.9158
50.818940443716784 7.90906
50.84359021965163 7.88965
50.868242516085964 7.8559399999999995
50.893089960641895 7.891660000000001
50.917747323549435 7.85072
50.94240721271973 7.85865
50.96706963007175 7.847989999999999
50.99192728239342 7.82375
51.01659478166073 7.8182
51.04126481489051 7.75968
51.06593738400761 7.779210000000001
51.090805275207074 7.7527
51.11548294172845 7.763489999999999
51.14016314993547 7.74724
51.164845901758845 7.693969999999999
51.18972406304274 7.667730000000001
51.21441192780656 7.64467
51.23910234200271 7.673030000000001
51.2637953075678 7.666189999999999
51.288683770237945 7.619560000000001
51.31338186432707 7.622660000000001
51.33808251561888 7.59581
51.362978729967345 7.57145
51.387684521509755 7.547810000000001
51.41239287610203 7.574730000000001
51.437103795691165 7.507910000000001
51.46201036644977 7.50767
51.486726441956634 7.49765
51.51144508832545 7.514460000000001
51.536166307509156 7.487310000000001
51.56108326624387 7.44526
51.58580965706056 7.455889999999999
51.61053862657523 7.40595
51.635270176746864 7.370239999999999
51.66019755512065 7.369269999999999
51.68493429268881 7.35946
51.70967361681515 7.3203
51.73441552946465 7.348610000000001
51.759353359237934 7.34815
51.7841004750961 7.33173
51.80885018539685 7.30855
51.833602492111254 7.29055
51.8585508051424 7.2821
51.883308330926425 7.26761
51.90806845906181 7.26527
51.932831191525715 7.210160000000001
51.95779001977161 7.198810000000001
51.98255798721516 7.16222
52.00732856494335 7.147689999999999
52.03229530577543 7.1809199999999995
52.057071130455945 7.1604
52.081849571391054 7.16025
52.106630630568695 7.11447
52.13160794279417 7.08778
52.15639426492067 7.11735
52.18118321127822 7.103260000000001
52.205974783860896 7.070639999999999
52.23096269971011 7.0297600000000005
52.255759551287994 7.029839999999999
52.280559035098186 7.030689999999999
52.30536115314103 7.00042
52.33035970494467 6.977469999999999
52.35516711807904 7.00099
52.37997717147198 6.92707
52.40478986713005 6.985239999999999
52.42979908731974 6.9025300000000005
52.454617094216 6.9034699999999996
52.47943774942214 6.8938
52.50426105495102 6.910539999999999
52.529280976059844 6.86645
52.554109609024096 6.8921600000000005
52.57894089837482 6.83219
52.60377484613117 6.844069999999999
52.62880550079408 6.81755
52.65364479223379 6.79122
52.67848674816189 6.76558
52.70352547971946 6.76048
52.72837279155837 6.80958
52.753222773982785 6.74702
52.778075429022984 6.759189999999999
52.80312495150885 6.755780000000001
52.827982978797436 6.7100100000000005
52.85284368481815 6.66988
52.87770707160767 6.6594
52.90276741793998 6.665080000000001
52.92763619336701 6.6268
52.952507655698504 6.617789999999999
52.977381806977576 6.60305
53.00245301017842 6.628439999999999
53.02733256653592 6.643089999999999
53.052214817996074 6.612489999999999
53.077099766608484 6.55823
53.102181859804446 6.52019
53.127072229988265 6.56929
53.15196530349892 6.540719999999999
53.17686108239249 6.5251
53.20195409881522 6.50103
53.22685531582556 6.52347
53.25175924441303 6.45061
53.27666588664027 6.43963
53.30176985962693 6.43122
53.3266819565689 6.3979099999999995
53.35159677336455 6.40841
53.376514312083096 6.40224
53.40162927507703 6.39234
53.42655228516116 6.35367
53.45147802340193 6.35206
53.47660125628886 6.33084
53.50153247842639 6.30201
53.52646643496923 6.26389
53.55140312799818 6.29456
53.576537409691696 6.293130000000001
53.60147960336152 6.26826
53.626424539786164 6.23165
53.65137222105307 6.23721
53.67651758529126 6.22167
53.70147078399681 6.2241
53.72642673383343 6.23899
53.75138543689533 6.1778
53.776541917524526 6.1727
53.801506154876755 6.14585
53.826473151763246 6.16697
53.851442910284916 6.12519
53.87661054126026 6.14318
53.9015858509782 6.11073
53.92656392866066 6.09985
53.95154477641532 6.08764
53.976723591801296 6.051769999999999
54.00171000771266 6.06719
54.02669920004598 6.04334
54.051691170915745 6.010680000000001
54.076881204886796 6.0092300000000005
54.101878760928514 5.99635
54.12687910187696 6.00919
54.152077577768296 6.003369999999999
54.1770835166946 5.928030000000001
54.20209224691339 5.94609
54.22710377055121 5.927980000000001
54.25231352511594 5.926830000000001
54.27733066384342 5.87744
54.30235060239643 5.90763
54.32737334290836 5.8762099999999995
54.35259441062629 5.84115
54.377622783395324 5.860040000000001
54.40265396455061 5.8101199999999995
54.42768795623251 5.80501
54.45292037169559 5.80425
54.477960012857906 5.77307
54.50300247099511 5.7834900000000005
54.52804774825457 5.73975
54.55329154616743 5.67282
54.57834249018678 5.6813199999999995
54.6033962597977 5.69033
54.6284528571545 5.67097
54.653708072335164 5.60088
54.67877035378786 5.58019
54.70383546947698 5.56387
54.72890342156389 5.5641099999999994
54.7541700889442 5.521730000000001
54.77924374251975 5.522
54.8043202390049 5.52254
54.82959552413022 5.467980000000001
54.8546777351945 5.46857
54.87976279569621 5.50721
54.90485070780914 5.46871
54.930137506558005 5.4272
54.95523115074295 5.46131
54.98032765308844 5.37145
55.005427015775496 5.38224
55.03072536339621 5.41033
55.05583047570572 5.35241
55.080938454927676 5.282780000000001
55.10604930325027 5.26837
55.131359235107396 5.315919999999999
55.15647585066083 5.28525
55.181595341907496 5.2182699999999995
55.20671771104285 5.19181
55.232039262617704 5.14923
55.25716741665048 5.09825
55.28229845518636 5.13854
55.30743238042802 5.06681
55.33276558731939 5.0935
55.357905315183636 5.08726
55.383047936390035 5.07264
55.40819345314859 5.02198
55.433538351073295 4.99593
55.458689688238415 4.98559
55.483843927614096 4.9404699999999995
55.509197623043605 4.90232
55.53435769621134 4.91301
55.55952067826466 4.88834
55.5846865714265 4.88786
55.61005202069737 4.87226
55.63522376553902 4.8516900000000005
55.66039842818645 4.78774
55.68557601087004 4.77779
55.7109532500271 4.73591
55.73613670233794 4.7691
