TT I
1.2716486653135266 7.72417
1.2939594142134223 7.65032
1.3162702121660406 6.87573
1.3385810600174564 6.656610000000001
1.3608919586137629 6.831589999999999
1.383202908801069 6.698160000000001
1.405513911425503 6.14243
1.4278249673332093 6.18879
1.4501343378461518 5.70443
1.4724455028545926 5.68884
1.4947567236847858 5.5068
1.517068001182951 6.38782
1.5393793361953272 6.12405
1.5616907295681737 6.27925
1.5840021821477681 5.5185
1.60631369478041 5.20276
1.6286252683124185 5.33094
1.6509369035901333 5.31574
1.6732468618895553 5.82196
1.695558623192809 5.20566
1.7178704487808514 4.60245
1.7401823395001077 4.717890000000001
1.7625012545597203 4.68321
1.7848028405262486 4.73579
1.8071218901122095 5.25235
1.8294236121921872 4.9772300000000005
1.8517427996910911 4.907430000000001
1.8740620574440425 4.79335
1.8963639900671978 4.37108
1.9186833908139995 4.926880000000001
1.9409854680117449 4.78105
1.9633050151394713 5.53776
1.9856246367570705 5.173109999999999
2.0079269371922672 4.75053
2.03024671027244 4.90864
2.0525491637446027 4.54522
2.074869091674931 4.0864199999999995
2.097171701569106 4.68738
2.1194917877373847 5.05491
2.141811954326636 4.77517
2.164114805233074 4.87186
2.186435135143035 6.77004
2.208738150935709 18.5992
2.231058647554722 41.9031
2.2533792288321184 31.8925
2.275682498336085 12.7218
2.298003251406138 6.2829999999999995
2.3203066942619714 5.41746
2.3426276225136022 4.9623099999999996
2.3649486396617507 5.3219199999999995
2.387252348930071 5.19621
2.4095735463442893 5.00044
2.4318774374315884 5.92264
2.4541988185014043 6.21916
2.476502894794693 6.304130000000001
2.498824462909887 6.14963
2.521146125856138 6.3644
2.5434504863470337 6.0871699999999995
2.5657723414244717 7.08431
2.588076895590662 7.186489999999999
2.610398946189713 7.909619999999999
2.6327210958598384 7.4078800000000005
2.6550259469304716 7.23764
2.6773482972090137 7.603460000000001
2.6996533504259 7.11597
2.7219759047039602 7.9352800000000006
2.744298562293959 7.92593
2.7666039251246595 7.880139999999999
2.7889267918020164 8.21128
2.8112323652516555 7.551539999999999
2.833555444408179 8.032639999999999
2.8558786311183852 8.31433
2.8781845268938557 8.49155
2.9005079311721484 9.01327
2.9228140460410397 8.94047
2.9451376712799635 9.23598
2.967444008632326 9.98
2.9897678582247247 10.2446
3.0120918213106695 10.2801
3.0343984987899373 11.0288
3.0567226913198637 11.2844
3.079029599759726 11.9381
3.101354025127254 12.2934
3.123678568232338 12.6338
3.145985829517914 13.4149
3.16831061055229 13.7836
3.1906181112775593 14.585
3.212943133635653 14.866
3.2352682779763207 15.1662
3.2575761442691227 15.5882
3.2799015350264273 16.0076
3.302209649240067 16.4799
3.3245352898092655 17.1818
3.3468436553365257 17.6385
3.369169549113219 17.8513
3.3914955708171384 18.7806
3.413804319727358 18.6632
3.4361305997334863 19.4097
3.4584396084414553 19.7657
3.4807661501462652 20.9787
3.503092824025881 21.1709
3.5254022288463154 21.5316
3.5477291695206588 22.3069
3.5700388426251948 23.3418
3.5923660534916446 25.5465
3.6146934007816114 46.7305
3.637003482731501 126.912
3.6593311053109985 143.607
3.681641464033634 77.0068
3.7039693653009733 35.056999999999995
3.726297407241705 27.6446
3.7486081875460804 26.674
3.7709365132734978 26.7821
3.793247578841633 26.9452
3.8155761917550093 27.6016
3.8378875459837216 27.9709
3.8602164494827234 28.0413
3.882545499606844 29.0988
3.9048572932539183 29.8368
3.9271866390645718 29.9126
3.9494987298666713 30.7307
3.971828374764527 31.1352
3.9941581705403255 31.4408
4.016470713506008 32.162
4.038800813471445 32.9168
4.061113662089144 33.657
4.0834440696459176 34.8206
4.105774632334751 35.1635
4.128087945865126 36.1644
4.150418821249301 36.9682
4.172732448931298 38.7724
4.195063640413578 40.8168
4.2173775856475215 46.4041
4.239709096631102 92.97
4.262040768704612 348.466
4.284355196706267 485.24199999999996
4.306687193387355 307.038
4.329001947444346 106.164
4.35133427213731 52.7718
4.373666762177566 47.0931
4.395982011761091 46.0993
4.418314834921175 47.5189
4.44063041906622 58.8886
4.4629635787515625 76.2068
4.4852969080429785 76.0443
4.5076130004776225 58.7985
4.529946671403969 52.4262
4.552263106909177 51.9457
4.574597122877047 52.9175
4.596931312711224 53.8614
4.619248269273446 54.6679
4.6415828092605835 54.8659
4.663900117405352 56.2201
4.686235010953232 57.5768
4.708552674085913 58.6343
4.730887924602802 59.8918
4.753223354952695 61.7415
4.775541557023902 63.3117
4.797877349456786 65.0834
4.820195915032126 66.6999
4.842532072957498 67.4381
4.864868414979744 70.1441
4.88718753227192 72.2969
4.909524244902505 74.1822
4.931843734218147 75.833
4.954180820867835 78.8179
4.976518095879839 81.5622
4.998838149695359 84.8221
5.021175803844231 88.5173
5.043496238205739 91.7078
5.065834274903528 95.8542
5.088172504230693 101.51700000000001
5.1104935158799565 109.057
5.132832132875765 140.533
5.155153533596801 205.838
5.1774925416746225 249.31799999999998
5.199814334878411 419.85900000000004
5.2221537374521505 1106.13
5.244493338631803 2830.18
5.266815727034316 6546.44
5.289155727832427 11274.7
5.311478517248165 9370.79
5.333818921080011 3583.24
5.356159527788849 756.687
5.3784829252032536 222.40900000000002
5.400823940070432 158.998
5.423147747031976 137.47
5.445489173474152 125.04799999999999
5.467830807066149 118.359
5.490155234831516 113.37200000000001
5.512497285125229 108.902
5.534822130975162 106.90899999999999
5.557164601388673 104.8
5.579489868738879 101.64
5.601832762690846 101.12299999999999
5.6241758697774475 100.381
5.646501775867269 98.8018
5.668845311622074 97.1761
5.691171647754637 96.1776
5.713515615597765 95.0131
5.735859800852677 94.3106
5.758186788542988 93.2245
5.780531411018185 93.2432
5.802858837297399 92.5318
5.825203900414495 92.8771
5.8475491852224 93.6492
5.869877275883075 94.0072
5.892223006467101 95.0606
5.914551544266608 96.9512
5.936897724049891 99.6196
5.959244129804903 105.92200000000001
5.981573344815301 126.631
6.0039202049061 224.857
6.026249875609095 482.99300000000005
6.04859719346037 977.648
6.070927323278297 1988.47
6.093275102315365 3917.39
6.115623113320588 5054.06
6.137953938319995 3640.92
6.160302415650845 1305.08
6.182633708324452 316.389
6.2049826554078376 130.961
6.227331838745022 100.88799999999999
6.249663839443684 90.8001
6.27201349767565 87.6063
6.294345974611799 97.765
6.316696111167083 118.014
6.339046488263839 110.443
6.361379686074702 86.99600000000001
6.383730546639482 75.2064
6.406064229255215 71.52600000000001
6.428415576718203 70.3379
6.450749747566656 69.2073
6.47310158535871 68.0986
6.495453669698332 67.2008
6.517788579421056 66.0138
6.540141159237969 65.736
6.562476565766648 64.9405
6.5848296444934045 64.6934
6.607182974060425 64.6606
6.6295191323281015 64.9627
6.651872965955752 69.9849
6.6742096296068985 110.406
6.6965639707294615 185.14
6.71891856698715 187.61700000000002
6.741255995248479 117.66
6.763611104154477 75.0484
6.785949046381137 63.3431
6.808304671371482 60.7202
6.8306605557940046 59.8045
6.852999275508618 59.352
6.875355681171544 58.8814
6.897694923437771 58.4797
6.92005185377892 58.2542
6.9423916220322655 58.6755
6.964749080490181 57.4968
6.987106804399774 56.9035
7.009447368180821 57.1073
7.031805625367033 56.794
7.054146723727803 57.2855
7.076505517631004 57.4419
7.098864581288365 57.0768
7.121206488070854 56.9681
7.143566093607822 56.8353
7.165908543567245 57.3294
7.188268694426048 57.7457
7.2106291193438095 57.8645
7.232972390625943 59.625
7.255333366030969 78.1817
7.277677189091925 162.246
7.300038718428332 243.947
7.322400526130865 202.32299999999998
7.344745183422596 112.109
7.367107550224791 67.895
7.389452767901992 59.0753
7.411815697249891 57.6009
7.434161478756298 56.3955
7.456524974096713 56.2065
7.478888753837185 56.4885
7.501235387657368 56.8258
7.523599738562711 56.5141
7.545946944825532 56.3059
7.568311870344528 56.8961
7.5906770845765665 57.5642
7.613025156078678 59.1395
7.635390950099687 61.342
7.657739602662809 60.1612
7.680105979923558 58.0697
7.702472650212829 57.6934
7.724822180948224 57.0569
7.747189439655568 57.2254
7.769539560075357 57.7736
7.791907410653562 58.0158
7.81425812420825 58.0284
7.836626570110925 58.4781
7.858995315087906 59.0628
7.881346924933401 59.0758
7.903716270417482 59.6187
7.926068482028405 60.188
7.948438431475253 60.6066
7.9708086843180235 61.0593
7.993161805171116 61.7392
8.015532667162402 61.7998
8.037886398416653 63.2493
8.060257873014221 63.5594
8.082629655331942 63.9174
8.104984308787587 65.3359
8.127356708900503 70.095
8.149711981398308 78.7371
8.172085002766314 82.6022
8.194458336181368 76.3393
8.216814543847752 72.0093
8.23918850371002 71.3457
8.26154533906492 71.8939
8.283919928836452 72.9324
8.306277395339652 74.2457
8.328652618483376 75.335
8.351028159736202 77.48899999999999
8.373386579575245 79.6883
8.395762759396959 81.8643
8.418121819038275 87.9958
8.440498640894003 107.64399999999999
8.462875785192262 128.315
8.485235811156207 139.733
8.507613602688501 176.032
8.529974277114228 263.892
8.552352719347912 397.298
8.574731488360351 621.186
8.59709314210385 1053.39
8.619472567021075 1635.14
8.64183487789147 2104.38
8.664214962183097 1913.21
8.686577933647762 1135.16
8.708958680784317 459.792
8.731339760774953 193.47799999999998
8.753703729764451 120.79299999999999
8.77608547780821 104.154
8.798450116065078 99.2497
8.820832535634787 95.1548
8.843215292401656 93.5938
8.865580941199045 91.6744
8.887964374703538 90.694
8.910330701447199 92.8575
8.932714815164482 97.5158
8.955099270424924 96.4487
8.977466620733543 91.8931
8.999851761421976 87.7988
9.022219798361645 85.2167
9.04460562795561 84.7102
9.066991803441677 84.529
9.089360876979615 84.0571
9.111747746589993 84.0511
9.13411751544971 83.5713
9.156505082664324 83.0435
9.178875550323522 83.5575
9.20126381862328 84.057
9.223652438908596 84.6904
9.246023961427412 84.5774
9.26841328802173 83.7553
9.290785518039224 83.4648
9.313175554425882 84.2644
9.335565947154315 84.0614
9.357939245086508 83.9705
9.380330352834827 84.4167
9.40270436697103 84.7071
9.425096193225055 84.4798
9.447488380180165 85.6746
9.469863475295412 85.8628
9.492256385987508 85.9205
9.514632206018318 86.6131
9.537025843935714 86.9688
9.559402392368193 88.2029
9.581796761000229 88.7594
9.604191496441521 90.0663
9.626569144158516 95.1511
9.648964615551032 102.068
9.671343000390081 104.785
9.693739211225699 100.755
9.716135793237463 96.3156
9.738515290448102 94.9798
9.760912617143402 95.5209
9.783292860202891 96.7284
9.805690935076182 98.1491
9.828089385495742 99.4014
9.850470754023561 102.24
9.872869957865444 113.007
9.89525208097539 135.79
9.917652041736662 155.341
9.940052382417589 151.888
9.962435644102392 152.151
9.984836746950979 184.61900000000003
10.007220771957746 248.488
10.029622640473708 348.398
10.052007432299963 503.314
10.074410069984072 734.837
10.096813093716005 1106.52
10.119199042482517 1573.11
10.141602840636468 1905.59
10.163989564971628 1763.95
10.186394141051062 1098.92
10.208799107559706 501.15
10.231187001965623 230.8
10.253592751657669 139.627
10.275981430388155 119.539
10.298387966769793 120.10700000000001
10.320794897965431 124.162
10.343184759907361 123.16799999999999
10.36559248305461 114.696
10.387983138083852 108.251
10.410391656691655 110.212
10.432800574501677 121.81200000000001
10.455192425893369 138.644
10.47760214443012 161.334
10.499994797678786 198.6
10.522405320453982 259.778
10.54479877906917 350.546
10.567210109595656 474.842
10.5896218454736 547.178
10.612016518879773 528.003
10.634429067781074 397.32099999999997
10.656824555333241 236.356
10.679237920773568 139.66899999999998
10.701651695961992 101.765
10.724048411481384 92.105
10.746463008485165 89.0415
10.768860546937125 87.2335
10.791275969274796 85.3638
10.81369180576079 83.8745
10.836090585366925 82.93299999999999
10.858507252467449 81.6149
10.88090686379991 80.7671
10.903324365036394 80.3332
10.925724811614439 80.6738
10.948143150509463 83.1131
10.970561909719066 82.4867
10.992963615930844 80.0819
11.015383218085756 76.9851
11.037785768347074 75.2796
11.06020621697282 74.5197
11.082627090322113 73.9415
11.105030913430326 73.5762
11.12745263854165 74.6767
11.149857314510728 80.4756
11.172279894912576 90.307
11.194702904450653 92.6808
11.217108866490921 86.0709
11.239532736615194 79.2255
11.26193956033512 75.5092
11.284364294577085 73.2885
11.306789462371718 70.5508
11.329197585398376 68.9995
11.351623622610898 68.6085
11.37403261614354 67.6485
11.396459526308487 67.5752
11.418869393879497 67.2368
11.441297180532617 66.601
11.463725406927658 66.3308
11.486136592353875 66.2996
11.508565700543707 67.3372
11.530977768845315 70.7671
11.553407762368774 72.3041
11.575838200059769 71.4507
11.598251599479612 67.9493
11.620682927815501 65.6324
11.64309721895548 65.0543
11.665529441478206 64.7844
11.687962112597958 64.5224
11.710377748130886 64.5984
11.732811318753434 64.78
11.755227854859067 64.7624
11.777662328529495 64.5775
11.800079768750786 64.2157
11.822515149015453 64.116
11.844950984084935 64.3313
11.867369787303163 63.8394
11.889806534289491 63.7093
11.912226250487029 64.1964
11.934663912939751 64.259
11.9571020346363 64.2073
11.979523127133968 64.31
12.001962169624331 65.155
12.024384183972964 66.2108
12.046824150809913 69.4503
12.069264581333726 74.9041
12.091687985297767 81.0117
12.11412934550045 89.6154
12.136553680195208 101.979
12.158995973632788 120.23100000000001
12.181438735204349 143.02
12.20386447284199 173.912
12.226308172985636 201.19099999999997
12.24873485024193 210.861
12.271179492516982 186.524
12.293607112949127 146.571
12.316052700916226 112.296
12.338498763250042 88.4286
12.360927805303868 75.4772
12.383374818673879 69.8399
12.405804812803074 66.8076
12.428252780773262 66.1068
12.45070122756722 66.1329
12.473132656675375 65.8628
12.49558206341869 66.0666
12.518014453510101 66.0794
12.540464823770117 65.8121
12.562915677315177 66.2882
12.58534951575545 67.2366
12.607801338171472 70.6067
12.630236146511358 78.3942
12.652688941369085 86.5817
12.675124723177234 87.0272
12.697578494048786 80.8788
12.720032754458185 73.7416
12.742470003354093 70.3042
12.764925245138771 69.42699999999999
12.787363476431278 69.6
12.809819703166806 69.9258
12.83227642391173 70.4538
12.854716135692716 71.2518
12.877173846755147 72.1784
12.899614549869717 72.3485
12.9220732548287 73.0618
12.94453245827299 73.6082
12.966974655289818 74.5651
12.989434858002571 75.2888
13.011878055298721 75.9976
13.034339260862497 77.1657
13.056800969391883 78.0635
13.079245674017244 80.3181
13.101708390774869 82.5792
13.12415410463411 90.0439
13.146617833206086 102.64
13.169064559883248 115.09
13.191529303857127 129.023
13.213994557076367 148.204
13.236442809902437 177.05200000000002
13.258909083908291 218.817
13.28135835851934 271.454
13.30382565690295 336.366
13.326293469022952 403.531
13.348744283242008 434.959
13.371213125129904 395.74699999999996
13.39366497011003 302.45799999999997
13.416134845360597 205.40099999999998
13.438605238843131 139.49
13.46105863690397 112.84299999999999
13.483530069144786 109.374
13.505984506951902 113.928
13.528456981549432 122.794
13.550929978879088 135.77
13.573385983253365 155.298
13.595860028340867 184.541
13.618317081455832 224.88299999999998
13.64079217790333 273.048
13.663250283359057 323.39099999999996
13.685726434770173 364.344
13.708203115221277 364.751
13.730662806148091 299.655
13.75314054697177 219.704
13.775601299246777 149.172
13.798080104050406 106.435
13.820559442405358 89.5857
13.843021793671388 84.3766
13.865502201420897 82.2291
13.887965623051947 81.4394
13.910447103807167 80.2328
13.932929122629764 78.887
13.955394156785959 78.5522
13.977877254034569 77.3632
14.000343367582113 76.4221
14.022827546871707 75.645
14.045294743423524 75.152
14.06778000837062 74.4525
14.090265817715476 74.4982
14.112734645763819 74.1601
14.13522154619454 74.4279
14.157691466286913 74.5323
14.180179461423874 74.3837
14.202668005486178 73.1934
14.22513957064374 72.4308
14.247629214846473 71.8067
14.270101881097517 71.6546
14.29259262906496 72.574
14.315083930490205 73.6506
14.337558255389705 74.2802
14.360050666019726 73.8357
14.382526101071944 72.1289
14.405019624534942 71.1427
14.427513705993134 70.627
14.449990813291825 70.2269
14.47248601302899 70.0654
14.49496423954951 70.1605
14.517460561197822 70.2979
14.539939910570322 69.9305
14.562437357763558 70.6101
14.58493536931253 72.14
14.607416409993311 73.5729
14.62991555254159 74.7542
14.652397725157423 74.2258
14.674898002342799 73.0213
14.697398848433282 72.2731
14.719882725991326 72.5533
14.74238471217934 73.5905
14.764869730765593 76.9068
14.787372860692983 80.2479
14.809876564079925 84.6976
14.83236330125751 90.09
14.854868153850365 97.7982
14.877356041159485 108.49600000000001
14.899862046604186 123.212
14.922351087688757 142.976
14.944858249632887 166.868
14.967365991421232 193.512
14.989856770231246 217.09799999999998
15.012365673994204 224.37900000000002
15.03485761569738 207.16400000000002
15.05736768508665 168.861
15.07987833888692 130.043
15.102372032001655 101.331
15.124883856909658 82.6497
15.14737872204565 75.2635
15.169891721717274 72.5891
15.192405310371893 72.494
15.214901940621196 73.2816
15.237416709527137 73.9203
15.259914520936249 74.5854
15.282430473753607 72.9825
15.304947020131227 71.3536
15.327446610371178 70.3046
15.349964346154254 69.0963
15.372465126703139 68.4609
15.394984055556009 68.2452
15.417486030076159 67.9226
15.44000615566487 67.6755
15.462526881230803 67.5458
15.485030653812652 67.7973
15.507552581617434 67.8918
15.530057557334603 68.2035
15.55258069104857 67.934
15.575104429329837 67.4836
15.597611216864632 67.0111
15.620136166564563 67.1249
15.6426441664095 68.1808
15.665170331202765 70.484
15.687697105158826 73.8493
15.710206930593545 76.9755
15.732734925158933 81.2066
15.755245972089478 86.6615
15.77777519094324 94.2227
15.800287463046663 104.15299999999999
15.822817909869592 118.404
15.84534897229804 135.63299999999998
15.867863089299354 156.391
15.890395385222186 177.063
15.912910736597423 192.49
15.935444269699861 193.31400000000002
15.957978423016485 171.28
15.980495633101265 139.134
16.003031029129367 107.699
16.02554948280019 83.79700000000001
16.048086125229432 72.0553
16.070623392487107 68.6214
16.09314371869582 67.5999
16.11568223789321 66.7317
16.13820381691126 65.5245
16.160743591742527 63.6791
16.183283996022084 62.3884
16.205807461423195 61.068000000000005
16.228349126881973 60.5262
16.25087385432698 60.5488
16.27341678466365 59.8464
16.29594277784926 59.7597
16.31848697676433 60.823
16.341031811604868 61.6551
16.36355971058487 62.0123
16.3861058195587 61.6349
16.40863499352978 59.8647
16.431182380342005 58.7825
16.453730407713202 57.8016
16.476261501364792 57.2816
16.498810812136167 56.9557
16.52134319004079 56.9607
16.54389378792203 56.751999999999995
16.566445031001553 56.5177
16.588979342490088 56.348
16.61153187824822 56.6041
16.634067483263312 56.3673
16.656621315414416 56.283
16.679175797408888 55.8258
16.701713349928728 55.8644
16.72426913389191 56.3753
16.74680798922351 56.3938
16.76936507887444 56.3493
16.791905240734874 56.3383
16.814463639794468 56.1185
16.837022695210294 56.2459
16.859564824093756 56.8836
16.882125194503903 57.8449
16.904668639217885 59.176
16.927230328348003 59.2852
16.949792678493612 59.1435
16.972338104193863 58.2281
16.994901778652235 57.3332
17.017448529496576 57.1242
17.040013531998152 57.199
17.06257920018044 57.5938
17.0851279459922 58.3404
17.107694947817667 59.1396
17.130245028099072 59.956
17.15281336730298 61.3052
17.17536478578733 62.7096
17.19793446610687 64.4954
17.220504818648422 66.5105
17.243058251703697 69.0755
17.265629950971032 72.8099
17.288184731571736 76.8935
17.310757781306908 81.3399
17.33333150794385 84.2204
17.355888317140174 84.3987
17.37846339986244 80.6175
17.401021565958885 74.7279
17.42359800851343 68.9916
17.44617513265564 64.2275
17.468735341390783 61.7595
17.491261035594565 60.4738
17.51396340099364 60.2111
17.536490463869136 60.3085
17.559018209820174 60.4245
17.58154663977963 60.4917
17.604251766089718 60.4937
17.626781572227713 60.728
17.64931206518155 61.0991
17.671843245885103 61.9075
17.69455114821572 62.0966
17.717083712612634 62.3129
17.739616967569667 62.456
17.762150914021706 62.4665
17.78486160749854 62.6518
17.807396945166804 62.9443
17.829932977143503 63.8416
17.85246970436452 65.5176
17.875183204129467 67.17699999999999
17.897721330097664 69.5688
17.920260154126645 71.8898
17.942799677153296 75.0452
17.9655159983646 78.0381
17.988056927677544 82.059
18.010598558807683 87.9601
18.033140892692916 95.5609
18.05586005052525 104.071
18.07840379824407 114.70200000000001
18.10094825154059 126.087
18.12366954819864 137.506
18.146215420998306 142.563
18.16876200220057 138.503
18.191309292745153 126.229
18.214033452627167 111.875
18.236582170236648 97.5
18.259131600016456 89.1045
18.281681742907335 86.6142
18.304408781233683 88.7894
18.32696035875955 92.8222
18.349512652227624 97.2024
18.372065662579683 103.287
18.394795594587553 107.48
18.41735004715306 106.904
18.43990521943684 102.33
18.46246111238171 93.5083
18.485193953325208 82.8281
18.507751296070428 74.2118
18.530309362314178 68.5626
18.552868153000343 65.6942
18.57560391815056 63.733000000000004
18.59816416623245 63.0764
18.620725141597372 62.8939
18.643286845190268 62.266000000000005
18.666025549835414 61.9546
18.688588718427933 61.474
18.711152618092243 61.0751
18.73389353884365 60.6806
18.75645890921984 60.2293
18.77902501351406 60.0081
18.801591852673102 59.8509
18.824335739722738 59.1827
18.846904057212626 59.1774
18.8694731124168 58.8767
18.89204290628315 58.8481
18.914789774966803 58.799
18.937361054791623 58.6471
18.959933076131318 58.3475
18.982505839934877 58.238
19.00525570560582 58.3636
19.027829963004184 58.3553
19.05040496572238 58.3635
19.072980714710468 58.3612
19.095733592739563 58.4543
19.11831084296757 58.623999999999995
19.140888842324735 59.2838
19.16346759176222 59.8356
19.18622349753803 60.2051
19.208803755869358 60.8328
19.231384767143577 61.6073
19.253966532312948 62.753
19.276725481241822 64.3967
19.29930876296784 66.0665
19.3218928014549 68.8483
19.34465404436217 72.0633
19.36723960516257 75.6314
19.389825925592426 77.9695
19.412413006605938 78.1478
19.43517731967805 76.0605
19.457765930683355 71.556
19.48035530514408 66.491
19.50294544401556 61.9868
19.525712842708348 58.7985
19.54830451925909 56.8
19.570896963095727 55.6963
19.593490175174704 55.238
19.616260674962184 55.1527
19.638855432416964 54.8164
19.661450960992624 55.0545
19.68404726164677 54.6605
19.706820878021247 54.3016
19.729418731756834 54.5893
19.752017360452857 54.3687
19.77461676506804 54.6899
19.797393513540218 54.8524
19.819994478951667 55.2391
19.84259622316767 55.7255
19.8651987471481 56.1106
19.887978643247177 56.2102
19.91058273574792 56.7352
19.933187610901943 57.376999999999995
19.955969879466828 58.2868
19.97857632894404 59.3059
20.00118356396599 60.401
20.023791585494575 61.8567
20.046577028914875 64.1851
20.069186632506966 66.3207
20.091797025500632 68.6908
20.114408208858933 70.5273
20.137196842715273 71.3293
20.159809615886765 70.8907
20.18242318232135 68.03399999999999
20.20503754298326 65.6878
20.227829382875154 63.6161
20.250445341109344 62.8024
20.27306209647285 62.7522
20.29567964993108 63.5052
20.31847471147704 64.6286
20.34109387027612 66.1898
20.363713830075454 66.8892
20.386334591841646 66.4527
20.409132890679302 64.4615
20.431755265564437 61.172
20.454378445325528 58.1918
20.477002430930366 55.7752
20.499803982716553 54.2316
20.522429589228004 53.0739
20.54505600449589 52.7742
20.567683229489194 52.4319
20.590488049900088 51.9883
20.61311690359731 51.5155
20.63574656993626 51.1299
20.658553853717297 50.8339
20.681185154618298 50.7805
20.703817271080066 50.8642
20.72645020407368 50.3148
20.749260783967177 50.2006
20.771895359337133 50.1451
20.794530754161617 50.0856
20.817166969412938 50.0198
20.83998086114876 49.9971
20.86261872660049 49.7463
20.885257415405402 49.7727
20.90789692853701 49.5482
20.930714147864748 49.5101
20.953355319030678 49.6448
20.97599731745334 49.7327
20.99864014410749 49.7675
21.021460706796564 49.8562
21.044105199328826 50.0025
21.06675052302631 50.0642
21.089396678865015 50.1414
21.112220600704806 50.4837
21.134868430275347 50.7779
21.15751709492456 50.7265
21.180166595629693 51.1458
21.202993892429635 51.5768
21.22564507473034 52.0678
21.24829709602816 52.3499
21.27112693608965 52.6434
21.293780644891275 52.8931
21.316435195634053 52.2507
21.339090589297417 51.465
21.361923832041875 51.0071
21.384580921090404 50.2472
21.407238856007325 49.6524
21.429897637773326 49.538999999999994
21.45273429906592 49.623999999999995
21.475394784108598 49.4614
21.498056118951983 49.4206
21.520718304578022 49.6448
21.543558400304388 49.6085
21.566222297108816 49.7212
21.58888704765135 50.0377
21.61155265291521 50.1756
21.63439619898156 50.6609
21.657063523335786 50.8561
21.67973170537063 51.283
21.7024007460706 51.9197
21.72524775840385 52.315
21.747918526116475 53.4699
21.770590155457388 54.4276
21.79326264741238 55.5764
21.816113141960237 57.06
21.838787368860547 58.6815
21.861462461341976 60.3416
21.884315579735777 62.3206
21.90699241312273 64.1606
21.92967011506078 65.5572
21.95234868653799 65.9671
21.9752053151131 65.6087
21.997885635446785 63.9997
22.020566828293532 61.9137
22.04324889464272 59.7285
22.066109049404666 57.8217
22.088792872571794 56.9498
22.111477572219204 56.9482
22.1341631493376 57.1572
22.157026846313123 57.3279
22.179714188221507 56.9967
22.202402410582668 56.1083
22.22509151438863 54.8258
22.24795876962584 53.4102
22.270649646204486 52.2517
22.293341407213727 51.3602
22.316034053646906 50.6454
22.338904883215342 50.2702
22.36159931041458 50.3511
22.38429462602756 50.3731
22.40699083104897 50.1767
22.429865251039757 50.2319
22.452563244831367 50.283
22.47526213102522 50.247
22.49813925616515 49.8882
22.520839937143307 49.7107
22.543541513520587 49.7278
22.56624398629403 49.56
22.589124730075895 49.3259
22.611829005656723 49.6966
22.63453418063466 49.727
22.657240256008077 49.8991
22.680124634582935 49.9939
22.70283252079775 50.2942
22.725541310413075 50.6424
22.74825100442868 50.7616
22.771139033969575 51.215
22.79385054687155 51.2911
22.81656296718292 51.8935
22.83927629590484 52.5528
22.862167992606945 53.3367
22.88488314827121 54.2591
22.907599215359284 55.0948
22.93031619487366 55.9887
22.953211574954405 57.1121
22.975930389478226 58.2842
22.998650119445763 59.09
23.02137076586092 58.9303
23.044269845560063 58.1356
23.06699233506288 56.6814
23.089715744034912 54.9683
23.112617610931565 52.9274
23.135342869061212 51.5857
23.158069049684816 50.6723
23.1807961538087 50.0225
23.20370174880544 49.951
23.226430710184808 49.9274
23.249160598093425 49.9537
23.271891413539002 49.9126
23.294800752937697 49.8604
23.31753343374794 50.1963
23.340267045128353 50.1673
23.36300158808808 50.4058
23.38591468821339 50.6253
23.408651104658304 50.9131
23.431388455719986 51.4515
23.454126742409 51.9846
23.4770436196085 52.7789
23.499783787914662 53.9414
23.522524894889884 54.6421
23.54526694154616 55.7167
23.56818761219047 56.9735
23.59093154860734 57.9458
23.613676427751283 58.9193
23.636422250635754 58.676
23.659346731118656 57.7903
23.68209445191868 56.2585
23.704843119509587 53.9292
23.72759273490623 51.7872
23.750521041644767 49.88399999999999
23.77327256312355 48.6827
23.796025035462787 47.88
23.818956224555475 47.2824
23.841710609113413 47.1574
23.86446594758979 46.8131
23.887222241002014 46.5329
23.910157285144578 46.2139
23.932915498962537 46.2985
23.955674670778713 46.1459
23.978434801611975 45.9236
24.001373717286125 45.778
24.024135776723917 45.5858
24.046898798245582 45.4895
24.06966278287146 45.4751
24.092605586582614 45.2393
24.115371508023642 45.1844
24.1381383956401 45.1915
24.16090625045381 45.0834
24.183852958731244 45.108000000000004
24.206622758582608 44.9018
24.229393528706886 44.7254
24.252165270127392 44.6786
24.27511589952438 44.5985
24.297889594216997 44.428999999999995
24.32066426328598 44.2364
24.34343990775613 44.2898
24.36639447485003 44.2409
24.38917208083877 44.0992
24.41195066531332 44.0492
24.43490819850244 44.07899999999999
24.457688750692377 43.7155
24.48047028445616 43.69
24.503252800821233 43.974
24.526214300784112 43.9528
24.548998793132213 43.9604
24.57178427117417 43.8431
24.59457073593893 43.8565
24.617536219319863 43.9938
24.64032466834748 43.9938
24.663114107195035 43.8495
24.685904536893013 43.6528
24.708874020360852 43.5034
24.731666442613744 43.5114
24.754459858818787 43.5226
24.777254270007962 43.2864
24.80022777025625 43.148
24.82302418230472 43.2219
24.845821592443674 43.225
24.86862000170663 43.0883
24.891597535453727 42.9574
24.914397953892728 43.1113
24.93719937456671 43.1434
24.96000179851076 43.0249
24.98298338249997 43.2978
25.00578782394922 43.6165
25.028593271784167 43.6886
25.05157790644186 43.9109
25.07438537804115 44.0459
25.097193859145293 44.2284
25.120003350792075 44.3346
25.142992065061257 44.8243
25.165803588823465 45.0167
25.18861612625217 45.3648
25.211429678386736 45.5336
25.234422489079968 45.5735
25.257238081693636 45.674
25.280054692141732 45.7632
25.3028723214652 45.4383
25.325869245420463 45.6173
25.348688923599397 45.7402
25.371509623787006 45.8661
25.394331347025812 45.7109
25.41733240110666 45.4868
25.440156181590016 44.9279
25.46298098826268 44.4699
25.48580682216873 43.7515
25.50881202326435 43.1169
25.53163992281684 42.5906
25.55446885274561 42.248000000000005
25.577298814096377 41.982
25.600308179121807 41.6905
25.623140214533745 41.8304
25.64597328451537 41.6304
25.66898578564376 41.4005
25.691820936010206 41.5276
25.714657124097695 41.4823
25.737494350954734 41.443000000000005
25.760511045684957 41.1965
25.783350361364224 41.4008
25.806190718969255 41.398999999999994
25.82903211955018 41.5556
25.852053024868923 41.391999999999996
25.874896522722523 41.5273
25.897741066713106 41.5415
25.920586657892454 41.5827
25.943611790812668 41.6506
25.966459487728237 41.8357
25.989308234998564 41.7815
26.01215803367705 42.0412
26.03518741123814 42.2185
26.05803932412957 42.415
26.080892291600094 42.3671
26.10374631470478 42.5092
26.12677995397268 42.7032
26.14963609978026 42.6535
26.172493304397875 42.3047
26.19535156888223 42.3663
26.218389486949604 41.911
26.241249882640123 41.3786
26.26411134137826 41.1882
26.28715248187403 41.3252
26.31001607820869 40.9752
26.3328807407756 40.906
26.35574647063438 41.055
26.37879191991473 40.882
26.401659795896734 40.9346
26.424528742360263 41.2212
26.447398760366614 41.2631
26.470448535598294 41.3431
26.49332070826805 41.6331
26.516193955675355 41.8087
26.53906827888316 41.9639
26.562122397260108 42.0833
26.584998883685063 42.2948
26.607876449110325 42.5185
26.63075509460056 42.7345
26.65381357334404 42.8943
26.67669439061878 42.8861
26.699576291163382 42.9943
26.722459276044212 42.8927
26.745522132402975 42.6717
26.768407297649354 42.5218
26.791293550442003 42.0354
26.814180891848974 41.7641
26.837248143099337 41.468
26.860137673466657 41.3034
26.88302829566349 41.1388
26.90592001075963 41.0091
26.92899167420566 40.8666
26.951885586870763 40.4682
26.974780595655517 40.2598
26.99785558178161 40.1113
27.020752794605112 39.9628
27.043651106772522 39.7044
27.06655051935668 39.7836
27.089629948036183 39.5851
27.112531573292053 39.5644
27.135434302194138 39.5991
27.158338135817015 39.3849
27.181422024430987 39.4981
27.204328079372566 39.3229
27.22723524226965 39.4126
27.250143514198573 39.5154
27.273231880156334 39.3279
27.296142382065014 39.2012
27.319053996245536 39.260999999999996
27.341966723775965 39.2062
27.365059584515222 39.1649
27.38797455070062 39.3582
27.410890633481237 39.174
27.433807833936918 39.1213
27.456905206923906 39.2942
27.47982465472398 39.2404
27.502745223449743 39.2345
27.525666914182825 39.3899
27.548768816912457 39.1625
27.571692763693633 39.3764
27.59461783573812 39.2558
27.617723149491244 39.1568
27.640650484125285 39.0166
27.66357894728264 39.0221
27.686508540048052 38.9192
27.709618414237887 38.8761
27.732550278321757 38.6745
27.755483275279115 38.6486
27.778417406196485 38.6237
27.801531858397514 38.6344
27.824468269376716 38.580999999999996
27.847405817586786 38.3903
27.870344504116094 38.6803
27.893463551932008 38.7582
27.916404527281053 38.9138
27.93934664422563 38.9287
27.962289903855886 39.036
27.98541356491974 39.1732
28.00835912214229 39.2714
28.03130582533231 39.6099
28.054253675581805 39.7615
28.077381967556104 39.8037
28.100332124185126 39.803000000000004
28.123283431160893 39.7908
28.146235889577238 39.6192
28.169368830154156 39.5177
28.192323603752033 39.2468
28.215279532083304 39.0701
28.238415973016764 38.9594
28.261374223145094 38.7877
28.284333631303806 38.64
28.307294198589954 38.4425
28.330435319167677 38.0785
28.353398217078915 37.8636
28.376362277420153 37.704
28.39932750129032 37.4973
28.422473319286713 37.3363
28.44544088262495 37.2134
28.468409612800283 37.0304
28.491379510913497 36.9605
28.51453004413313 36.8646
28.53750229057244 36.8361
28.56047570826344 36.7087
28.583450298308804 36.6374
28.606605564586562 36.4669
28.629582511831156 36.486999999999995
28.65256063474956 36.3746
28.675539934446338 36.4112
28.698699951647605 36.475
28.72168161743193 36.3655
28.74466446331978 36.2505
28.767648490417624 36.2302
28.790813276438353 36.1264
28.813799678527303 36.2621
28.836787265157085 36.2061
28.859955641890075 36.2125
28.882945610203045 36.1401
28.905936766392035 36.0978
28.928929111566863 36.1355
28.952102288520145 36.2379
28.975097024308607 35.9837
28.998092952423807 35.8177
29.021090073977508 35.7267
29.04426806913204 35.5969
29.067267590245258 35.4474
29.090268308143695 35.4195
29.11327022394099 35.3093
29.13645305530891 35.3128
29.159457379627167 35.2578
29.18246290519685 35.1755
29.20546963313352 35.1658
29.22865731875826 35.1509
29.25166646419296 35.0768
29.27467681535305 34.9129
29.29768837335608 34.9578
29.320880931312562 34.9817
29.34389491580634 34.9219
29.366910110507334 34.9016
29.38992651653503 34.9909
29.41312396492981 35.0231
29.436142806456754 34.8314
29.45916286268059 34.8707
29.48236399319994 34.6772
29.50538649169417 34.6236
29.528410208259935 34.5469
29.55143514402014 34.2973
29.574641196749695 34.3482
29.597668583816574 34.1071
29.6206971934585 33.8504
29.64372702680042 33.9615
29.666938019934474 33.8184
29.689970313635285 33.8861
29.713003834422636 33.688
29.73603858342347 33.772
29.759254535188578 33.728
29.78229175361658 33.5343
29.80533020365064 33.5909
29.82836988641968 33.6493
29.85159081507472 33.5521
29.874632976355343 33.4338
29.89767637376955 33.4411
29.920721008448314 33.3021
29.9439469322847 33.3811
29.96699405457564 33.2095
29.9900424175358 33.1761
30.013092022298157 33.162
30.03632295963995 33.2203
30.059375061131373 33.318000000000005
30.08242840783577 33.3095
30.105483000888153 33.2202
30.128718970092244 33.1035
30.151776069006917 33.0371
30.17483441768648 33.0945
30.198074175317235 33.1852
30.221135036724256 33.2303
30.24419715131772 33.0532
30.267260520236203 32.921
30.290505341942243 33.0538
30.313571232750228 33.1137
30.336638381310948 33.0558
30.35970678876503 32.9372
30.38295669299435 32.9266
30.40602763151657 32.8732
30.429099832366074 32.8828
30.452173296685572 32.8639
30.47542830191959 32.7738
30.498504306502497 32.6068
30.521581577995562 32.698
30.544660117543582 32.8708
30.56792024229725 32.8813
30.59100133132069 32.7436
30.614083691845494 32.81
30.637167325018545 32.872
30.660432587840603 32.806
30.683518779717886 32.8469
30.70660624769615 32.9188
30.729694992924372 32.9427
30.75296541239743 32.9113
30.77605672557558 32.8099
30.799149319462742 32.8209
30.8224236211637 32.6851
30.845518789950724 32.6516
30.868615242910597 32.6146
30.891712981195973 32.4014
30.91499247215866 32.3591
30.938092794619365 32.1974
30.96119440587579 32.141999999999996
30.984297307082752 32.1728
31.00758200598383 31.9908
31.030687500658694 31.936999999999998
31.053794288760695 31.7954
31.076902371446767 31.6255
31.100192296997445 31.7001
31.12330298246119 31.6635
31.14641496599209 31.7151
31.169528248749216 31.6165
31.19282341969534 31.695999999999998
31.215939314557186 31.6124
31.239056512134788 31.6328
31.262175013589378 31.6666
31.28547544871168 31.5624
31.30859657161541 31.3529
31.331719001892175 31.4443
31.35484274070538 31.5998
31.378148458819545 31.5792
31.401274828443725 31.4847
31.424402510106933 31.5019
31.447712205419993 31.4914
31.470842524931633 31.4451
31.493974159989783 31.526999999999997
31.51710711176168 31.5136
31.54042212308802 31.5066
31.563557722100917 31.5279
31.586694641341655 31.3364
31.609832881979628 31.3193
31.63315322823208 31.1956
31.656294125521327 31.015
31.679436347728515 31.0724
31.70257989602529 30.9103
31.725905596152327 30.8464
31.74905181052835 30.7006
31.772199354521323 30.8053
31.79534822930507 30.7894
31.818679302290967 30.7698
31.84183085259981 30.7092
31.864983737233473 30.7265
31.88813795736804 30.8085
31.911474422233013 30.663
31.934631327356435 30.684
31.9577895715215 30.6397
31.980949155906522 30.5776
32.004291031706956 30.7287
32.027453310562606 30.6083
32.05061693318573 30.4236
32.07396288236386 30.5506
32.09712920658542 30.4829
32.12029687812702 30.2279
32.14346589817093 30.1523
32.166817291729984 30.2155
32.18998902288583 30.0546
32.21316210610336 30.0404
32.23633654256711 29.9021
32.259693399663725 29.9448
32.282870556771144 29.8303
32.30604907069099 29.9223
32.329228942610065 29.8123
32.35259128243769 29.593000000000004
32.375773884550505 29.6488
32.398957848235646 29.6177
32.422143174682176 29.4874
32.445511016471215 29.4357
32.468699082679954 29.3712
32.49188851523011 29.3425
32.51507931531304 29.3088
32.538452678331 29.3068
32.56164622776311 29.201999999999998
32.58484114831493 29.104
32.60803744118015 29.2249
32.631416344731896 29.1206
32.654615396551876 29.1771
32.67781582427913 29.0866
32.701198898634416 28.974
32.72440209253756 28.9473
32.747606665947124 28.9479
32.77081262006088 28.7732
32.79420126883317 28.8261
32.81740999876112 28.8557
32.840620112999424 28.7515
32.86383161274818 28.6847
32.88722585534586 28.6228
32.91044014056596 28.7203
32.933655814909734 28.5165
32.95687287957963 28.616999999999997
32.98027273544904 28.4851
33.00349259526636 28.4188
33.026713849030116 28.5395
33.04993649794511 28.4606
33.073341986570746 28.396
33.09656744032826 28.4263
33.11979429286444 28.4138
33.14302254538647 28.395
33.166433686291185 28.3458
33.18966475336992 28.2771
33.212897224069096 28.1855
33.23613109959831 28.2727
33.259547912343415 28.166
33.2827846121627 28.2367
33.306022720453775 28.1284
33.32926223842861 28.0313
33.352684742614166 28.0841
33.37592709463173 27.9775
33.399170859982064 27.8852
33.422597648419426 27.868000000000002
33.44584425514446 27.7562
33.46909227885668 27.7791
33.4923417207723 27.6713
33.51577423505344 27.6011
33.539026528130385 27.5686
33.56228024307245 27.5524
33.585535381098246 27.3125
33.60897364093058 27.3194
33.63223163992385 27.3785
33.6554910656699 27.3619
33.678751919389796 27.2975
33.702195944520106 27.2716
33.72545966903325 27.2064
33.74872482519663 27.0944
33.771991414233746 27.1358
33.79544122444841 27.0593
33.81871069412428 26.9408
33.84198160035767 26.9743
33.86525394437455 26.9723
33.88870955949969 26.9653
33.911984794020626 26.9367
33.93526147001624 26.7977
33.958539588715006 26.7484
33.98200102861669 26.7631
34.0052820477047 26.680999999999997
34.02856451319451 26.6394
34.05203033759056 26.5627
34.07531571090147 26.5598
34.09860253431845 26.5556
34.121890809074316 26.4687
34.145362493118924 26.5165
34.16865368561615 26.3717
34.191946333164054 26.4587
34.21524043699793 26.3569
34.23871800066799 26.3077
34.26201503218366 26.2833
34.28531352370466 26.1961
34.30861347646881 26.2057
34.33209693978188 26.2047
34.3553998301885 26.0982
34.378704185565205 25.9949
34.402010007152356 25.9775
34.42549939016683 25.9448
34.44880815937748 25.8726
34.472118398533134 25.7823
34.49543010887669 25.7789
34.51892543169198 25.7306
34.54224009966052 25.8083
34.56555624255917 25.7699
34.58887386163339 25.6182
34.61237514439016 25.6016
34.6356957311114 25.5454
34.65901779775809 25.5296
34.68252356662995 25.4014
34.705848608458616 25.3904
34.72917513396849 25.4229
34.75250314440949 25.3439
34.77601490857862 25.2923
34.799345904259795 25.2668
34.82267838863559 25.1774
34.846012362958525 25.2507
34.869530142679984 25.2108
34.89286711232212 25.1306
34.91620557568269 25.162
34.93954553401677 25.0849
34.9630693495876 24.9687
34.986412313340814 24.978
35.00975677584668 25.0618
35.033102738362956 24.9742
35.05663261012228 24.9166
35.0799815881786 24.8314
35.10333207003229 24.7711
35.12668405694369 24.8143
35.150220005273056 24.808000000000003
35.17357501786656 24.8439
35.19693153931268 24.7406
35.220289570874385 24.6601
35.24383161619786 24.6801
35.267192683604904 24.6613
35.290555264930376 24.572
35.314101899412165 24.6017
35.33746752422433 24.5885
35.36083466676374 24.4834
35.38420332829803 24.5265
35.407756095629054 24.4424
35.43112781085063 24.4293
35.45450104888391 24.4017
35.477875810999194 24.5118
35.50143473172161 24.3989
35.52481255774625 24.4314
35.54819191167777 24.3012
35.57157279478914 24.2672
35.595137889488406 24.3367
35.61852184675279 24.1832
35.641907337029984 24.18
35.665294361595684 24.1804
35.68886565090076 24.1197
35.7122557598848 24.031999999999996
35.73564740699838 23.9727
35.759040593519934 23.9457
35.78261809810353 23.9586
35.80601437933051 23.9193
35.829412203814705 23.7986
35.85281157283719 23.721
35.876395313415884 23.8304
35.8997977874528 23.6579
35.92320180988546 23.6356
35.946790244133936 23.6123
35.97019737933222 23.6571
35.993606066789866 23.5761
36.01701630779276 23.6087
36.04061101440684 23.4956
36.06402437852291 23.5149
36.08743930005611 23.5083
36.1108557802951 23.3899
36.13445678011326 23.3805
36.15787639383515 23.3665
36.18129757014299 23.322
36.20472031032821 23.2729
36.22832762423364 23.2435
36.25175350829375 23.2486
36.275180960119776 23.1244
36.298609981005924 23.186999999999998
36.32222362992669 23.1283
36.34565580510207 23.0671
36.36908955323448 23.0667
36.39252487562093 22.9402
36.416144880530226 22.9418
36.43958336764275 22.8922
36.463023432914625 22.9552
36.486465077645676 22.8714
36.51009145956204 22.8723
36.53353627947859 22.7666
36.55698268276811 22.8119
36.58043067073321 22.8482
36.60406345072071 22.7192
36.62751462435344 22.7208
36.65096738658405 22.6726
36.67460498210655 22.6163
36.69806093788647 22.6369
36.72151848619297 22.5423
36.744977628333636 22.5013
36.76862165890998 22.425
36.79208400512205 22.4679
36.81554794910557 22.4164
36.83901349217101 22.3825
36.862663978991606 22.3225
36.88613273667352 22.3101
36.90960309738324 22.2889
36.933075062434064 22.2787
36.95673202673572 22.1721
36.98020721697122 22.2067
37.003684015502365 22.0606
37.027162423645365 22.0258
37.050825886711465 22.0405
37.07430753063053 22.0254
37.09779078812467 22.0311
37.121275660513014 21.9574
37.144945643673694 21.8888
37.16843376245278 21.8178
37.19192350009803 21.9153
37.215414857931435 21.8122
37.239091382563885 21.7653
37.262585997426164 21.7453
37.28608223645736 21.7684
37.309763684451696 21.6205
37.33326318851098 21.6428
37.356764320726555 21.5722
37.380267082425526 21.5884
37.40395510942588 21.5398
37.42746114683234 21.4606
37.45096881771841 21.4262
37.474478123414166 21.4535
37.49817275092816 21.4433
37.52168534303452 21.4068
37.54519957395567 21.2679
37.568715445024665 21.2842
37.592416694607714 21.2611
37.61593586281424 21.2072
37.63945667518264 21.2503
37.66297913304891 21.2493
37.68668702630454 21.2077
37.710212792059274 21.1139
37.733740207334854 21.0705
37.757269273470364 21.0157
37.780983832050374 21.0262
37.80451621684926 20.9537
37.82805025654007 20.9256
37.851585952464795 20.908
37.8753071980695 20.8239
37.89884622345676 20.819000000000003
37.92238690911902 20.8939
37.94611318753442 20.7648
37.969657210779765 20.7298
37.99320289834801 20.7223
38.016750251586465 20.6867
38.04048325513017 20.6088
38.06403395679343 20.6302
38.087586328183946 20.5598
38.11114037065203 20.4891
38.13488012115898 20.5254
38.1584375229181 20.4921
38.181996599821 20.358
38.205557353221124 20.3774
38.229303872575656 20.3237
38.2528679961576 20.3172
38.27643380031219 20.3333
38.30000128639589 20.3248
38.32375459653193 20.3173
38.34732546371299 20.2922
38.37089801690786 20.149
38.39447225747609 20.1122
38.418232380377425 20.1785
38.441810012983396 20.1253
38.46538933705673 20.0406
38.488970353960084 20.0172
38.51273731166058 19.9683
38.536321731567014 19.9687
38.55990784840681 19.9327
38.58367995004091 19.9008
38.60726947812959 19.8332
38.63086070726198 19.8666
38.654453638806274 19.8511
38.678232613930824 19.820999999999998
38.70182896773327 19.7565
38.72542702806741 19.7366
38.7490267963045 19.7127
38.77281266709232 19.655
38.79641586862214 19.6387
38.8200207821842 19.5752
38.843627409152944 19.5823
38.86742019782782 19.5805
38.891030269149255 19.4687
38.914642058016156 19.4136
38.938255565806124 19.4155
38.96205529464307 19.3273
38.98567225787121 19.332
39.00929094417078 19.315
39.03291135492255 19.3364
39.05671804624804 19.3616
39.080341923549106 19.2109
39.103967529460334 19.1928
39.127594865365744 19.1843
39.15140854155791 19.1157
39.17503935514948 19.1202
39.19867190290282 19.0639
39.22249083587951 19.0941
39.24612686969409 19.0787
39.269764641845306 19.0611
39.293404153722804 18.9687
39.317230110864074 18.9372
39.34087311998506 18.9111
39.36451787301696 18.9493
39.388164371352595 18.8267
39.41199737518003 18.8094
39.43564738196752 18.7955
39.45929913825317 18.7091
39.48295264543308 18.6887
39.506792718520884 18.7357
39.530449745387216 18.686
39.55410852735203 18.6221
39.57776906581474 18.734
39.60161623079 18.6191
39.625280300200025 18.6061
39.64894613032202 18.5042
39.67261372255866 18.5093
39.6964680021016 18.4592
39.72013913657293 18.4751
39.74381203738292 18.421
39.76748670593756 18.396
39.79134812278169 18.4026
39.81502634488497 18.3946
39.83870633896685 18.3876
39.862388106436654 18.3194
39.88625668336918 18.223
39.90994201572829 18.209
39.933629125719285 18.171
39.957503091207826 18.0839
39.9811937746168 18.1775
40.00488623990914 18.14
40.02858048850006 18.0842
40.05246165409549 18.0332
40.076159487492085 17.938
40.099859108448875 18.0684
40.123560518384345 18.0013
40.1474489070226 17.9432
40.171153913178564 17.8449
40.194860712584955 17.8692
40.2185693066637 17.8424
40.242464941335314 17.7939
40.26617714307655 17.7936
40.289891143772046 17.7508
40.3136069448471 17.7382
40.33750984859743 17.7009
40.3612292688043 17.6866
40.3849504936829 17.6142
40.40867352466194 17.5959
40.43258372059144 17.56
40.45631038219906 17.5685
40.48003885420956 17.4996
40.503769138055105 17.518
40.52768664931955 17.4987
40.55142057531802 17.5017
40.57515631746428 17.4931
40.599079334038514 17.391
40.62281872700477 17.3506
40.64655994043941 17.2772
40.67030297578061 17.2689
40.69423334835778 17.2888
40.71798004609188 17.247
40.74172857006355 17.2014
40.76547892171441 17.1842
40.7894166736039 17.192
40.813170699248566 17.1246
40.83692655691388 17.1168
40.86068424804498 17.0596
40.884629402612525 17.0466
40.908390779366385 17.0653
40.932153993938 16.9886
40.95591904777605 16.9896
40.979871628443995 16.9961
41.003640379561936 16.9532
41.02741097430883 16.8992
41.05118341413683 16.8977
41.075143444384416 16.8624
41.098919593177826 16.8779
41.1226975914255 16.8234
41.14647744058318 16.6984
41.170444943946755 16.7204
41.19422851378379 16.7169
41.218013938914645 16.6843
41.24198706625173 16.5955
41.26577622087193 16.6305
41.289567235177785 16.6103
41.31336011063129 16.5633
41.337340752422875 16.4798
41.361137369129835 16.5013
41.38493585138705 16.4567
41.40873620066004 16.5006
41.43272438060107 16.4125
41.45652848292052 16.3858
41.48033445666918 16.3397
41.50414230331616 16.3318
41.528138045159764 16.309
41.551949656675205 16.2582
41.575763145513235 16.264
41.59957851314666 16.2407
41.62358184070442 16.2123
41.64740098505737 16.1678
41.6712220126409 16.1222
41.69504492493139 16.1317
41.71905586207357 16.0831
41.74288256296395 16.1109
41.766711153007456 16.0564
41.79054163368412 16.0154
41.814560204340054 15.9693
41.838394485526365 15.9852
41.86223066180303 15.9121
41.88625497706819 15.9133
41.910094962812 15.9006
41.93393684811168 15.8089
41.95778063445365 15.7956
41.981812625263366 15.8522
42.00566023303407 15.8093
42.029509746323676 15.7248
42.05336116662236 15.6868
42.077400857069705 15.7051
42.10125611078846 15.6727
42.12511327600405 15.6634
42.14897235421036 15.5995
42.173019768448455 15.6192
42.19688269209613 15.5405
42.22074753323349 15.5297
42.24461429335818 15.5786
42.268669455600495 15.4631
42.292540073217886 15.4565
42.31641261433284 15.4352
42.34028708044675 15.3865
42.36435001496739 15.3758
42.38822835065557 15.3543
42.41210861586426 15.3131
42.4359908120986 15.3209
42.46006154323262 15.3179
42.48394762115317 15.2976
42.507835634632315 15.2866
42.531912233047436 15.2716
42.55580413732265 15.2224
42.579697981698 15.1729
42.60359376768525 15.1434
42.62767820545945 15.0912
42.65157789440821 15.0288
42.67547952952185 15.1027
42.699383112316 15.022
42.72347541395347 14.9886
42.74738291190531 15.0154
42.771292362102166 14.9212
42.795203766063516 14.9407
42.819303956130405 14.8802
42.843219287476536 14.9012
42.86713657716324 14.856
42.89105582671383 14.8026
42.91516392983864 14.8159
42.939087119032166 14.7659
42.963012272677304 14.7615
42.98693939230129 14.720999999999998
43.01105543317513 14.7251
43.034986504731386 14.6801
43.05891954686589 14.6689
43.08285456110972 14.6321
43.10697856448665 14.5542
43.130917542983475 14.53
43.15485849820081 14.5107
43.17880143167367 14.4897
43.20293342237094 14.507
43.226880332449 14.4762
43.25082922540554 14.4597
43.27496722682525 14.4318
43.29892010567796 14.338
43.32287497204102 14.3925
43.34683182745632 14.3726
43.370977859791836 14.3243
43.39493871351105 14.2916
43.41890156092628 14.2954
43.44286640358341 14.2324
43.46702049182749 14.2279
43.49098934522816 14.2676
43.51496019852649 14.1937
43.5389330532723 14.1474
43.56309522248204 14.1051
43.58707210044314 14.1396
43.61105098451946 14.1128
43.63503187626491 14.0512
43.659202151562134 14.0372
43.68318707902681 14.0129
43.70717401884041 13.9912
43.731162972560874 13.959000000000001
43.75534137913236 13.8965
43.779334381108384 13.8911
43.803329401683186 13.8687
43.82732644241872 13.8832
43.8515130055166 13.8151
43.87551410707659 13.7818
43.89951723350145 13.78
43.923709934595614 13.7492
43.94771713129917 13.749
43.97172635758096 13.6805
43.99573761501002 13.7064
44.0199385169922 13.6382
44.04395385732619 13.5853
44.067971233533086 13.5956
44.09199064718605 13.5874
44.11619977548961 13.5727
44.14022328470671 13.5345
44.16424883610785 13.5706
44.18827643127035 13.5553
44.21249381139513 13.4556
44.236525514814076 13.4589
44.26055926674478 13.4584
44.28459506876863 13.4496
44.3088207262813 13.3736
44.33286064928722 13.3756
44.35690262714919 13.3713
44.38094666145278 13.3473
44.4051806219871 13.2913
44.42922879003185 13.2713
44.45327901929361 13.2395
44.477331311362136 13.2333
44.501573600619416 13.1851
44.525630039221795 13.14
44.54968854541895 13.1233
44.573937102200176 13.1574
44.5979997645541 13.1855
44.622064499300315 13.0647
44.64613130803592 13.118
44.67038823869318 13.0765
44.69445921643748 12.9861
44.718532272981385 12.9502
44.742607409926194 12.9691
44.76687274034801 12.9831
44.79095205918753 12.9216
44.81503346325094 12.946
44.839116954143876 12.9335
44.86339071028742 12.9013
44.88747839599524 12.8269
44.91156817336837 12.8091
44.93566004401666 12.7837
44.959942251908146 12.7736
44.984038330325966 12.7259
45.00813650686762 12.6873
45.03223678314731 12.695
45.05652746888232 12.644
45.08063196592069 12.627
45.104738567558705 12.663
45.128847275414856 12.61
45.15314646515866 12.5457
45.17725940679741 12.5588
45.20137445952892 12.5021
45.22568004865265 12.5251
45.24979934496396 12.4673
45.27392075725247 12.4508
45.29804428714431 12.4678
45.322358426247604 12.4672
45.346486212804315 12.4554
45.370616121861914 12.4164
45.39474815505086 12.362
45.41907087049246 12.2805
45.4432071734666 12.2921
45.46734560548283 12.3245
45.49148616817604 12.3213
45.51581748638564 12.3085
45.5399623320197 12.2743
45.56410931325473 12.2374
45.58825843173002 12.2398
45.61259837920865 12.1593
45.636751793816 12.1387
45.66090735060093 12.1377
45.68506505120716 12.0884
45.7094136545275 12.0778
45.73357566449271 12.0255
45.75773982322992 12.0505
45.78190613238733 12.0481
45.806263418194064 11.9578
45.83043404997326 11.9734
45.85460683713677 11.9816
45.87897065658495 11.9961
45.90314777634752 11.9247
45.92732705646868 11.8894
45.9515084986045 11.8262
45.97588104735473 11.8164
46.00006683541565 11.8138
46.02425479047904 11.8144
46.04844491420549 11.8304
46.0728262191024 11.7693
46.09702070211635 11.7164
46.12121735879483 11.7415
46.14541619080294 11.7142
46.169806278764455 11.661
46.194009483459034 11.6522
46.21821486849841 11.6774
46.24242243555223 11.6197
46.266821333570014 11.584000000000001
46.29103328674601 11.5713
46.31524742696538 11.5791
46.33946375590237 11.5467
46.36387149104216 11.522
46.38809221957392 11.4863
46.41231514186606 11.4438
46.436540259597464 11.4595
46.460956858999374 11.4625
46.48518638983522 11.4113
46.509418121166966 11.3766
46.533652054678114 11.327
46.55807754555709 11.3273
46.58231590571962 11.3633
46.60655647313217 11.3339
46.630988654873654 11.2673
46.655233659129024 11.2424
46.67948087571551 11.2299
46.70373030632484 11.2251
46.72817142736393 11.1882
46.752425308428684 11.1992
46.77668140861147 11.1654
46.80093972960865 11.1188
46.82538981736788 11.088
46.849652602470904 11.0731
46.87391761349769 11.0421
46.8981848521493 11.0302
46.9226439341274 11.04
46.946915650573224 11.0263
46.97118959976749 10.9701
46.99546578341598 10.9512
47.019933887188216 10.9218
47.04421456235744 10.9392
47.06849747711879 10.9245
47.09278263318286 10.8941
47.11725978640143 10.8452
47.14154944775105 10.8169
47.165841355555656 10.825
47.1901355115306 10.8076
47.214621741924994 10.8065
47.23892041698887 10.7986
47.26322134538975 10.7397
47.28771440635075 10.7307
47.31201986422527 10.7483
47.33632758061436 10.6945
47.360637557241866 10.6691
47.38513974410611 10.6353
47.40945426407847 10.5898
47.43377104948137 10.5608
47.45809010204344 10.5923
47.48260144275502 10.5884
47.506925052572285 10.517000000000001
47.53125093475548 10.482999999999999
47.55557909103813 10.485
47.58009961361992 10.5346
47.60443234110732 10.491
47.62876734791564 10.4708
47.65310463578333 10.4792
47.6776343683373 10.4094
47.7019762413987 10.3414
47.72632040075572 10.3655
47.75066684815169 10.3876
47.77520581885936 10.3117
47.799556865477655 10.323
47.823910205386 10.3049
47.84826584033272 10.2769
47.87281407745551 10.2806
47.89717432569297 10.2482
47.92153687423484 10.2421
47.94609208429692 10.1993
47.97045925671401 10.2166
47.99482873471275 10.1395
48.01920052005013 10.1738
48.04376504619224 10.1394
48.068141469543484 10.1561
48.09252020552573 10.0822
48.11690125590099 10.0911
48.1414751266064 10.0501
48.16586082917454 10.0266
48.19024885144316 10.0219
48.2146391951793 10.0343
48.239222439012764 10.0079
48.26361744916137 9.967210000000001
48.28801478610016 9.97569
48.31241445160131 9.9476
48.337007097209366 9.93774
48.36141144338331 9.93468
48.38581812345755 9.86843
48.41022713920929 9.87337
48.434829215320704 9.86851
48.45924292604658 9.85585
48.48365897780325 9.81339
48.50807737237308 9.79053
48.532688907799276 9.769680000000001
48.55711201168574 9.7682
48.581537463754074 9.74756
48.60615611725119 9.73007
48.63058628942721 9.721
48.65501881516546 9.69103
48.6794536962573 9.69112
48.70408185970339 9.67441
48.72852147531801 9.60758
48.75296345168211 9.6147
48.77740779059232 9.62843
48.80204549302823 9.63143
48.82649458091802 9.59325
48.85094603676547 9.50615
48.87539986237231 9.513119999999999
48.90004713292306 9.49472
48.92450572200832 9.50102
48.94896668628025 9.43554
48.97343002754588 9.44431
48.99808689542115 9.42033
49.02255501470614 9.43084
49.04702551642794 9.461219999999999
49.0714984023988 9.43399
49.096164896893235 9.36696
49.120642575466796 9.3926
49.145122643748394 9.36115
49.16960510355558 9.31065
49.19428125404938 9.2828
49.2187685210852 9.3069
49.243258185121555 9.29135
49.26794160167084 9.23358
49.2924360839405 9.22328
49.31693296869764 9.23277
49.34143225776915 9.19024
49.36612538195438 9.140939999999999
49.39062950396021 9.13753
49.41513603578346 9.15168
49.4396449792564 9.12962
49.46434784069503 9.08843
49.488861631846454 9.10327
49.513377840166804 9.07068
49.537896467493745 9.078489999999999
49.56260909589029 9.005419999999999
49.587132585683285 9.0357
49.611658500018365 9.02993
49.636186840738596 8.967889999999999
49.66090926588511 8.97152
49.685442483902584 8.959019999999999
49.70997813385706 8.928939999999999
49.734516217597076 8.898710000000001
49.75924846937352 8.90729
49.7837914452858 8.87682
49.80833686055187 8.84637
49.83288471702571 8.83661
49.85762682540054 8.82977
49.882179588965734 8.82099
49.9067347993235 8.74975
49.93129245833333 8.76852
49.95604445336378 8.768310000000001
49.98060703442832 8.74718
50.005172069746266 8.721680000000001
50.02993150438364 8.72279
50.05450147301533 8.66947
50.07907390151433 8.6568
50.10364879174981 8.65325
50.12841816587289 8.62606
50.1529980044635 8.62927
50.17758031042124 8.606160000000001
50.20216508562089 8.62399
50.22694442953363 8.56887
50.25153416817468 8.55769
50.27612638170508 8.542710000000001
50.300721072005196 8.52626
50.325510416102105 8.538110000000001
50.350110084975064 8.47564
50.37471223628208 8.49996
50.39931687190919 8.46459
50.424116246675766 8.47308
50.44872587605249 8.45572
50.47333799543065 8.44154
50.49795260670191 8.418280000000001
50.52276204271512 8.37003
50.54738166295838 8.363439999999999
50.57200378079314 8.36158
50.596628398116835 8.31771
50.62144792604559 8.322460000000001
50.646077567609396 8.31664
50.670709714377715 8.301060000000001
50.69553683636198 8.28389
50.72017401885922 8.27464
50.7448137122895 8.23724
50.76945591856022 8.212710000000001
50.79429318636823 8.223239999999999
50.818940443716784 8.23282
50.84359021965163 8.18838
50.868242516085964 8.15339
50.893089960641895 8.11894
50.917747323549435 8.1241
50.94240721271973 8.0823
50.96706963007175 8.09638
50.99192728239342 8.07295
51.01659478166073 8.053339999999999
51.04126481489051 8.02496
51.06593738400761 8.04832
51.090805275207074 8.04097
51.11548294172845 7.99803
51.14016314993547 8.00049
51.164845901758845 7.936030000000001
51.18972406304274 7.9074800000000005
51.21441192780656 7.932939999999999
51.23910234200271 7.902
51.2637953075678 7.919060000000001
51.288683770237945 7.91458
51.31338186432707 7.885669999999999
51.33808251561888 7.8608899999999995
51.362978729967345 7.827710000000001
51.387684521509755 7.86135
51.41239287610203 7.821739999999999
51.437103795691165 7.75898
51.46201036644977 7.76819
51.486726441956634 7.76703
51.51144508832545 7.731789999999999
51.536166307509156 7.70903
51.56108326624387 7.7070300000000005
51.58580965706056 7.680060000000001
51.61053862657523 7.66926
51.635270176746864 7.66975
51.66019755512065 7.66527
51.68493429268881 7.64341
51.70967361681515 7.626869999999999
51.73441552946465 7.61332
51.759353359237934 7.59058
51.7841004750961 7.60907
51.80885018539685 7.559639999999999
51.833602492111254 7.52595
51.8585508051424 7.51155
51.883308330926425 7.512560000000001
51.90806845906181 7.456410000000001
51.932831191525715 7.45982
51.95779001977161 7.4766
51.98255798721516 7.44143
52.00732856494335 7.411410000000001
52.03229530577543 7.41803
52.057071130455945 7.391839999999999
52.081849571391054 7.38639
52.106630630568695 7.36264
52.13160794279417 7.328189999999999
52.15639426492067 7.29633
52.18118321127822 7.34132
52.205974783860896 7.343939999999999
52.23096269971011 7.29356
52.255759551287994 7.290439999999999
52.280559035098186 7.26133
52.30536115314103 7.257910000000001
52.33035970494467 7.20947
52.35516711807904 7.182460000000001
52.37997717147198 7.19278
52.40478986713005 7.1855899999999995
52.42979908731974 7.133560000000001
52.454617094216 7.14173
52.47943774942214 7.148569999999999
52.50426105495102 7.11791
52.529280976059844 7.04895
52.554109609024096 7.1021600000000005
52.57894089837482 7.07688
52.60377484613117 7.076410000000001
52.62880550079408 7.071269999999999
52.65364479223379 7.024889999999999
52.67848674816189 7.0203
52.70352547971946 7.03655
52.72837279155837 6.97319
52.753222773982785 6.96283
52.778075429022984 7.01285
52.80312495150885 6.9725399999999995
52.827982978797436 6.927860000000001
52.85284368481815 6.9160699999999995
52.87770707160767 6.87173
52.90276741793998 6.86273
52.92763619336701 6.894360000000001
52.952507655698504 6.8396300000000005
52.977381806977576 6.84837
53.00245301017842 6.87615
53.02733256653592 6.84017
53.052214817996074 6.773960000000001
53.077099766608484 6.77137
53.102181859804446 6.78723
53.127072229988265 6.7868
53.15196530349892 6.736339999999999
53.17686108239249 6.71248
53.20195409881522 6.74302
53.22685531582556 6.74723
53.25175924441303 6.688860000000001
53.27666588664027 6.66062
53.30176985962693 6.67892
53.3266819565689 6.6426300000000005
53.35159677336455 6.646780000000001
53.376514312083096 6.63587
53.40162927507703 6.6181600000000005
53.42655228516116 6.6015
53.45147802340193 6.586539999999999
53.47660125628886 6.59691
53.50153247842639 6.53885
53.52646643496923 6.52275
53.55140312799818 6.475630000000001
53.576537409691696 6.51818
53.60147960336152 6.52286
53.626424539786164 6.4609
53.65137222105307 6.43789
53.67651758529126 6.4881400000000005
53.70147078399681 6.40669
53.72642673383343 6.42248
53.75138543689533 6.392469999999999
53.776541917524526 6.39919
53.801506154876755 6.41493
53.826473151763246 6.35886
53.851442910284916 6.34872
53.87661054126026 6.3449
53.9015858509782 6.31683
53.92656392866066 6.27902
53.95154477641532 6.31642
53.976723591801296 6.30199
54.00171000771266 6.269819999999999
54.02669920004598 6.29835
54.051691170915745 6.23694
54.076881204886796 6.27798
54.101878760928514 6.22255
54.12687910187696 6.2172
54.152077577768296 6.23709
54.1770835166946 6.18337
54.20209224691339 6.14912
54.22710377055121 6.1478
54.25231352511594 6.1451400000000005
54.27733066384342 6.10438
54.30235060239643 6.11333
54.32737334290836 6.0703
54.35259441062629 6.05143
54.377622783395324 6.010669999999999
54.40265396455061 6.07201
54.42768795623251 6.00015
54.45292037169559 5.95904
54.477960012857906 5.98829
54.50300247099511 5.98589
54.52804774825457 5.96002
54.55329154616743 5.953469999999999
54.57834249018678 5.939
54.6033962597977 5.90069
54.6284528571545 5.8472800000000005
54.653708072335164 5.77585
54.67877035378786 5.81712
54.70383546947698 5.80061
54.72890342156389 5.82596
54.7541700889442 5.7033
54.77924374251975 5.70873
54.8043202390049 5.68204
54.82959552413022 5.69725
54.8546777351945 5.67507
54.87976279569621 5.66786
54.90485070780914 5.6635800000000005
54.930137506558005 5.59199
54.95523115074295 5.60915
54.98032765308844 5.54481
55.005427015775496 5.559419999999999
55.03072536339621 5.57903
55.05583047570572 5.51294
55.080938454927676 5.46285
55.10604930325027 5.46862
55.131359235107396 5.510330000000001
55.15647585066083 5.43547
55.181595341907496 5.40784
55.20671771104285 5.366569999999999
55.232039262617704 5.35531
55.25716741665048 5.36757
55.28229845518636 5.32141
55.30743238042802 5.2228900000000005
55.33276558731939 5.23602
55.357905315183636 5.25403
55.383047936390035 5.21548
55.40819345314859 5.20801
55.433538351073295 5.19968
55.458689688238415 5.18242
55.483843927614096 5.14595
55.509197623043605 5.14925
55.53435769621134 5.13322
55.55952067826466 5.05684
55.5846865714265 5.0464199999999995
55.61005202069737 5.03107
55.63522376553902 5.01924
55.66039842818645 4.96755
55.68557601087004 4.97053
55.7109532500271 4.91266
55.73613670233794 4.90439
