TT I
1.2716486653135266 7.13663
1.2939594142134223 7.2449699999999995
1.3162702121660406 6.80008
1.3385810600174564 7.29587
1.3608919586137629 7.247319999999999
1.383202908801069 6.891310000000001
1.405513911425503 6.614889999999999
1.4278249673332093 6.30211
1.4501343378461518 5.99911
1.4724455028545926 6.24648
1.4947567236847858 6.2171199999999995
1.517068001182951 5.7779
1.5393793361953272 6.02551
1.5616907295681737 5.2230099999999995
1.5840021821477681 5.28233
1.60631369478041 5.66438
1.6286252683124185 5.8049
1.6509369035901333 5.2226099999999995
1.6732468618895553 4.9786
1.695558623192809 5.4559
1.7178704487808514 5.02361
1.7401823395001077 5.61353
1.7625012545597203 5.1332
1.7848028405262486 5.49737
1.8071218901122095 5.0128900000000005
1.8294236121921872 4.76954
1.8517427996910911 4.75378
1.8740620574440425 5.24854
1.8963639900671978 4.92565
1.9186833908139995 5.29485
1.9409854680117449 5.23013
1.9633050151394713 4.70183
1.9856246367570705 4.76465
2.0079269371922672 5.0819
2.03024671027244 4.26335
2.0525491637446027 4.20901
2.074869091674931 4.4205
2.097171701569106 4.88352
2.1194917877373847 5.05612
2.141811954326636 4.475169999999999
2.164114805233074 5.08122
2.186435135143035 6.34259
2.208738150935709 16.5296
2.231058647554722 35.3711
2.2533792288321184 27.616999999999997
2.275682498336085 12.216
2.298003251406138 5.8829199999999995
2.3203066942619714 5.39289
2.3426276225136022 5.11005
2.3649486396617507 5.59737
2.387252348930071 5.14847
2.4095735463442893 5.5735
2.4318774374315884 5.77344
2.4541988185014043 5.55895
2.476502894794693 6.71086
2.498824462909887 6.3272900000000005
2.521146125856138 6.47107
2.5434504863470337 6.62815
2.5657723414244717 6.5962
2.588076895590662 8.03239
2.610398946189713 7.121339999999999
2.6327210958598384 7.42622
2.6550259469304716 7.474310000000001
2.6773482972090137 7.39495
2.6996533504259 7.922560000000001
2.7219759047039602 7.64695
2.744298562293959 7.644189999999999
2.7666039251246595 7.38583
2.7889267918020164 7.496919999999999
2.8112323652516555 8.51849
2.833555444408179 7.9734300000000005
2.8558786311183852 7.841310000000001
2.8781845268938557 8.40886
2.9005079311721484 8.67177
2.9228140460410397 8.91015
2.9451376712799635 8.720080000000001
2.967444008632326 9.60905
2.9897678582247247 9.9738
3.0120918213106695 10.4604
3.0343984987899373 10.3516
3.0567226913198637 11.2637
3.079029599759726 11.6225
3.101354025127254 12.6486
3.123678568232338 12.9692
3.145985829517914 12.9915
3.16831061055229 13.3534
3.1906181112775593 14.4133
3.212943133635653 14.6056
3.2352682779763207 15.0596
3.2575761442691227 15.6035
3.2799015350264273 15.8457
3.302209649240067 16.7347
3.3245352898092655 17.1058
3.3468436553365257 17.6836
3.369169549113219 18.3194
3.3914955708171384 19.1232
3.413804319727358 19.2393
3.4361305997334863 19.2099
3.4584396084414553 19.9024
3.4807661501462652 20.4236
3.503092824025881 21.2542
3.5254022288463154 21.724
3.5477291695206588 22.0989
3.5700388426251948 23.2129
3.5923660534916446 24.6605
3.6146934007816114 42.7077
3.637003482731501 110.561
3.6593311053109985 124.823
3.681641464033634 68.6516
3.7039693653009733 33.3123
3.726297407241705 26.809
3.7486081875460804 25.8878
3.7709365132734978 26.4336
3.793247578841633 27.0869
3.8155761917550093 27.4167
3.8378875459837216 27.8509
3.8602164494827234 27.8521
3.882545499606844 28.8044
3.9048572932539183 29.5429
3.9271866390645718 29.715
3.9494987298666713 30.4007
3.971828374764527 30.7804
3.9941581705403255 31.2293
4.016470713506008 32.0658
4.038800813471445 32.6589
4.061113662089144 33.583
4.0834440696459176 34.6583
4.105774632334751 34.8889
4.128087945865126 35.325
4.150418821249301 36.4834
4.172732448931298 38.3531
4.195063640413578 40.34
4.2173775856475215 45.4074
4.239709096631102 84.5867
4.262040768704612 300.33299999999997
4.284355196706267 413.936
4.306687193387355 264.789
4.329001947444346 95.8555
4.35133427213731 51.0877
4.373666762177566 45.6804
4.395982011761091 45.4831
4.418314834921175 47.5364
4.44063041906622 56.9028
4.4629635787515625 72.0507
4.4852969080429785 71.3424
4.5076130004776225 56.9996
4.529946671403969 51.9989
4.552263106909177 51.8452
4.574597122877047 52.4499
4.596931312711224 53.4851
4.619248269273446 54.6097
4.6415828092605835 54.9262
4.663900117405352 56.7462
4.686235010953232 57.6127
4.708552674085913 58.8025
4.730887924602802 60.0537
4.753223354952695 61.9558
4.775541557023902 62.9667
4.797877349456786 65.2159
4.820195915032126 66.7245
4.842532072957498 68.2956
4.864868414979744 70.4299
4.88718753227192 72.8236
4.909524244902505 74.8869
4.931843734218147 76.5521
4.954180820867835 78.8092
4.976518095879839 82.3751
4.998838149695359 85.1335
5.021175803844231 88.8686
5.043496238205739 92.1669
5.065834274903528 97.2919
5.088172504230693 102.88
5.1104935158799565 110.383
5.132832132875765 138.983
5.155153533596801 196.93900000000002
5.1774925416746225 241.388
5.199814334878411 428.00800000000004
5.2221537374521505 1173.63
5.244493338631803 2944.92
5.266815727034316 6861.58
5.289155727832427 11524.4
5.311478517248165 9295.31
5.333818921080011 3605.42
5.356159527788849 769.679
5.3784829252032536 224.774
5.400823940070432 160.844
5.423147747031976 138.636
5.445489173474152 125.429
5.467830807066149 119.286
5.490155234831516 114.16
5.512497285125229 110.04
5.534822130975162 107.631
5.557164601388673 104.992
5.579489868738879 102.18299999999999
5.601832762690846 101.29700000000001
5.6241758697774475 100.666
5.646501775867269 99.5727
5.668845311622074 97.9032
5.691171647754637 96.7651
5.713515615597765 95.7091
5.735859800852677 94.7317
5.758186788542988 94.3476
5.780531411018185 94.7158
5.802858837297399 93.9831
5.825203900414495 93.8582
5.8475491852224 94.44200000000001
5.869877275883075 94.9244
5.892223006467101 95.8955
5.914551544266608 97.4337
5.936897724049891 101.12799999999999
5.959244129804903 106.79899999999999
5.981573344815301 128.19299999999998
6.0039202049061 231.433
6.026249875609095 507.43300000000005
6.04859719346037 1034.38
6.070927323278297 2070.33
6.093275102315365 3934.68
6.115623113320588 4916.31
6.137953938319995 3468.23
6.160302415650845 1252.55
6.182633708324452 305.497
6.2049826554078376 129.83700000000002
6.227331838745022 100.35799999999999
6.249663839443684 90.4297
6.27201349767565 86.9831
6.294345974611799 95.3105
6.316696111167083 111.956
6.339046488263839 105.02799999999999
6.361379686074702 85.2106
6.383730546639482 74.9071
6.406064229255215 71.3746
6.428415576718203 70.5836
6.450749747566656 68.9761
6.47310158535871 68.1432
6.495453669698332 67.3076
6.517788579421056 66.7369
6.540141159237969 65.4739
6.562476565766648 65.1564
6.5848296444934045 64.6346
6.607182974060425 64.1009
6.6295191323281015 64.4307
6.651872965955752 68.7183
6.6742096296068985 102.234
6.6965639707294615 165.62900000000002
6.71891856698715 167.59900000000002
6.741255995248479 109.445
6.763611104154477 72.6719
6.785949046381137 62.5062
6.808304671371482 60.393
6.8306605557940046 59.6035
6.852999275508618 59.1249
6.875355681171544 58.5402
6.897694923437771 58.3535
6.92005185377892 58.1816
6.9423916220322655 58.0711
6.964749080490181 57.401
6.987106804399774 57.3296
7.009447368180821 57.317
7.031805625367033 56.8733
7.054146723727803 56.7868
7.076505517631004 56.7652
7.098864581288365 57.0813
7.121206488070854 56.8708
7.143566093607822 56.475
7.165908543567245 56.9636
7.188268694426048 56.8519
7.2106291193438095 57.3416
7.232972390625943 59.3859
7.255333366030969 75.4281
7.277677189091925 146.808
7.300038718428332 213.642
7.322400526130865 179.03099999999998
7.344745183422596 103.241
7.367107550224791 65.7939
7.389452767901992 58.4121
7.411815697249891 57.208
7.434161478756298 55.9822
7.456524974096713 55.7874
7.478888753837185 55.8871
7.501235387657368 56.1791
7.523599738562711 56.3469
7.545946944825532 56.5035
7.568311870344528 56.4131
7.5906770845765665 57.1495
7.613025156078678 58.8266
7.635390950099687 60.0173
7.657739602662809 59.5032
7.680105979923558 57.6488
7.702472650212829 57.5801
7.724822180948224 57.733000000000004
7.747189439655568 57.5918
7.769539560075357 57.6171
7.791907410653562 58.2017
7.81425812420825 57.8551
7.836626570110925 58.1585
7.858995315087906 59.0548
7.881346924933401 59.1607
7.903716270417482 60.0466
7.926068482028405 59.8147
7.948438431475253 60.4589
7.9708086843180235 61.0511
7.993161805171116 62.1942
8.015532667162402 62.754
8.037886398416653 63.2032
8.060257873014221 63.263999999999996
8.082629655331942 64.1336
8.104984308787587 65.5
8.127356708900503 69.7573
8.149711981398308 76.7502
8.172085002766314 80.0433
8.194458336181368 75.143
8.216814543847752 71.3383
8.23918850371002 70.8313
8.26154533906492 71.7392
8.283919928836452 73.6395
8.306277395339652 74.3868
8.328652618483376 75.5976
8.351028159736202 77.9834
8.373386579575245 79.9156
8.395762759396959 82.04799999999999
8.418121819038275 87.9811
8.440498640894003 104.822
8.462875785192262 122.859
8.485235811156207 136.52
8.507613602688501 177.636
8.529974277114228 275.314
8.552352719347912 413.24
8.574731488360351 652.974
8.59709314210385 1090.93
8.619472567021075 1663.46
8.64183487789147 2107.43
8.664214962183097 1880.79
8.686577933647762 1131.45
8.708958680784317 469.635
8.731339760774953 198.237
8.753703729764451 122.257
8.77608547780821 104.876
8.798450116065078 99.3591
8.820832535634787 95.7695
8.843215292401656 93.7958
8.865580941199045 92.273
8.887964374703538 91.1526
8.910330701447199 92.6263
8.932714815164482 96.0786
8.955099270424924 95.1512
8.977466620733543 91.1494
8.999851761421976 87.4049
9.022219798361645 85.7273
9.04460562795561 85.1617
9.066991803441677 84.6827
9.089360876979615 84.3775
9.111747746589993 84.4955
9.13411751544971 83.8439
9.156505082664324 83.1991
9.178875550323522 83.6095
9.20126381862328 84.3653
9.223652438908596 84.8267
9.246023961427412 84.281
9.26841328802173 83.4738
9.290785518039224 83.7459
9.313175554425882 84.9811
9.335565947154315 84.5261
9.357939245086508 84.5839
9.380330352834827 84.8861
9.40270436697103 84.9248
9.425096193225055 84.7449
9.447488380180165 85.7104
9.469863475295412 85.6755
9.492256385987508 85.9125
9.514632206018318 86.6704
9.537025843935714 87.2726
9.559402392368193 87.584
9.581796761000229 89.2265
9.604191496441521 90.4523
9.626569144158516 94.6167
9.648964615551032 100.415
9.671343000390081 102.637
9.693739211225699 99.4485
9.716135793237463 95.9644
9.738515290448102 95.07700000000001
9.760912617143402 96.0098
9.783292860202891 97.0693
9.805690935076182 98.4173
9.828089385495742 99.6476
9.850470754023561 102.64200000000001
9.872869957865444 112.1
9.89525208097539 131.576
9.917652041736662 148.285
9.940052382417589 146.612
9.962435644102392 150.392
9.984836746950979 187.007
10.007220771957746 256.759
10.029622640473708 363.39300000000003
10.052007432299963 525.2769999999999
10.074410069984072 766.1419999999999
10.096813093716005 1132.52
10.119199042482517 1579.99
10.141602840636468 1891.7
10.163989564971628 1739.56
10.186394141051062 1119.0
10.208799107559706 511.94699999999995
10.231187001965623 236.30900000000003
10.253592751657669 141.003
10.275981430388155 119.459
10.298387966769793 118.789
10.320794897965431 122.212
10.343184759907361 120.76
10.36559248305461 113.711
10.387983138083852 108.12
10.410391656691655 110.73700000000001
10.432800574501677 122.461
10.455192425893369 140.418
10.47760214443012 165.90099999999998
10.499994797678786 203.736
10.522405320453982 268.699
10.54479877906917 364.645
10.567210109595656 476.852
10.5896218454736 547.0369999999999
10.612016518879773 541.0830000000001
10.634429067781074 391.29
10.656824555333241 230.87900000000002
10.679237920773568 140.56799999999998
10.701651695961992 103.06200000000001
10.724048411481384 92.7339
10.746463008485165 89.22
10.768860546937125 87.4424
10.791275969274796 85.6958
10.81369180576079 84.2755
10.836090585366925 82.9772
10.858507252467449 81.5485
10.88090686379991 80.8603
10.903324365036394 80.3088
10.925724811614439 80.5674
10.948143150509463 82.5275
10.970561909719066 81.7273
10.992963615930844 79.4348
11.015383218085756 76.778
11.037785768347074 75.2553
11.06020621697282 74.4464
11.082627090322113 74.1552
11.105030913430326 73.5881
11.12745263854165 74.3117
11.149857314510728 79.0032
11.172279894912576 87.6266
11.194702904450653 89.1763
11.217108866490921 83.6173
11.239532736615194 77.744
11.26193956033512 74.8992
11.284364294577085 72.9642
11.306789462371718 70.3061
11.329197585398376 69.1923
11.351623622610898 68.8858
11.37403261614354 67.8081
11.396459526308487 67.6225
11.418869393879497 67.2116
11.441297180532617 67.0161
11.463725406927658 66.4501
11.486136592353875 66.4339
11.508565700543707 66.7715
11.530977768845315 69.7416
11.553407762368774 71.0844
11.575838200059769 70.0955
11.598251599479612 67.5201
11.620682927815501 65.6536
11.64309721895548 65.2101
11.665529441478206 64.7641
11.687962112597958 64.4989
11.710377748130886 64.2739
11.732811318753434 64.1557
11.755227854859067 64.4615
11.777662328529495 64.3863
11.800079768750786 64.2846
11.822515149015453 63.9449
11.844950984084935 64.0458
11.867369787303163 63.6585
11.889806534289491 63.7834
11.912226250487029 64.1479
11.934663912939751 64.4789
11.9571020346363 64.3451
11.979523127133968 64.465
12.001962169624331 65.1754
12.024384183972964 66.4701
12.046824150809913 69.6307
12.069264581333726 75.0643
12.091687985297767 81.9805
12.11412934550045 90.8493
12.136553680195208 103.021
12.158995973632788 121.66
12.181438735204349 144.11700000000002
12.20386447284199 171.828
12.226308172985636 199.66400000000002
12.24873485024193 209.44099999999997
12.271179492516982 183.274
12.293607112949127 144.144
12.316052700916226 108.87799999999999
12.338498763250042 86.1016
12.360927805303868 74.2963
12.383374818673879 69.3136
12.405804812803074 66.7555
12.428252780773262 65.7808
12.45070122756722 65.8371
12.473132656675375 65.8828
12.49558206341869 66.0668
12.518014453510101 65.7133
12.540464823770117 66.2204
12.562915677315177 66.3026
12.58534951575545 67.0413
12.607801338171472 69.7116
12.630236146511358 76.7344
12.652688941369085 83.2434
12.675124723177234 83.8546
12.697578494048786 78.5547
12.720032754458185 72.7214
12.742470003354093 69.8592
12.764925245138771 69.3636
12.787363476431278 69.6355
12.809819703166806 69.9974
12.83227642391173 70.7847
12.854716135692716 71.2243
12.877173846755147 72.4706
12.899614549869717 72.3584
12.9220732548287 73.3239
12.94453245827299 73.7767
12.966974655289818 74.7198
12.989434858002571 75.4337
13.011878055298721 76.4175
13.034339260862497 77.0549
13.056800969391883 78.5329
13.079245674017244 80.6348
13.101708390774869 83.1552
13.12415410463411 90.3122
13.146617833206086 103.256
13.169064559883248 116.696
13.191529303857127 131.649
13.213994557076367 152.235
13.236442809902437 181.62900000000002
13.258909083908291 225.77200000000002
13.28135835851934 278.931
13.30382565690295 342.12
13.326293469022952 403.63699999999994
13.348744283242008 431.70599999999996
13.371213125129904 387.02099999999996
13.39366497011003 297.369
13.416134845360597 199.763
13.438605238843131 138.759
13.46105863690397 113.085
13.483530069144786 110.154
13.505984506951902 115.041
13.528456981549432 125.08
13.550929978879088 138.35299999999998
13.573385983253365 158.266
13.595860028340867 188.96200000000002
13.618317081455832 230.196
13.64079217790333 279.323
13.663250283359057 326.272
13.685726434770173 366.735
13.708203115221277 357.56300000000005
13.730662806148091 297.223
13.75314054697177 216.957
13.775601299246777 147.381
13.798080104050406 106.67
13.820559442405358 89.6092
13.843021793671388 84.5009
13.865502201420897 82.2729
13.887965623051947 81.2505
13.910447103807167 80.1791
13.932929122629764 78.9175
13.955394156785959 78.4604
13.977877254034569 77.4265
14.000343367582113 76.5163
14.022827546871707 76.0599
14.045294743423524 75.4314
14.06778000837062 74.7072
14.090265817715476 74.505
14.112734645763819 74.2221
14.13522154619454 74.0789
14.157691466286913 74.4887
14.180179461423874 74.3091
14.202668005486178 73.4358
14.22513957064374 72.7146
14.247629214846473 71.875
14.270101881097517 71.7359
14.29259262906496 72.441
14.315083930490205 73.3215
14.337558255389705 73.6985
14.360050666019726 73.6323
14.382526101071944 72.1282
14.405019624534942 71.0297
14.427513705993134 70.3206
14.449990813291825 70.1952
14.47248601302899 69.9817
14.49496423954951 70.1471
14.517460561197822 70.4186
14.539939910570322 70.0679
14.562437357763558 70.4406
14.58493536931253 71.9827
14.607416409993311 73.5107
14.62991555254159 74.4764
14.652397725157423 73.8648
14.674898002342799 72.9179
14.697398848433282 72.3022
14.719882725991326 72.6985
14.74238471217934 73.3946
14.764869730765593 76.8476
14.787372860692983 81.02
14.809876564079925 85.6182
14.83236330125751 91.6131
14.854868153850365 99.43799999999999
14.877356041159485 110.65299999999999
14.899862046604186 125.366
14.922351087688757 145.931
14.944858249632887 170.351
14.967365991421232 196.36
14.989856770231246 217.838
15.012365673994204 221.72
15.03485761569738 202.99
15.05736768508665 166.61
15.07987833888692 129.969
15.102372032001655 100.645
15.124883856909658 82.5524
15.14737872204565 75.3166
15.169891721717274 73.0269
15.192405310371893 72.4144
15.214901940621196 73.0963
15.237416709527137 73.2983
15.259914520936249 73.7553
15.282430473753607 72.4304
15.304947020131227 70.9591
15.327446610371178 69.9753
15.349964346154254 69.0275
15.372465126703139 68.4985
15.394984055556009 68.2934
15.417486030076159 68.0127
15.44000615566487 67.5117
15.462526881230803 67.5656
15.485030653812652 67.8452
15.507552581617434 67.9094
15.530057557334603 68.0348
15.55258069104857 67.7979
15.575104429329837 67.8497
15.597611216864632 67.1555
15.620136166564563 67.4739
15.6426441664095 68.2139
15.665170331202765 70.8586
15.687697105158826 74.2487
15.710206930593545 77.7469
15.732734925158933 82.1657
15.755245972089478 87.9907
15.77777519094324 96.0243
15.800287463046663 106.679
15.822817909869592 121.281
15.84534897229804 138.51
15.867863089299354 159.884
15.890395385222186 178.601
15.912910736597423 193.22400000000002
15.935444269699861 190.72799999999998
15.957978423016485 171.42700000000002
15.980495633101265 138.534
16.003031029129367 108.18799999999999
16.02554948280019 83.9378
16.048086125229432 71.9044
16.070623392487107 68.348
16.09314371869582 67.2136
16.11568223789321 66.2712
16.13820381691126 65.0429
16.160743591742527 63.4236
16.183283996022084 62.306000000000004
16.205807461423195 61.0821
16.228349126881973 60.5151
16.25087385432698 60.3264
16.27341678466365 59.7673
16.29594277784926 59.9398
16.31848697676433 60.2912
16.341031811604868 61.0857
16.36355971058487 61.5294
16.3861058195587 61.1836
16.40863499352978 59.516999999999996
16.431182380342005 58.4499
16.453730407713202 57.7778
16.476261501364792 57.2328
16.498810812136167 56.7737
16.52134319004079 56.9782
16.54389378792203 56.6723
16.566445031001553 56.5238
16.588979342490088 56.6473
16.61153187824822 56.382
16.634067483263312 56.2655
16.656621315414416 55.9893
16.679175797408888 55.6019
16.701713349928728 55.9239
16.72426913389191 56.1858
16.74680798922351 56.1213
16.76936507887444 56.3119
16.791905240734874 56.5691
16.814463639794468 56.2027
16.837022695210294 56.2258
16.859564824093756 56.7258
16.882125194503903 57.7947
16.904668639217885 58.6007
16.927230328348003 58.8667
16.949792678493612 58.8622
16.972338104193863 57.8941
16.994901778652235 57.2586
17.017448529496576 57.1167
17.040013531998152 57.1238
17.06257920018044 57.5422
17.0851279459922 58.3488
17.107694947817667 59.1643
17.130245028099072 60.0391
17.15281336730298 61.5201
17.17536478578733 63.1542
17.19793446610687 64.9
17.220504818648422 67.0693
17.243058251703697 69.6797
17.265629950971032 73.4768
17.288184731571736 77.3098
17.310757781306908 81.8128
17.33333150794385 84.086
17.355888317140174 83.5408
17.37846339986244 79.7127
17.401021565958885 74.3341
17.42359800851343 68.991
17.44617513265564 64.625
17.468735341390783 62.0328
17.491261035594565 60.7475
17.51396340099364 60.3021
17.536490463869136 60.4706
17.559018209820174 60.485
17.58154663977963 60.5209
17.604251766089718 60.7946
17.626781572227713 61.0337
17.64931206518155 61.3658
17.671843245885103 61.7214
17.69455114821572 61.9964
17.717083712612634 62.4051
17.739616967569667 62.4525
17.762150914021706 62.5979
17.78486160749854 62.5577
17.807396945166804 63.1392
17.829932977143503 64.0063
17.85246970436452 65.6567
17.875183204129467 67.5388
17.897721330097664 69.9583
17.920260154126645 72.6005
17.942799677153296 75.5958
17.9655159983646 78.9975
17.988056927677544 83.2791
18.010598558807683 89.4687
18.033140892692916 97.28299999999999
18.05586005052525 105.781
18.07840379824407 116.29899999999999
18.10094825154059 127.76299999999999
18.12366954819864 137.16899999999998
18.146215420998306 141.76
18.16876200220057 137.85299999999998
18.191309292745153 126.249
18.214033452627167 111.685
18.236582170236648 98.1474
18.259131600016456 90.0919
18.281681742907335 87.1492
18.304408781233683 89.7621
18.32696035875955 93.3858
18.349512652227624 98.0796
18.372065662579683 103.678
18.394795594587553 106.834
18.41735004715306 106.291
18.43990521943684 101.594
18.46246111238171 93.5014
18.485193953325208 82.89399999999999
18.507751296070428 74.1019
18.530309362314178 68.733
18.552868153000343 65.8484
18.57560391815056 63.8688
18.59816416623245 63.1863
18.620725141597372 62.6688
18.643286845190268 62.3475
18.666025549835414 61.7803
18.688588718427933 61.4314
18.711152618092243 61.1037
18.73389353884365 60.7972
18.75645890921984 60.3907
18.77902501351406 60.2548
18.801591852673102 60.1695
18.824335739722738 59.5316
18.846904057212626 59.3228
18.8694731124168 59.0642
18.89204290628315 59.0564
18.914789774966803 58.7224
18.937361054791623 58.6038
18.959933076131318 58.1377
18.982505839934877 58.4369
19.00525570560582 58.7148
19.027829963004184 58.4104
19.05040496572238 58.325
19.072980714710468 58.5107
19.095733592739563 58.5588
19.11831084296757 58.9573
19.140888842324735 59.5919
19.16346759176222 59.8725
19.18622349753803 60.4308
19.208803755869358 61.1409
19.231384767143577 61.8126
19.253966532312948 63.0603
19.276725481241822 64.8202
19.29930876296784 66.7397
19.3218928014549 69.3594
19.34465404436217 72.5326
19.36723960516257 75.5793
19.389825925592426 77.5379
19.412413006605938 77.7706
19.43517731967805 75.4694
19.457765930683355 71.3348
19.48035530514408 66.5766
19.50294544401556 62.1961
19.525712842708348 59.2023
19.54830451925909 56.9762
19.570896963095727 55.7228
19.593490175174704 55.2442
19.616260674962184 55.1168
19.638855432416964 54.7014
19.661450960992624 55.0259
19.68404726164677 54.9534
19.706820878021247 54.6645
19.729418731756834 54.8112
19.752017360452857 54.4491
19.77461676506804 54.6872
19.797393513540218 54.8352
19.819994478951667 55.422
19.84259622316767 55.9265
19.8651987471481 56.3727
19.887978643247177 56.5985
19.91058273574792 56.8577
19.933187610901943 57.6145
19.955969879466828 58.5128
19.97857632894404 59.5658
20.00118356396599 60.9892
20.023791585494575 62.431999999999995
20.046577028914875 64.9081
20.069186632506966 67.1946
20.091797025500632 69.168
20.114408208858933 70.5602
20.137196842715273 71.2482
20.159809615886765 70.4496
20.18242318232135 68.2103
20.20503754298326 65.6912
20.227829382875154 63.9639
20.250445341109344 63.1269
20.27306209647285 63.0679
20.29567964993108 63.9341
20.31847471147704 65.0679
20.34109387027612 66.2728
20.363713830075454 66.8905
20.386334591841646 66.1886
20.409132890679302 64.0203
20.431755265564437 61.1462
20.454378445325528 58.1167
20.477002430930366 55.8354
20.499803982716553 54.3315
20.522429589228004 53.1607
20.54505600449589 52.7084
20.567683229489194 52.6097
20.590488049900088 51.9615
20.61311690359731 51.6463
20.63574656993626 51.4011
20.658553853717297 50.8717
20.681185154618298 50.8895
20.703817271080066 50.942
20.72645020407368 50.3811
20.749260783967177 50.2103
20.771895359337133 50.2206
20.794530754161617 50.1032
20.817166969412938 50.1128
20.83998086114876 49.9638
20.86261872660049 49.8602
20.885257415405402 49.9267
20.90789692853701 49.7088
20.930714147864748 49.6303
20.953355319030678 49.6833
20.97599731745334 49.8808
20.99864014410749 49.8485
21.021460706796564 49.7894
21.044105199328826 49.9316
21.06675052302631 50.0825
21.089396678865015 50.391000000000005
21.112220600704806 50.613
21.134868430275347 50.9963
21.15751709492456 50.8124
21.180166595629693 51.2139
21.202993892429635 51.8233
21.22564507473034 52.1575
21.24829709602816 52.3121
21.27112693608965 52.6199
21.293780644891275 52.8961
21.316435195634053 52.2183
21.339090589297417 51.5247
21.361923832041875 51.0975
21.384580921090404 50.5302
21.407238856007325 49.9416
21.429897637773326 49.589
21.45273429906592 49.5843
21.475394784108598 49.6558
21.498056118951983 49.391000000000005
21.520718304578022 49.7145
21.543558400304388 49.6598
21.566222297108816 49.8705
21.58888704765135 50.0406
21.61155265291521 50.4232
21.63439619898156 50.9278
21.657063523335786 51.0294
21.67973170537063 51.673
21.7024007460706 52.2356
21.72524775840385 52.8253
21.747918526116475 53.5776
21.770590155457388 54.6622
21.79326264741238 55.9631
21.816113141960237 57.5071
21.838787368860547 59.0952
21.861462461341976 60.8819
21.884315579735777 62.7725
21.90699241312273 64.3299
21.92967011506078 65.4154
21.95234868653799 66.0551
21.9752053151131 65.627
21.997885635446785 64.0058
22.020566828293532 61.951
22.04324889464272 59.8744
22.066109049404666 58.0794
22.088792872571794 57.229
22.111477572219204 57.1351
22.1341631493376 57.163000000000004
22.157026846313123 57.3191
22.179714188221507 56.9405
22.202402410582668 56.2018
22.22509151438863 54.824
22.24795876962584 53.3467
22.270649646204486 52.3736
22.293341407213727 51.4778
22.316034053646906 50.7314
22.338904883215342 50.5558
22.36159931041458 50.2747
22.38429462602756 50.3405
22.40699083104897 50.2024
22.429865251039757 50.2395
22.452563244831367 50.3791
22.47526213102522 50.1717
22.49813925616515 49.9146
22.520839937143307 49.8543
22.543541513520587 49.7781
22.56624398629403 49.5559
22.589124730075895 49.61
22.611829005656723 49.7538
22.63453418063466 49.9785
22.657240256008077 50.1802
22.680124634582935 50.1767
22.70283252079775 50.455
22.725541310413075 50.7187
22.74825100442868 51.0528
22.771139033969575 51.3174
22.79385054687155 51.4478
22.81656296718292 52.0026
22.83927629590484 52.8865
22.862167992606945 53.5469
22.88488314827121 54.5395
22.907599215359284 55.4218
22.93031619487366 56.3719
22.953211574954405 57.5697
22.975930389478226 58.7403
22.998650119445763 59.2807
23.02137076586092 59.2057
23.044269845560063 58.4085
23.06699233506288 56.6661
23.089715744034912 54.9036
23.112617610931565 52.9461
23.135342869061212 51.6935
23.158069049684816 50.6955
23.1807961538087 50.2285
23.20370174880544 50.145
23.226430710184808 50.16
23.249160598093425 50.2329
23.271891413539002 50.0769
23.294800752937697 49.9214
23.31753343374794 50.3134
23.340267045128353 50.2967
23.36300158808808 50.7735
23.38591468821339 50.8598
23.408651104658304 51.101000000000006
23.431388455719986 51.6482
23.454126742409 52.3219
23.4770436196085 53.3261
23.499783787914662 54.2882
23.522524894889884 55.108999999999995
23.54526694154616 56.1673
23.56818761219047 57.3954
23.59093154860734 58.0761
23.613676427751283 58.9901
23.636422250635754 58.7191
23.659346731118656 57.8368
23.68209445191868 55.9923
23.704843119509587 53.967
23.72759273490623 51.8169
23.750521041644767 50.0219
23.77327256312355 48.8939
23.796025035462787 48.129
23.818956224555475 47.4423
23.841710609113413 47.2271
23.86446594758979 46.8959
23.887222241002014 46.5381
23.910157285144578 46.3764
23.932915498962537 46.3729
23.955674670778713 46.1934
23.978434801611975 46.1698
24.001373717286125 45.7426
24.024135776723917 45.7271
24.046898798245582 45.5898
24.06966278287146 45.4929
24.092605586582614 45.4411
24.115371508023642 45.4404
24.1381383956401 45.1299
24.16090625045381 45.126999999999995
24.183852958731244 45.1727
24.206622758582608 45.1271
24.229393528706886 44.7881
24.252165270127392 44.8168
24.27511589952438 44.7843
24.297889594216997 44.5712
24.32066426328598 44.4078
24.34343990775613 44.365
24.36639447485003 44.3139
24.38917208083877 44.2327
24.41195066531332 44.0702
24.43490819850244 44.3156
24.457688750692377 44.122
24.48047028445616 43.8981
24.503252800821233 44.1742
24.526214300784112 44.1822
24.548998793132213 44.1692
24.57178427117417 44.0105
24.59457073593893 44.0333
24.617536219319863 43.8708
24.64032466834748 44.04
24.663114107195035 43.7643
24.685904536893013 43.7182
24.708874020360852 43.6683
24.731666442613744 43.619
24.754459858818787 43.5746
24.777254270007962 43.4988
24.80022777025625 43.3962
24.82302418230472 43.3414
24.845821592443674 43.3603
24.86862000170663 43.2144
24.891597535453727 43.0042
24.914397953892728 43.2712
24.93719937456671 43.1965
24.96000179851076 43.3047
24.98298338249997 43.5536
25.00578782394922 43.6556
25.028593271784167 43.8213
25.05157790644186 44.0731
25.07438537804115 44.1597
25.097193859145293 44.5466
25.120003350792075 44.6023
25.142992065061257 44.9176
25.165803588823465 45.1463
25.18861612625217 45.6342
25.211429678386736 45.7609
25.234422489079968 45.8162
25.257238081693636 45.7651
25.280054692141732 45.816
25.3028723214652 45.7242
25.325869245420463 45.723
25.348688923599397 45.8468
25.371509623787006 45.9986
25.394331347025812 45.8763
25.41733240110666 45.4861
25.440156181590016 44.8054
25.46298098826268 44.4197
25.48580682216873 43.7783
25.50881202326435 43.0964
25.53163992281684 42.461999999999996
25.55446885274561 42.3647
25.577298814096377 42.0272
25.600308179121807 41.9236
25.623140214533745 42.0053
25.64597328451537 41.8362
25.66898578564376 41.5622
25.691820936010206 41.7378
25.714657124097695 41.6656
25.737494350954734 41.6529
25.760511045684957 41.449
25.783350361364224 41.4001
25.806190718969255 41.5316
25.82903211955018 41.6967
25.852053024868923 41.7159
25.874896522722523 41.534
25.897741066713106 41.5398
25.920586657892454 41.7056
25.943611790812668 41.6875
25.966459487728237 41.86
25.989308234998564 41.817
26.01215803367705 42.2429
26.03518741123814 42.2035
26.05803932412957 42.3913
26.080892291600094 42.2071
26.10374631470478 42.4893
26.12677995397268 42.7218
26.14963609978026 42.8169
26.172493304397875 42.5649
26.19535156888223 42.3373
26.218389486949604 41.8892
26.241249882640123 41.7319
26.26411134137826 41.4637
26.28715248187403 41.4973
26.31001607820869 41.0889
26.3328807407756 40.9744
26.35574647063438 41.2063
26.37879191991473 41.1724
26.401659795896734 41.0188
26.424528742360263 41.2329
26.447398760366614 41.2988
26.470448535598294 41.4948
26.49332070826805 41.675
26.516193955675355 42.0829
26.53906827888316 42.0472
26.562122397260108 42.1094
26.584998883685063 42.3574
26.607876449110325 42.7627
26.63075509460056 42.8597
26.65381357334404 43.0767
26.67669439061878 43.1025
26.699576291163382 43.1646
26.722459276044212 42.9925
26.745522132402975 42.7951
26.768407297649354 42.6612
26.791293550442003 42.1456
26.814180891848974 42.0114
26.837248143099337 41.55
26.860137673466657 41.4004
26.88302829566349 41.2312
26.90592001075963 41.1129
26.92899167420566 41.0192
26.951885586870763 40.5503
26.974780595655517 40.3547
26.99785558178161 40.2362
27.020752794605112 40.0279
27.043651106772522 39.9148
27.06655051935668 39.8831
27.089629948036183 39.6867
27.112531573292053 39.5999
27.135434302194138 39.6846
27.158338135817015 39.4906
27.181422024430987 39.59
27.204328079372566 39.3604
27.22723524226965 39.4067
27.250143514198573 39.5513
27.273231880156334 39.5083
27.296142382065014 39.3609
27.319053996245536 39.2722
27.341966723775965 39.4126
27.365059584515222 39.3764
27.38797455070062 39.4114
27.410890633481237 39.2526
27.433807833936918 39.3047
27.456905206923906 39.3684
27.47982465472398 39.2788
27.502745223449743 39.361
27.525666914182825 39.4452
27.548768816912457 39.4914
27.571692763693633 39.3667
27.59461783573812 39.3036
27.617723149491244 39.117
27.640650484125285 39.1033
27.66357894728264 39.1225
27.686508540048052 39.1373
27.709618414237887 39.0333
27.732550278321757 38.7597
27.755483275279115 38.7643
27.778417406196485 38.8273
27.801531858397514 38.8224
27.824468269376716 38.7066
27.847405817586786 38.7389
27.870344504116094 38.9333
27.893463551932008 39.0082
27.916404527281053 39.1253
27.93934664422563 39.1357
27.962289903855886 39.2055
27.98541356491974 39.3568
28.00835912214229 39.5983
28.03130582533231 39.7604
28.054253675581805 39.9503
28.077381967556104 39.89
28.100332124185126 39.8357
28.123283431160893 39.8937
28.146235889577238 39.8398
28.169368830154156 39.6442
28.192323603752033 39.4698
28.215279532083304 39.1078
28.238415973016764 38.8328
28.261374223145094 38.841
28.284333631303806 38.7263
28.307294198589954 38.5687
28.330435319167677 38.1493
28.353398217078915 37.9155
28.376362277420153 37.6832
28.39932750129032 37.5952
28.422473319286713 37.3423
28.44544088262495 37.3587
28.468409612800283 37.1218
28.491379510913497 37.028
28.51453004413313 36.7796
28.53750229057244 36.8749
28.56047570826344 36.8859
28.583450298308804 36.8847
28.606605564586562 36.4968
28.629582511831156 36.5983
28.65256063474956 36.4987
28.675539934446338 36.4955
28.698699951647605 36.4757
28.72168161743193 36.351
28.74466446331978 36.2555
28.767648490417624 36.317
28.790813276438353 36.3138
28.813799678527303 36.2698
28.836787265157085 36.1822
28.859955641890075 36.2827
28.882945610203045 36.3718
28.905936766392035 36.1549
28.928929111566863 36.2413
28.952102288520145 36.2029
28.975097024308607 36.1179
28.998092952423807 35.9643
29.021090073977508 35.7873
29.04426806913204 35.6135
29.067267590245258 35.5377
29.090268308143695 35.5279
29.11327022394099 35.5148
29.13645305530891 35.2263
29.159457379627167 35.3177
29.18246290519685 35.1777
29.20546963313352 35.0679
29.22865731875826 35.205999999999996
29.25166646419296 35.2606
29.27467681535305 35.0948
29.29768837335608 35.1201
29.320880931312562 35.0412
29.34389491580634 35.0
29.366910110507334 34.9905
29.38992651653503 35.0993
29.41312396492981 35.1136
29.436142806456754 34.9597
29.45916286268059 34.9031
29.48236399319994 34.8151
29.50538649169417 34.6494
29.528410208259935 34.655
29.55143514402014 34.4774
29.574641196749695 34.2527
29.597668583816574 34.1013
29.6206971934585 34.1032
29.64372702680042 34.0436
29.666938019934474 33.884
29.689970313635285 33.9102
29.713003834422636 33.7791
29.73603858342347 33.802
29.759254535188578 33.7089
29.78229175361658 33.5777
29.80533020365064 33.7458
29.82836988641968 33.6068
29.85159081507472 33.6075
29.874632976355343 33.5444
29.89767637376955 33.6397
29.920721008448314 33.4722
29.9439469322847 33.3266
29.96699405457564 33.4212
29.9900424175358 33.4619
30.013092022298157 33.3261
30.03632295963995 33.2135
30.059375061131373 33.3147
30.08242840783577 33.3505
30.105483000888153 33.2131
30.128718970092244 33.1411
30.151776069006917 33.1745
30.17483441768648 33.1815
30.198074175317235 33.1302
30.221135036724256 33.0911
30.24419715131772 33.1741
30.267260520236203 33.1193
30.290505341942243 33.1342
30.313571232750228 33.2138
30.336638381310948 33.1068
30.35970678876503 33.0513
30.38295669299435 32.9837
30.40602763151657 33.0116
30.429099832366074 32.9499
30.452173296685572 32.7047
30.47542830191959 32.7905
30.498504306502497 32.8747
30.521581577995562 32.8451
30.544660117543582 32.9185
30.56792024229725 32.8667
30.59100133132069 32.8614
30.614083691845494 32.8119
30.637167325018545 32.9344
30.660432587840603 32.9192
30.683518779717886 32.9255
30.70660624769615 33.0026
30.729694992924372 32.9402
30.75296541239743 32.9426
30.77605672557558 32.938
30.799149319462742 32.8753
30.8224236211637 32.769
30.845518789950724 32.6922
30.868615242910597 32.6419
30.891712981195973 32.4419
30.91499247215866 32.3594
30.938092794619365 32.4679
30.96119440587579 32.2426
30.984297307082752 32.1652
31.00758200598383 32.0977
31.030687500658694 31.9712
31.053794288760695 31.9145
31.076902371446767 31.8011
31.100192296997445 31.8121
31.12330298246119 31.8449
31.14641496599209 31.7182
31.169528248749216 31.747
31.19282341969534 31.7106
31.215939314557186 31.719
31.239056512134788 31.6555
31.262175013589378 31.6291
31.28547544871168 31.6155
31.30859657161541 31.4937
31.331719001892175 31.5483
31.35484274070538 31.6419
31.378148458819545 31.7116
31.401274828443725 31.5896
31.424402510106933 31.6088
31.447712205419993 31.6769
31.470842524931633 31.5013
31.493974159989783 31.4775
31.51710711176168 31.5384
31.54042212308802 31.5601
31.563557722100917 31.4402
31.586694641341655 31.3584
31.609832881979628 31.3656
31.63315322823208 31.2283
31.656294125521327 31.2448
31.679436347728515 31.0405
31.70257989602529 30.9887
31.725905596152327 30.9459
31.74905181052835 30.7618
31.772199354521323 30.9011
31.79534822930507 30.8725
31.818679302290967 30.916
31.84183085259981 30.9205
31.864983737233473 30.9076
31.88813795736804 30.9028
31.911474422233013 30.8227
31.934631327356435 30.846999999999998
31.9577895715215 30.7801
31.980949155906522 30.779
32.004291031706956 30.7571
32.027453310562606 30.726
32.05061693318573 30.6066
32.07396288236386 30.5594
32.09712920658542 30.4162
32.12029687812702 30.3229
32.14346589817093 30.3142
32.166817291729984 30.3155
32.18998902288583 30.1478
32.21316210610336 30.0754
32.23633654256711 30.0059
32.259693399663725 30.015
32.282870556771144 29.9288
32.30604907069099 29.9492
32.329228942610065 29.8987
32.35259128243769 29.6229
32.375773884550505 29.5688
32.398957848235646 29.6049
32.422143174682176 29.5881
32.445511016471215 29.5634
32.468699082679954 29.4857
32.49188851523011 29.3914
32.51507931531304 29.3006
32.538452678331 29.2536
32.56164622776311 29.2002
32.58484114831493 29.1896
32.60803744118015 29.1816
32.631416344731896 29.2685
32.654615396551876 29.2367
32.67781582427913 29.1049
32.701198898634416 28.9641
32.72440209253756 28.934
32.747606665947124 28.9445
32.77081262006088 28.8434
32.79420126883317 28.8249
32.81740999876112 28.8436
32.840620112999424 28.8123
32.86383161274818 28.7377
32.88722585534586 28.8103
32.91044014056596 28.7398
32.933655814909734 28.6351
32.95687287957963 28.6906
32.98027273544904 28.5862
33.00349259526636 28.5645
33.026713849030116 28.6347
33.04993649794511 28.5138
33.073341986570746 28.4767
33.09656744032826 28.5175
33.11979429286444 28.4361
33.14302254538647 28.4341
33.166433686291185 28.3751
33.18966475336992 28.3962
33.212897224069096 28.2182
33.23613109959831 28.2842
33.259547912343415 28.3108
33.2827846121627 28.2481
33.306022720453775 28.2004
33.32926223842861 28.1385
33.352684742614166 28.0966
33.37592709463173 28.1492
33.399170859982064 28.045
33.422597648419426 27.9751
33.44584425514446 27.7971
33.46909227885668 27.7962
33.4923417207723 27.665
33.51577423505344 27.7536
33.539026528130385 27.6249
33.56228024307245 27.5246
33.585535381098246 27.4581
33.60897364093058 27.3942
33.63223163992385 27.4104
33.6554910656699 27.2792
33.678751919389796 27.2933
33.702195944520106 27.2186
33.72545966903325 27.2208
33.74872482519663 27.1702
33.771991414233746 27.1659
33.79544122444841 27.0539
33.81871069412428 26.9984
33.84198160035767 26.9954
33.86525394437455 27.0123
33.88870955949969 26.9883
33.911984794020626 26.8839
33.93526147001624 26.9337
33.958539588715006 26.8465
33.98200102861669 26.7411
34.0052820477047 26.7114
34.02856451319451 26.7374
34.05203033759056 26.6502
34.07531571090147 26.7146
34.09860253431845 26.5019
34.121890809074316 26.5404
34.145362493118924 26.5112
34.16865368561615 26.535
34.191946333164054 26.4749
34.21524043699793 26.4546
34.23871800066799 26.3991
34.26201503218366 26.2652
34.28531352370466 26.3417
34.30861347646881 26.1606
34.33209693978188 26.1542
34.3553998301885 26.1831
34.378704185565205 26.1201
34.402010007152356 26.0124
34.42549939016683 26.0303
34.44880815937748 25.9797
34.472118398533134 25.904
34.49543010887669 25.8975
34.51892543169198 25.7704
34.54224009966052 25.7974
34.56555624255917 25.677
34.58887386163339 25.5703
34.61237514439016 25.646
34.6356957311114 25.6839
34.65901779775809 25.5815
34.68252356662995 25.479
34.705848608458616 25.474
34.72917513396849 25.4656
34.75250314440949 25.4194
34.77601490857862 25.333000000000002
34.799345904259795 25.2993
34.82267838863559 25.3493
34.846012362958525 25.274
34.869530142679984 25.215
34.89286711232212 25.1594
34.91620557568269 25.1367
34.93954553401677 25.1146
34.9630693495876 25.0177
34.986412313340814 25.1155
35.00975677584668 25.0791
35.033102738362956 24.982
35.05663261012228 24.9662
35.0799815881786 24.9324
35.10333207003229 24.8452
35.12668405694369 24.8327
35.150220005273056 24.8322
35.17357501786656 24.8356
35.19693153931268 24.7126
35.220289570874385 24.7001
35.24383161619786 24.6991
35.267192683604904 24.6688
35.290555264930376 24.6355
35.314101899412165 24.6356
35.33746752422433 24.6377
35.36083466676374 24.6182
35.38420332829803 24.4993
35.407756095629054 24.621
35.43112781085063 24.5126
35.45450104888391 24.448
35.477875810999194 24.5072
35.50143473172161 24.3857
35.52481255774625 24.4265
35.54819191167777 24.3329
35.57157279478914 24.32
35.595137889488406 24.3752
35.61852184675279 24.2135
35.641907337029984 24.1598
35.665294361595684 24.1324
35.68886565090076 24.1567
35.7122557598848 24.1727
35.73564740699838 24.0797
35.759040593519934 24.0353
35.78261809810353 24.0566
35.80601437933051 23.8564
35.829412203814705 23.906999999999996
35.85281157283719 23.8711
35.876395313415884 23.8411
35.8997977874528 23.7827
35.92320180988546 23.6833
35.946790244133936 23.7043
35.97019737933222 23.7095
35.993606066789866 23.6608
36.01701630779276 23.5549
36.04061101440684 23.5156
36.06402437852291 23.6511
36.08743930005611 23.5908
36.1108557802951 23.5243
36.13445678011326 23.4194
36.15787639383515 23.4276
36.18129757014299 23.3322
36.20472031032821 23.2775
36.22832762423364 23.2534
36.25175350829375 23.239
36.275180960119776 23.1724
36.298609981005924 23.1709
36.32222362992669 23.178
36.34565580510207 23.1519
36.36908955323448 23.1654
36.39252487562093 23.0503
36.416144880530226 22.9836
36.43958336764275 22.9664
36.463023432914625 22.9006
36.486465077645676 22.8497
36.51009145956204 22.9401
36.53353627947859 22.9434
36.55698268276811 22.8414
36.58043067073321 22.836
36.60406345072071 22.723000000000003
36.62751462435344 22.691
36.65096738658405 22.7479
36.67460498210655 22.6655
36.69806093788647 22.6377
36.72151848619297 22.592
36.744977628333636 22.601
36.76862165890998 22.491999999999997
36.79208400512205 22.5611
36.81554794910557 22.4903
36.83901349217101 22.3684
36.862663978991606 22.326
36.88613273667352 22.4035
36.90960309738324 22.3779
36.933075062434064 22.2866
36.95673202673572 22.2159
36.98020721697122 22.1934
37.003684015502365 22.0707
37.027162423645365 22.0873
37.050825886711465 22.0491
37.07430753063053 22.0121
37.09779078812467 21.9513
37.121275660513014 21.9458
37.144945643673694 21.8914
37.16843376245278 21.945999999999998
37.19192350009803 21.9647
37.215414857931435 21.8541
37.239091382563885 21.7963
37.262585997426164 21.752
37.28608223645736 21.7819
37.309763684451696 21.7723
37.33326318851098 21.7407
37.356764320726555 21.69
37.380267082425526 21.5888
37.40395510942588 21.6136
37.42746114683234 21.4715
37.45096881771841 21.4354
37.474478123414166 21.4877
37.49817275092816 21.497
37.52168534303452 21.4695
37.54519957395567 21.3207
37.568715445024665 21.3022
37.592416694607714 21.3398
37.61593586281424 21.2875
37.63945667518264 21.2759
37.66297913304891 21.2552
37.68668702630454 21.2191
37.710212792059274 21.0755
37.733740207334854 21.0618
37.757269273470364 21.0245
37.780983832050374 21.0494
37.80451621684926 21.0492
37.82805025654007 21.0186
37.851585952464795 20.9328
37.8753071980695 20.9351
37.89884622345676 20.8032
37.92238690911902 20.8142
37.94611318753442 20.7155
37.969657210779765 20.7865
37.99320289834801 20.7211
38.016750251586465 20.647
38.04048325513017 20.6432
38.06403395679343 20.6349
38.087586328183946 20.5813
38.11114037065203 20.6015
38.13488012115898 20.6282
38.1584375229181 20.5221
38.181996599821 20.4499
38.205557353221124 20.4626
38.229303872575656 20.3758
38.2528679961576 20.3757
38.27643380031219 20.3967
38.30000128639589 20.3232
38.32375459653193 20.2467
38.34732546371299 20.3483
38.37089801690786 20.1909
38.39447225747609 20.1689
38.418232380377425 20.1004
38.441810012983396 20.1215
38.46538933705673 20.0967
38.488970353960084 20.0854
38.51273731166058 20.035
38.536321731567014 19.9358
38.55990784840681 19.9638
38.58367995004091 19.8704
38.60726947812959 19.8219
38.63086070726198 19.8803
38.654453638806274 19.81
38.678232613930824 19.7564
38.70182896773327 19.7296
38.72542702806741 19.7483
38.7490267963045 19.736
38.77281266709232 19.6763
38.79641586862214 19.7196
38.8200207821842 19.6042
38.843627409152944 19.6183
38.86742019782782 19.5935
38.891030269149255 19.5369
38.914642058016156 19.4823
38.938255565806124 19.5042
38.96205529464307 19.3999
38.98567225787121 19.3926
39.00929094417078 19.3964
39.03291135492255 19.2819
39.05671804624804 19.2756
39.080341923549106 19.2354
39.103967529460334 19.2203
39.127594865365744 19.2394
39.15140854155791 19.165
39.17503935514948 19.1132
39.19867190290282 19.1614
39.22249083587951 19.1061
39.24612686969409 19.0809
39.269764641845306 19.0323
39.293404153722804 18.9858
39.317230110864074 18.9743
39.34087311998506 18.8941
39.36451787301696 18.9114
39.388164371352595 18.8686
39.41199737518003 18.7857
39.43564738196752 18.7938
39.45929913825317 18.7558
39.48295264543308 18.7822
39.506792718520884 18.6493
39.530449745387216 18.624000000000002
39.55410852735203 18.5984
39.57776906581474 18.5897
39.60161623079 18.6129
39.625280300200025 18.5865
39.64894613032202 18.4868
39.67261372255866 18.52
39.6964680021016 18.4946
39.72013913657293 18.472
39.74381203738292 18.4789
39.76748670593756 18.4344
39.79134812278169 18.4238
39.81502634488497 18.3373
39.83870633896685 18.3523
39.862388106436654 18.3311
39.88625668336918 18.2223
39.90994201572829 18.2153
39.933629125719285 18.1708
39.957503091207826 18.2016
39.9811937746168 18.2057
40.00488623990914 18.1292
40.02858048850006 18.0649
40.05246165409549 18.02
40.076159487492085 18.0057
40.099859108448875 17.9724
40.123560518384345 17.9907
40.1474489070226 17.951
40.171153913178564 17.8618
40.194860712584955 17.9085
40.2185693066637 17.8896
40.242464941335314 17.7871
40.26617714307655 17.7648
40.289891143772046 17.7959
40.3136069448471 17.7734
40.33750984859743 17.7076
40.3612292688043 17.6498
40.3849504936829 17.6382
40.40867352466194 17.6316
40.43258372059144 17.636
40.45631038219906 17.5768
40.48003885420956 17.4553
40.503769138055105 17.5174
40.52768664931955 17.5568
40.55142057531802 17.5109
40.57515631746428 17.436
40.599079334038514 17.4
40.62281872700477 17.3502
40.64655994043941 17.3249
40.67030297578061 17.2849
40.69423334835778 17.3041
40.71798004609188 17.3334
40.74172857006355 17.2661
40.76547892171441 17.2474
40.7894166736039 17.1859
40.813170699248566 17.1146
40.83692655691388 17.1038
40.86068424804498 17.1683
40.884629402612525 17.0616
40.908390779366385 17.0602
40.932153993938 16.9918
40.95591904777605 16.9678
40.979871628443995 17.0281
41.003640379561936 16.9637
41.02741097430883 16.8972
41.05118341413683 16.9055
41.075143444384416 16.8976
41.098919593177826 16.8623
41.1226975914255 16.7977
41.14647744058318 16.7617
41.170444943946755 16.759
41.19422851378379 16.6843
41.218013938914645 16.6445
41.24198706625173 16.6389
41.26577622087193 16.6467
41.289567235177785 16.5842
41.31336011063129 16.56
41.337340752422875 16.6017
41.361137369129835 16.5746
41.38493585138705 16.5395
41.40873620066004 16.4614
41.43272438060107 16.496
41.45652848292052 16.4112
41.48033445666918 16.3428
41.50414230331616 16.3612
41.528138045159764 16.2835
41.551949656675205 16.2945
41.575763145513235 16.3158
41.59957851314666 16.2396
41.62358184070442 16.1877
41.64740098505737 16.203
41.6712220126409 16.1739
41.69504492493139 16.1186
41.71905586207357 16.1048
41.74288256296395 16.097
41.766711153007456 16.0612
41.79054163368412 15.9979
41.814560204340054 16.0497
41.838394485526365 16.0048
41.86223066180303 15.933
41.88625497706819 15.9035
41.910094962812 15.9327
41.93393684811168 15.9177
41.95778063445365 15.8026
41.981812625263366 15.7686
42.00566023303407 15.8047
42.029509746323676 15.7555
42.05336116662236 15.7695
42.077400857069705 15.7363
42.10125611078846 15.6797
42.12511327600405 15.6643
42.14897235421036 15.651
42.173019768448455 15.5978
42.19688269209613 15.5344
42.22074753323349 15.5105
42.24461429335818 15.5102
42.268669455600495 15.4693
42.292540073217886 15.4437
42.31641261433284 15.4487
42.34028708044675 15.4182
42.36435001496739 15.38
42.38822835065557 15.3858
42.41210861586426 15.355
42.4359908120986 15.3805
42.46006154323262 15.3407
42.48394762115317 15.2863
42.507835634632315 15.3046
42.531912233047436 15.2114
42.55580413732265 15.1928
42.579697981698 15.1659
42.60359376768525 15.1452
42.62767820545945 15.0852
42.65157789440821 15.0968
42.67547952952185 15.0636
42.699383112316 15.052
42.72347541395347 15.0468
42.74738291190531 14.9732
42.771292362102166 15.0113
42.795203766063516 14.902999999999999
42.819303956130405 14.9224
42.843219287476536 14.8996
42.86713657716324 14.8548
42.89105582671383 14.869000000000002
42.91516392983864 14.8282
42.939087119032166 14.8113
42.963012272677304 14.753
42.98693939230129 14.7185
43.01105543317513 14.7071
43.034986504731386 14.7136
43.05891954686589 14.6453
43.08285456110972 14.667
43.10697856448665 14.6768
43.130917542983475 14.5507
43.15485849820081 14.5617
43.17880143167367 14.5045
43.20293342237094 14.4986
43.226880332449 14.4843
43.25082922540554 14.3934
43.27496722682525 14.4129
43.29892010567796 14.4019
43.32287497204102 14.3613
43.34683182745632 14.3258
43.370977859791836 14.3197
43.39493871351105 14.3054
43.41890156092628 14.2997
43.44286640358341 14.2853
43.46702049182749 14.2514
43.49098934522816 14.1978
43.51496019852649 14.1635
43.5389330532723 14.1806
43.56309522248204 14.1372
43.58707210044314 14.1389
43.61105098451946 14.0542
43.63503187626491 14.0456
43.659202151562134 14.0261
43.68318707902681 14.0337
43.70717401884041 13.9631
43.731162972560874 13.9705
43.75534137913236 13.9471
43.779334381108384 13.9213
43.803329401683186 13.907
43.82732644241872 13.9131
43.8515130055166 13.8621
43.87551410707659 13.8194
43.89951723350145 13.8117
43.923709934595614 13.8013
43.94771713129917 13.7452
43.97172635758096 13.7735
43.99573761501002 13.7034
44.0199385169922 13.6775
44.04395385732619 13.6649
44.067971233533086 13.6694
44.09199064718605 13.6295
44.11619977548961 13.6057
44.14022328470671 13.5717
44.16424883610785 13.5962
44.18827643127035 13.5002
44.21249381139513 13.5229
44.236525514814076 13.4799
44.26055926674478 13.482000000000001
44.28459506876863 13.4748
44.3088207262813 13.4205
44.33286064928722 13.3453
44.35690262714919 13.3805
44.38094666145278 13.3391
44.4051806219871 13.317
44.42922879003185 13.2789
44.45327901929361 13.2227
44.477331311362136 13.2227
44.501573600619416 13.212
44.525630039221795 13.1631
44.54968854541895 13.1598
44.573937102200176 13.1418
44.5979997645541 13.1521
44.622064499300315 13.1029
44.64613130803592 13.0186
44.67038823869318 13.0543
44.69445921643748 13.0035
44.718532272981385 12.9646
44.742607409926194 12.9796
44.76687274034801 12.9824
44.79095205918753 12.9199
44.81503346325094 12.8975
44.839116954143876 12.8985
44.86339071028742 12.8448
44.88747839599524 12.8455
44.91156817336837 12.8496
44.93566004401666 12.8005
44.959942251908146 12.7762
44.984038330325966 12.7496
45.00813650686762 12.7091
45.03223678314731 12.7014
45.05652746888232 12.7034
45.08063196592069 12.6504
45.104738567558705 12.6153
45.128847275414856 12.6232
45.15314646515866 12.5545
45.17725940679741 12.5573
45.20137445952892 12.5638
45.22568004865265 12.5189
45.24979934496396 12.5204
45.27392075725247 12.5241
45.29804428714431 12.4511
45.322358426247604 12.4135
45.346486212804315 12.4253
45.370616121861914 12.4283
45.39474815505086 12.3966
45.41907087049246 12.3439
45.4432071734666 12.325
45.46734560548283 12.3321
45.49148616817604 12.3202
45.51581748638564 12.2913
45.5399623320197 12.2651
45.56410931325473 12.2069
45.58825843173002 12.205
45.61259837920865 12.1717
45.636751793816 12.1424
45.66090735060093 12.116
45.68506505120716 12.1224
45.7094136545275 12.0581
45.73357566449271 12.0295
45.75773982322992 12.0157
45.78190613238733 12.0565
45.806263418194064 12.0057
45.83043404997326 11.9905
45.85460683713677 11.957
45.87897065658495 11.9283
45.90314777634752 11.9364
45.92732705646868 11.9099
45.9515084986045 11.8998
45.97588104735473 11.843
46.00006683541565 11.8468
46.02425479047904 11.8048
46.04844491420549 11.804
46.0728262191024 11.8374
46.09702070211635 11.7816
46.12121735879483 11.7842
46.14541619080294 11.6828
46.169806278764455 11.687999999999999
46.194009483459034 11.702
46.21821486849841 11.6758
46.24242243555223 11.6115
46.266821333570014 11.5989
46.29103328674601 11.5977
46.31524742696538 11.5776
46.33946375590237 11.5589
46.36387149104216 11.5279
46.38809221957392 11.4677
46.41231514186606 11.4714
46.436540259597464 11.4654
46.460956858999374 11.4363
46.48518638983522 11.4307
46.509418121166966 11.3662
46.533652054678114 11.4025
46.55807754555709 11.3601
46.58231590571962 11.3456
46.60655647313217 11.3231
46.630988654873654 11.2938
46.655233659129024 11.27
46.67948087571551 11.2585
46.70373030632484 11.2219
46.72817142736393 11.1911
46.752425308428684 11.1856
46.77668140861147 11.2162
46.80093972960865 11.1428
46.82538981736788 11.1068
46.849652602470904 11.0826
46.87391761349769 11.0694
46.8981848521493 11.0878
46.9226439341274 11.0324
46.946915650573224 11.0191
46.97118959976749 10.9837
46.99546578341598 10.9761
47.019933887188216 10.9413
47.04421456235744 10.939
47.06849747711879 10.8814
47.09278263318286 10.9003
47.11725978640143 10.8826
47.14154944775105 10.872
47.165841355555656 10.8224
47.1901355115306 10.7934
47.214621741924994 10.81
47.23892041698887 10.7853
47.26322134538975 10.7159
47.28771440635075 10.7036
47.31201986422527 10.7426
47.33632758061436 10.7086
47.360637557241866 10.6775
47.38513974410611 10.6542
47.40945426407847 10.6025
47.43377104948137 10.6425
47.45809010204344 10.5876
47.48260144275502 10.6144
47.506925052572285 10.5868
47.53125093475548 10.5618
47.55557909103813 10.5062
47.58009961361992 10.4746
47.60443234110732 10.4876
47.62876734791564 10.4824
47.65310463578333 10.4298
47.6776343683373 10.444
47.7019762413987 10.3731
47.72632040075572 10.3822
47.75066684815169 10.359000000000002
47.77520581885936 10.3752
47.799556865477655 10.3517
47.823910205386 10.3492
47.84826584033272 10.3213
47.87281407745551 10.2513
47.89717432569297 10.2573
47.92153687423484 10.2257
47.94609208429692 10.2585
47.97045925671401 10.2125
47.99482873471275 10.198
48.01920052005013 10.1427
48.04376504619224 10.1089
48.068141469543484 10.1847
48.09252020552573 10.1457
48.11690125590099 10.111
48.1414751266064 10.0541
48.16586082917454 10.073
48.19024885144316 10.0323
48.2146391951793 10.0189
48.239222439012764 10.0255
48.26361744916137 9.98018
48.28801478610016 9.94998
48.31241445160131 9.936739999999999
48.337007097209366 9.93636
48.36141144338331 9.93517
48.38581812345755 9.910969999999999
48.41022713920929 9.87466
48.434829215320704 9.87641
48.45924292604658 9.84452
48.48365897780325 9.82553
48.50807737237308 9.82451
48.532688907799276 9.77373
48.55711201168574 9.76023
48.581537463754074 9.78865
48.60615611725119 9.73442
48.63058628942721 9.72435
48.65501881516546 9.72715
48.6794536962573 9.69616
48.70408185970339 9.67798
48.72852147531801 9.63415
48.75296345168211 9.61483
48.77740779059232 9.61214
48.80204549302823 9.60603
48.82649458091802 9.564910000000001
48.85094603676547 9.55592
48.87539986237231 9.54735
48.90004713292306 9.50716
48.92450572200832 9.5055
48.94896668628025 9.521980000000001
48.97343002754588 9.497860000000001
48.99808689542115 9.44656
49.02255501470614 9.45542
49.04702551642794 9.40436
49.0714984023988 9.39712
49.096164896893235 9.385010000000001
49.120642575466796 9.35427
49.145122643748394 9.330060000000001
49.16960510355558 9.3374
49.19428125404938 9.31166
49.2187685210852 9.29016
49.243258185121555 9.2598
49.26794160167084 9.24894
49.2924360839405 9.22455
49.31693296869764 9.22086
49.34143225776915 9.1825
49.36612538195438 9.17175
49.39062950396021 9.194289999999999
49.41513603578346 9.133519999999999
49.4396449792564 9.138810000000001
49.46434784069503 9.08743
49.488861631846454 9.07804
49.513377840166804 9.07739
49.537896467493745 9.04831
49.56260909589029 9.038730000000001
49.587132585683285 9.06222
49.611658500018365 8.995410000000001
49.636186840738596 8.9521
49.66090926588511 8.98752
49.685442483902584 8.94766
49.70997813385706 8.911810000000001
49.734516217597076 8.92116
49.75924846937352 8.906360000000001
49.7837914452858 8.87664
49.80833686055187 8.8529
49.83288471702571 8.86903
49.85762682540054 8.855360000000001
49.882179588965734 8.82691
49.9067347993235 8.80177
49.93129245833333 8.76794
49.95604445336378 8.77939
49.98060703442832 8.757539999999999
50.005172069746266 8.763110000000001
50.02993150438364 8.70397
50.05450147301533 8.70227
50.07907390151433 8.71695
50.10364879174981 8.67152
50.12841816587289 8.659839999999999
50.1529980044635 8.63698
50.17758031042124 8.65466
50.20216508562089 8.57445
50.22694442953363 8.58623
50.25153416817468 8.55616
50.27612638170508 8.55245
50.300721072005196 8.52487
50.325510416102105 8.50704
50.350110084975064 8.47401
50.37471223628208 8.49098
50.39931687190919 8.45475
50.424116246675766 8.450239999999999
50.44872587605249 8.421660000000001
50.47333799543065 8.40808
50.49795260670191 8.41961
50.52276204271512 8.36102
50.54738166295838 8.37853
50.57200378079314 8.33961
50.596628398116835 8.321019999999999
50.62144792604559 8.32318
50.646077567609396 8.33971
50.670709714377715 8.33743
50.69553683636198 8.300989999999999
50.72017401885922 8.27014
50.7448137122895 8.25126
50.76945591856022 8.2565
50.79429318636823 8.240960000000001
50.818940443716784 8.1853
50.84359021965163 8.17998
50.868242516085964 8.18645
50.893089960641895 8.14277
50.917747323549435 8.093210000000001
50.94240721271973 8.12514
50.96706963007175 8.09833
50.99192728239342 8.10546
51.01659478166073 8.09092
51.04126481489051 8.07696
51.06593738400761 8.02427
51.090805275207074 7.994280000000001
51.11548294172845 8.015239999999999
51.14016314993547 8.00263
51.164845901758845 7.98347
51.18972406304274 7.9328
51.21441192780656 7.9362699999999995
51.23910234200271 7.93001
51.2637953075678 7.89704
51.288683770237945 7.896789999999999
51.31338186432707 7.86695
51.33808251561888 7.880610000000001
51.362978729967345 7.86958
51.387684521509755 7.8168
51.41239287610203 7.833889999999999
51.437103795691165 7.809010000000001
51.46201036644977 7.7801100000000005
51.486726441956634 7.77407
51.51144508832545 7.74447
51.536166307509156 7.74987
51.56108326624387 7.709460000000001
51.58580965706056 7.7307
51.61053862657523 7.700810000000001
51.635270176746864 7.638780000000001
51.66019755512065 7.65958
51.68493429268881 7.64244
51.70967361681515 7.62564
51.73441552946465 7.60815
51.759353359237934 7.630660000000001
51.7841004750961 7.58023
51.80885018539685 7.5542300000000004
51.833602492111254 7.51767
51.8585508051424 7.54656
51.883308330926425 7.52455
51.90806845906181 7.48146
51.932831191525715 7.49569
51.95779001977161 7.45407
51.98255798721516 7.42427
52.00732856494335 7.41933
52.03229530577543 7.41303
52.057071130455945 7.42391
52.081849571391054 7.405310000000001
52.106630630568695 7.364089999999999
52.13160794279417 7.334639999999999
52.15639426492067 7.358630000000001
52.18118321127822 7.356210000000001
52.205974783860896 7.29505
52.23096269971011 7.2922
52.255759551287994 7.2880899999999995
52.280559035098186 7.26036
52.30536115314103 7.2376
52.33035970494467 7.21518
52.35516711807904 7.2466800000000005
52.37997717147198 7.20788
52.40478986713005 7.2434199999999995
52.42979908731974 7.189189999999999
52.454617094216 7.15729
52.47943774942214 7.1165
52.50426105495102 7.15623
52.529280976059844 7.13393
52.554109609024096 7.1051899999999995
52.57894089837482 7.110130000000001
52.60377484613117 7.077089999999999
52.62880550079408 7.07803
52.65364479223379 7.06568
52.67848674816189 7.016939999999999
52.70352547971946 7.024839999999999
52.72837279155837 6.99112
52.753222773982785 6.983569999999999
52.778075429022984 6.98083
52.80312495150885 6.96018
52.827982978797436 6.95158
52.85284368481815 6.90125
52.87770707160767 6.89618
52.90276741793998 6.886830000000001
52.92763619336701 6.90942
52.952507655698504 6.86667
52.977381806977576 6.88548
53.00245301017842 6.85717
53.02733256653592 6.84813
53.052214817996074 6.84058
53.077099766608484 6.821439999999999
53.102181859804446 6.78907
53.127072229988265 6.79557
53.15196530349892 6.774
53.17686108239249 6.740710000000001
53.20195409881522 6.720089999999999
53.22685531582556 6.73305
53.25175924441303 6.67934
53.27666588664027 6.6523
53.30176985962693 6.617260000000001
53.3266819565689 6.65252
53.35159677336455 6.606510000000001
53.376514312083096 6.651510000000001
53.40162927507703 6.63995
53.42655228516116 6.603160000000001
53.45147802340193 6.59749
53.47660125628886 6.57004
53.50153247842639 6.566160000000001
53.52646643496923 6.50355
53.55140312799818 6.49182
53.576537409691696 6.51856
53.60147960336152 6.47945
53.626424539786164 6.45786
53.65137222105307 6.46726
53.67651758529126 6.44682
53.70147078399681 6.4406300000000005
53.72642673383343 6.450880000000001
53.75138543689533 6.41781
53.776541917524526 6.4233400000000005
53.801506154876755 6.39794
53.826473151763246 6.339519999999999
53.851442910284916 6.36684
53.87661054126026 6.36764
53.9015858509782 6.32263
53.92656392866066 6.299869999999999
53.95154477641532 6.2960400000000005
53.976723591801296 6.285480000000001
54.00171000771266 6.27235
54.02669920004598 6.28226
54.051691170915745 6.22397
54.076881204886796 6.23883
54.101878760928514 6.24299
54.12687910187696 6.163069999999999
54.152077577768296 6.21724
54.1770835166946 6.17249
54.20209224691339 6.1628300000000005
54.22710377055121 6.16213
54.25231352511594 6.11468
54.27733066384342 6.08031
54.30235060239643 6.09581
54.32737334290836 6.06047
54.35259441062629 6.03335
54.377622783395324 5.987509999999999
54.40265396455061 6.03284
54.42768795623251 6.04587
54.45292037169559 6.00753
54.477960012857906 5.9913300000000005
54.50300247099511 5.97887
54.52804774825457 5.9162300000000005
54.55329154616743 5.8952599999999995
54.57834249018678 5.86723
54.6033962597977 5.86711
54.6284528571545 5.8798900000000005
54.653708072335164 5.82532
54.67877035378786 5.8017199999999995
54.70383546947698 5.7777
54.72890342156389 5.73413
54.7541700889442 5.74501
54.77924374251975 5.72834
54.8043202390049 5.70576
54.82959552413022 5.709230000000001
54.8546777351945 5.69019
54.87976279569621 5.68116
54.90485070780914 5.684159999999999
54.930137506558005 5.62311
54.95523115074295 5.617999999999999
54.98032765308844 5.61186
55.005427015775496 5.5404800000000005
55.03072536339621 5.53517
55.05583047570572 5.500369999999999
55.080938454927676 5.50772
55.10604930325027 5.4979
55.131359235107396 5.4784
55.15647585066083 5.46627
55.181595341907496 5.42557
55.20671771104285 5.39646
55.232039262617704 5.35459
55.25716741665048 5.29566
55.28229845518636 5.3166
55.30743238042802 5.2695300000000005
55.33276558731939 5.24726
55.357905315183636 5.229019999999999
55.383047936390035 5.20397
55.40819345314859 5.20177
55.433538351073295 5.20483
55.458689688238415 5.210719999999999
55.483843927614096 5.12165
55.509197623043605 5.10572
55.53435769621134 5.0761
55.55952067826466 5.01052
55.5846865714265 5.04615
55.61005202069737 5.00712
55.63522376553902 5.02041
55.66039842818645 5.00335
55.68557601087004 5.0004
55.7109532500271 4.922219999999999
55.73613670233794 4.91844
