TT I
1.2716486653135266 7.529780000000001
1.2939594142134223 7.2941
1.3162702121660406 6.5579
1.3385810600174564 6.62971
1.3608919586137629 6.577839999999999
1.383202908801069 6.75519
1.405513911425503 5.56995
1.4278249673332093 6.264480000000001
1.4501343378461518 6.032430000000001
1.4724455028545926 5.62973
1.4947567236847858 6.571039999999999
1.517068001182951 6.23037
1.5393793361953272 6.47538
1.5616907295681737 5.71108
1.5840021821477681 5.78705
1.60631369478041 5.01066
1.6286252683124185 5.25197
1.6509369035901333 4.996
1.6732468618895553 4.81617
1.695558623192809 5.39332
1.7178704487808514 5.36678
1.7401823395001077 4.83171
1.7625012545597203 4.71705
1.7848028405262486 4.98528
1.8071218901122095 5.0361400000000005
1.8294236121921872 4.84606
1.8517427996910911 4.7258
1.8740620574440425 5.13579
1.8963639900671978 5.05425
1.9186833908139995 4.95699
1.9409854680117449 4.82711
1.9633050151394713 4.79899
1.9856246367570705 4.68176
2.0079269371922672 4.95493
2.03024671027244 4.76162
2.0525491637446027 4.427980000000001
2.074869091674931 4.5967400000000005
2.097171701569106 4.50249
2.1194917877373847 5.26117
2.141811954326636 4.668080000000001
2.164114805233074 4.9221
2.186435135143035 6.1933300000000004
2.208738150935709 18.5123
2.231058647554722 41.4725
2.2533792288321184 31.7471
2.275682498336085 13.0743
2.298003251406138 6.65905
2.3203066942619714 5.46896
2.3426276225136022 5.1523
2.3649486396617507 4.99595
2.387252348930071 4.86455
2.4095735463442893 5.2994900000000005
2.4318774374315884 5.24092
2.4541988185014043 5.84357
2.476502894794693 6.518669999999999
2.498824462909887 5.695469999999999
2.521146125856138 5.99498
2.5434504863470337 7.30576
2.5657723414244717 6.98964
2.588076895590662 7.157369999999999
2.610398946189713 7.21772
2.6327210958598384 7.20903
2.6550259469304716 7.124860000000001
2.6773482972090137 7.918480000000001
2.6996533504259 7.5784
2.7219759047039602 8.507539999999999
2.744298562293959 7.80245
2.7666039251246595 7.6388300000000005
2.7889267918020164 8.50225
2.8112323652516555 8.2656
2.833555444408179 8.272689999999999
2.8558786311183852 8.22461
2.8781845268938557 8.931280000000001
2.9005079311721484 9.09942
2.9228140460410397 9.12369
2.9451376712799635 9.453439999999999
2.967444008632326 9.18158
2.9897678582247247 9.78546
3.0120918213106695 10.0804
3.0343984987899373 10.347000000000001
3.0567226913198637 11.3346
3.079029599759726 11.5967
3.101354025127254 12.4525
3.123678568232338 13.209000000000001
3.145985829517914 13.2322
3.16831061055229 13.9048
3.1906181112775593 14.5644
3.212943133635653 15.0947
3.2352682779763207 15.4147
3.2575761442691227 15.5234
3.2799015350264273 16.1586
3.302209649240067 16.2693
3.3245352898092655 16.7607
3.3468436553365257 17.1786
3.369169549113219 17.6019
3.3914955708171384 18.8618
3.413804319727358 19.0637
3.4361305997334863 19.4784
3.4584396084414553 19.7848
3.4807661501462652 21.0322
3.503092824025881 21.6315
3.5254022288463154 21.8145
3.5477291695206588 22.1464
3.5700388426251948 22.8962
3.5923660534916446 25.1623
3.6146934007816114 46.3167
3.637003482731501 125.67200000000001
3.6593311053109985 143.188
3.681641464033634 77.304
3.7039693653009733 35.0568
3.726297407241705 27.2279
3.7486081875460804 26.3499
3.7709365132734978 27.1211
3.793247578841633 27.1214
3.8155761917550093 27.0732
3.8378875459837216 28.0266
3.8602164494827234 28.241999999999997
3.882545499606844 29.2059
3.9048572932539183 29.6391
3.9271866390645718 29.9789
3.9494987298666713 30.0841
3.971828374764527 30.581999999999997
3.9941581705403255 31.3243
4.016470713506008 32.2491
4.038800813471445 33.1978
4.061113662089144 33.3582
4.0834440696459176 34.8139
4.105774632334751 35.1742
4.128087945865126 35.908
4.150418821249301 37.2701
4.172732448931298 38.8194
4.195063640413578 40.9891
4.2173775856475215 46.5793
4.239709096631102 91.4998
4.262040768704612 345.35
4.284355196706267 481.139
4.306687193387355 304.881
4.329001947444346 105.7
4.35133427213731 52.8793
4.373666762177566 46.7888
4.395982011761091 46.3007
4.418314834921175 47.6551
4.44063041906622 58.7545
4.4629635787515625 76.0905
4.4852969080429785 75.6838
4.5076130004776225 58.7636
4.529946671403969 52.1217
4.552263106909177 51.4739
4.574597122877047 51.9678
4.596931312711224 53.3833
4.619248269273446 54.1989
4.6415828092605835 55.1675
4.663900117405352 56.4974
4.686235010953232 57.8238
4.708552674085913 58.8846
4.730887924602802 60.4466
4.753223354952695 61.2783
4.775541557023902 63.2182
4.797877349456786 64.7933
4.820195915032126 66.3441
4.842532072957498 67.6729
4.864868414979744 70.2803
4.88718753227192 72.6242
4.909524244902505 74.253
4.931843734218147 75.8229
4.954180820867835 78.4125
4.976518095879839 81.9517
4.998838149695359 84.885
5.021175803844231 88.256
5.043496238205739 91.46
5.065834274903528 96.2821
5.088172504230693 102.023
5.1104935158799565 110.00399999999999
5.132832132875765 140.33700000000002
5.155153533596801 204.74400000000003
5.1774925416746225 248.92700000000002
5.199814334878411 418.76800000000003
5.2221537374521505 1106.76
5.244493338631803 2826.18
5.266815727034316 6595.91
5.289155727832427 11379.5
5.311478517248165 9454.96
5.333818921080011 3627.46
5.356159527788849 767.076
5.3784829252032536 222.611
5.400823940070432 158.545
5.423147747031976 137.335
5.445489173474152 125.124
5.467830807066149 117.72200000000001
5.490155234831516 112.84100000000001
5.512497285125229 109.11399999999999
5.534822130975162 106.73700000000001
5.557164601388673 104.64
5.579489868738879 101.874
5.601832762690846 101.26100000000001
5.6241758697774475 100.335
5.646501775867269 99.0654
5.668845311622074 97.551
5.691171647754637 96.0437
5.713515615597765 94.7297
5.735859800852677 93.7275
5.758186788542988 93.1964
5.780531411018185 93.63600000000001
5.802858837297399 93.0002
5.825203900414495 93.321
5.8475491852224 93.4215
5.869877275883075 94.1292
5.892223006467101 95.0973
5.914551544266608 96.5232
5.936897724049891 99.7038
5.959244129804903 105.806
5.981573344815301 126.426
6.0039202049061 225.16299999999998
6.026249875609095 483.278
6.04859719346037 980.574
6.070927323278297 1997.33
6.093275102315365 3904.66
6.115623113320588 5095.08
6.137953938319995 3658.33
6.160302415650845 1315.45
6.182633708324452 318.33799999999997
6.2049826554078376 130.719
6.227331838745022 100.541
6.249663839443684 90.7989
6.27201349767565 87.3464
6.294345974611799 97.5111
6.316696111167083 117.381
6.339046488263839 110.118
6.361379686074702 87.0048
6.383730546639482 75.0766
6.406064229255215 71.3759
6.428415576718203 70.295
6.450749747566656 69.1179
6.47310158535871 67.965
6.495453669698332 67.1911
6.517788579421056 66.4111
6.540141159237969 65.2394
6.562476565766648 64.9524
6.5848296444934045 64.7937
6.607182974060425 64.4651
6.6295191323281015 64.6918
6.651872965955752 70.1464
6.6742096296068985 109.647
6.6965639707294615 184.31799999999998
6.71891856698715 187.97099999999998
6.741255995248479 117.845
6.763611104154477 74.914
6.785949046381137 63.261
6.808304671371482 60.5511
6.8306605557940046 60.1445
6.852999275508618 59.3879
6.875355681171544 58.6727
6.897694923437771 58.3896
6.92005185377892 58.3253
6.9423916220322655 58.1316
6.964749080490181 57.4502
6.987106804399774 57.6084
7.009447368180821 57.4516
7.031805625367033 57.0548
7.054146723727803 57.0463
7.076505517631004 56.6979
7.098864581288365 57.1021
7.121206488070854 56.9229
7.143566093607822 56.4728
7.165908543567245 57.2059
7.188268694426048 57.3006
7.2106291193438095 57.4198
7.232972390625943 59.4558
7.255333366030969 78.2523
7.277677189091925 160.976
7.300038718428332 242.799
7.322400526130865 201.16400000000002
7.344745183422596 111.811
7.367107550224791 68.0533
7.389452767901992 59.2408
7.411815697249891 57.4248
7.434161478756298 56.4359
7.456524974096713 55.9161
7.478888753837185 56.1581
7.501235387657368 56.4652
7.523599738562711 56.4895
7.545946944825532 56.2853
7.568311870344528 56.923
7.5906770845765665 57.4592
7.613025156078678 59.5483
7.635390950099687 61.2481
7.657739602662809 60.1956
7.680105979923558 58.1753
7.702472650212829 57.6959
7.724822180948224 57.7092
7.747189439655568 57.6334
7.769539560075357 57.6211
7.791907410653562 58.2917
7.81425812420825 57.9538
7.836626570110925 58.3728
7.858995315087906 58.8627
7.881346924933401 59.2342
7.903716270417482 59.907
7.926068482028405 60.2213
7.948438431475253 60.5576
7.9708086843180235 61.0102
7.993161805171116 61.7592
8.015532667162402 62.2496
8.037886398416653 63.5357
8.060257873014221 63.3597
8.082629655331942 64.1796
8.104984308787587 65.2714
8.127356708900503 69.9695
8.149711981398308 78.5234
8.172085002766314 82.1512
8.194458336181368 76.3206
8.216814543847752 71.4603
8.23918850371002 70.7577
8.26154533906492 71.6461
8.283919928836452 73.0908
8.306277395339652 73.803
8.328652618483376 75.2109
8.351028159736202 77.3314
8.373386579575245 79.5259
8.395762759396959 81.1722
8.418121819038275 87.6893
8.440498640894003 107.381
8.462875785192262 127.90899999999999
8.485235811156207 139.339
8.507613602688501 175.56
8.529974277114228 264.562
8.552352719347912 396.254
8.574731488360351 620.33
8.59709314210385 1053.56
8.619472567021075 1626.64
8.64183487789147 2104.48
8.664214962183097 1919.19
8.686577933647762 1143.1
8.708958680784317 464.17199999999997
8.731339760774953 194.438
8.753703729764451 121.068
8.77608547780821 104.10600000000001
8.798450116065078 99.2635
8.820832535634787 95.2622
8.843215292401656 93.6326
8.865580941199045 91.9166
8.887964374703538 91.1853
8.910330701447199 92.7246
8.932714815164482 96.8454
8.955099270424924 96.15100000000001
8.977466620733543 91.5057
8.999851761421976 87.2568
9.022219798361645 85.3839
9.04460562795561 84.7612
9.066991803441677 84.5929
9.089360876979615 84.3088
9.111747746589993 84.1042
9.13411751544971 83.6723
9.156505082664324 83.0841
9.178875550323522 83.564
9.20126381862328 84.2462
9.223652438908596 84.8361
9.246023961427412 84.5725
9.26841328802173 83.7883
9.290785518039224 83.2049
9.313175554425882 84.1636
9.335565947154315 84.16799999999999
9.357939245086508 84.4356
9.380330352834827 84.1814
9.40270436697103 84.5792
9.425096193225055 84.0876
9.447488380180165 84.7838
9.469863475295412 85.4892
9.492256385987508 85.8178
9.514632206018318 86.3869
9.537025843935714 86.9332
9.559402392368193 87.7612
9.581796761000229 88.3961
9.604191496441521 90.16799999999999
9.626569144158516 95.2877
9.648964615551032 102.35700000000001
9.671343000390081 104.86399999999999
9.693739211225699 100.777
9.716135793237463 96.3158
9.738515290448102 94.7834
9.760912617143402 95.3032
9.783292860202891 96.6039
9.805690935076182 98.0703
9.828089385495742 99.1006
9.850470754023561 101.67200000000001
9.872869957865444 112.958
9.89525208097539 135.472
9.917652041736662 155.293
9.940052382417589 152.113
9.962435644102392 151.799
9.984836746950979 184.12
10.007220771957746 248.139
10.029622640473708 348.213
10.052007432299963 503.129
10.074410069984072 737.0169999999999
10.096813093716005 1113.02
10.119199042482517 1576.15
10.141602840636468 1910.14
10.163989564971628 1769.82
10.186394141051062 1100.57
10.208799107559706 502.85900000000004
10.231187001965623 231.946
10.253592751657669 140.595
10.275981430388155 119.904
10.298387966769793 120.139
10.320794897965431 124.632
10.343184759907361 123.15799999999999
10.36559248305461 114.801
10.387983138083852 107.99600000000001
10.410391656691655 110.08
10.432800574501677 121.34200000000001
10.455192425893369 138.187
10.47760214443012 161.865
10.499994797678786 198.674
10.522405320453982 260.464
10.54479877906917 349.89599999999996
10.567210109595656 467.92
10.5896218454736 549.146
10.612016518879773 525.1659999999999
10.634429067781074 396.33
10.656824555333241 234.80200000000002
10.679237920773568 139.62
10.701651695961992 102.102
10.724048411481384 92.1895
10.746463008485165 88.9524
10.768860546937125 87.0725
10.791275969274796 85.4112
10.81369180576079 84.0294
10.836090585366925 82.7714
10.858507252467449 81.5696
10.88090686379991 80.4186
10.903324365036394 79.938
10.925724811614439 80.6218
10.948143150509463 83.00399999999999
10.970561909719066 82.4835
10.992963615930844 79.8908
11.015383218085756 76.9666
11.037785768347074 75.1774
11.06020621697282 74.8158
11.082627090322113 74.1472
11.105030913430326 73.5975
11.12745263854165 74.4239
11.149857314510728 80.3107
11.172279894912576 90.2105
11.194702904450653 92.0171
11.217108866490921 85.6461
11.239532736615194 79.0034
11.26193956033512 75.7411
11.284364294577085 73.1735
11.306789462371718 70.5333
11.329197585398376 69.0979
11.351623622610898 68.5349
11.37403261614354 67.6756
11.396459526308487 67.5229
11.418869393879497 67.1379
11.441297180532617 66.8356
11.463725406927658 66.2961
11.486136592353875 66.3352
11.508565700543707 67.3285
11.530977768845315 70.3237
11.553407762368774 72.1798
11.575838200059769 71.2552
11.598251599479612 68.2468
11.620682927815501 65.5636
11.64309721895548 65.0353
11.665529441478206 64.8639
11.687962112597958 64.2481
11.710377748130886 64.4204
11.732811318753434 64.2754
11.755227854859067 64.6232
11.777662328529495 64.4669
11.800079768750786 64.001
11.822515149015453 63.9858
11.844950984084935 64.0874
11.867369787303163 63.7218
11.889806534289491 63.7305
11.912226250487029 63.9533
11.934663912939751 64.2731
11.9571020346363 64.306
11.979523127133968 64.4258
12.001962169624331 65.2745
12.024384183972964 66.0929
12.046824150809913 69.6511
12.069264581333726 74.8371
12.091687985297767 80.8441
12.11412934550045 89.72200000000001
12.136553680195208 102.012
12.158995973632788 120.39
12.181438735204349 142.77200000000002
12.20386447284199 172.922
12.226308172985636 201.87400000000002
12.24873485024193 210.81799999999998
12.271179492516982 186.36
12.293607112949127 146.80100000000002
12.316052700916226 112.64200000000001
12.338498763250042 88.4381
12.360927805303868 75.4803
12.383374818673879 69.5708
12.405804812803074 66.814
12.428252780773262 65.7773
12.45070122756722 65.7382
12.473132656675375 65.9151
12.49558206341869 65.8715
12.518014453510101 65.8819
12.540464823770117 66.1748
12.562915677315177 66.5969
12.58534951575545 67.3244
12.607801338171472 70.1921
12.630236146511358 78.5821
12.652688941369085 86.35
12.675124723177234 87.0164
12.697578494048786 80.7141
12.720032754458185 73.1013
12.742470003354093 70.0095
12.764925245138771 69.4796
12.787363476431278 69.7473
12.809819703166806 70.0256
12.83227642391173 70.6348
12.854716135692716 71.0608
12.877173846755147 72.2707
12.899614549869717 72.4061
12.9220732548287 73.2401
12.94453245827299 73.7115
12.966974655289818 74.5264
12.989434858002571 75.4737
13.011878055298721 76.016
13.034339260862497 77.0873
13.056800969391883 78.4029
13.079245674017244 80.1928
13.101708390774869 82.6921
13.12415410463411 90.1351
13.146617833206086 102.571
13.169064559883248 114.975
13.191529303857127 129.631
13.213994557076367 148.379
13.236442809902437 176.81
13.258909083908291 218.605
13.28135835851934 270.751
13.30382565690295 334.624
13.326293469022952 403.529
13.348744283242008 436.57099999999997
13.371213125129904 397.647
13.39366497011003 303.95599999999996
13.416134845360597 206.15599999999998
13.438605238843131 140.01
13.46105863690397 113.009
13.483530069144786 109.814
13.505984506951902 113.97
13.528456981549432 122.69200000000001
13.550929978879088 135.827
13.573385983253365 154.872
13.595860028340867 183.9
13.618317081455832 224.34799999999998
13.64079217790333 272.586
13.663250283359057 324.45
13.685726434770173 364.236
13.708203115221277 365.962
13.730662806148091 299.999
13.75314054697177 219.993
13.775601299246777 149.68
13.798080104050406 106.38
13.820559442405358 89.3812
13.843021793671388 84.3209
13.865502201420897 82.3796
13.887965623051947 81.4976
13.910447103807167 80.3612
13.932929122629764 78.8023
13.955394156785959 78.2941
13.977877254034569 77.3876
14.000343367582113 76.4837
14.022827546871707 75.6908
14.045294743423524 75.1527
14.06778000837062 74.5695
14.090265817715476 74.2924
14.112734645763819 74.0753
14.13522154619454 74.027
14.157691466286913 74.5232
14.180179461423874 73.9499
14.202668005486178 73.4162
14.22513957064374 72.4929
14.247629214846473 72.0352
14.270101881097517 71.7516
14.29259262906496 72.2979
14.315083930490205 73.5202
14.337558255389705 74.2212
14.360050666019726 73.8848
14.382526101071944 72.2542
14.405019624534942 70.8681
14.427513705993134 70.4069
14.449990813291825 69.9603
14.47248601302899 70.0875
14.49496423954951 70.1734
14.517460561197822 70.2467
14.539939910570322 70.0329
14.562437357763558 70.4282
14.58493536931253 72.0393
14.607416409993311 73.5247
14.62991555254159 74.6019
14.652397725157423 74.289
14.674898002342799 73.1503
14.697398848433282 72.0933
14.719882725991326 72.3927
14.74238471217934 73.229
14.764869730765593 76.494
14.787372860692983 80.3782
14.809876564079925 84.8571
14.83236330125751 90.4921
14.854868153850365 97.6912
14.877356041159485 108.31
14.899862046604186 123.155
14.922351087688757 142.939
14.944858249632887 166.62599999999998
14.967365991421232 192.834
14.989856770231246 217.588
15.012365673994204 224.71900000000002
15.03485761569738 207.575
15.05736768508665 169.18200000000002
15.07987833888692 130.549
15.102372032001655 101.66799999999999
15.124883856909658 82.8615
15.14737872204565 75.4599
15.169891721717274 72.83
15.192405310371893 72.5088
15.214901940621196 73.3116
15.237416709527137 73.8682
15.259914520936249 73.9965
15.282430473753607 72.8613
15.304947020131227 71.4748
15.327446610371178 70.1999
15.349964346154254 69.0245
15.372465126703139 68.5026
15.394984055556009 67.8481
15.417486030076159 67.4704
15.44000615566487 67.3916
15.462526881230803 67.3886
15.485030653812652 67.9801
15.507552581617434 67.8268
15.530057557334603 68.1338
15.55258069104857 68.0008
15.575104429329837 67.8569
15.597611216864632 67.3302
15.620136166564563 67.1538
15.6426441664095 68.1511
15.665170331202765 70.4845
15.687697105158826 73.745
15.710206930593545 77.2961
15.732734925158933 81.2738
15.755245972089478 86.8255
15.77777519094324 94.4376
15.800287463046663 104.29700000000001
15.822817909869592 118.363
15.84534897229804 135.58700000000002
15.867863089299354 156.461
15.890395385222186 176.768
15.912910736597423 191.985
15.935444269699861 193.422
15.957978423016485 171.97299999999998
15.980495633101265 139.72299999999998
16.003031029129367 107.81200000000001
16.02554948280019 84.029
16.048086125229432 72.0606
16.070623392487107 68.7367
16.09314371869582 67.8395
16.11568223789321 66.595
16.13820381691126 65.2677
16.160743591742527 63.8116
16.183283996022084 62.3654
16.205807461423195 61.025
16.228349126881973 60.6655
16.25087385432698 60.4633
16.27341678466365 59.873999999999995
16.29594277784926 59.852
16.31848697676433 60.7371
16.341031811604868 61.4096
16.36355971058487 62.2807
16.3861058195587 61.8292
16.40863499352978 60.0804
16.431182380342005 58.7931
16.453730407713202 57.84
16.476261501364792 57.38
16.498810812136167 56.8277
16.52134319004079 56.9971
16.54389378792203 56.905
16.566445031001553 56.8053
16.588979342490088 56.4
16.61153187824822 56.6361
16.634067483263312 56.3285
16.656621315414416 56.1823
16.679175797408888 55.9182
16.701713349928728 55.9858
16.72426913389191 56.1929
16.74680798922351 56.3194
16.76936507887444 56.4276
16.791905240734874 56.5937
16.814463639794468 56.3793
16.837022695210294 56.2964
16.859564824093756 56.6616
16.882125194503903 57.8644
16.904668639217885 59.2002
16.927230328348003 59.2945
16.949792678493612 59.228
16.972338104193863 58.2688
16.994901778652235 57.4649
17.017448529496576 57.13399999999999
17.040013531998152 57.0307
17.06257920018044 57.3494
17.0851279459922 58.2513
17.107694947817667 59.0177
17.130245028099072 60.012
17.15281336730298 61.435
17.17536478578733 62.7634
17.19793446610687 64.4609
17.220504818648422 66.6278
17.243058251703697 69.192
17.265629950971032 72.681
17.288184731571736 76.6176
17.310757781306908 81.3291
17.33333150794385 84.0472
17.355888317140174 84.5184
17.37846339986244 80.6463
17.401021565958885 74.6991
17.42359800851343 69.2542
17.44617513265564 64.4358
17.468735341390783 61.6483
17.491261035594565 60.5901
17.51396340099364 60.233000000000004
17.536490463869136 60.5276
17.559018209820174 60.4901
17.58154663977963 60.6277
17.604251766089718 60.4236
17.626781572227713 60.8943
17.64931206518155 61.0211
17.671843245885103 61.8475
17.69455114821572 61.9956
17.717083712612634 62.3883
17.739616967569667 62.4808
17.762150914021706 62.4768
17.78486160749854 62.3294
17.807396945166804 63.1584
17.829932977143503 63.7849
17.85246970436452 65.3735
17.875183204129467 67.4796
17.897721330097664 69.6457
17.920260154126645 71.9854
17.942799677153296 74.72800000000001
17.9655159983646 78.2011
17.988056927677544 82.0737
18.010598558807683 88.0753
18.033140892692916 95.789
18.05586005052525 104.488
18.07840379824407 114.456
18.10094825154059 126.325
18.12366954819864 137.795
18.146215420998306 142.71200000000002
18.16876200220057 139.025
18.191309292745153 126.73100000000001
18.214033452627167 112.45
18.236582170236648 97.8232
18.259131600016456 89.1929
18.281681742907335 86.7354
18.304408781233683 88.8272
18.32696035875955 92.3242
18.349512652227624 96.818
18.372065662579683 103.164
18.394795594587553 107.08200000000001
18.41735004715306 107.016
18.43990521943684 102.435
18.46246111238171 93.8113
18.485193953325208 83.3099
18.507751296070428 74.3435
18.530309362314178 68.709
18.552868153000343 65.5245
18.57560391815056 63.8608
18.59816416623245 63.3404
18.620725141597372 62.9019
18.643286845190268 62.1656
18.666025549835414 61.7674
18.688588718427933 61.211999999999996
18.711152618092243 61.2951
18.73389353884365 60.823
18.75645890921984 60.2592
18.77902501351406 60.0569
18.801591852673102 59.9498
18.824335739722738 59.2805
18.846904057212626 59.2534
18.8694731124168 58.9263
18.89204290628315 58.9807
18.914789774966803 58.8281
18.937361054791623 58.3225
18.959933076131318 58.2232
18.982505839934877 58.5114
19.00525570560582 58.43899999999999
19.027829963004184 58.31100000000001
19.05040496572238 58.6497
19.072980714710468 58.3774
19.095733592739563 58.5398
19.11831084296757 58.9788
19.140888842324735 59.4744
19.16346759176222 59.7755
19.18622349753803 60.2526
19.208803755869358 61.0069
19.231384767143577 61.6844
19.253966532312948 62.6205
19.276725481241822 64.4892
19.29930876296784 66.1314
19.3218928014549 68.7374
19.34465404436217 72.1932
19.36723960516257 75.4987
19.389825925592426 77.8272
19.412413006605938 78.1139
19.43517731967805 76.0699
19.457765930683355 71.7825
19.48035530514408 66.574
19.50294544401556 62.1905
19.525712842708348 59.0063
19.54830451925909 57.0545
19.570896963095727 55.8158
19.593490175174704 55.0736
19.616260674962184 54.9252
19.638855432416964 54.9531
19.661450960992624 54.9395
19.68404726164677 54.6162
19.706820878021247 54.5062
19.729418731756834 54.7793
19.752017360452857 54.3237
19.77461676506804 54.6856
19.797393513540218 54.6442
19.819994478951667 55.157
19.84259622316767 55.8223
19.8651987471481 56.1308
19.887978643247177 56.3459
19.91058273574792 56.6011
19.933187610901943 57.3418
19.955969879466828 58.1741
19.97857632894404 59.4053
20.00118356396599 60.4456
20.023791585494575 61.8337
20.046577028914875 64.5543
20.069186632506966 66.3867
20.091797025500632 68.7834
20.114408208858933 70.4652
20.137196842715273 71.2304
20.159809615886765 70.6517
20.18242318232135 68.0496
20.20503754298326 65.6939
20.227829382875154 63.7961
20.250445341109344 62.711999999999996
20.27306209647285 62.8632
20.29567964993108 63.6242
20.31847471147704 64.7929
20.34109387027612 66.1767
20.363713830075454 66.9667
20.386334591841646 66.5527
20.409132890679302 64.3584
20.431755265564437 61.2588
20.454378445325528 58.3546
20.477002430930366 55.9443
20.499803982716553 54.3748
20.522429589228004 53.5027
20.54505600449589 52.7221
20.567683229489194 52.4467
20.590488049900088 52.0121
20.61311690359731 51.778
20.63574656993626 51.3934
20.658553853717297 50.9058
20.681185154618298 51.0429
20.703817271080066 50.773
20.72645020407368 50.2341
20.749260783967177 50.3355
20.771895359337133 50.3176
20.794530754161617 50.1592
20.817166969412938 50.0218
20.83998086114876 49.8962
20.86261872660049 49.7279
20.885257415405402 49.6783
20.90789692853701 49.6902
20.930714147864748 49.58
20.953355319030678 49.6625
20.97599731745334 49.8428
20.99864014410749 49.6615
21.021460706796564 49.7407
21.044105199328826 49.9672
21.06675052302631 49.9918
21.089396678865015 50.1735
21.112220600704806 50.5383
21.134868430275347 50.8306
21.15751709492456 50.8834
21.180166595629693 51.1365
21.202993892429635 51.5511
21.22564507473034 51.9206
21.24829709602816 52.0554
21.27112693608965 52.5916
21.293780644891275 52.9159
21.316435195634053 52.2273
21.339090589297417 51.4033
21.361923832041875 50.9678
21.384580921090404 50.2019
21.407238856007325 49.6282
21.429897637773326 49.5696
21.45273429906592 49.4714
21.475394784108598 49.4827
21.498056118951983 49.3732
21.520718304578022 49.5839
21.543558400304388 49.6419
21.566222297108816 49.7611
21.58888704765135 49.931000000000004
21.61155265291521 50.3129
21.63439619898156 50.6038
21.657063523335786 50.8398
21.67973170537063 51.2961
21.7024007460706 51.9679
21.72524775840385 52.4148
21.747918526116475 53.3698
21.770590155457388 54.2481
21.79326264741238 55.513000000000005
21.816113141960237 56.9554
21.838787368860547 58.6046
21.861462461341976 60.3955
21.884315579735777 62.4687
21.90699241312273 64.2594
21.92967011506078 65.4987
21.95234868653799 66.01
21.9752053151131 65.5953
21.997885635446785 63.908
22.020566828293532 62.0026
22.04324889464272 59.6627
22.066109049404666 57.783
22.088792872571794 56.8702
22.111477572219204 56.6951
22.1341631493376 57.1038
22.157026846313123 57.2526
22.179714188221507 56.9921
22.202402410582668 56.208
22.22509151438863 54.5905
22.24795876962584 53.3133
22.270649646204486 52.3076
22.293341407213727 51.3608
22.316034053646906 50.6266
22.338904883215342 50.255
22.36159931041458 50.3177
22.38429462602756 50.2034
22.40699083104897 50.2174
22.429865251039757 50.2102
22.452563244831367 50.2294
22.47526213102522 50.0276
22.49813925616515 49.8919
22.520839937143307 49.7409
22.543541513520587 49.7691
22.56624398629403 49.4737
22.589124730075895 49.5007
22.611829005656723 49.9923
22.63453418063466 49.6218
22.657240256008077 49.9095
22.680124634582935 50.114
22.70283252079775 50.3548
22.725541310413075 50.5883
22.74825100442868 50.5278
22.771139033969575 50.9955
22.79385054687155 51.2029
22.81656296718292 51.8571
22.83927629590484 52.5004
22.862167992606945 53.3814
22.88488314827121 54.3376
22.907599215359284 55.1269
22.93031619487366 56.0417
22.953211574954405 57.0783
22.975930389478226 58.2935
22.998650119445763 59.0911
23.02137076586092 59.1019
23.044269845560063 58.2138
23.06699233506288 56.8743
23.089715744034912 54.9063
23.112617610931565 53.0538
23.135342869061212 51.6148
23.158069049684816 50.6687
23.1807961538087 50.1169
23.20370174880544 49.9048
23.226430710184808 49.9025
23.249160598093425 50.0235
23.271891413539002 49.8232
23.294800752937697 49.8256
23.31753343374794 50.1338
23.340267045128353 50.1735
23.36300158808808 50.3159
23.38591468821339 50.7475
23.408651104658304 51.007
23.431388455719986 51.3803
23.454126742409 52.0966
23.4770436196085 52.907
23.499783787914662 53.9849
23.522524894889884 54.5696
23.54526694154616 55.7511
23.56818761219047 56.9385
23.59093154860734 57.9195
23.613676427751283 58.9541
23.636422250635754 58.8139
23.659346731118656 57.7141
23.68209445191868 56.1666
23.704843119509587 53.9726
23.72759273490623 51.8384
23.750521041644767 49.9391
23.77327256312355 48.6035
23.796025035462787 47.9481
23.818956224555475 47.4017
23.841710609113413 47.129
23.86446594758979 46.8506
23.887222241002014 46.5123
23.910157285144578 46.3359
23.932915498962537 46.2482
23.955674670778713 46.0582
23.978434801611975 45.7885
24.001373717286125 45.6964
24.024135776723917 45.6672
24.046898798245582 45.4705
24.06966278287146 45.595
24.092605586582614 45.288999999999994
24.115371508023642 45.2162
24.1381383956401 45.1948
24.16090625045381 45.0556
24.183852958731244 44.9048
24.206622758582608 44.7649
24.229393528706886 44.571999999999996
24.252165270127392 44.7833
24.27511589952438 44.5791
24.297889594216997 44.3402
24.32066426328598 44.2193
24.34343990775613 44.2677
24.36639447485003 44.3605
24.38917208083877 44.3252
24.41195066531332 44.1522
24.43490819850244 44.0751
24.457688750692377 43.8743
24.48047028445616 43.8549
24.503252800821233 43.9115
24.526214300784112 43.9769
24.548998793132213 44.1219
24.57178427117417 43.766999999999996
24.59457073593893 43.9183
24.617536219319863 43.937
24.64032466834748 43.8339
24.663114107195035 43.8589
24.685904536893013 43.6273
24.708874020360852 43.6874
24.731666442613744 43.5713
24.754459858818787 43.303999999999995
24.777254270007962 43.2364
24.80022777025625 43.321999999999996
24.82302418230472 43.1389
24.845821592443674 43.093
24.86862000170663 43.0474
24.891597535453727 42.9036
24.914397953892728 43.1251
24.93719937456671 43.1266
24.96000179851076 43.1769
24.98298338249997 43.4874
25.00578782394922 43.5966
25.028593271784167 43.6533
25.05157790644186 44.1087
25.07438537804115 44.008
25.097193859145293 44.2078
25.120003350792075 44.3702
25.142992065061257 44.7925
25.165803588823465 45.0794
25.18861612625217 45.4062
25.211429678386736 45.5075
25.234422489079968 45.5907
25.257238081693636 45.6261
25.280054692141732 45.6524
25.3028723214652 45.465
25.325869245420463 45.6309
25.348688923599397 45.9271
25.371509623787006 45.8714
25.394331347025812 45.8492
25.41733240110666 45.6795
25.440156181590016 44.8718
25.46298098826268 44.4174
25.48580682216873 43.8246
25.50881202326435 43.018
25.53163992281684 42.4599
25.55446885274561 42.2562
25.577298814096377 41.8263
25.600308179121807 41.746
25.623140214533745 41.8823
25.64597328451537 41.7256
25.66898578564376 41.4942
25.691820936010206 41.5029
25.714657124097695 41.3951
25.737494350954734 41.3262
25.760511045684957 41.4467
25.783350361364224 41.5836
25.806190718969255 41.5467
25.82903211955018 41.6356
25.852053024868923 41.5923
25.874896522722523 41.7128
25.897741066713106 41.5143
25.920586657892454 41.578
25.943611790812668 41.5688
25.966459487728237 41.7023
25.989308234998564 41.7945
26.01215803367705 41.9476
26.03518741123814 42.0781
26.05803932412957 42.1906
26.080892291600094 42.3543
26.10374631470478 42.44
26.12677995397268 42.7099
26.14963609978026 42.7462
26.172493304397875 42.4515
26.19535156888223 42.3523
26.218389486949604 41.8244
26.241249882640123 41.5124
26.26411134137826 41.3234
26.28715248187403 41.3622
26.31001607820869 41.0777
26.3328807407756 40.8325
26.35574647063438 41.0264
26.37879191991473 40.9537
26.401659795896734 41.032
26.424528742360263 41.0553
26.447398760366614 41.2622
26.470448535598294 41.3389
26.49332070826805 41.571000000000005
26.516193955675355 41.8194
26.53906827888316 42.0688
26.562122397260108 42.0182
26.584998883685063 42.2216
26.607876449110325 42.5472
26.63075509460056 42.7059
26.65381357334404 43.0436
26.67669439061878 42.9644
26.699576291163382 43.0166
26.722459276044212 42.9408
26.745522132402975 42.7302
26.768407297649354 42.5261
26.791293550442003 42.1981
26.814180891848974 41.8472
26.837248143099337 41.4998
26.860137673466657 41.4868
26.88302829566349 41.1716
26.90592001075963 41.0124
26.92899167420566 40.85
26.951885586870763 40.4978
26.974780595655517 40.3789
26.99785558178161 40.1995
27.020752794605112 39.9698
27.043651106772522 39.7544
27.06655051935668 39.7972
27.089629948036183 39.6264
27.112531573292053 39.6269
27.135434302194138 39.7301
27.158338135817015 39.4492
27.181422024430987 39.3839
27.204328079372566 39.3347
27.22723524226965 39.4239
27.250143514198573 39.4898
27.273231880156334 39.361
27.296142382065014 39.2285
27.319053996245536 39.2672
27.341966723775965 39.369
27.365059584515222 39.301
27.38797455070062 39.3725
27.410890633481237 39.1869
27.433807833936918 38.9186
27.456905206923906 39.2428
27.47982465472398 39.3161
27.502745223449743 39.4131
27.525666914182825 39.4292
27.548768816912457 39.3997
27.571692763693633 39.3185
27.59461783573812 39.2268
27.617723149491244 39.0942
27.640650484125285 39.001
27.66357894728264 38.9456
27.686508540048052 38.9417
27.709618414237887 38.703
27.732550278321757 38.501999999999995
27.755483275279115 38.6455
27.778417406196485 38.6903
27.801531858397514 38.593
27.824468269376716 38.5834
27.847405817586786 38.6777
27.870344504116094 38.7865
27.893463551932008 38.836
27.916404527281053 39.0574
27.93934664422563 39.0176
27.962289903855886 39.0612
27.98541356491974 39.2534
28.00835912214229 39.4084
28.03130582533231 39.6936
28.054253675581805 39.8022
28.077381967556104 39.775999999999996
28.100332124185126 39.9443
28.123283431160893 39.9094
28.146235889577238 39.7846
28.169368830154156 39.705999999999996
28.192323603752033 39.4717
28.215279532083304 39.0618
28.238415973016764 38.8202
28.261374223145094 38.6716
28.284333631303806 38.4511
28.307294198589954 38.4244
28.330435319167677 38.2137
28.353398217078915 37.8968
28.376362277420153 37.6736
28.39932750129032 37.5273
28.422473319286713 37.2599
28.44544088262495 37.1208
28.468409612800283 37.0224
28.491379510913497 36.7969
28.51453004413313 36.7649
28.53750229057244 36.8175
28.56047570826344 36.6954
28.583450298308804 36.8246
28.606605564586562 36.5206
28.629582511831156 36.5428
28.65256063474956 36.4211
28.675539934446338 36.4039
28.698699951647605 36.453
28.72168161743193 36.2844
28.74466446331978 36.3572
28.767648490417624 36.1932
28.790813276438353 36.0833
28.813799678527303 36.214
28.836787265157085 36.2394
28.859955641890075 36.1792
28.882945610203045 36.135999999999996
28.905936766392035 36.0519
28.928929111566863 36.1239
28.952102288520145 36.174
28.975097024308607 36.0033
28.998092952423807 35.811
29.021090073977508 35.7943
29.04426806913204 35.6585
29.067267590245258 35.59
29.090268308143695 35.5209
29.11327022394099 35.4352
29.13645305530891 35.3095
29.159457379627167 35.2243
29.18246290519685 35.0109
29.20546963313352 34.9938
29.22865731875826 35.1792
29.25166646419296 35.1151
29.27467681535305 34.9639
29.29768837335608 35.0046
29.320880931312562 35.0167
29.34389491580634 34.9841
29.366910110507334 34.9792
29.38992651653503 34.8599
29.41312396492981 34.9977
29.436142806456754 35.0153
29.45916286268059 34.8773
29.48236399319994 34.7289
29.50538649169417 34.5711
29.528410208259935 34.6117
29.55143514402014 34.4021
29.574641196749695 34.2289
29.597668583816574 34.0329
29.6206971934585 33.8721
29.64372702680042 34.04
29.666938019934474 33.8409
29.689970313635285 33.8082
29.713003834422636 33.6809
29.73603858342347 33.7159
29.759254535188578 33.6461
29.78229175361658 33.6612
29.80533020365064 33.6722
29.82836988641968 33.6695
29.85159081507472 33.5359
29.874632976355343 33.4638
29.89767637376955 33.5885
29.920721008448314 33.2886
29.9439469322847 33.3031
29.96699405457564 33.3235
29.9900424175358 33.3383
30.013092022298157 33.3096
30.03632295963995 33.1533
30.059375061131373 33.1943
30.08242840783577 33.2228
30.105483000888153 33.0772
30.128718970092244 33.0984
30.151776069006917 33.1508
30.17483441768648 33.1844
30.198074175317235 33.1404
30.221135036724256 33.1065
30.24419715131772 33.0747
30.267260520236203 32.931
30.290505341942243 33.0374
30.313571232750228 33.096
30.336638381310948 33.1061
30.35970678876503 33.0552
30.38295669299435 33.0213
30.40602763151657 32.9099
30.429099832366074 32.9023
30.452173296685572 32.7484
30.47542830191959 32.8163
30.498504306502497 32.7691
30.521581577995562 32.7558
30.544660117543582 32.8086
30.56792024229725 32.7708
30.59100133132069 32.8515
30.614083691845494 32.7593
30.637167325018545 32.8712
30.660432587840603 32.8708
30.683518779717886 32.7781
30.70660624769615 32.900999999999996
30.729694992924372 32.9485
30.75296541239743 32.9568
30.77605672557558 32.874
30.799149319462742 32.8638
30.8224236211637 32.6905
30.845518789950724 32.5805
30.868615242910597 32.5621
30.891712981195973 32.3967
30.91499247215866 32.3492
30.938092794619365 32.343
30.96119440587579 32.198
30.984297307082752 32.0337
31.00758200598383 32.0672
31.030687500658694 31.9469
31.053794288760695 31.9637
31.076902371446767 31.7667
31.100192296997445 31.8431
31.12330298246119 31.7282
31.14641496599209 31.7081
31.169528248749216 31.7749
31.19282341969534 31.644000000000002
31.215939314557186 31.6871
31.239056512134788 31.5608
31.262175013589378 31.5543
31.28547544871168 31.6418
31.30859657161541 31.4157
31.331719001892175 31.5724
31.35484274070538 31.6462
31.378148458819545 31.5241
31.401274828443725 31.4762
31.424402510106933 31.5373
31.447712205419993 31.6481
31.470842524931633 31.4793
31.493974159989783 31.469
31.51710711176168 31.5006
31.54042212308802 31.5762
31.563557722100917 31.533
31.586694641341655 31.2689
31.609832881979628 31.248
31.63315322823208 31.2202
31.656294125521327 31.064
31.679436347728515 31.0165
31.70257989602529 30.8902
31.725905596152327 30.8671
31.74905181052835 30.7682
31.772199354521323 30.8266
31.79534822930507 30.8255
31.818679302290967 30.9058
31.84183085259981 30.7267
31.864983737233473 30.7207
31.88813795736804 30.8104
31.911474422233013 30.6062
31.934631327356435 30.6359
31.9577895715215 30.6601
31.980949155906522 30.6384
32.004291031706956 30.6221
32.027453310562606 30.6426
32.05061693318573 30.4754
32.07396288236386 30.4709
32.09712920658542 30.4969
32.12029687812702 30.3019
32.14346589817093 30.2349
32.166817291729984 30.1386
32.18998902288583 30.1164
32.21316210610336 30.0441
32.23633654256711 29.9091
32.259693399663725 29.9419
32.282870556771144 29.8662
32.30604907069099 29.8499
32.329228942610065 29.6877
32.35259128243769 29.6448
32.375773884550505 29.6151
32.398957848235646 29.6527
32.422143174682176 29.563000000000002
32.445511016471215 29.4338
32.468699082679954 29.491999999999997
32.49188851523011 29.3274
32.51507931531304 29.3844
32.538452678331 29.2671
32.56164622776311 29.2749
32.58484114831493 29.1539
32.60803744118015 29.1325
32.631416344731896 29.1812
32.654615396551876 29.0274
32.67781582427913 29.0795
32.701198898634416 28.9948
32.72440209253756 28.8652
32.747606665947124 28.9082
32.77081262006088 28.8126
32.79420126883317 28.8108
32.81740999876112 28.8073
32.840620112999424 28.8039
32.86383161274818 28.6928
32.88722585534586 28.6311
32.91044014056596 28.6719
32.933655814909734 28.6969
32.95687287957963 28.6377
32.98027273544904 28.539
33.00349259526636 28.4102
33.026713849030116 28.5737
33.04993649794511 28.4648
33.073341986570746 28.4878
33.09656744032826 28.3259
33.11979429286444 28.353
33.14302254538647 28.4715
33.166433686291185 28.2893
33.18966475336992 28.3172
33.212897224069096 28.1727
33.23613109959831 28.1421
33.259547912343415 28.1469
33.2827846121627 28.2758
33.306022720453775 28.1438
33.32926223842861 28.0241
33.352684742614166 28.0259
33.37592709463173 28.0369
33.399170859982064 27.9588
33.422597648419426 27.8201
33.44584425514446 27.7194
33.46909227885668 27.787
33.4923417207723 27.6754
33.51577423505344 27.7157
33.539026528130385 27.5946
33.56228024307245 27.5464
33.585535381098246 27.3516
33.60897364093058 27.3871
33.63223163992385 27.3894
33.6554910656699 27.2746
33.678751919389796 27.2711
33.702195944520106 27.2062
33.72545966903325 27.1918
33.74872482519663 27.0877
33.771991414233746 27.1034
33.79544122444841 27.0926
33.81871069412428 26.9985
33.84198160035767 27.0892
33.86525394437455 27.0086
33.88870955949969 27.0002
33.911984794020626 26.9135
33.93526147001624 26.894000000000002
33.958539588715006 26.7655
33.98200102861669 26.7625
34.0052820477047 26.6657
34.02856451319451 26.6591
34.05203033759056 26.5304
34.07531571090147 26.5932
34.09860253431845 26.6296
34.121890809074316 26.5324
34.145362493118924 26.5016
34.16865368561615 26.4125
34.191946333164054 26.3443
34.21524043699793 26.4507
34.23871800066799 26.3126
34.26201503218366 26.193
34.28531352370466 26.1947
34.30861347646881 26.2238
34.33209693978188 26.1847
34.3553998301885 26.1372
34.378704185565205 26.0735
34.402010007152356 25.9846
34.42549939016683 25.9661
34.44880815937748 25.8248
34.472118398533134 25.8903
34.49543010887669 25.8195
34.51892543169198 25.7255
34.54224009966052 25.8298
34.56555624255917 25.7956
34.58887386163339 25.6024
34.61237514439016 25.5526
34.6356957311114 25.5569
34.65901779775809 25.5217
34.68252356662995 25.551
34.705848608458616 25.5377
34.72917513396849 25.4717
34.75250314440949 25.3997
34.77601490857862 25.3211
34.799345904259795 25.2722
34.82267838863559 25.2544
34.846012362958525 25.3041
34.869530142679984 25.2653
34.89286711232212 25.1406
34.91620557568269 25.0862
34.93954553401677 25.0857
34.9630693495876 25.0248
34.986412313340814 25.0769
35.00975677584668 25.0907
35.033102738362956 25.0132
35.05663261012228 24.9541
35.0799815881786 24.8193
35.10333207003229 24.7131
35.12668405694369 24.8298
35.150220005273056 24.8294
35.17357501786656 24.8152
35.19693153931268 24.7564
35.220289570874385 24.7492
35.24383161619786 24.7455
35.267192683604904 24.7272
35.290555264930376 24.5937
35.314101899412165 24.646
35.33746752422433 24.5358
35.36083466676374 24.6309
35.38420332829803 24.5047
35.407756095629054 24.6295
35.43112781085063 24.6108
35.45450104888391 24.489
35.477875810999194 24.5184
35.50143473172161 24.361
35.52481255774625 24.4234
35.54819191167777 24.3776
35.57157279478914 24.3666
35.595137889488406 24.2875
35.61852184675279 24.2496
35.641907337029984 24.1854
35.665294361595684 24.1895
35.68886565090076 23.9961
35.7122557598848 24.0789
35.73564740699838 24.0183
35.759040593519934 24.0402
35.78261809810353 23.9178
35.80601437933051 23.8407
35.829412203814705 23.8202
35.85281157283719 23.7397
35.876395313415884 23.8119
35.8997977874528 23.7412
35.92320180988546 23.7671
35.946790244133936 23.6351
35.97019737933222 23.6619
35.993606066789866 23.6033
36.01701630779276 23.5776
36.04061101440684 23.5825
36.06402437852291 23.5588
36.08743930005611 23.5631
36.1108557802951 23.471
36.13445678011326 23.4197
36.15787639383515 23.487
36.18129757014299 23.4031
36.20472031032821 23.2932
36.22832762423364 23.1646
36.25175350829375 23.2137
36.275180960119776 23.1918
36.298609981005924 23.2433
36.32222362992669 23.2038
36.34565580510207 23.1726
36.36908955323448 23.0774
36.39252487562093 22.9966
36.416144880530226 23.0944
36.43958336764275 22.9465
36.463023432914625 22.9897
36.486465077645676 22.8067
36.51009145956204 22.9082
36.53353627947859 22.8718
36.55698268276811 22.8903
36.58043067073321 22.7856
36.60406345072071 22.6991
36.62751462435344 22.6556
36.65096738658405 22.7055
36.67460498210655 22.6312
36.69806093788647 22.5468
36.72151848619297 22.4442
36.744977628333636 22.5154
36.76862165890998 22.4935
36.79208400512205 22.4911
36.81554794910557 22.5205
36.83901349217101 22.3756
36.862663978991606 22.2948
36.88613273667352 22.3024
36.90960309738324 22.2797
36.933075062434064 22.2237
36.95673202673572 22.1839
36.98020721697122 22.1938
37.003684015502365 22.081
37.027162423645365 22.0522
37.050825886711465 22.0853
37.07430753063053 22.0152
37.09779078812467 21.9703
37.121275660513014 21.9007
37.144945643673694 21.8535
37.16843376245278 21.8838
37.19192350009803 21.9157
37.215414857931435 21.8423
37.239091382563885 21.8272
37.262585997426164 21.7799
37.28608223645736 21.845
37.309763684451696 21.7147
37.33326318851098 21.6384
37.356764320726555 21.6077
37.380267082425526 21.5841
37.40395510942588 21.5483
37.42746114683234 21.487
37.45096881771841 21.4643
37.474478123414166 21.4477
37.49817275092816 21.4046
37.52168534303452 21.4602
37.54519957395567 21.2724
37.568715445024665 21.2952
37.592416694607714 21.2674
37.61593586281424 21.2771
37.63945667518264 21.275
37.66297913304891 21.159000000000002
37.68668702630454 21.1824
37.710212792059274 21.1353
37.733740207334854 21.038
37.757269273470364 20.96
37.780983832050374 20.9231
37.80451621684926 21.019000000000002
37.82805025654007 21.0209
37.851585952464795 20.9276
37.8753071980695 20.8696
37.89884622345676 20.8358
37.92238690911902 20.7583
37.94611318753442 20.8257
37.969657210779765 20.7696
37.99320289834801 20.6978
38.016750251586465 20.631999999999998
38.04048325513017 20.6515
38.06403395679343 20.5708
38.087586328183946 20.5642
38.11114037065203 20.5378
38.13488012115898 20.5425
38.1584375229181 20.5138
38.181996599821 20.4043
38.205557353221124 20.4323
38.229303872575656 20.4173
38.2528679961576 20.3914
38.27643380031219 20.2965
38.30000128639589 20.3004
38.32375459653193 20.2744
38.34732546371299 20.279
38.37089801690786 20.1758
38.39447225747609 20.1455
38.418232380377425 20.1105
38.441810012983396 20.1307
38.46538933705673 20.0089
38.488970353960084 20.0732
38.51273731166058 20.0377
38.536321731567014 19.8885
38.55990784840681 19.928
38.58367995004091 19.9668
38.60726947812959 19.8612
38.63086070726198 19.874000000000002
38.654453638806274 19.8258
38.678232613930824 19.7526
38.70182896773327 19.6707
38.72542702806741 19.6831
38.7490267963045 19.699
38.77281266709232 19.6754
38.79641586862214 19.6395
38.8200207821842 19.5796
38.843627409152944 19.5746
38.86742019782782 19.5565
38.891030269149255 19.5136
38.914642058016156 19.5193
38.938255565806124 19.4624
38.96205529464307 19.4107
38.98567225787121 19.3922
39.00929094417078 19.3338
39.03291135492255 19.3532
39.05671804624804 19.3013
39.080341923549106 19.2536
39.103967529460334 19.2231
39.127594865365744 19.1402
39.15140854155791 19.1515
39.17503935514948 19.1646
39.19867190290282 19.1197
39.22249083587951 19.0799
39.24612686969409 19.0983
39.269764641845306 19.1202
39.293404153722804 19.0256
39.317230110864074 18.9457
39.34087311998506 18.976
39.36451787301696 18.9159
39.388164371352595 18.8771
39.41199737518003 18.805999999999997
39.43564738196752 18.7958
39.45929913825317 18.7664
39.48295264543308 18.7182
39.506792718520884 18.6998
39.530449745387216 18.6684
39.55410852735203 18.621
39.57776906581474 18.6719
39.60161623079 18.6389
39.625280300200025 18.5612
39.64894613032202 18.4922
39.67261372255866 18.5133
39.6964680021016 18.4644
39.72013913657293 18.4465
39.74381203738292 18.4759
39.76748670593756 18.4422
39.79134812278169 18.3953
39.81502634488497 18.3322
39.83870633896685 18.2652
39.862388106436654 18.2089
39.88625668336918 18.2643
39.90994201572829 18.2494
39.933629125719285 18.1975
39.957503091207826 18.1774
39.9811937746168 18.1761
40.00488623990914 18.1398
40.02858048850006 18.0937
40.05246165409549 18.0415
40.076159487492085 17.9338
40.099859108448875 17.980999999999998
40.123560518384345 17.967
40.1474489070226 18.005
40.171153913178564 17.8856
40.194860712584955 17.8769
40.2185693066637 17.8441
40.242464941335314 17.7768
40.26617714307655 17.6988
40.289891143772046 17.7726
40.3136069448471 17.7395
40.33750984859743 17.6917
40.3612292688043 17.6593
40.3849504936829 17.6556
40.40867352466194 17.6629
40.43258372059144 17.5555
40.45631038219906 17.5792
40.48003885420956 17.5426
40.503769138055105 17.4577
40.52768664931955 17.4909
40.55142057531802 17.4703
40.57515631746428 17.4174
40.599079334038514 17.3821
40.62281872700477 17.3482
40.64655994043941 17.3478
40.67030297578061 17.3253
40.69423334835778 17.3573
40.71798004609188 17.2663
40.74172857006355 17.2325
40.76547892171441 17.2668
40.7894166736039 17.199
40.813170699248566 17.184
40.83692655691388 17.0847
40.86068424804498 17.1121
40.884629402612525 17.0736
40.908390779366385 17.0679
40.932153993938 17.059
40.95591904777605 17.0475
40.979871628443995 16.9744
41.003640379561936 16.9238
41.02741097430883 16.9799
41.05118341413683 16.9187
41.075143444384416 16.8334
41.098919593177826 16.8491
41.1226975914255 16.8856
41.14647744058318 16.787
41.170444943946755 16.6967
41.19422851378379 16.7112
41.218013938914645 16.6548
41.24198706625173 16.6483
41.26577622087193 16.6586
41.289567235177785 16.5579
41.31336011063129 16.5546
41.337340752422875 16.493
41.361137369129835 16.5182
41.38493585138705 16.4372
41.40873620066004 16.4569
41.43272438060107 16.448
41.45652848292052 16.3689
41.48033445666918 16.327
41.50414230331616 16.3385
41.528138045159764 16.387
41.551949656675205 16.234
41.575763145513235 16.2661
41.59957851314666 16.2648
41.62358184070442 16.2174
41.64740098505737 16.2165
41.6712220126409 16.2089
41.69504492493139 16.145
41.71905586207357 16.1415
41.74288256296395 16.0589
41.766711153007456 16.0351
41.79054163368412 16.0164
41.814560204340054 15.9952
41.838394485526365 16.0144
41.86223066180303 15.9166
41.88625497706819 15.879000000000001
41.910094962812 15.9227
41.93393684811168 15.8933
41.95778063445365 15.8165
41.981812625263366 15.8144
42.00566023303407 15.7785
42.029509746323676 15.7909
42.05336116662236 15.805
42.077400857069705 15.7674
42.10125611078846 15.6768
42.12511327600405 15.6703
42.14897235421036 15.6341
42.173019768448455 15.6035
42.19688269209613 15.5961
42.22074753323349 15.5477
42.24461429335818 15.526
42.268669455600495 15.4794
42.292540073217886 15.5003
42.31641261433284 15.4425
42.34028708044675 15.4345
42.36435001496739 15.3879
42.38822835065557 15.4231
42.41210861586426 15.3554
42.4359908120986 15.3898
42.46006154323262 15.2771
42.48394762115317 15.2425
42.507835634632315 15.2592
42.531912233047436 15.2099
42.55580413732265 15.2001
42.579697981698 15.1545
42.60359376768525 15.1379
42.62767820545945 15.0661
42.65157789440821 15.0802
42.67547952952185 15.0674
42.699383112316 15.0252
42.72347541395347 14.9422
42.74738291190531 14.9368
42.771292362102166 14.9339
42.795203766063516 14.9086
42.819303956130405 14.9042
42.843219287476536 14.8595
42.86713657716324 14.8107
42.89105582671383 14.8091
42.91516392983864 14.7922
42.939087119032166 14.783
42.963012272677304 14.7546
42.98693939230129 14.6807
43.01105543317513 14.6832
43.034986504731386 14.6765
43.05891954686589 14.6173
43.08285456110972 14.6462
43.10697856448665 14.6048
43.130917542983475 14.5527
43.15485849820081 14.5309
43.17880143167367 14.4856
43.20293342237094 14.4612
43.226880332449 14.4112
43.25082922540554 14.4608
43.27496722682525 14.4438
43.29892010567796 14.3792
43.32287497204102 14.3973
43.34683182745632 14.3326
43.370977859791836 14.3072
43.39493871351105 14.3385
43.41890156092628 14.3201
43.44286640358341 14.3062
43.46702049182749 14.2669
43.49098934522816 14.1538
43.51496019852649 14.1242
43.5389330532723 14.1196
43.56309522248204 14.1087
43.58707210044314 14.133
43.61105098451946 14.1207
43.63503187626491 14.0675
43.659202151562134 14.0205
43.68318707902681 14.0071
43.70717401884041 13.9589
43.731162972560874 13.9153
43.75534137913236 13.9205
43.779334381108384 13.8836
43.803329401683186 13.869000000000002
43.82732644241872 13.8798
43.8515130055166 13.8651
43.87551410707659 13.8208
43.89951723350145 13.7935
43.923709934595614 13.7712
43.94771713129917 13.7745
43.97172635758096 13.7289
43.99573761501002 13.7306
44.0199385169922 13.6846
44.04395385732619 13.6639
44.067971233533086 13.6215
44.09199064718605 13.5827
44.11619977548961 13.5479
44.14022328470671 13.5134
44.16424883610785 13.5735
44.18827643127035 13.509
44.21249381139513 13.4902
44.236525514814076 13.4662
44.26055926674478 13.4148
44.28459506876863 13.4448
44.3088207262813 13.3286
44.33286064928722 13.3771
44.35690262714919 13.4014
44.38094666145278 13.3928
44.4051806219871 13.3679
44.42922879003185 13.2937
44.45327901929361 13.2545
44.477331311362136 13.1993
44.501573600619416 13.2019
44.525630039221795 13.1407
44.54968854541895 13.2036
44.573937102200176 13.174000000000001
44.5979997645541 13.1129
44.622064499300315 13.1021
44.64613130803592 13.058
44.67038823869318 13.0963
44.69445921643748 13.0508
44.718532272981385 12.9596
44.742607409926194 12.969000000000001
44.76687274034801 12.9648
44.79095205918753 12.9415
44.81503346325094 12.9052
44.839116954143876 12.9077
44.86339071028742 12.8532
44.88747839599524 12.8653
44.91156817336837 12.7792
44.93566004401666 12.84
44.959942251908146 12.7978
44.984038330325966 12.7665
45.00813650686762 12.6855
45.03223678314731 12.7243
45.05652746888232 12.6488
45.08063196592069 12.6145
45.104738567558705 12.6178
45.128847275414856 12.607999999999999
45.15314646515866 12.5661
45.17725940679741 12.5626
45.20137445952892 12.5117
45.22568004865265 12.5463
45.24979934496396 12.4651
45.27392075725247 12.4616
45.29804428714431 12.4954
45.322358426247604 12.457
45.346486212804315 12.4004
45.370616121861914 12.404000000000002
45.39474815505086 12.3692
45.41907087049246 12.2924
45.4432071734666 12.3116
45.46734560548283 12.3005
45.49148616817604 12.2825
45.51581748638564 12.255
45.5399623320197 12.2641
45.56410931325473 12.2149
45.58825843173002 12.1972
45.61259837920865 12.1695
45.636751793816 12.1765
45.66090735060093 12.171
45.68506505120716 12.138
45.7094136545275 12.0841
45.73357566449271 12.0264
45.75773982322992 12.0129
45.78190613238733 12.0174
45.806263418194064 11.9763
45.83043404997326 12.0235
45.85460683713677 11.9579
45.87897065658495 11.9567
45.90314777634752 11.8977
45.92732705646868 11.9263
45.9515084986045 11.8746
45.97588104735473 11.8486
46.00006683541565 11.814
46.02425479047904 11.8041
46.04844491420549 11.7778
46.0728262191024 11.7763
46.09702070211635 11.7493
46.12121735879483 11.7496
46.14541619080294 11.7545
46.169806278764455 11.7067
46.194009483459034 11.686
46.21821486849841 11.6761
46.24242243555223 11.6203
46.266821333570014 11.6149
46.29103328674601 11.5606
46.31524742696538 11.6158
46.33946375590237 11.5445
46.36387149104216 11.5166
46.38809221957392 11.4499
46.41231514186606 11.4622
46.436540259597464 11.4608
46.460956858999374 11.4261
46.48518638983522 11.4067
46.509418121166966 11.3904
46.533652054678114 11.3585
46.55807754555709 11.3224
46.58231590571962 11.2973
46.60655647313217 11.3021
46.630988654873654 11.2659
46.655233659129024 11.2741
46.67948087571551 11.2256
46.70373030632484 11.2407
46.72817142736393 11.2073
46.752425308428684 11.2075
46.77668140861147 11.1891
46.80093972960865 11.1062
46.82538981736788 11.087
46.849652602470904 11.044
46.87391761349769 11.0369
46.8981848521493 11.0221
46.9226439341274 11.0037
46.946915650573224 11.0235
46.97118959976749 11.0208
46.99546578341598 10.991
47.019933887188216 10.91
47.04421456235744 10.9245
47.06849747711879 10.9108
47.09278263318286 10.8991
47.11725978640143 10.8961
47.14154944775105 10.8588
47.165841355555656 10.8447
47.1901355115306 10.780999999999999
47.214621741924994 10.8201
47.23892041698887 10.7715
47.26322134538975 10.7364
47.28771440635075 10.7096
47.31201986422527 10.7104
47.33632758061436 10.6851
47.360637557241866 10.687999999999999
47.38513974410611 10.632
47.40945426407847 10.6242
47.43377104948137 10.6024
47.45809010204344 10.5575
47.48260144275502 10.5634
47.506925052572285 10.5589
47.53125093475548 10.5275
47.55557909103813 10.5097
47.58009961361992 10.4644
47.60443234110732 10.4719
47.62876734791564 10.4516
47.65310463578333 10.4495
47.6776343683373 10.4528
47.7019762413987 10.3592
47.72632040075572 10.3574
47.75066684815169 10.3655
47.77520581885936 10.3768
47.799556865477655 10.360999999999999
47.823910205386 10.3459
47.84826584033272 10.2398
47.87281407745551 10.2432
47.89717432569297 10.2846
47.92153687423484 10.2358
47.94609208429692 10.2163
47.97045925671401 10.2049
47.99482873471275 10.1466
48.01920052005013 10.151
48.04376504619224 10.1387
48.068141469543484 10.149
48.09252020552573 10.1138
48.11690125590099 10.0934
48.1414751266064 10.0772
48.16586082917454 10.0654
48.19024885144316 10.04
48.2146391951793 10.0745
48.239222439012764 10.0247
48.26361744916137 9.96495
48.28801478610016 9.95617
48.31241445160131 9.92198
48.337007097209366 9.92902
48.36141144338331 9.95148
48.38581812345755 9.86991
48.41022713920929 9.87513
48.434829215320704 9.8446
48.45924292604658 9.86192
48.48365897780325 9.82592
48.50807737237308 9.77283
48.532688907799276 9.774469999999999
48.55711201168574 9.741060000000001
48.581537463754074 9.7643
48.60615611725119 9.75474
48.63058628942721 9.72753
48.65501881516546 9.702869999999999
48.6794536962573 9.687660000000001
48.70408185970339 9.657160000000001
48.72852147531801 9.632610000000001
48.75296345168211 9.63073
48.77740779059232 9.61923
48.80204549302823 9.60667
48.82649458091802 9.590589999999999
48.85094603676547 9.5314
48.87539986237231 9.51866
48.90004713292306 9.4951
48.92450572200832 9.51276
48.94896668628025 9.46974
48.97343002754588 9.44338
48.99808689542115 9.47372
49.02255501470614 9.45813
49.04702551642794 9.396930000000001
49.0714984023988 9.36674
49.096164896893235 9.407910000000001
49.120642575466796 9.371780000000001
49.145122643748394 9.35617
49.16960510355558 9.32088
49.19428125404938 9.327589999999999
49.2187685210852 9.30949
49.243258185121555 9.255460000000001
49.26794160167084 9.27673
49.2924360839405 9.24002
49.31693296869764 9.18679
49.34143225776915 9.13648
49.36612538195438 9.15422
49.39062950396021 9.1916
49.41513603578346 9.12504
49.4396449792564 9.117289999999999
49.46434784069503 9.11302
49.488861631846454 9.0809
49.513377840166804 9.08801
49.537896467493745 9.0615
49.56260909589029 8.964260000000001
49.587132585683285 9.00239
49.611658500018365 8.99761
49.636186840738596 8.99271
49.66090926588511 8.935130000000001
49.685442483902584 8.956380000000001
49.70997813385706 8.93847
49.734516217597076 8.93666
49.75924846937352 8.88471
49.7837914452858 8.86812
49.80833686055187 8.829989999999999
49.83288471702571 8.852310000000001
49.85762682540054 8.85285
49.882179588965734 8.807319999999999
49.9067347993235 8.79991
49.93129245833333 8.77872
49.95604445336378 8.7795
49.98060703442832 8.75045
50.005172069746266 8.73811
50.02993150438364 8.70277
50.05450147301533 8.697330000000001
50.07907390151433 8.68685
50.10364879174981 8.65817
50.12841816587289 8.648060000000001
50.1529980044635 8.63278
50.17758031042124 8.60316
50.20216508562089 8.60661
50.22694442953363 8.56252
50.25153416817468 8.5618
50.27612638170508 8.53501
50.300721072005196 8.52412
50.325510416102105 8.5215
50.350110084975064 8.496
50.37471223628208 8.49789
50.39931687190919 8.47363
50.424116246675766 8.4703
50.44872587605249 8.43418
50.47333799543065 8.4438
50.49795260670191 8.3923
50.52276204271512 8.38064
50.54738166295838 8.36309
50.57200378079314 8.35548
50.596628398116835 8.326189999999999
50.62144792604559 8.33941
50.646077567609396 8.326319999999999
50.670709714377715 8.31349
50.69553683636198 8.27448
50.72017401885922 8.273610000000001
50.7448137122895 8.25554
50.76945591856022 8.217080000000001
50.79429318636823 8.165339999999999
50.818940443716784 8.19011
50.84359021965163 8.16385
50.868242516085964 8.18481
50.893089960641895 8.12963
50.917747323549435 8.133469999999999
50.94240721271973 8.12125
50.96706963007175 8.09881
50.99192728239342 8.09539
51.01659478166073 8.0986
51.04126481489051 8.07034
51.06593738400761 8.06732
51.090805275207074 8.0314
51.11548294172845 8.01036
51.14016314993547 7.98492
51.164845901758845 7.998360000000001
51.18972406304274 7.96974
51.21441192780656 7.938839999999999
51.23910234200271 7.91207
51.2637953075678 7.917330000000001
51.288683770237945 7.900460000000001
51.31338186432707 7.849489999999999
51.33808251561888 7.88161
51.362978729967345 7.85642
51.387684521509755 7.86499
51.41239287610203 7.82552
51.437103795691165 7.7651
51.46201036644977 7.76554
51.486726441956634 7.773219999999999
51.51144508832545 7.754510000000001
51.536166307509156 7.7083699999999995
51.56108326624387 7.71842
51.58580965706056 7.7066
51.61053862657523 7.684889999999999
51.635270176746864 7.69247
51.66019755512065 7.673830000000001
51.68493429268881 7.607139999999999
51.70967361681515 7.605169999999999
51.73441552946465 7.5907100000000005
51.759353359237934 7.591989999999999
51.7841004750961 7.57963
51.80885018539685 7.57498
51.833602492111254 7.504989999999999
51.8585508051424 7.485189999999999
51.883308330926425 7.490710000000001
51.90806845906181 7.4766
51.932831191525715 7.449110000000001
51.95779001977161 7.449560000000001
51.98255798721516 7.3733
52.00732856494335 7.400810000000001
52.03229530577543 7.40343
52.057071130455945 7.403239999999999
52.081849571391054 7.3937800000000005
52.106630630568695 7.39237
52.13160794279417 7.3553
52.15639426492067 7.342389999999999
52.18118321127822 7.3441
52.205974783860896 7.3026
52.23096269971011 7.3030100000000004
52.255759551287994 7.30757
52.280559035098186 7.235339999999999
52.30536115314103 7.273810000000001
52.33035970494467 7.246
52.35516711807904 7.218369999999999
52.37997717147198 7.195880000000001
52.40478986713005 7.17577
52.42979908731974 7.1602
52.454617094216 7.155710000000001
52.47943774942214 7.13532
52.50426105495102 7.1509
52.529280976059844 7.13092
52.554109609024096 7.0678
52.57894089837482 7.07552
52.60377484613117 7.04742
52.62880550079408 7.0663100000000005
52.65364479223379 7.006189999999999
52.67848674816189 6.9959
52.70352547971946 6.979430000000001
52.72837279155837 6.9732199999999995
52.753222773982785 6.955
52.778075429022984 6.985989999999999
52.80312495150885 7.0103
52.827982978797436 6.9018
52.85284368481815 6.90073
52.87770707160767 6.9359
52.90276741793998 6.87706
52.92763619336701 6.851789999999999
52.952507655698504 6.81925
52.977381806977576 6.822
53.00245301017842 6.87869
53.02733256653592 6.85256
53.052214817996074 6.807339999999999
53.077099766608484 6.796460000000001
53.102181859804446 6.77756
53.127072229988265 6.77605
53.15196530349892 6.775289999999999
53.17686108239249 6.72997
53.20195409881522 6.70443
53.22685531582556 6.71974
53.25175924441303 6.69533
53.27666588664027 6.67465
53.30176985962693 6.66172
53.3266819565689 6.642989999999999
53.35159677336455 6.649139999999999
53.376514312083096 6.62918
53.40162927507703 6.616960000000001
53.42655228516116 6.57435
53.45147802340193 6.611489999999999
53.47660125628886 6.581510000000001
53.50153247842639 6.56105
53.52646643496923 6.52926
53.55140312799818 6.4797199999999995
53.576537409691696 6.47254
53.60147960336152 6.4974
53.626424539786164 6.4726099999999995
53.65137222105307 6.43999
53.67651758529126 6.4722599999999995
53.70147078399681 6.39695
53.72642673383343 6.423369999999999
53.75138543689533 6.45557
53.776541917524526 6.43719
53.801506154876755 6.3728
53.826473151763246 6.3689
53.851442910284916 6.3408
53.87661054126026 6.37458
53.9015858509782 6.34436
53.92656392866066 6.2958099999999995
53.95154477641532 6.32414
53.976723591801296 6.28789
54.00171000771266 6.26052
54.02669920004598 6.24439
54.051691170915745 6.24338
54.076881204886796 6.211180000000001
54.101878760928514 6.19194
54.12687910187696 6.146669999999999
54.152077577768296 6.18624
54.1770835166946 6.13019
54.20209224691339 6.1601
54.22710377055121 6.10681
54.25231352511594 6.17293
54.27733066384342 6.08891
54.30235060239643 6.09186
54.32737334290836 6.13245
54.35259441062629 6.07184
54.377622783395324 6.02528
54.40265396455061 6.01708
54.42768795623251 6.01379
54.45292037169559 6.02875
54.477960012857906 5.97385
54.50300247099511 5.95107
54.52804774825457 5.94185
54.55329154616743 5.8901900000000005
54.57834249018678 5.89471
54.6033962597977 5.87742
54.6284528571545 5.84831
54.653708072335164 5.86195
54.67877035378786 5.81556
54.70383546947698 5.85027
54.72890342156389 5.83132
54.7541700889442 5.7462
54.77924374251975 5.73332
54.8043202390049 5.67516
54.82959552413022 5.6961699999999995
54.8546777351945 5.67622
54.87976279569621 5.62542
54.90485070780914 5.6437800000000005
54.930137506558005 5.6169400000000005
54.95523115074295 5.63579
54.98032765308844 5.60001
55.005427015775496 5.51622
55.03072536339621 5.56109
55.05583047570572 5.5349699999999995
55.080938454927676 5.5372
55.10604930325027 5.46019
55.131359235107396 5.4419900000000005
55.15647585066083 5.4623099999999996
55.181595341907496 5.4610199999999995
55.20671771104285 5.35899
55.232039262617704 5.35173
55.25716741665048 5.36459
55.28229845518636 5.34699
55.30743238042802 5.29215
55.33276558731939 5.29204
55.357905315183636 5.28391
55.383047936390035 5.21371
55.40819345314859 5.19374
55.433538351073295 5.2304699999999995
55.458689688238415 5.16412
55.483843927614096 5.13912
55.509197623043605 5.132680000000001
55.53435769621134 5.0405
55.55952067826466 5.06416
55.5846865714265 5.0243
55.61005202069737 5.01738
55.63522376553902 5.02728
55.66039842818645 4.97534
55.68557601087004 4.97024
55.7109532500271 4.92265
55.73613670233794 4.94707
