TT I
1.2716486653135266 7.48387
1.2939594142134223 6.70343
1.3162702121660406 5.93436
1.3385810600174564 6.38742
1.3608919586137629 6.02451
1.383202908801069 6.2034400000000005
1.405513911425503 6.584339999999999
1.4278249673332093 5.5644800000000005
1.4501343378461518 6.03972
1.4724455028545926 5.90496
1.4947567236847858 5.57843
1.517068001182951 5.70205
1.5393793361953272 5.3955400000000004
1.5616907295681737 5.51274
1.5840021821477681 4.8490400000000005
1.60631369478041 4.89844
1.6286252683124185 5.39471
1.6509369035901333 5.36871
1.6732468618895553 5.20308
1.695558623192809 4.63425
1.7178704487808514 5.40602
1.7401823395001077 4.6443
1.7625012545597203 4.9791099999999995
1.7848028405262486 4.77534
1.8071218901122095 4.03037
1.8294236121921872 4.63112
1.8517427996910911 4.45559
1.8740620574440425 5.3735800000000005
1.8963639900671978 4.91207
1.9186833908139995 5.10219
1.9409854680117449 5.15589
1.9633050151394713 4.77531
1.9856246367570705 5.13721
2.0079269371922672 5.42429
2.03024671027244 4.6372800000000005
2.0525491637446027 4.3785099999999995
2.074869091674931 5.0027800000000004
2.097171701569106 5.00772
2.1194917877373847 5.37329
2.141811954326636 5.12633
2.164114805233074 5.07346
2.186435135143035 6.2339
2.208738150935709 16.8428
2.231058647554722 36.4036
2.2533792288321184 28.2995
2.275682498336085 12.4804
2.298003251406138 6.1341
2.3203066942619714 5.471080000000001
2.3426276225136022 5.69005
2.3649486396617507 5.66674
2.387252348930071 6.003080000000001
2.4095735463442893 6.23878
2.4318774374315884 6.24643
2.4541988185014043 6.39548
2.476502894794693 7.25087
2.498824462909887 7.32862
2.521146125856138 7.58475
2.5434504863470337 7.39515
2.5657723414244717 8.449689999999999
2.588076895590662 8.64845
2.610398946189713 8.61955
2.6327210958598384 8.095360000000001
2.6550259469304716 7.89023
2.6773482972090137 8.361360000000001
2.6996533504259 8.51867
2.7219759047039602 8.31916
2.744298562293959 7.91092
2.7666039251246595 8.469660000000001
2.7889267918020164 8.32666
2.8112323652516555 8.59545
2.833555444408179 8.74057
2.8558786311183852 8.61924
2.8781845268938557 9.233460000000001
2.9005079311721484 8.86465
2.9228140460410397 10.0605
2.9451376712799635 9.71677
2.967444008632326 9.84528
2.9897678582247247 10.1656
3.0120918213106695 10.565
3.0343984987899373 10.4602
3.0567226913198637 10.855
3.079029599759726 12.1717
3.101354025127254 12.4975
3.123678568232338 13.6954
3.145985829517914 13.627
3.16831061055229 13.9598
3.1906181112775593 14.5054
3.212943133635653 15.314
3.2352682779763207 15.3266
3.2575761442691227 15.6025
3.2799015350264273 15.8282
3.302209649240067 16.0897
3.3245352898092655 16.7194
3.3468436553365257 17.4651
3.369169549113219 17.9432
3.3914955708171384 18.8534
3.413804319727358 19.1891
3.4361305997334863 19.347
3.4584396084414553 20.3966
3.4807661501462652 20.6742
3.503092824025881 21.0233
3.5254022288463154 21.2376
3.5477291695206588 21.7829
3.5700388426251948 22.6205
3.5923660534916446 24.2723
3.6146934007816114 43.7128
3.637003482731501 113.988
3.6593311053109985 127.96700000000001
3.681641464033634 70.1048
3.7039693653009733 33.0263
3.726297407241705 26.6893
3.7486081875460804 26.0682
3.7709365132734978 26.1757
3.793247578841633 26.5153
3.8155761917550093 26.8272
3.8378875459837216 26.837
3.8602164494827234 27.8607
3.882545499606844 28.4295
3.9048572932539183 29.3639
3.9271866390645718 29.4482
3.9494987298666713 29.8396
3.971828374764527 30.3735
3.9941581705403255 30.8997
4.016470713506008 31.2082
4.038800813471445 32.0402
4.061113662089144 32.6629
4.0834440696459176 33.7366
4.105774632334751 34.105
4.128087945865126 35.2467
4.150418821249301 35.791
4.172732448931298 36.9665
4.195063640413578 39.4927
4.2173775856475215 44.268
4.239709096631102 84.2405
4.262040768704612 308.649
4.284355196706267 432.216
4.306687193387355 275.923
4.329001947444346 97.556
4.35133427213731 50.4904
4.373666762177566 45.0848
4.395982011761091 44.5453
4.418314834921175 45.9093
4.44063041906622 55.8597
4.4629635787515625 70.9995
4.4852969080429785 71.0002
4.5076130004776225 56.3342
4.529946671403969 50.4789
4.552263106909177 49.5718
4.574597122877047 50.6827
4.596931312711224 51.6508
4.619248269273446 52.3786
4.6415828092605835 53.3816
4.663900117405352 54.8924
4.686235010953232 55.9614
4.708552674085913 57.1463
4.730887924602802 58.6858
4.753223354952695 60.2411
4.775541557023902 61.4987
4.797877349456786 62.966
4.820195915032126 64.8334
4.842532072957498 66.5399
4.864868414979744 68.0256
4.88718753227192 70.1603
4.909524244902505 71.6447
4.931843734218147 73.3503
4.954180820867835 75.4505
4.976518095879839 78.5017
4.998838149695359 81.4589
5.021175803844231 84.6185
5.043496238205739 87.8404
5.065834274903528 91.3481
5.088172504230693 95.6163
5.1104935158799565 101.074
5.132832132875765 124.89299999999999
5.155153533596801 177.696
5.1774925416746225 211.17
5.199814334878411 285.916
5.2221537374521505 750.9789999999999
5.244493338631803 2306.75
5.266815727034316 7140.81
5.289155727832427 12922.7
5.311478517248165 9547.49
5.333818921080011 2917.21
5.356159527788849 532.111
5.3784829252032536 180.82299999999998
5.400823940070432 140.113
5.423147747031976 125.227
5.445489173474152 116.30799999999999
5.467830807066149 110.523
5.490155234831516 106.786
5.512497285125229 103.897
5.534822130975162 102.152
5.557164601388673 100.181
5.579489868738879 97.3856
5.601832762690846 96.9751
5.6241758697774475 96.0095
5.646501775867269 95.079
5.668845311622074 93.8042
5.691171647754637 92.56
5.713515615597765 91.0909
5.735859800852677 90.1537
5.758186788542988 89.4695
5.780531411018185 89.3978
5.802858837297399 89.1174
5.825203900414495 88.2459
5.8475491852224 88.7632
5.869877275883075 88.8819
5.892223006467101 90.1095
5.914551544266608 90.3733
5.936897724049891 92.3263
5.959244129804903 96.3295
5.981573344815301 107.766
6.0039202049061 167.076
6.026249875609095 354.71
6.04859719346037 788.0930000000001
6.070927323278297 1976.25
6.093275102315365 4273.91
6.115623113320588 5507.4
6.137953938319995 3297.65
6.160302415650845 944.681
6.182633708324452 243.271
6.2049826554078376 115.882
6.227331838745022 91.0895
6.249663839443684 84.0197
6.27201349767565 82.3782
6.294345974611799 92.0104
6.316696111167083 108.863
6.339046488263839 102.42299999999999
6.361379686074702 82.6477
6.383730546639482 72.025
6.406064229255215 68.597
6.428415576718203 67.84100000000001
6.450749747566656 67.0874
6.47310158535871 65.8082
6.495453669698332 64.8639
6.517788579421056 64.1207
6.540141159237969 63.223
6.562476565766648 62.9047
6.5848296444934045 62.3501
6.607182974060425 62.2496
6.6295191323281015 62.5704
6.651872965955752 67.1242
6.6742096296068985 101.52
6.6965639707294615 166.334
6.71891856698715 167.917
6.741255995248479 108.071
6.763611104154477 71.5824
6.785949046381137 60.6764
6.808304671371482 58.3116
6.8306605557940046 57.9834
6.852999275508618 57.3879
6.875355681171544 57.0021
6.897694923437771 56.3911
6.92005185377892 56.4608
6.9423916220322655 56.5834
6.964749080490181 55.6245
6.987106804399774 55.4767
7.009447368180821 55.7672
7.031805625367033 55.4153
7.054146723727803 55.4915
7.076505517631004 55.6172
7.098864581288365 55.3563
7.121206488070854 54.755
7.143566093607822 54.9091
7.165908543567245 55.1188
7.188268694426048 55.11
7.2106291193438095 55.3505
7.232972390625943 57.1152
7.255333366030969 74.067
7.277677189091925 146.904
7.300038718428332 215.812
7.322400526130865 179.34099999999998
7.344745183422596 102.586
7.367107550224791 64.6048
7.389452767901992 56.8574
7.411815697249891 54.9554
7.434161478756298 54.5427
7.456524974096713 54.2299
7.478888753837185 53.9749
7.501235387657368 54.5656
7.523599738562711 54.5658
7.545946944825532 54.7569
7.568311870344528 55.2197
7.5906770845765665 55.2742
7.613025156078678 57.0395
7.635390950099687 59.0457
7.657739602662809 57.4484
7.680105979923558 55.7977
7.702472650212829 55.8546
7.724822180948224 55.9934
7.747189439655568 55.9627
7.769539560075357 55.7862
7.791907410653562 55.7183
7.81425812420825 56.1484
7.836626570110925 56.6829
7.858995315087906 57.013999999999996
7.881346924933401 57.5284
7.903716270417482 57.7345
7.926068482028405 57.8624
7.948438431475253 58.7408
7.9708086843180235 59.3345
7.993161805171116 60.0042
8.015532667162402 60.2301
8.037886398416653 60.8714
8.060257873014221 61.2058
8.082629655331942 62.2155
8.104984308787587 63.6797
8.127356708900503 67.281
8.149711981398308 74.5982
8.172085002766314 77.8594
8.194458336181368 73.225
8.216814543847752 69.3212
8.23918850371002 68.8152
8.26154533906492 69.4342
8.283919928836452 70.7789
8.306277395339652 71.2402
8.328652618483376 72.7002
8.351028159736202 74.8276
8.373386579575245 76.5801
8.395762759396959 78.5307
8.418121819038275 83.8947
8.440498640894003 99.9493
8.462875785192262 117.06299999999999
8.485235811156207 123.62899999999999
8.507613602688501 142.887
8.529974277114228 209.097
8.552352719347912 321.34
8.574731488360351 552.389
8.59709314210385 1077.38
8.619472567021075 1786.08
8.64183487789147 2234.54
8.664214962183097 1877.8
8.686577933647762 993.8560000000001
8.708958680784317 379.096
8.731339760774953 168.335
8.753703729764451 110.411
8.77608547780821 97.2506
8.798450116065078 93.5027
8.820832535634787 90.6191
8.843215292401656 89.4128
8.865580941199045 87.8674
8.887964374703538 87.40700000000001
8.910330701447199 89.0665
8.932714815164482 92.8171
8.955099270424924 92.2459
8.977466620733543 88.2517
8.999851761421976 84.7734
9.022219798361645 82.5178
9.04460562795561 82.5761
9.066991803441677 81.8778
9.089360876979615 81.4841
9.111747746589993 81.2277
9.13411751544971 80.6516
9.156505082664324 80.5326
9.178875550323522 80.9648
9.20126381862328 81.484
9.223652438908596 82.0229
9.246023961427412 81.4728
9.26841328802173 80.984
9.290785518039224 80.3367
9.313175554425882 80.9559
9.335565947154315 81.0053
9.357939245086508 81.5246
9.380330352834827 81.5452
9.40270436697103 81.77199999999999
9.425096193225055 81.801
9.447488380180165 82.4773
9.469863475295412 82.9356
9.492256385987508 82.9007
9.514632206018318 83.941
9.537025843935714 83.90100000000001
9.559402392368193 84.3476
9.581796761000229 86.0492
9.604191496441521 87.3155
9.626569144158516 91.6787
9.648964615551032 97.8247
9.671343000390081 99.6998
9.693739211225699 96.7372
9.716135793237463 92.7117
9.738515290448102 91.5304
9.760912617143402 92.3475
9.783292860202891 93.2563
9.805690935076182 94.6029
9.828089385495742 95.4718
9.850470754023561 97.7153
9.872869957865444 107.26700000000001
9.89525208097539 127.443
9.917652041736662 143.9
9.940052382417589 139.953
9.962435644102392 134.692
9.984836746950979 154.19799999999998
10.007220771957746 204.33700000000002
10.029622640473708 289.474
10.052007432299963 449.55699999999996
10.074410069984072 722.4689999999999
10.096813093716005 1184.99
10.119199042482517 1718.94
10.141602840636468 2044.43
10.163989564971628 1647.72
10.186394141051062 944.2339999999999
10.208799107559706 411.626
10.231187001965623 187.054
10.253592751657669 125.008
10.275981430388155 112.20100000000001
10.298387966769793 112.87700000000001
10.320794897965431 117.26700000000001
10.343184759907361 116.164
10.36559248305461 109.156
10.387983138083852 103.137
10.410391656691655 103.34299999999999
10.432800574501677 110.99600000000001
10.455192425893369 122.959
10.47760214443012 145.559
10.499994797678786 185.99099999999999
10.522405320453982 260.536
10.54479877906917 382.336
10.567210109595656 507.55
10.5896218454736 576.556
10.612016518879773 513.96
10.634429067781074 343.92
10.656824555333241 201.753
10.679237920773568 126.041
10.701651695961992 95.6093
10.724048411481384 88.2563
10.746463008485165 85.307
10.768860546937125 83.7531
10.791275969274796 82.1325
10.81369180576079 81.0441
10.836090585366925 80.1714
10.858507252467449 78.5099
10.88090686379991 77.8758
10.903324365036394 77.7431
10.925724811614439 77.9336
10.948143150509463 79.8956
10.970561909719066 79.0666
10.992963615930844 76.7937
11.015383218085756 74.2762
11.037785768347074 72.6719
11.06020621697282 71.9661
11.082627090322113 71.6542
11.105030913430326 71.3424
11.12745263854165 72.1585
11.149857314510728 77.0671
11.172279894912576 85.5127
11.194702904450653 86.9441
11.217108866490921 81.4422
11.239532736615194 75.6174
11.26193956033512 72.7025
11.284364294577085 70.6896
11.306789462371718 67.9561
11.329197585398376 66.3353
11.351623622610898 66.1492
11.37403261614354 65.4269
11.396459526308487 65.2471
11.418869393879497 64.9599
11.441297180532617 64.6811
11.463725406927658 64.2652
11.486136592353875 64.15
11.508565700543707 65.1196
11.530977768845315 67.5696
11.553407762368774 69.0439
11.575838200059769 68.2662
11.598251599479612 65.4734
11.620682927815501 63.6167
11.64309721895548 63.2267
11.665529441478206 62.4883
11.687962112597958 62.2497
11.710377748130886 62.0412
11.732811318753434 62.2167
11.755227854859067 62.2757
11.777662328529495 62.1316
11.800079768750786 61.9135
11.822515149015453 61.81100000000001
11.844950984084935 62.0146
11.867369787303163 61.7911
11.889806534289491 61.7648
11.912226250487029 62.0355
11.934663912939751 62.008
11.9571020346363 62.1187
11.979523127133968 61.9113
12.001962169624331 62.563
12.024384183972964 63.3737
12.046824150809913 65.5673
12.069264581333726 69.8377
12.091687985297767 75.2221
12.11412934550045 83.3215
12.136553680195208 96.1868
12.158995973632788 118.421
12.181438735204349 148.97899999999998
12.20386447284199 186.03099999999998
12.226308172985636 208.394
12.24873485024193 203.77900000000002
12.271179492516982 170.545
12.293607112949127 131.239
12.316052700916226 98.3046
12.338498763250042 80.7141
12.360927805303868 71.6607
12.383374818673879 66.4936
12.405804812803074 63.8616
12.428252780773262 63.7237
12.45070122756722 63.7145
12.473132656675375 63.4229
12.49558206341869 63.6607
12.518014453510101 63.6466
12.540464823770117 63.6709
12.562915677315177 63.9685
12.58534951575545 64.8557
12.607801338171472 67.7177
12.630236146511358 74.7949
12.652688941369085 81.2359
12.675124723177234 81.7147
12.697578494048786 76.3916
12.720032754458185 70.25
12.742470003354093 67.7389
12.764925245138771 67.2081
12.787363476431278 67.2645
12.809819703166806 67.2068
12.83227642391173 68.2481
12.854716135692716 68.4027
12.877173846755147 69.4674
12.899614549869717 69.5102
12.9220732548287 70.4744
12.94453245827299 71.0416
12.966974655289818 71.8395
12.989434858002571 72.4515
13.011878055298721 73.0169
13.034339260862497 74.2835
13.056800969391883 75.5027
13.079245674017244 77.1969
13.101708390774869 78.5071
13.12415410463411 83.7687
13.146617833206086 93.8853
13.169064559883248 103.913
13.191529303857127 116.773
13.213994557076367 135.817
13.236442809902437 169.37099999999998
13.258909083908291 219.269
13.28135835851934 288.399
13.30382565690295 368.974
13.326293469022952 425.375
13.348744283242008 434.777
13.371213125129904 370.379
13.39366497011003 266.04900000000004
13.416134845360597 176.37599999999998
13.438605238843131 123.97399999999999
13.46105863690397 102.929
13.483530069144786 100.191
13.505984506951902 103.551
13.528456981549432 111.6
13.550929978879088 124.806
13.573385983253365 146.415
13.595860028340867 183.106
13.618317081455832 237.537
13.64079217790333 299.676
13.663250283359057 349.233
13.685726434770173 383.921
13.708203115221277 349.68699999999995
13.730662806148091 265.538
13.75314054697177 185.683
13.775601299246777 128.02200000000002
13.798080104050406 96.0207
13.820559442405358 84.0754
13.843021793671388 80.6595
13.865502201420897 78.8109
13.887965623051947 78.3934
13.910447103807167 77.2625
13.932929122629764 75.899
13.955394156785959 75.3997
13.977877254034569 74.7733
14.000343367582113 73.9115
14.022827546871707 73.0865
14.045294743423524 72.4696
14.06778000837062 71.9378
14.090265817715476 72.0901
14.112734645763819 71.6488
14.13522154619454 71.6137
14.157691466286913 71.631
14.180179461423874 71.3667
14.202668005486178 70.4826
14.22513957064374 69.7726
14.247629214846473 69.1782
14.270101881097517 69.0374
14.29259262906496 69.8277
14.315083930490205 70.9906
14.337558255389705 71.1855
14.360050666019726 70.906
14.382526101071944 69.6108
14.405019624534942 68.578
14.427513705993134 67.8763
14.449990813291825 67.6178
14.47248601302899 67.605
14.49496423954951 67.6305
14.517460561197822 67.5515
14.539939910570322 67.0296
14.562437357763558 67.7954
14.58493536931253 69.5346
14.607416409993311 70.7586
14.62991555254159 71.6516
14.652397725157423 71.3969
14.674898002342799 70.35
14.697398848433282 69.2901
14.719882725991326 69.7027
14.74238471217934 70.1132
14.764869730765593 72.3779
14.787372860692983 74.8964
14.809876564079925 78.8093
14.83236330125751 83.7501
14.854868153850365 91.0122
14.877356041159485 103.789
14.899862046604186 121.40700000000001
14.922351087688757 146.936
14.944858249632887 177.24200000000002
14.967365991421232 208.8
14.989856770231246 225.40400000000002
15.012365673994204 220.013
15.03485761569738 190.343
15.05736768508665 150.485
15.07987833888692 113.009
15.102372032001655 89.7724
15.124883856909658 76.6775
15.14737872204565 71.3995
15.169891721717274 69.8211
15.192405310371893 69.6907
15.214901940621196 70.4055
15.237416709527137 70.9297
15.259914520936249 70.9934
15.282430473753607 69.9836
15.304947020131227 68.5567
15.327446610371178 67.6111
15.349964346154254 66.5513
15.372465126703139 65.9188
15.394984055556009 65.4935
15.417486030076159 65.4371
15.44000615566487 64.9289
15.462526881230803 64.9988
15.485030653812652 65.1674
15.507552581617434 65.3563
15.530057557334603 65.4234
15.55258069104857 65.3255
15.575104429329837 65.01
15.597611216864632 64.5418
15.620136166564563 64.5585
15.6426441664095 65.1618
15.665170331202765 66.434
15.687697105158826 68.9747
15.710206930593545 71.8394
15.732734925158933 75.3893
15.755245972089478 80.8834
15.77777519094324 88.9175
15.800287463046663 100.985
15.822817909869592 119.539
15.84534897229804 140.851
15.867863089299354 166.227
15.890395385222186 186.574
15.912910736597423 195.438
15.935444269699861 183.417
15.957978423016485 156.798
15.980495633101265 123.01299999999999
16.003031029129367 95.5673
16.02554948280019 76.1548
16.048086125229432 67.3635
16.070623392487107 64.8839
16.09314371869582 64.6804
16.11568223789321 63.7231
16.13820381691126 62.3693
16.160743591742527 61.0927
16.183283996022084 59.8627
16.205807461423195 58.882
16.228349126881973 58.2702
16.25087385432698 58.0347
16.27341678466365 57.6063
16.29594277784926 57.8132
16.31848697676433 58.2388
16.341031811604868 58.9772
16.36355971058487 59.2263
16.3861058195587 58.873000000000005
16.40863499352978 57.4902
16.431182380342005 56.2978
16.453730407713202 55.5981
16.476261501364792 55.155
16.498810812136167 54.7518
16.52134319004079 54.9136
16.54389378792203 54.8448
16.566445031001553 54.5541
16.588979342490088 54.5386
16.61153187824822 54.4353
16.634067483263312 54.1583
16.656621315414416 54.0153
16.679175797408888 53.9109
16.701713349928728 53.7332
16.72426913389191 54.0773
16.74680798922351 54.3241
16.76936507887444 54.208999999999996
16.791905240734874 54.3423
16.814463639794468 54.1358
16.837022695210294 54.3612
16.859564824093756 54.5736
16.882125194503903 55.461000000000006
16.904668639217885 56.527
16.927230328348003 56.9626
16.949792678493612 56.806999999999995
16.972338104193863 56.0346
16.994901778652235 55.1567
17.017448529496576 55.0076
17.040013531998152 54.8088
17.06257920018044 55.1488
17.0851279459922 55.7015
17.107694947817667 56.3239
17.130245028099072 57.3193
17.15281336730298 58.4889
17.17536478578733 60.0443
17.19793446610687 62.1529
17.220504818648422 64.7644
17.243058251703697 68.0544
17.265629950971032 72.7062
17.288184731571736 77.6353
17.310757781306908 82.7718
17.33333150794385 83.1788
17.355888317140174 81.5861
17.37846339986244 76.4585
17.401021565958885 69.7308
17.42359800851343 64.298
17.44617513265564 60.9444
17.468735341390783 59.1454
17.491261035594565 58.2475
17.51396340099364 58.153
17.536490463869136 58.0033
17.559018209820174 58.166000000000004
17.58154663977963 58.418
17.604251766089718 58.2929
17.626781572227713 58.4378
17.64931206518155 58.8608
17.671843245885103 59.531000000000006
17.69455114821572 59.6843
17.717083712612634 60.0356
17.739616967569667 60.1119
17.762150914021706 60.3137
17.78486160749854 60.0536
17.807396945166804 60.6026
17.829932977143503 60.9891
17.85246970436452 62.2495
17.875183204129467 63.7109
17.897721330097664 65.7425
17.920260154126645 67.9083
17.942799677153296 70.6829
17.9655159983646 73.8009
17.988056927677544 78.2288
18.010598558807683 85.3767
18.033140892692916 95.3496
18.05586005052525 106.652
18.07840379824407 118.777
18.10094825154059 129.403
18.12366954819864 137.509
18.146215420998306 137.696
18.16876200220057 129.632
18.191309292745153 115.101
18.214033452627167 101.9
18.236582170236648 90.1163
18.259131600016456 84.0409
18.281681742907335 83.8166
18.304408781233683 87.8464
18.32696035875955 93.42399999999999
18.349512652227624 98.6909
18.372065662579683 103.469
18.394795594587553 105.16799999999999
18.41735004715306 102.831
18.43990521943684 95.8788
18.46246111238171 86.4939
18.485193953325208 76.6032
18.507751296070428 69.3348
18.530309362314178 65.143
18.552868153000343 62.8661
18.57560391815056 61.6404
18.59816416623245 60.9316
18.620725141597372 60.3345
18.643286845190268 60.0319
18.666025549835414 59.5053
18.688588718427933 58.9738
18.711152618092243 58.8384
18.73389353884365 58.5715
18.75645890921984 58.192
18.77902501351406 57.9107
18.801591852673102 57.7489
18.824335739722738 57.2577
18.846904057212626 57.2001
18.8694731124168 56.9801
18.89204290628315 56.801
18.914789774966803 56.684
18.937361054791623 56.3953
18.959933076131318 55.9672
18.982505839934877 56.1069
19.00525570560582 56.378
19.027829963004184 56.0858
19.05040496572238 56.0984
19.072980714710468 55.8698
19.095733592739563 55.9762
19.11831084296757 56.4746
19.140888842324735 57.0552
19.16346759176222 57.2115
19.18622349753803 57.4983
19.208803755869358 58.3233
19.231384767143577 59.0533
19.253966532312948 60.3676
19.276725481241822 62.3038
19.29930876296784 64.986
19.3218928014549 68.1646
19.34465404436217 71.7852
19.36723960516257 74.9894
19.389825925592426 76.4576
19.412413006605938 75.5515
19.43517731967805 71.9706
19.457765930683355 67.2834
19.48035530514408 62.4762
19.50294544401556 58.7099
19.525712842708348 56.0933
19.54830451925909 54.5484
19.570896963095727 53.4213
19.593490175174704 53.0965
19.616260674962184 53.2105
19.638855432416964 52.7793
19.661450960992624 52.8173
19.68404726164677 52.7133
19.706820878021247 52.5148
19.729418731756834 52.8284
19.752017360452857 52.4337
19.77461676506804 52.7
19.797393513540218 52.7088
19.819994478951667 52.9801
19.84259622316767 53.3517
19.8651987471481 53.832
19.887978643247177 53.9981
19.91058273574792 54.2933
19.933187610901943 55.151
19.955969879466828 56.0687
19.97857632894404 57.2808
20.00118356396599 58.7653
20.023791585494575 60.8257
20.046577028914875 63.5203
20.069186632506966 65.7544
20.091797025500632 68.0469
20.114408208858933 68.9817
20.137196842715273 68.8648
20.159809615886765 67.1555
20.18242318232135 64.7123
20.20503754298326 62.2712
20.227829382875154 61.0696
20.250445341109344 61.0011
20.27306209647285 61.8326
20.29567964993108 63.3227
20.31847471147704 64.4771
20.34109387027612 65.2324
20.363713830075454 65.0268
20.386334591841646 63.7201
20.409132890679302 61.0213
20.431755265564437 57.7798
20.454378445325528 55.0331
20.477002430930366 53.17100000000001
20.499803982716553 52.0781
20.522429589228004 51.3636
20.54505600449589 50.7998
20.567683229489194 50.4426
20.590488049900088 49.8732
20.61311690359731 49.6508
20.63574656993626 49.2207
20.658553853717297 48.9433
20.681185154618298 49.0015
20.703817271080066 48.924
20.72645020407368 48.5021
20.749260783967177 48.4107
20.771895359337133 48.4141
20.794530754161617 48.2221
20.817166969412938 48.1429
20.83998086114876 48.045
20.86261872660049 48.0169
20.885257415405402 48.2374
20.90789692853701 48.0293
20.930714147864748 47.8476
20.953355319030678 47.769
20.97599731745334 48.0373
20.99864014410749 47.8297
21.021460706796564 47.7326
21.044105199328826 48.0712
21.06675052302631 48.1816
21.089396678865015 48.3463
21.112220600704806 48.4768
21.134868430275347 49.0034
21.15751709492456 49.4713
21.180166595629693 49.7271
21.202993892429635 50.049
21.22564507473034 50.5465
21.24829709602816 50.7985
21.27112693608965 50.8014
21.293780644891275 50.545
21.316435195634053 50.0422
21.339090589297417 49.2535
21.361923832041875 48.8195
21.384580921090404 48.1648
21.407238856007325 47.7438
21.429897637773326 47.5681
21.45273429906592 47.6331
21.475394784108598 47.6843
21.498056118951983 47.4969
21.520718304578022 47.8818
21.543558400304388 47.8413
21.566222297108816 47.931999999999995
21.58888704765135 47.9645
21.61155265291521 48.129
21.63439619898156 48.618
21.657063523335786 48.8729
21.67973170537063 49.3054
21.7024007460706 49.61
21.72524775840385 50.446000000000005
21.747918526116475 51.3104
21.770590155457388 52.6124
21.79326264741238 54.0975
21.816113141960237 55.9765
21.838787368860547 57.7139
21.861462461341976 59.9055
21.884315579735777 61.7669
21.90699241312273 63.2787
21.92967011506078 64.0763
21.95234868653799 63.8146
21.9752053151131 62.5074
21.997885635446785 60.5085
22.020566828293532 58.6658
22.04324889464272 57.0892
22.066109049404666 55.9271
22.088792872571794 55.4575
22.111477572219204 55.393
22.1341631493376 55.5413
22.157026846313123 55.3892
22.179714188221507 54.7273
22.202402410582668 53.4464
22.22509151438863 51.9598
22.24795876962584 50.8613
22.270649646204486 49.968999999999994
22.293341407213727 49.0895
22.316034053646906 48.7311
22.338904883215342 48.3868
22.36159931041458 48.5376
22.38429462602756 48.4967
22.40699083104897 48.3307
22.429865251039757 48.3941
22.452563244831367 48.3407
22.47526213102522 48.2939
22.49813925616515 48.1453
22.520839937143307 48.0048
22.543541513520587 47.9061
22.56624398629403 47.7403
22.589124730075895 47.7138
22.611829005656723 47.8762
22.63453418063466 47.9777
22.657240256008077 48.0529
22.680124634582935 48.1315
22.70283252079775 48.4261
22.725541310413075 48.6187
22.74825100442868 48.8043
22.771139033969575 49.1569
22.79385054687155 49.2066
22.81656296718292 49.8053
22.83927629590484 50.7339
22.862167992606945 51.7441
22.88488314827121 52.8068
22.907599215359284 53.915
22.93031619487366 55.067
22.953211574954405 56.2311
22.975930389478226 57.0863
22.998650119445763 57.3476
23.02137076586092 56.8418
23.044269845560063 55.7069
23.06699233506288 53.879
23.089715744034912 52.04
23.112617610931565 50.5333
23.135342869061212 49.31100000000001
23.158069049684816 48.6034
23.1807961538087 48.2292
23.20370174880544 48.0498
23.226430710184808 48.086999999999996
23.249160598093425 48.0869
23.271891413539002 47.9714
23.294800752937697 47.8338
23.31753343374794 48.0089
23.340267045128353 48.2222
23.36300158808808 48.4989
23.38591468821339 48.8069
23.408651104658304 49.1221
23.431388455719986 49.7173
23.454126742409 50.4313
23.4770436196085 51.4338
23.499783787914662 52.6873
23.522524894889884 53.8074
23.54526694154616 54.935
23.56818761219047 56.123000000000005
23.59093154860734 56.9482
23.613676427751283 57.5488
23.636422250635754 56.8492
23.659346731118656 55.2477
23.68209445191868 53.1974
23.704843119509587 51.0047
23.72759273490623 49.246
23.750521041644767 47.7119
23.77327256312355 46.6768
23.796025035462787 46.1954
23.818956224555475 45.6578
23.841710609113413 45.5459
23.86446594758979 45.2161
23.887222241002014 45.0161
23.910157285144578 44.4407
23.932915498962537 44.6275
23.955674670778713 44.5197
23.978434801611975 44.3338
24.001373717286125 44.1686
24.024135776723917 44.0251
24.046898798245582 44.0703
24.06966278287146 43.9321
24.092605586582614 43.6722
24.115371508023642 43.5874
24.1381383956401 43.4739
24.16090625045381 43.5747
24.183852958731244 43.5079
24.206622758582608 43.2973
24.229393528706886 43.0572
24.252165270127392 43.0788
24.27511589952438 43.018
24.297889594216997 42.7992
24.32066426328598 42.8641
24.34343990775613 42.6733
24.36639447485003 42.6379
24.38917208083877 42.5596
24.41195066531332 42.4863
24.43490819850244 42.4785
24.457688750692377 42.3566
24.48047028445616 42.4757
24.503252800821233 42.5195
24.526214300784112 42.5549
24.548998793132213 42.5463
24.57178427117417 42.333999999999996
24.59457073593893 42.3694
24.617536219319863 42.2366
24.64032466834748 42.4226
24.663114107195035 42.2612
24.685904536893013 42.0008
24.708874020360852 42.0443
24.731666442613744 41.8737
24.754459858818787 41.748999999999995
24.777254270007962 41.7322
24.80022777025625 41.6965
24.82302418230472 41.6353
24.845821592443674 41.5818
24.86862000170663 41.6185
24.891597535453727 41.4493
24.914397953892728 41.6117
24.93719937456671 41.5008
24.96000179851076 41.6321
24.98298338249997 41.8163
25.00578782394922 41.9806
25.028593271784167 42.1473
25.05157790644186 42.3914
25.07438537804115 42.4586
25.097193859145293 42.8586
25.120003350792075 43.0495
25.142992065061257 43.4306
25.165803588823465 43.8231
25.18861612625217 43.9527
25.211429678386736 43.9632
25.234422489079968 44.132
25.257238081693636 44.1761
25.280054692141732 44.2921
25.3028723214652 44.2855
25.325869245420463 44.4367
25.348688923599397 44.4858
25.371509623787006 44.4645
25.394331347025812 44.1356
25.41733240110666 43.5795
25.440156181590016 43.0801
25.46298098826268 42.5491
25.48580682216873 41.9034
25.50881202326435 41.3308
25.53163992281684 40.9147
25.55446885274561 40.6928
25.577298814096377 40.3215
25.600308179121807 40.2598
25.623140214533745 40.3085
25.64597328451537 40.1617
25.66898578564376 39.9132
25.691820936010206 40.0178
25.714657124097695 39.9065
25.737494350954734 39.9109
25.760511045684957 39.8479
25.783350361364224 39.9317
25.806190718969255 39.9628
25.82903211955018 40.0176
25.852053024868923 40.0423
25.874896522722523 40.0933
25.897741066713106 39.9584
25.920586657892454 40.1271
25.943611790812668 40.1619
25.966459487728237 40.2986
25.989308234998564 40.3577
26.01215803367705 40.7641
26.03518741123814 40.9041
26.05803932412957 41.0347
26.080892291600094 40.9714
26.10374631470478 41.1649
26.12677995397268 41.266000000000005
26.14963609978026 41.235
26.172493304397875 40.7809
26.19535156888223 40.6917
26.218389486949604 40.2573
26.241249882640123 39.9554
26.26411134137826 39.7399
26.28715248187403 39.765
26.31001607820869 39.5559
26.3328807407756 39.388000000000005
26.35574647063438 39.5158
26.37879191991473 39.5561
26.401659795896734 39.5713
26.424528742360263 39.6724
26.447398760366614 39.843
26.470448535598294 39.9481
26.49332070826805 40.0169
26.516193955675355 40.3909
26.53906827888316 40.563
26.562122397260108 40.7677
26.584998883685063 41.0113
26.607876449110325 41.4631
26.63075509460056 41.5504
26.65381357334404 41.6898
26.67669439061878 41.5933
26.699576291163382 41.3965
26.722459276044212 41.3392
26.745522132402975 41.0094
26.768407297649354 40.8446
26.791293550442003 40.5317
26.814180891848974 40.2614
26.837248143099337 40.0323
26.860137673466657 40.0396
26.88302829566349 39.6228
26.90592001075963 39.5137
26.92899167420566 39.2954
26.951885586870763 38.9685
26.974780595655517 38.7707
26.99785558178161 38.6599
27.020752794605112 38.4954
27.043651106772522 38.4444
27.06655051935668 38.3493
27.089629948036183 38.164
27.112531573292053 38.094
27.135434302194138 38.0842
27.158338135817015 38.0634
27.181422024430987 38.1426
27.204328079372566 37.851
27.22723524226965 37.8995
27.250143514198573 37.9704
27.273231880156334 37.9883
27.296142382065014 37.8446
27.319053996245536 37.7265
27.341966723775965 37.7948
27.365059584515222 37.896
27.38797455070062 37.9183
27.410890633481237 37.7558
27.433807833936918 37.8218
27.456905206923906 37.9658
27.47982465472398 37.9029
27.502745223449743 37.9751
27.525666914182825 38.2101
27.548768816912457 37.9066
27.571692763693633 37.919000000000004
27.59461783573812 37.8967
27.617723149491244 37.5795
27.640650484125285 37.5
27.66357894728264 37.5374
27.686508540048052 37.5915
27.709618414237887 37.5513
27.732550278321757 37.2613
27.755483275279115 37.2128
27.778417406196485 37.3531
27.801531858397514 37.2731
27.824468269376716 37.3137
27.847405817586786 37.2459
27.870344504116094 37.3896
27.893463551932008 37.5367
27.916404527281053 37.6217
27.93934664422563 37.7966
27.962289903855886 37.7834
27.98541356491974 38.1244
28.00835912214229 38.0939
28.03130582533231 38.4941
28.054253675581805 38.5159
28.077381967556104 38.4399
28.100332124185126 38.4866
28.123283431160893 38.3668
28.146235889577238 38.2581
28.169368830154156 38.1452
28.192323603752033 37.9992
28.215279532083304 37.6886
28.238415973016764 37.4889
28.261374223145094 37.325
28.284333631303806 37.0745
28.307294198589954 36.9561
28.330435319167677 36.6924
28.353398217078915 36.5897
28.376362277420153 36.292
28.39932750129032 36.0388
28.422473319286713 35.8205
28.44544088262495 35.9691
28.468409612800283 35.7504
28.491379510913497 35.5909
28.51453004413313 35.5251
28.53750229057244 35.4624
28.56047570826344 35.278
28.583450298308804 35.376
28.606605564586562 35.2453
28.629582511831156 35.2291
28.65256063474956 35.1608
28.675539934446338 35.1922
28.698699951647605 35.3249
28.72168161743193 35.0533
28.74466446331978 34.9795
28.767648490417624 34.9821
28.790813276438353 34.9188
28.813799678527303 34.889
28.836787265157085 35.1015
28.859955641890075 34.993
28.882945610203045 34.9763
28.905936766392035 34.9595
28.928929111566863 34.8714
28.952102288520145 34.7846
28.975097024308607 34.655
28.998092952423807 34.5832
29.021090073977508 34.4783
29.04426806913204 34.4773
29.067267590245258 34.1262
29.090268308143695 34.1727
29.11327022394099 34.1671
29.13645305530891 33.8584
29.159457379627167 33.8691
29.18246290519685 33.8707
29.20546963313352 33.9441
29.22865731875826 33.9374
29.25166646419296 33.838
29.27467681535305 33.6274
29.29768837335608 33.762
29.320880931312562 33.8126
29.34389491580634 33.8603
29.366910110507334 33.7518
29.38992651653503 33.8313
29.41312396492981 33.7397
29.436142806456754 33.6903
29.45916286268059 33.5603
29.48236399319994 33.4916
29.50538649169417 33.3392
29.528410208259935 33.2371
29.55143514402014 33.1207
29.574641196749695 32.961999999999996
29.597668583816574 32.8846
29.6206971934585 32.6686
29.64372702680042 32.7128
29.666938019934474 32.6294
29.689970313635285 32.4968
29.713003834422636 32.5522
29.73603858342347 32.4974
29.759254535188578 32.3993
29.78229175361658 32.4179
29.80533020365064 32.4629
29.82836988641968 32.4482
29.85159081507472 32.357
29.874632976355343 32.2903
29.89767637376955 32.3112
29.920721008448314 32.1713
29.9439469322847 32.174
29.96699405457564 32.0887
29.9900424175358 32.2287
30.013092022298157 32.1165
30.03632295963995 31.8953
30.059375061131373 32.0271
30.08242840783577 31.9873
30.105483000888153 31.9527
30.128718970092244 31.9507
30.151776069006917 32.0005
30.17483441768648 32.0467
30.198074175317235 31.9745
30.221135036724256 31.9838
30.24419715131772 31.9367
30.267260520236203 31.8083
30.290505341942243 31.9295
30.313571232750228 32.007
30.336638381310948 31.8664
30.35970678876503 31.8442
30.38295669299435 31.7977
30.40602763151657 31.744
30.429099832366074 31.6756
30.452173296685572 31.581
30.47542830191959 31.5965
30.498504306502497 31.5519
30.521581577995562 31.658
30.544660117543582 31.7303
30.56792024229725 31.8249
30.59100133132069 31.6787
30.614083691845494 31.6574
30.637167325018545 31.729
30.660432587840603 31.7163
30.683518779717886 31.7736
30.70660624769615 31.8252
30.729694992924372 31.7624
30.75296541239743 31.8157
30.77605672557558 31.7283
30.799149319462742 31.7431
30.8224236211637 31.5927
30.845518789950724 31.4369
30.868615242910597 31.506
30.891712981195973 31.3277
30.91499247215866 31.2324
30.938092794619365 31.1693
30.96119440587579 31.0587
30.984297307082752 30.8634
31.00758200598383 30.8116
31.030687500658694 30.7748
31.053794288760695 30.6727
31.076902371446767 30.5244
31.100192296997445 30.6775
31.12330298246119 30.5276
31.14641496599209 30.5331
31.169528248749216 30.5954
31.19282341969534 30.5292
31.215939314557186 30.5179
31.239056512134788 30.4196
31.262175013589378 30.418000000000003
31.28547544871168 30.3974
31.30859657161541 30.3174
31.331719001892175 30.4552
31.35484274070538 30.4566
31.378148458819545 30.502
31.401274828443725 30.5018
31.424402510106933 30.5074
31.447712205419993 30.4959
31.470842524931633 30.3664
31.493974159989783 30.3801
31.51710711176168 30.3838
31.54042212308802 30.3986
31.563557722100917 30.4448
31.586694641341655 30.1979
31.609832881979628 30.084
31.63315322823208 30.0463
31.656294125521327 29.9204
31.679436347728515 29.8718
31.70257989602529 29.859
31.725905596152327 29.7599
31.74905181052835 29.7139
31.772199354521323 29.6948
31.79534822930507 29.6314
31.818679302290967 29.7431
31.84183085259981 29.631
31.864983737233473 29.6414
31.88813795736804 29.6571
31.911474422233013 29.6152
31.934631327356435 29.7492
31.9577895715215 29.6116
31.980949155906522 29.6373
32.004291031706956 29.6791
32.027453310562606 29.4705
32.05061693318573 29.4145
32.07396288236386 29.474
32.09712920658542 29.3735
32.12029687812702 29.148000000000003
32.14346589817093 29.1607
32.166817291729984 29.1466
32.18998902288583 29.0931
32.21316210610336 29.0593
32.23633654256711 28.9276
32.259693399663725 28.8476
32.282870556771144 28.7183
32.30604907069099 28.8298
32.329228942610065 28.7478
32.35259128243769 28.5904
32.375773884550505 28.4952
32.398957848235646 28.5789
32.422143174682176 28.4605
32.445511016471215 28.3548
32.468699082679954 28.3981
32.49188851523011 28.4314
32.51507931531304 28.2099
32.538452678331 28.2775
32.56164622776311 28.1615
32.58484114831493 28.0285
32.60803744118015 28.0497
32.631416344731896 28.1204
32.654615396551876 28.000999999999998
32.67781582427913 28.0514
32.701198898634416 27.9319
32.72440209253756 27.9181
32.747606665947124 27.9876
32.77081262006088 27.8684
32.79420126883317 27.7429
32.81740999876112 27.8365
32.840620112999424 27.6757
32.86383161274818 27.6785
32.88722585534586 27.6317
32.91044014056596 27.6448
32.933655814909734 27.5341
32.95687287957963 27.6677
32.98027273544904 27.5456
33.00349259526636 27.4193
33.026713849030116 27.4766
33.04993649794511 27.4251
33.073341986570746 27.4866
33.09656744032826 27.3996
33.11979429286444 27.4873
33.14302254538647 27.4244
33.166433686291185 27.3627
33.18966475336992 27.3004
33.212897224069096 27.2644
33.23613109959831 27.2477
33.259547912343415 27.2237
33.2827846121627 27.3066
33.306022720453775 27.1887
33.32926223842861 26.984
33.352684742614166 27.0238
33.37592709463173 27.0636
33.399170859982064 26.9418
33.422597648419426 26.8398
33.44584425514446 26.7796
33.46909227885668 26.7897
33.4923417207723 26.7875
33.51577423505344 26.7429
33.539026528130385 26.5216
33.56228024307245 26.5232
33.585535381098246 26.4044
33.60897364093058 26.2923
33.63223163992385 26.3961
33.6554910656699 26.2749
33.678751919389796 26.3644
33.702195944520106 26.2786
33.72545966903325 26.2641
33.74872482519663 26.2228
33.771991414233746 26.2028
33.79544122444841 26.1577
33.81871069412428 26.0975
33.84198160035767 25.9902
33.86525394437455 25.9586
33.88870955949969 26.0425
33.911984794020626 25.9481
33.93526147001624 25.9162
33.958539588715006 25.9109
33.98200102861669 25.8257
34.0052820477047 25.7962
34.02856451319451 25.7576
34.05203033759056 25.6267
34.07531571090147 25.6903
34.09860253431845 25.6425
34.121890809074316 25.6689
34.145362493118924 25.5627
34.16865368561615 25.4703
34.191946333164054 25.5041
34.21524043699793 25.458000000000002
34.23871800066799 25.3752
34.26201503218366 25.3552
34.28531352370466 25.3232
34.30861347646881 25.1517
34.33209693978188 25.2304
34.3553998301885 25.2711
34.378704185565205 25.0956
34.402010007152356 25.1282
34.42549939016683 25.0931
34.44880815937748 24.897
34.472118398533134 24.925
34.49543010887669 24.9809
34.51892543169198 24.7793
34.54224009966052 24.8583
34.56555624255917 24.7878
34.58887386163339 24.7313
34.61237514439016 24.728
34.6356957311114 24.64
34.65901779775809 24.4998
34.68252356662995 24.5603
34.705848608458616 24.5662
34.72917513396849 24.511999999999997
34.75250314440949 24.4839
34.77601490857862 24.4349
34.799345904259795 24.343000000000004
34.82267838863559 24.3979
34.846012362958525 24.3709
34.869530142679984 24.3478
34.89286711232212 24.3425
34.91620557568269 24.2562
34.93954553401677 24.2765
34.9630693495876 24.1541
34.986412313340814 24.3516
35.00975677584668 24.1914
35.033102738362956 24.1238
35.05663261012228 24.028000000000002
35.0799815881786 24.0396
35.10333207003229 23.962
35.12668405694369 23.9194
35.150220005273056 23.9517
35.17357501786656 23.9084
35.19693153931268 23.934
35.220289570874385 23.844
35.24383161619786 23.8062
35.267192683604904 23.8768
35.290555264930376 23.7944
35.314101899412165 23.7792
35.33746752422433 23.8028
35.36083466676374 23.7819
35.38420332829803 23.6805
35.407756095629054 23.6465
35.43112781085063 23.6582
35.45450104888391 23.6735
35.477875810999194 23.6845
35.50143473172161 23.5808
35.52481255774625 23.6155
35.54819191167777 23.5072
35.57157279478914 23.4302
35.595137889488406 23.4397
35.61852184675279 23.3881
35.641907337029984 23.3095
35.665294361595684 23.3722
35.68886565090076 23.2359
35.7122557598848 23.2386
35.73564740699838 23.2482
35.759040593519934 23.2116
35.78261809810353 23.1854
35.80601437933051 23.0404
35.829412203814705 23.014
35.85281157283719 22.965999999999998
35.876395313415884 22.9672
35.8997977874528 22.8966
35.92320180988546 22.8591
35.946790244133936 22.8364
35.97019737933222 22.8713
35.993606066789866 22.7975
36.01701630779276 22.7249
36.04061101440684 22.726999999999997
36.06402437852291 22.7397
36.08743930005611 22.689
36.1108557802951 22.616
36.13445678011326 22.6761
36.15787639383515 22.5996
36.18129757014299 22.5433
36.20472031032821 22.515
36.22832762423364 22.4492
36.25175350829375 22.4365
36.275180960119776 22.3433
36.298609981005924 22.4008
36.32222362992669 22.4177
36.34565580510207 22.3989
36.36908955323448 22.3028
36.39252487562093 22.1642
36.416144880530226 22.1817
36.43958336764275 22.2026
36.463023432914625 22.2315
36.486465077645676 22.1001
36.51009145956204 22.0559
36.53353627947859 22.1426
36.55698268276811 22.1077
36.58043067073321 22.0583
36.60406345072071 21.8558
36.62751462435344 21.8898
36.65096738658405 21.8575
36.67460498210655 21.8386
36.69806093788647 21.8376
36.72151848619297 21.725
36.744977628333636 21.7468
36.76862165890998 21.6616
36.79208400512205 21.6382
36.81554794910557 21.6073
36.83901349217101 21.513
36.862663978991606 21.5313
36.88613273667352 21.4889
36.90960309738324 21.4657
36.933075062434064 21.4553
36.95673202673572 21.4352
36.98020721697122 21.4201
37.003684015502365 21.3304
37.027162423645365 21.2792
37.050825886711465 21.3045
37.07430753063053 21.2121
37.09779078812467 21.2531
37.121275660513014 21.2106
37.144945643673694 21.1171
37.16843376245278 21.1186
37.19192350009803 21.0988
37.215414857931435 21.0508
37.239091382563885 21.038
37.262585997426164 20.9855
37.28608223645736 21.0349
37.309763684451696 21.0389
37.33326318851098 20.9209
37.356764320726555 20.8316
37.380267082425526 20.8579
37.40395510942588 20.7934
37.42746114683234 20.8054
37.45096881771841 20.7634
37.474478123414166 20.7391
37.49817275092816 20.6729
37.52168534303452 20.6488
37.54519957395567 20.5526
37.568715445024665 20.5361
37.592416694607714 20.5427
37.61593586281424 20.5895
37.63945667518264 20.6349
37.66297913304891 20.4978
37.68668702630454 20.5081
37.710212792059274 20.4012
37.733740207334854 20.3591
37.757269273470364 20.2626
37.780983832050374 20.2789
37.80451621684926 20.2874
37.82805025654007 20.2515
37.851585952464795 20.2188
37.8753071980695 20.1649
37.89884622345676 20.1224
37.92238690911902 20.0339
37.94611318753442 19.9756
37.969657210779765 20.0208
37.99320289834801 19.9612
38.016750251586465 19.945999999999998
38.04048325513017 19.8068
38.06403395679343 19.8895
38.087586328183946 19.8452
38.11114037065203 19.9024
38.13488012115898 19.8965
38.1584375229181 19.8169
38.181996599821 19.7096
38.205557353221124 19.6788
38.229303872575656 19.7218
38.2528679961576 19.6917
38.27643380031219 19.6027
38.30000128639589 19.6136
38.32375459653193 19.5919
38.34732546371299 19.558
38.37089801690786 19.4889
38.39447225747609 19.4611
38.418232380377425 19.4739
38.441810012983396 19.4516
38.46538933705673 19.408
38.488970353960084 19.3902
38.51273731166058 19.2951
38.536321731567014 19.3042
38.55990784840681 19.2726
38.58367995004091 19.2066
38.60726947812959 19.125999999999998
38.63086070726198 19.1443
38.654453638806274 19.1984
38.678232613930824 19.1104
38.70182896773327 18.9896
38.72542702806741 19.0029
38.7490267963045 19.0746
38.77281266709232 19.0181
38.79641586862214 18.9261
38.8200207821842 18.9001
38.843627409152944 18.8883
38.86742019782782 18.8282
38.891030269149255 18.8715
38.914642058016156 18.8515
38.938255565806124 18.8325
38.96205529464307 18.7207
38.98567225787121 18.688
39.00929094417078 18.7352
39.03291135492255 18.685
39.05671804624804 18.6406
39.080341923549106 18.54
39.103967529460334 18.5727
39.127594865365744 18.5476
39.15140854155791 18.4711
39.17503935514948 18.4258
39.19867190290282 18.3718
39.22249083587951 18.4604
39.24612686969409 18.4519
39.269764641845306 18.4468
39.293404153722804 18.3983
39.317230110864074 18.2703
39.34087311998506 18.2618
39.36451787301696 18.2328
39.388164371352595 18.1545
39.41199737518003 18.1696
39.43564738196752 18.1787
39.45929913825317 18.0624
39.48295264543308 18.0789
39.506792718520884 17.9779
39.530449745387216 18.0125
39.55410852735203 18.0394
39.57776906581474 18.0012
39.60161623079 17.9106
39.625280300200025 17.9367
39.64894613032202 17.9047
39.67261372255866 17.9128
39.6964680021016 17.8683
39.72013913657293 17.8229
39.74381203738292 17.8244
39.76748670593756 17.7491
39.79134812278169 17.7238
39.81502634488497 17.679000000000002
39.83870633896685 17.6378
39.862388106436654 17.6426
39.88625668336918 17.6243
39.90994201572829 17.5651
39.933629125719285 17.5364
39.957503091207826 17.4748
39.9811937746168 17.5589
40.00488623990914 17.512999999999998
40.02858048850006 17.4576
40.05246165409549 17.4382
40.076159487492085 17.4132
40.099859108448875 17.3824
40.123560518384345 17.2886
40.1474489070226 17.3217
40.171153913178564 17.2598
40.194860712584955 17.2647
40.2185693066637 17.2479
40.242464941335314 17.2148
40.26617714307655 17.1369
40.289891143772046 17.127
40.3136069448471 17.115
40.33750984859743 17.0835
40.3612292688043 17.0998
40.3849504936829 17.063
40.40867352466194 17.0104
40.43258372059144 16.9935
40.45631038219906 16.9807
40.48003885420956 16.9234
40.503769138055105 16.8947
40.52768664931955 16.9033
40.55142057531802 16.8377
40.57515631746428 16.8215
40.599079334038514 16.8126
40.62281872700477 16.7716
40.64655994043941 16.7096
40.67030297578061 16.6839
40.69423334835778 16.7153
40.71798004609188 16.6573
40.74172857006355 16.609
40.76547892171441 16.6274
40.7894166736039 16.6073
40.813170699248566 16.5504
40.83692655691388 16.5084
40.86068424804498 16.4755
40.884629402612525 16.4985
40.908390779366385 16.4487
40.932153993938 16.4324
40.95591904777605 16.3961
40.979871628443995 16.4184
41.003640379561936 16.3727
41.02741097430883 16.3117
41.05118341413683 16.3254
41.075143444384416 16.2882
41.098919593177826 16.2906
41.1226975914255 16.2418
41.14647744058318 16.1761
41.170444943946755 16.2082
41.19422851378379 16.1281
41.218013938914645 16.0982
41.24198706625173 16.082
41.26577622087193 16.0858
41.289567235177785 16.0114
41.31336011063129 16.0033
41.337340752422875 16.007
41.361137369129835 15.9667
41.38493585138705 15.9202
41.40873620066004 15.9008
41.43272438060107 15.9027
41.45652848292052 15.7796
41.48033445666918 15.8123
41.50414230331616 15.8125
41.528138045159764 15.7982
41.551949656675205 15.7368
41.575763145513235 15.6794
41.59957851314666 15.5932
41.62358184070442 15.6374
41.64740098505737 15.6714
41.6712220126409 15.6403
41.69504492493139 15.5573
41.71905586207357 15.5009
41.74288256296395 15.5389
41.766711153007456 15.5615
41.79054163368412 15.4754
41.814560204340054 15.4939
41.838394485526365 15.4445
41.86223066180303 15.3849
41.88625497706819 15.3716
41.910094962812 15.35
41.93393684811168 15.3258
41.95778063445365 15.2443
41.981812625263366 15.1954
42.00566023303407 15.2294
42.029509746323676 15.2097
42.05336116662236 15.1374
42.077400857069705 15.1578
42.10125611078846 15.1677
42.12511327600405 15.1281
42.14897235421036 15.0889
42.173019768448455 15.0581
42.19688269209613 15.0469
42.22074753323349 15.0588
42.24461429335818 14.9932
42.268669455600495 14.9635
42.292540073217886 14.9547
42.31641261433284 14.9313
42.34028708044675 14.8814
42.36435001496739 14.9126
42.38822835065557 14.9351
42.41210861586426 14.8503
42.4359908120986 14.8153
42.46006154323262 14.7805
42.48394762115317 14.7135
42.507835634632315 14.7335
42.531912233047436 14.7074
42.55580413732265 14.6594
42.579697981698 14.6615
42.60359376768525 14.6247
42.62767820545945 14.5968
42.65157789440821 14.6225
42.67547952952185 14.5342
42.699383112316 14.5347
42.72347541395347 14.4674
42.74738291190531 14.3899
42.771292362102166 14.4288
42.795203766063516 14.4067
42.819303956130405 14.3658
42.843219287476536 14.369000000000002
42.86713657716324 14.4214
42.89105582671383 14.3325
42.91516392983864 14.2911
42.939087119032166 14.3588
42.963012272677304 14.2795
42.98693939230129 14.2701
43.01105543317513 14.1653
43.034986504731386 14.1414
43.05891954686589 14.1382
43.08285456110972 14.1685
43.10697856448665 14.1258
43.130917542983475 14.0599
43.15485849820081 14.0394
43.17880143167367 14.0219
43.20293342237094 13.9878
43.226880332449 13.9613
43.25082922540554 13.9989
43.27496722682525 13.9624
43.29892010567796 13.9547
43.32287497204102 13.9184
43.34683182745632 13.8374
43.370977859791836 13.8381
43.39493871351105 13.838
43.41890156092628 13.8083
43.44286640358341 13.7747
43.46702049182749 13.7646
43.49098934522816 13.7019
43.51496019852649 13.716
43.5389330532723 13.7149
43.56309522248204 13.6548
43.58707210044314 13.6438
43.61105098451946 13.6103
43.63503187626491 13.5676
43.659202151562134 13.5438
43.68318707902681 13.5172
43.70717401884041 13.4845
43.731162972560874 13.4548
43.75534137913236 13.4821
43.779334381108384 13.4557
43.803329401683186 13.431
43.82732644241872 13.4157
43.8515130055166 13.3843
43.87551410707659 13.3359
43.89951723350145 13.3464
43.923709934595614 13.3214
43.94771713129917 13.3023
43.97172635758096 13.2991
43.99573761501002 13.2929
44.0199385169922 13.2105
44.04395385732619 13.1803
44.067971233533086 13.1855
44.09199064718605 13.155999999999999
44.11619977548961 13.1541
44.14022328470671 13.1264
44.16424883610785 13.1404
44.18827643127035 13.0502
44.21249381139513 13.0983
44.236525514814076 13.0
44.26055926674478 12.9815
44.28459506876863 12.9767
44.3088207262813 12.8866
44.33286064928722 12.9095
44.35690262714919 12.8825
44.38094666145278 12.8533
44.4051806219871 12.8566
44.42922879003185 12.8263
44.45327901929361 12.7879
44.477331311362136 12.8057
44.501573600619416 12.7227
44.525630039221795 12.7239
44.54968854541895 12.7137
44.573937102200176 12.7368
44.5979997645541 12.6885
44.622064499300315 12.6214
44.64613130803592 12.6341
44.67038823869318 12.6445
44.69445921643748 12.5927
44.718532272981385 12.5133
44.742607409926194 12.5449
44.76687274034801 12.5493
44.79095205918753 12.4768
44.81503346325094 12.4703
44.839116954143876 12.4756
44.86339071028742 12.4539
44.88747839599524 12.3913
44.91156817336837 12.3699
44.93566004401666 12.3981
44.959942251908146 12.3472
44.984038330325966 12.3062
45.00813650686762 12.2598
45.03223678314731 12.2726
45.05652746888232 12.2681
45.08063196592069 12.2216
45.104738567558705 12.2373
45.128847275414856 12.1999
45.15314646515866 12.1338
45.17725940679741 12.1347
45.20137445952892 12.1077
45.22568004865265 12.0682
45.24979934496396 12.0737
45.27392075725247 12.0352
45.29804428714431 12.0162
45.322358426247604 12.0117
45.346486212804315 11.9985
45.370616121861914 11.9788
45.39474815505086 11.9468
45.41907087049246 11.9139
45.4432071734666 11.9117
45.46734560548283 11.9386
45.49148616817604 11.921
45.51581748638564 11.8804
45.5399623320197 11.8528
45.56410931325473 11.7989
45.58825843173002 11.8262
45.61259837920865 11.7387
45.636751793816 11.7507
45.66090735060093 11.6846
45.68506505120716 11.7089
45.7094136545275 11.6796
45.73357566449271 11.6216
45.75773982322992 11.6035
45.78190613238733 11.6192
45.806263418194064 11.5753
45.83043404997326 11.5541
45.85460683713677 11.5422
45.87897065658495 11.5658
45.90314777634752 11.5156
45.92732705646868 11.4612
45.9515084986045 11.4816
45.97588104735473 11.4041
46.00006683541565 11.421
46.02425479047904 11.401
46.04844491420549 11.4114
46.0728262191024 11.4101
46.09702070211635 11.3574
46.12121735879483 11.3576
46.14541619080294 11.2883
46.169806278764455 11.3076
46.194009483459034 11.2622
46.21821486849841 11.2511
46.24242243555223 11.2218
46.266821333570014 11.222000000000001
46.29103328674601 11.2057
46.31524742696538 11.2052
46.33946375590237 11.1837
46.36387149104216 11.1416
46.38809221957392 11.0933
46.41231514186606 11.1098
46.436540259597464 11.0481
46.460956858999374 11.0565
46.48518638983522 11.0288
46.509418121166966 11.0375
46.533652054678114 11.0079
46.55807754555709 10.9826
46.58231590571962 10.9802
46.60655647313217 10.9288
46.630988654873654 10.9036
46.655233659129024 10.8843
46.67948087571551 10.9038
46.70373030632484 10.8491
46.72817142736393 10.8642
46.752425308428684 10.7981
46.77668140861147 10.8023
46.80093972960865 10.7498
46.82538981736788 10.7431
46.849652602470904 10.7323
46.87391761349769 10.7472
46.8981848521493 10.6941
46.9226439341274 10.6893
46.946915650573224 10.6439
46.97118959976749 10.6364
46.99546578341598 10.5916
47.019933887188216 10.600999999999999
47.04421456235744 10.5568
47.06849747711879 10.5514
47.09278263318286 10.5254
47.11725978640143 10.4936
47.14154944775105 10.4977
47.165841355555656 10.5068
47.1901355115306 10.4226
47.214621741924994 10.4179
47.23892041698887 10.3924
47.26322134538975 10.3886
47.28771440635075 10.385
47.31201986422527 10.3566
47.33632758061436 10.3387
47.360637557241866 10.341
47.38513974410611 10.2834
47.40945426407847 10.2776
47.43377104948137 10.2669
47.45809010204344 10.2306
47.48260144275502 10.2099
47.506925052572285 10.1851
47.53125093475548 10.1447
47.55557909103813 10.1424
47.58009961361992 10.1306
47.60443234110732 10.0904
47.62876734791564 10.0977
47.65310463578333 10.0959
47.6776343683373 10.1062
47.7019762413987 10.0644
47.72632040075572 10.0075
47.75066684815169 10.0094
47.77520581885936 9.95637
47.799556865477655 9.9383
47.823910205386 9.951310000000001
47.84826584033272 9.9427
47.87281407745551 9.909130000000001
47.89717432569297 9.92933
47.92153687423484 9.86462
47.94609208429692 9.89276
47.97045925671401 9.87123
47.99482873471275 9.85288
48.01920052005013 9.84239
48.04376504619224 9.75645
48.068141469543484 9.8267
48.09252020552573 9.76198
48.11690125590099 9.73935
48.1414751266064 9.76573
48.16586082917454 9.75137
48.19024885144316 9.66993
48.2146391951793 9.657
48.239222439012764 9.68202
48.26361744916137 9.60821
48.28801478610016 9.638580000000001
48.31241445160131 9.57704
48.337007097209366 9.60593
48.36141144338331 9.60161
48.38581812345755 9.55287
48.41022713920929 9.56855
48.434829215320704 9.53253
48.45924292604658 9.54176
48.48365897780325 9.51518
48.50807737237308 9.460360000000001
48.532688907799276 9.40943
48.55711201168574 9.41635
48.581537463754074 9.4247
48.60615611725119 9.4434
48.63058628942721 9.40414
48.65501881516546 9.37652
48.6794536962573 9.38204
48.70408185970339 9.33664
48.72852147531801 9.29451
48.75296345168211 9.30916
48.77740779059232 9.2814
48.80204549302823 9.3002
48.82649458091802 9.27559
48.85094603676547 9.22219
48.87539986237231 9.194980000000001
48.90004713292306 9.16514
48.92450572200832 9.16659
48.94896668628025 9.12084
48.97343002754588 9.134319999999999
48.99808689542115 9.11837
49.02255501470614 9.10148
49.04702551642794 9.08506
49.0714984023988 9.09127
49.096164896893235 9.091560000000001
49.120642575466796 9.04382
49.145122643748394 9.00349
49.16960510355558 9.0016
49.19428125404938 8.96561
49.2187685210852 8.946710000000001
49.243258185121555 8.9805
49.26794160167084 8.956760000000001
49.2924360839405 8.91451
49.31693296869764 8.90921
49.34143225776915 8.88485
49.36612538195438 8.86333
49.39062950396021 8.87158
49.41513603578346 8.84428
49.4396449792564 8.82509
49.46434784069503 8.81737
49.488861631846454 8.79757
49.513377840166804 8.78619
49.537896467493745 8.75591
49.56260909589029 8.70004
49.587132585683285 8.67583
49.611658500018365 8.69321
49.636186840738596 8.65359
49.66090926588511 8.67398
49.685442483902584 8.66992
49.70997813385706 8.615910000000001
49.734516217597076 8.61401
49.75924846937352 8.567860000000001
49.7837914452858 8.57654
49.80833686055187 8.58864
49.83288471702571 8.550510000000001
49.85762682540054 8.55048
49.882179588965734 8.512780000000001
49.9067347993235 8.50801
49.93129245833333 8.47797
49.95604445336378 8.52857
49.98060703442832 8.461310000000001
50.005172069746266 8.44721
50.02993150438364 8.423960000000001
50.05450147301533 8.42094
50.07907390151433 8.38081
50.10364879174981 8.3871
50.12841816587289 8.38364
50.1529980044635 8.36528
50.17758031042124 8.30066
50.20216508562089 8.33768
50.22694442953363 8.28181
50.25153416817468 8.281410000000001
50.27612638170508 8.28434
50.300721072005196 8.23575
50.325510416102105 8.209489999999999
50.350110084975064 8.19554
50.37471223628208 8.20515
50.39931687190919 8.170760000000001
50.424116246675766 8.180539999999999
50.44872587605249 8.13158
50.47333799543065 8.1527
50.49795260670191 8.10367
50.52276204271512 8.0822
50.54738166295838 8.0766
50.57200378079314 8.08345
50.596628398116835 8.04831
50.62144792604559 8.04289
50.646077567609396 8.01826
50.670709714377715 8.02541
50.69553683636198 8.00844
50.72017401885922 7.95615
50.7448137122895 7.95288
50.76945591856022 7.955139999999999
50.79429318636823 7.958589999999999
50.818940443716784 7.951960000000001
50.84359021965163 7.896039999999999
50.868242516085964 7.89693
50.893089960641895 7.895989999999999
50.917747323549435 7.829839999999999
50.94240721271973 7.87435
50.96706963007175 7.82187
50.99192728239342 7.790369999999999
51.01659478166073 7.809769999999999
51.04126481489051 7.80242
51.06593738400761 7.782089999999999
51.090805275207074 7.7348300000000005
51.11548294172845 7.72498
51.14016314993547 7.691730000000001
51.164845901758845 7.7139999999999995
51.18972406304274 7.69897
51.21441192780656 7.67877
51.23910234200271 7.657
51.2637953075678 7.602180000000001
51.288683770237945 7.582789999999999
51.31338186432707 7.5982899999999995
51.33808251561888 7.56778
51.362978729967345 7.569310000000001
51.387684521509755 7.542269999999999
51.41239287610203 7.557410000000001
51.437103795691165 7.52301
51.46201036644977 7.530660000000001
51.486726441956634 7.494739999999999
51.51144508832545 7.51305
51.536166307509156 7.468319999999999
51.56108326624387 7.425660000000001
51.58580965706056 7.4546600000000005
51.61053862657523 7.378660000000001
51.635270176746864 7.39808
51.66019755512065 7.382689999999999
51.68493429268881 7.369260000000001
51.70967361681515 7.3407
51.73441552946465 7.3547
51.759353359237934 7.33545
51.7841004750961 7.34475
51.80885018539685 7.2991600000000005
51.833602492111254 7.304239999999999
51.8585508051424 7.2751399999999995
51.883308330926425 7.28605
51.90806845906181 7.23406
51.932831191525715 7.184139999999999
51.95779001977161 7.21134
51.98255798721516 7.2045
52.00732856494335 7.15897
52.03229530577543 7.17069
52.057071130455945 7.1406
52.081849571391054 7.09059
52.106630630568695 7.09548
52.13160794279417 7.14027
52.15639426492067 7.10992
52.18118321127822 7.09549
52.205974783860896 7.07711
52.23096269971011 7.045210000000001
52.255759551287994 7.01041
52.280559035098186 7.0305800000000005
52.30536115314103 6.968999999999999
52.33035970494467 6.97848
52.35516711807904 6.943510000000001
52.37997717147198 6.96192
52.40478986713005 6.9454
52.42979908731974 6.95498
52.454617094216 6.9367600000000005
52.47943774942214 6.90936
52.50426105495102 6.8854
52.529280976059844 6.89572
52.554109609024096 6.9016
52.57894089837482 6.863860000000001
52.60377484613117 6.87403
52.62880550079408 6.861839999999999
52.65364479223379 6.803889999999999
52.67848674816189 6.78551
52.70352547971946 6.781160000000001
52.72837279155837 6.758030000000001
52.753222773982785 6.744460000000001
52.778075429022984 6.72849
52.80312495150885 6.7537199999999995
52.827982978797436 6.68573
52.85284368481815 6.694889999999999
52.87770707160767 6.676769999999999
52.90276741793998 6.65371
52.92763619336701 6.63105
52.952507655698504 6.62287
52.977381806977576 6.626060000000001
53.00245301017842 6.6258
53.02733256653592 6.62252
53.052214817996074 6.610760000000001
53.077099766608484 6.55234
53.102181859804446 6.56261
53.127072229988265 6.5342199999999995
53.15196530349892 6.5502199999999995
53.17686108239249 6.52914
53.20195409881522 6.51823
53.22685531582556 6.483969999999999
53.25175924441303 6.46141
53.27666588664027 6.44996
53.30176985962693 6.42898
53.3266819565689 6.419490000000001
53.35159677336455 6.3844199999999995
53.376514312083096 6.43187
53.40162927507703 6.40572
53.42655228516116 6.3390699999999995
53.45147802340193 6.35299
53.47660125628886 6.35533
53.50153247842639 6.32383
53.52646643496923 6.32186
53.55140312799818 6.28955
53.576537409691696 6.3022800000000005
53.60147960336152 6.28514
53.626424539786164 6.28195
53.65137222105307 6.23963
53.67651758529126 6.27614
53.70147078399681 6.217280000000001
53.72642673383343 6.25789
53.75138543689533 6.22924
53.776541917524526 6.23119
53.801506154876755 6.1948
53.826473151763246 6.15813
53.851442910284916 6.15265
53.87661054126026 6.11883
53.9015858509782 6.08718
53.92656392866066 6.11474
53.95154477641532 6.11174
53.976723591801296 6.08697
54.00171000771266 6.05425
54.02669920004598 6.06471
54.051691170915745 6.03336
54.076881204886796 6.036490000000001
54.101878760928514 6.06715
54.12687910187696 6.0137599999999996
54.152077577768296 5.95233
54.1770835166946 5.94804
54.20209224691339 5.9425300000000005
54.22710377055121 5.94174
54.25231352511594 5.9301
54.27733066384342 5.88523
54.30235060239643 5.8939900000000005
54.32737334290836 5.87327
54.35259441062629 5.817480000000001
54.377622783395324 5.8169699999999995
54.40265396455061 5.85848
54.42768795623251 5.79172
54.45292037169559 5.77534
54.477960012857906 5.79592
54.50300247099511 5.74412
54.52804774825457 5.70844
54.55329154616743 5.7023
54.57834249018678 5.68692
54.6033962597977 5.67082
54.6284528571545 5.682980000000001
54.653708072335164 5.63826
54.67877035378786 5.60414
54.70383546947698 5.547680000000001
54.72890342156389 5.54194
54.7541700889442 5.49073
54.77924374251975 5.53224
54.8043202390049 5.55014
54.82959552413022 5.47162
54.8546777351945 5.48346
54.87976279569621 5.396719999999999
54.90485070780914 5.434480000000001
54.930137506558005 5.39275
54.95523115074295 5.42387
54.98032765308844 5.3956599999999995
55.005427015775496 5.37695
55.03072536339621 5.39889
55.05583047570572 5.3638900000000005
55.080938454927676 5.345280000000001
55.10604930325027 5.2587
55.131359235107396 5.29275
55.15647585066083 5.2479
55.181595341907496 5.2533
55.20671771104285 5.17905
55.232039262617704 5.1685
55.25716741665048 5.17877
55.28229845518636 5.151680000000001
55.30743238042802 5.14881
55.33276558731939 5.11431
55.357905315183636 5.09777
55.383047936390035 5.12306
55.40819345314859 5.04358
55.433538351073295 5.02968
55.458689688238415 5.00333
55.483843927614096 4.9936300000000005
55.509197623043605 5.00317
55.53435769621134 4.88896
55.55952067826466 4.8555
55.5846865714265 4.8413699999999995
55.61005202069737 4.87827
55.63522376553902 4.87669
55.66039842818645 4.78567
55.68557601087004 4.83821
55.7109532500271 4.74942
55.73613670233794 4.73875
