TT I
1.2716486653135266 7.38011
1.2939594142134223 6.810910000000001
1.3162702121660406 6.42545
1.3385810600174564 6.02299
1.3608919586137629 6.45073
1.383202908801069 6.20465
1.405513911425503 5.803059999999999
1.4278249673332093 5.79964
1.4501343378461518 6.09195
1.4724455028545926 5.64334
1.4947567236847858 5.68922
1.517068001182951 5.555630000000001
1.5393793361953272 5.48002
1.5616907295681737 4.9839400000000005
1.5840021821477681 5.3067400000000005
1.60631369478041 4.77925
1.6286252683124185 4.66059
1.6509369035901333 4.07597
1.6732468618895553 4.69764
1.695558623192809 4.55619
1.7178704487808514 4.6068
1.7401823395001077 3.90432
1.7625012545597203 4.52468
1.7848028405262486 4.570119999999999
1.8071218901122095 4.22621
1.8294236121921872 3.89505
1.8517427996910911 4.65457
1.8740620574440425 4.5227
1.8963639900671978 3.62299
1.9186833908139995 4.36549
1.9409854680117449 4.73231
1.9633050151394713 4.49693
1.9856246367570705 4.72645
2.0079269371922672 4.6086599999999995
2.03024671027244 4.20553
2.0525491637446027 4.06039
2.074869091674931 4.45708
2.097171701569106 4.05272
2.1194917877373847 4.4551099999999995
2.141811954326636 4.49592
2.164114805233074 3.79209
2.186435135143035 4.13009
2.208738150935709 5.13664
2.231058647554722 7.10365
2.2533792288321184 6.638999999999999
2.275682498336085 5.42847
2.298003251406138 5.02721
2.3203066942619714 5.085459999999999
2.3426276225136022 4.9821800000000005
2.3649486396617507 5.950819999999999
2.387252348930071 5.97821
2.4095735463442893 5.5770599999999995
2.4318774374315884 6.293069999999999
2.4541988185014043 6.92592
2.476502894794693 6.92099
2.498824462909887 7.53345
2.521146125856138 7.86913
2.5434504863470337 7.23158
2.5657723414244717 7.794989999999999
2.588076895590662 9.03351
2.610398946189713 8.38079
2.6327210958598384 8.5553
2.6550259469304716 8.50687
2.6773482972090137 8.91088
2.6996533504259 8.58237
2.7219759047039602 8.17458
2.744298562293959 8.525910000000001
2.7666039251246595 8.19828
2.7889267918020164 8.438039999999999
2.8112323652516555 8.57548
2.833555444408179 8.502369999999999
2.8558786311183852 8.579310000000001
2.8781845268938557 9.25711
2.9005079311721484 9.36927
2.9228140460410397 8.93726
2.9451376712799635 9.33763
2.967444008632326 9.814680000000001
2.9897678582247247 10.0624
3.0120918213106695 10.1248
3.0343984987899373 9.95674
3.0567226913198637 10.9938
3.079029599759726 11.2438
3.101354025127254 11.8813
3.123678568232338 12.690999999999999
3.145985829517914 12.6901
3.16831061055229 13.0177
3.1906181112775593 13.8231
3.212943133635653 13.6536
3.2352682779763207 14.4215
3.2575761442691227 14.8711
3.2799015350264273 15.7222
3.302209649240067 15.5578
3.3245352898092655 16.1568
3.3468436553365257 16.7812
3.369169549113219 16.9989
3.3914955708171384 17.7713
3.413804319727358 18.3574
3.4361305997334863 17.7114
3.4584396084414553 18.9557
3.4807661501462652 19.3055
3.503092824025881 20.1129
3.5254022288463154 20.0456
3.5477291695206588 20.3103
3.5700388426251948 20.7666
3.5923660534916446 21.2923
3.6146934007816114 22.7387
3.637003482731501 27.8151
3.6593311053109985 30.0369
3.681641464033634 26.4563
3.7039693653009733 23.7854
3.726297407241705 23.9043
3.7486081875460804 23.9764
3.7709365132734978 24.4989
3.793247578841633 25.294
3.8155761917550093 25.6818
3.8378875459837216 25.5772
3.8602164494827234 25.8324
3.882545499606844 27.1304
3.9048572932539183 27.7855
3.9271866390645718 27.3746
3.9494987298666713 28.0479
3.971828374764527 28.9034
3.9941581705403255 29.3408
4.016470713506008 29.7033
4.038800813471445 30.4582
4.061113662089144 30.8667
4.0834440696459176 31.8155
4.105774632334751 32.0578
4.128087945865126 32.3962
4.150418821249301 33.0083
4.172732448931298 33.6276
4.195063640413578 34.0059
4.2173775856475215 35.0618
4.239709096631102 37.7622
4.262040768704612 52.1225
4.284355196706267 64.4744
4.306687193387355 57.256
4.329001947444346 44.1699
4.35133427213731 41.089
4.373666762177566 40.7046
4.395982011761091 40.8175
4.418314834921175 41.8594
4.44063041906622 43.1509
4.4629635787515625 44.9927
4.4852969080429785 46.1976
4.5076130004776225 46.53
4.529946671403969 46.658
4.552263106909177 46.8443
4.574597122877047 48.3472
4.596931312711224 49.4207
4.619248269273446 50.1158
4.6415828092605835 51.5132
4.663900117405352 52.00899999999999
4.686235010953232 53.6407
4.708552674085913 55.5353
4.730887924602802 56.6071
4.753223354952695 57.9804
4.775541557023902 59.5873
4.797877349456786 60.873999999999995
4.820195915032126 62.6242
4.842532072957498 64.1727
4.864868414979744 65.7571
4.88718753227192 68.0739
4.909524244902505 70.0704
4.931843734218147 71.6889
4.954180820867835 74.2891
4.976518095879839 76.8081
4.998838149695359 79.8099
5.021175803844231 82.9136
5.043496238205739 85.7555
5.065834274903528 89.2725
5.088172504230693 93.8858
5.1104935158799565 98.0306
5.132832132875765 105.734
5.155153533596801 118.295
5.1774925416746225 137.622
5.199814334878411 232.918
5.2221537374521505 796.069
5.244493338631803 2493.28
5.266815727034316 7160.82
5.289155727832427 13508.7
5.311478517248165 9535.82
5.333818921080011 3262.3
5.356159527788849 683.0219999999999
5.3784829252032536 213.96599999999998
5.400823940070432 145.966
5.423147747031976 124.495
5.445489173474152 113.939
5.467830807066149 108.235
5.490155234831516 104.353
5.512497285125229 100.87100000000001
5.534822130975162 99.2572
5.557164601388673 96.9839
5.579489868738879 94.2671
5.601832762690846 92.91799999999999
5.6241758697774475 91.8878
5.646501775867269 91.3014
5.668845311622074 90.2126
5.691171647754637 89.3494
5.713515615597765 88.1653
5.735859800852677 87.7864
5.758186788542988 87.2004
5.780531411018185 87.2691
5.802858837297399 86.6464
5.825203900414495 86.3297
5.8475491852224 86.6679
5.869877275883075 87.057
5.892223006467101 88.0291
5.914551544266608 88.8024
5.936897724049891 90.9263
5.959244129804903 95.3799
5.981573344815301 107.081
6.0039202049061 163.629
6.026249875609095 393.499
6.04859719346037 891.247
6.070927323278297 2044.07
6.093275102315365 4532.99
6.115623113320588 5656.71
6.137953938319995 3559.82
6.160302415650845 1061.43
6.182633708324452 238.078
6.2049826554078376 109.022
6.227331838745022 87.2598
6.249663839443684 79.9586
6.27201349767565 75.9223
6.294345974611799 73.9159
6.316696111167083 72.9529
6.339046488263839 71.565
6.361379686074702 68.7648
6.383730546639482 66.4976
6.406064229255215 64.8643
6.428415576718203 64.3243
6.450749747566656 63.3672
6.47310158535871 62.6007
6.495453669698332 61.5764
6.517788579421056 60.8351
6.540141159237969 60.1433
6.562476565766648 59.7098
6.5848296444934045 58.99
6.607182974060425 58.169
6.6295191323281015 57.965
6.651872965955752 57.5677
6.6742096296068985 58.4805
6.6965639707294615 63.0282
6.71891856698715 64.1186
6.741255995248479 59.5231
6.763611104154477 56.6952
6.785949046381137 55.3515
6.808304671371482 54.7011
6.8306605557940046 54.1985
6.852999275508618 53.8637
6.875355681171544 53.3238
6.897694923437771 53.1931
6.92005185377892 52.9738
6.9423916220322655 53.3627
6.964749080490181 52.5424
6.987106804399774 52.169
7.009447368180821 52.4064
7.031805625367033 52.3793
7.054146723727803 52.1689
7.076505517631004 52.1172
7.098864581288365 51.8857
7.121206488070854 51.6015
7.143566093607822 51.5449
7.165908543567245 51.2065
7.188268694426048 51.1798
7.2106291193438095 50.7606
7.232972390625943 51.1281
7.255333366030969 51.6859
7.277677189091925 55.4865
7.300038718428332 61.7459
7.322400526130865 61.0502
7.344745183422596 55.8107
7.367107550224791 52.3199
7.389452767901992 51.7263
7.411815697249891 51.5565
7.434161478756298 51.2015
7.456524974096713 51.3252
7.478888753837185 51.4935
7.501235387657368 53.353
7.523599738562711 59.5952
7.545946944825532 70.5899
7.568311870344528 75.1319
7.5906770845765665 66.1571
7.613025156078678 56.8379
7.635390950099687 53.6684
7.657739602662809 52.8546
7.680105979923558 52.7277
7.702472650212829 53.1264
7.724822180948224 52.9388
7.747189439655568 53.303000000000004
7.769539560075357 53.071000000000005
7.791907410653562 53.8637
7.81425812420825 53.5114
7.836626570110925 54.0044
7.858995315087906 54.795
7.881346924933401 54.8166
7.903716270417482 55.2119
7.926068482028405 55.5893
7.948438431475253 56.0106
7.9708086843180235 56.7503
7.993161805171116 57.2627
8.015532667162402 57.5402
8.037886398416653 58.4999
8.060257873014221 58.9609
8.082629655331942 59.4724
8.104984308787587 60.0957
8.127356708900503 61.1278
8.149711981398308 62.0281
8.172085002766314 63.1525
8.194458336181368 63.9907
8.216814543847752 64.5522
8.23918850371002 65.4955
8.26154533906492 66.4118
8.283919928836452 67.9917
8.306277395339652 69.2147
8.328652618483376 70.2718
8.351028159736202 72.0
8.373386579575245 74.1939
8.395762759396959 75.4309
8.418121819038275 77.5845
8.440498640894003 81.2423
8.462875785192262 86.2667
8.485235811156207 94.1302
8.507613602688501 128.705
8.529974277114228 228.892
8.552352719347912 368.49
8.574731488360351 612.305
8.59709314210385 1081.12
8.619472567021075 1841.14
8.64183487789147 2263.41
8.664214962183097 1972.22
8.686577933647762 1086.15
8.708958680784317 411.086
8.731339760774953 175.778
8.753703729764451 109.792
8.77608547780821 94.7993
8.798450116065078 90.5226
8.820832535634787 88.3421
8.843215292401656 86.7278
8.865580941199045 85.7823
8.887964374703538 84.5748
8.910330701447199 83.6043
8.932714815164482 83.2279
8.955099270424924 82.5466
8.977466620733543 81.6178
8.999851761421976 80.9116
9.022219798361645 79.9479
9.04460562795561 79.9439
9.066991803441677 79.98
9.089360876979615 79.6344
9.111747746589993 79.5281
9.13411751544971 79.0762
9.156505082664324 78.6138
9.178875550323522 79.3544
9.20126381862328 81.8328
9.223652438908596 92.7857
9.246023961427412 110.079
9.26841328802173 116.384
9.290785518039224 105.43299999999999
9.313175554425882 90.0678
9.335565947154315 81.7437
9.357939245086508 79.8794
9.380330352834827 79.8922
9.40270436697103 79.8215
9.425096193225055 79.9196
9.447488380180165 80.9288
9.469863475295412 80.6577
9.492256385987508 80.8733
9.514632206018318 81.5371
9.537025843935714 81.5708
9.559402392368193 82.2142
9.581796761000229 83.516
9.604191496441521 83.5309
9.626569144158516 84.1927
9.648964615551032 85.2808
9.671343000390081 86.6024
9.693739211225699 87.147
9.716135793237463 87.86399999999999
9.738515290448102 88.2886
9.760912617143402 89.2762
9.783292860202891 90.1946
9.805690935076182 91.6531
9.828089385495742 92.2528
9.850470754023561 93.7994
9.872869957865444 95.9504
9.89525208097539 98.9282
9.917652041736662 102.912
9.940052382417589 106.101
9.962435644102392 115.11399999999999
9.984836746950979 147.76
10.007220771957746 227.24099999999999
10.029622640473708 346.912
10.052007432299963 512.789
10.074410069984072 772.346
10.096813093716005 1196.6
10.119199042482517 1747.1
10.141602840636468 2079.34
10.163989564971628 1665.21
10.186394141051062 984.387
10.208799107559706 435.79400000000004
10.231187001965623 200.243
10.253592751657669 124.811
10.275981430388155 106.999
10.298387966769793 102.93700000000001
10.320794897965431 101.632
10.343184759907361 100.804
10.36559248305461 98.8295
10.387983138083852 97.3116
10.410391656691655 98.6921
10.432800574501677 107.64
10.455192425893369 129.725
10.47760214443012 160.406
10.499994797678786 201.21400000000003
10.522405320453982 268.589
10.54479877906917 377.836
10.567210109595656 505.267
10.5896218454736 584.496
10.612016518879773 558.095
10.634429067781074 389.784
10.656824555333241 227.24
10.679237920773568 141.655
10.701651695961992 104.883
10.724048411481384 93.0476
10.746463008485165 86.3525
10.768860546937125 82.57700000000001
10.791275969274796 80.1432
10.81369180576079 78.6762
10.836090585366925 77.5751
10.858507252467449 76.3998
10.88090686379991 75.2855
10.903324365036394 74.5879
10.925724811614439 73.2852
10.948143150509463 72.9561
10.970561909719066 72.3872
10.992963615930844 71.5029
11.015383218085756 70.7092
11.037785768347074 69.7839
11.06020621697282 69.3985
11.082627090322113 68.6596
11.105030913430326 68.0729
11.12745263854165 67.2638
11.149857314510728 66.9905
11.172279894912576 67.5702
11.194702904450653 67.3523
11.217108866490921 66.4312
11.239532736615194 65.73100000000001
11.26193956033512 65.1686
11.284364294577085 64.7121
11.306789462371718 64.0154
11.329197585398376 63.7721
11.351623622610898 63.5602
11.37403261614354 63.0245
11.396459526308487 63.2088
11.418869393879497 62.8155
11.441297180532617 62.2795
11.463725406927658 61.7451
11.486136592353875 61.292
11.508565700543707 61.0546
11.530977768845315 61.2891
11.553407762368774 60.927
11.575838200059769 61.0503
11.598251599479612 60.9914
11.620682927815501 60.6308
11.64309721895548 60.4959
11.665529441478206 60.1524
11.687962112597958 59.8355
11.710377748130886 60.1309
11.732811318753434 59.8601
11.755227854859067 59.8025
11.777662328529495 59.845
11.800079768750786 59.7066
11.822515149015453 59.6714
11.844950984084935 60.0714
11.867369787303163 59.9622
11.889806534289491 60.2952
11.912226250487029 62.2627
11.934663912939751 66.0184
11.9571020346363 69.2154
11.979523127133968 69.6465
12.001962169624331 67.1856
12.024384183972964 64.1872
12.046824150809913 64.3673
12.069264581333726 69.4214
12.091687985297767 76.3994
12.11412934550045 85.6676
12.136553680195208 98.3855
12.158995973632788 119.008
12.181438735204349 146.609
12.20386447284199 179.34900000000002
12.226308172985636 205.53400000000002
12.24873485024193 214.25099999999998
12.271179492516982 176.125
12.293607112949127 133.517
12.316052700916226 99.2952
12.338498763250042 73.8756
12.360927805303868 64.5902
12.383374818673879 62.223
12.405804812803074 61.3089
12.428252780773262 61.0781
12.45070122756722 61.0653
12.473132656675375 60.9763
12.49558206341869 61.0491
12.518014453510101 61.3665
12.540464823770117 61.4703
12.562915677315177 61.607
12.58534951575545 61.8403
12.607801338171472 61.6664
12.630236146511358 62.4425
12.652688941369085 63.0066
12.675124723177234 63.9966
12.697578494048786 64.1023
12.720032754458185 63.5743
12.742470003354093 63.8363
12.764925245138771 64.6998
12.787363476431278 64.9825
12.809819703166806 65.0693
12.83227642391173 65.9391
12.854716135692716 66.3403
12.877173846755147 67.5743
12.899614549869717 67.5531
12.9220732548287 68.6204
12.94453245827299 69.3572
12.966974655289818 70.0543
12.989434858002571 70.8363
13.011878055298721 71.6882
13.034339260862497 72.6504
13.056800969391883 74.2591
13.079245674017244 76.616
13.101708390774869 78.1897
13.12415410463411 82.5395
13.146617833206086 92.568
13.169064559883248 107.421
13.191529303857127 125.43700000000001
13.213994557076367 146.731
13.236442809902437 178.696
13.258909083908291 227.666
13.28135835851934 290.556
13.30382565690295 364.723
13.326293469022952 428.972
13.348744283242008 442.955
13.371213125129904 378.8
13.39366497011003 279.05
13.416134845360597 183.81900000000002
13.438605238843131 127.005
13.46105863690397 102.616
13.483530069144786 99.4402
13.505984506951902 106.795
13.528456981549432 119.61200000000001
13.550929978879088 134.966
13.573385983253365 155.98
13.595860028340867 188.03900000000002
13.618317081455832 236.327
13.64079217790333 294.139
13.663250283359057 355.017
13.685726434770173 387.751
13.708203115221277 359.535
13.730662806148091 286.772
13.75314054697177 204.554
13.775601299246777 138.089
13.798080104050406 100.303
13.820559442405358 84.6205
13.843021793671388 79.4539
13.865502201420897 77.2934
13.887965623051947 76.6878
13.910447103807167 75.60600000000001
13.932929122629764 74.5597
13.955394156785959 74.095
13.977877254034569 73.0634
14.000343367582113 72.3959
14.022827546871707 71.9165
14.045294743423524 71.528
14.06778000837062 70.8176
14.090265817715476 71.0693
14.112734645763819 72.0497
14.13522154619454 73.9122
14.157691466286913 75.9194
14.180179461423874 76.0246
14.202668005486178 73.7888
14.22513957064374 70.9527
14.247629214846473 68.7905
14.270101881097517 67.7545
14.29259262906496 67.2209
14.315083930490205 67.1968
14.337558255389705 67.2478
14.360050666019726 67.03699999999999
14.382526101071944 66.8177
14.405019624534942 66.5108
14.427513705993134 66.0314
14.449990813291825 66.0487
14.47248601302899 66.426
14.49496423954951 66.3179
14.517460561197822 66.3106
14.539939910570322 66.2272
14.562437357763558 66.1456
14.58493536931253 66.593
14.607416409993311 66.8
14.62991555254159 66.8523
14.652397725157423 66.8583
14.674898002342799 67.278
14.697398848433282 67.4661
14.719882725991326 67.9964
14.74238471217934 68.3462
14.764869730765593 70.4696
14.787372860692983 74.3591
14.809876564079925 81.0736
14.83236330125751 88.6733
14.854868153850365 97.2473
14.877356041159485 109.161
14.899862046604186 125.149
14.922351087688757 147.873
14.944858249632887 178.274
14.967365991421232 208.229
14.989856770231246 226.644
15.012365673994204 227.234
15.03485761569738 199.535
15.05736768508665 160.40200000000002
15.07987833888692 121.99
15.102372032001655 93.1563
15.124883856909658 77.0013
15.14737872204565 70.882
15.169891721717274 68.6955
15.192405310371893 67.9264
15.214901940621196 67.1769
15.237416709527137 66.4182
15.259914520936249 66.3998
15.282430473753607 65.5231
15.304947020131227 65.0992
15.327446610371178 64.6816
15.349964346154254 64.2716
15.372465126703139 64.3347
15.394984055556009 64.3104
15.417486030076159 63.898
15.44000615566487 63.6667
15.462526881230803 63.6668
15.485030653812652 63.6403
15.507552581617434 63.2389
15.530057557334603 63.2108
15.55258069104857 63.2166
15.575104429329837 63.7241
15.597611216864632 63.4194
15.620136166564563 63.4151
15.6426441664095 63.8205
15.665170331202765 65.1016
15.687697105158826 68.4558
15.710206930593545 73.5906
15.732734925158933 79.4591
15.755245972089478 86.0398
15.77777519094324 93.8376
15.800287463046663 105.06200000000001
15.822817909869592 121.713
15.84534897229804 142.91899999999998
15.867863089299354 168.57
15.890395385222186 189.75
15.912910736597423 200.697
15.935444269699861 190.28
15.957978423016485 166.833
15.980495633101265 131.939
16.003031029129367 102.40100000000001
16.02554948280019 80.9103
16.048086125229432 69.3625
16.070623392487107 64.7661
16.09314371869582 62.9242
16.11568223789321 61.3382
16.13820381691126 59.6755
16.160743591742527 58.905
16.183283996022084 58.4029
16.205807461423195 57.3759
16.228349126881973 56.9313
16.25087385432698 56.8366
16.27341678466365 56.3233
16.29594277784926 55.9021
16.31848697676433 55.4859
16.341031811604868 55.1728
16.36355971058487 55.2111
16.3861058195587 54.8607
16.40863499352978 54.2437
16.431182380342005 53.9755
16.453730407713202 53.9606
16.476261501364792 53.6423
16.498810812136167 53.2524
16.52134319004079 53.303999999999995
16.54389378792203 53.2532
16.566445031001553 52.9765
16.588979342490088 53.0085
16.61153187824822 52.9212
16.634067483263312 52.8173
16.656621315414416 52.7463
16.679175797408888 52.5496
16.701713349928728 52.6295
16.72426913389191 52.6022
16.74680798922351 52.6915
16.76936507887444 52.6826
16.791905240734874 52.5637
16.814463639794468 52.6846
16.837022695210294 52.7293
16.859564824093756 52.92
16.882125194503903 53.0403
16.904668639217885 53.5173
16.927230328348003 53.8363
16.949792678493612 54.1742
16.972338104193863 54.176
16.994901778652235 53.7913
17.017448529496576 53.523999999999994
17.040013531998152 53.6879
17.06257920018044 53.9105
17.0851279459922 54.7569
17.107694947817667 55.9384
17.130245028099072 57.0006
17.15281336730298 58.4099
17.17536478578733 59.9722
17.19793446610687 62.0024
17.220504818648422 64.6542
17.243058251703697 67.808
17.265629950971032 72.3586
17.288184731571736 77.2363
17.310757781306908 81.5906
17.33333150794385 82.7101
17.355888317140174 82.3728
17.37846339986244 78.4084
17.401021565958885 71.5967
17.42359800851343 65.6431
17.44617513265564 61.5979
17.468735341390783 58.6251
17.491261035594565 57.3346
17.51396340099364 57.0836
17.536490463869136 57.1385
17.559018209820174 57.0193
17.58154663977963 57.2609
17.604251766089718 57.4215
17.626781572227713 57.7907
17.64931206518155 57.7591
17.671843245885103 58.1571
17.69455114821572 58.2315
17.717083712612634 58.6942
17.739616967569667 59.1762
17.762150914021706 59.8388
17.78486160749854 60.2093
17.807396945166804 60.8938
17.829932977143503 61.0922
17.85246970436452 61.598
17.875183204129467 63.3761
17.897721330097664 66.3901
17.920260154126645 69.6574
17.942799677153296 72.7798
17.9655159983646 76.6205
17.988056927677544 81.5429
18.010598558807683 88.4323
18.033140892692916 97.3914
18.05586005052525 108.932
18.07840379824407 121.09
18.10094825154059 132.85299999999998
18.12366954819864 141.817
18.146215420998306 143.2
18.16876200220057 136.72299999999998
18.191309292745153 122.791
18.214033452627167 108.103
18.236582170236648 95.2186
18.259131600016456 87.7688
18.281681742907335 85.4347
18.304408781233683 88.7049
18.32696035875955 94.2548
18.349512652227624 99.3161
18.372065662579683 104.90700000000001
18.394795594587553 107.081
18.41735004715306 104.294
18.43990521943684 97.4434
18.46246111238171 88.7081
18.485193953325208 78.9609
18.507751296070428 70.968
18.530309362314178 65.7686
18.552868153000343 62.8727
18.57560391815056 61.1045
18.59816416623245 60.5728
18.620725141597372 60.2004
18.643286845190268 59.3763
18.666025549835414 58.8173
18.688588718427933 57.9835
18.711152618092243 58.0271
18.73389353884365 57.7369
18.75645890921984 57.3846
18.77902501351406 56.9053
18.801591852673102 56.977
18.824335739722738 56.4569
18.846904057212626 56.4246
18.8694731124168 56.1787
18.89204290628315 56.2212
18.914789774966803 55.7647
18.937361054791623 55.7021
18.959933076131318 55.3712
18.982505839934877 55.3251
19.00525570560582 55.4153
19.027829963004184 55.0296
19.05040496572238 55.0281
19.072980714710468 54.9489
19.095733592739563 54.9
19.11831084296757 55.2499
19.140888842324735 55.786
19.16346759176222 56.2169
19.18622349753803 56.8466
19.208803755869358 57.9873
19.231384767143577 59.2849
19.253966532312948 60.8104
19.276725481241822 62.6848
19.29930876296784 65.4702
19.3218928014549 68.8557
19.34465404436217 71.8322
19.36723960516257 74.9249
19.389825925592426 76.0862
19.412413006605938 75.0774
19.43517731967805 72.3358
19.457765930683355 67.6543
19.48035530514408 63.3149
19.50294544401556 59.2719
19.525712842708348 56.0909
19.54830451925909 54.2467
19.570896963095727 52.9136
19.593490175174704 52.4067
19.616260674962184 52.2164
19.638855432416964 52.0447
19.661450960992624 52.3398
19.68404726164677 52.0695
19.706820878021247 51.6747
19.729418731756834 51.8954
19.752017360452857 51.5932
19.77461676506804 51.7502
19.797393513540218 51.5541
19.819994478951667 51.9271
19.84259622316767 52.5268
19.8651987471481 53.096000000000004
19.887978643247177 53.407
19.91058273574792 54.1146
19.933187610901943 54.878
19.955969879466828 56.0772
19.97857632894404 57.2546
20.00118356396599 58.808
20.023791585494575 60.7518
20.046577028914875 63.685
20.069186632506966 66.4921
20.091797025500632 69.0234
20.114408208858933 70.2849
20.137196842715273 70.3945
20.159809615886765 68.8962
20.18242318232135 66.2604
20.20503754298326 63.7633
20.227829382875154 62.071000000000005
20.250445341109344 61.4896
20.27306209647285 61.8237
20.29567964993108 63.4253
20.31847471147704 64.4334
20.34109387027612 65.422
20.363713830075454 65.0791
20.386334591841646 63.8546
20.409132890679302 61.3815
20.431755265564437 58.0312
20.454378445325528 55.0037
20.477002430930366 52.6994
20.499803982716553 51.032
20.522429589228004 49.943000000000005
20.54505600449589 49.3597
20.567683229489194 49.2234
20.590488049900088 48.9504
20.61311690359731 48.7281
20.63574656993626 48.6034
20.658553853717297 48.2774
20.681185154618298 48.2845
20.703817271080066 48.1346
20.72645020407368 47.8023
20.749260783967177 48.1072
20.771895359337133 48.0926
20.794530754161617 48.1509
20.817166969412938 47.9148
20.83998086114876 47.9063
20.86261872660049 47.5793
20.885257415405402 47.5607
20.90789692853701 47.2846
20.930714147864748 47.1075
20.953355319030678 47.2014
20.97599731745334 47.3186
20.99864014410749 47.13399999999999
21.021460706796564 47.2289
21.044105199328826 47.3331
21.06675052302631 47.6492
21.089396678865015 47.885
21.112220600704806 48.0863
21.134868430275347 48.3953
21.15751709492456 48.5861
21.180166595629693 48.9407
21.202993892429635 49.4606
21.22564507473034 49.9716
21.24829709602816 50.3914
21.27112693608965 50.5703
21.293780644891275 50.5386
21.316435195634053 49.9636
21.339090589297417 48.9848
21.361923832041875 48.5432
21.384580921090404 47.8025
21.407238856007325 47.2356
21.429897637773326 47.1712
21.45273429906592 47.2379
21.475394784108598 47.2725
21.498056118951983 47.1562
21.520718304578022 47.3039
21.543558400304388 47.3018
21.566222297108816 47.4402
21.58888704765135 47.4546
21.61155265291521 47.8177
21.63439619898156 48.4725
21.657063523335786 48.6337
21.67973170537063 49.3193
21.7024007460706 50.1236
21.72524775840385 50.5804
21.747918526116475 51.5648
21.770590155457388 52.7266
21.79326264741238 54.128
21.816113141960237 55.751999999999995
21.838787368860547 57.8449
21.861462461341976 60.2541
21.884315579735777 62.5931
21.90699241312273 64.3229
21.92967011506078 65.3989
21.95234868653799 65.0588
21.9752053151131 63.6838
21.997885635446785 61.6816
22.020566828293532 59.6134
22.04324889464272 57.5967
22.066109049404666 56.1894
22.088792872571794 55.5682
22.111477572219204 55.558
22.1341631493376 55.9208
22.157026846313123 55.9048
22.179714188221507 55.2727
22.202402410582668 54.2
22.22509151438863 52.343999999999994
22.24795876962584 50.9173
22.270649646204486 49.9696
22.293341407213727 48.9371
22.316034053646906 48.2244
22.338904883215342 47.8648
22.36159931041458 47.7877
22.38429462602756 47.7034
22.40699083104897 47.4698
22.429865251039757 47.4606
22.452563244831367 47.3156
22.47526213102522 47.4903
22.49813925616515 47.5671
22.520839937143307 47.3719
22.543541513520587 47.4939
22.56624398629403 47.3684
22.589124730075895 47.2675
22.611829005656723 47.4794
22.63453418063466 47.2918
22.657240256008077 47.6522
22.680124634582935 47.9616
22.70283252079775 48.1956
22.725541310413075 48.6426
22.74825100442868 48.7997
22.771139033969575 49.3578
22.79385054687155 49.5462
22.81656296718292 50.2031
22.83927629590484 51.0535
22.862167992606945 52.2424
22.88488314827121 53.2808
22.907599215359284 54.4105
22.93031619487366 55.7667
22.953211574954405 56.7942
22.975930389478226 57.5811
22.998650119445763 58.0426
23.02137076586092 57.2861
23.044269845560063 56.3137
23.06699233506288 54.4855
23.089715744034912 52.3558
23.112617610931565 51.0027
23.135342869061212 49.5873
23.158069049684816 48.4758
23.1807961538087 47.8585
23.20370174880544 47.672
23.226430710184808 47.4132
23.249160598093425 47.5449
23.271891413539002 47.7387
23.294800752937697 47.88
23.31753343374794 48.2107
23.340267045128353 48.4427
23.36300158808808 48.9149
23.38591468821339 49.2518
23.408651104658304 49.688
23.431388455719986 50.3062
23.454126742409 51.0165
23.4770436196085 51.9394
23.499783787914662 53.3335
23.522524894889884 54.4507
23.54526694154616 55.784
23.56818761219047 57.12
23.59093154860734 57.8424
23.613676427751283 58.32899999999999
23.636422250635754 57.8242
23.659346731118656 56.3184
23.68209445191868 54.2051
23.704843119509587 51.8076
23.72759273490623 49.6668
23.750521041644767 48.0684
23.77327256312355 46.7625
23.796025035462787 45.9595
23.818956224555475 45.2881
23.841710609113413 45.1429
23.86446594758979 44.7756
23.887222241002014 44.5368
23.910157285144578 44.2626
23.932915498962537 44.2668
23.955674670778713 44.0805
23.978434801611975 43.8387
24.001373717286125 43.6949
24.024135776723917 43.6342
24.046898798245582 43.56
24.06966278287146 43.4851
24.092605586582614 43.1732
24.115371508023642 43.1746
24.1381383956401 42.9301
24.16090625045381 42.9105
24.183852958731244 42.8556
24.206622758582608 42.718999999999994
24.229393528706886 42.5336
24.252165270127392 42.7425
24.27511589952438 42.5989
24.297889594216997 42.4676
24.32066426328598 42.3226
24.34343990775613 42.3223
24.36639447485003 42.2393
24.38917208083877 42.156000000000006
24.41195066531332 41.8717
24.43490819850244 42.0578
24.457688750692377 42.0416
24.48047028445616 42.0496
24.503252800821233 42.0119
24.526214300784112 42.0876
24.548998793132213 42.2531
24.57178427117417 41.9615
24.59457073593893 42.1776
24.617536219319863 42.0888
24.64032466834748 42.1339
24.663114107195035 42.0309
24.685904536893013 41.6651
24.708874020360852 41.6222
24.731666442613744 41.4731
24.754459858818787 41.3158
24.777254270007962 41.2173
24.80022777025625 41.1662
24.82302418230472 41.1505
24.845821592443674 41.2449
24.86862000170663 41.3067
24.891597535453727 41.1362
24.914397953892728 41.2977
24.93719937456671 41.1457
24.96000179851076 41.4342
24.98298338249997 41.5383
25.00578782394922 41.8443
25.028593271784167 41.8766
25.05157790644186 42.3443
25.07438537804115 42.5297
25.097193859145293 42.8031
25.120003350792075 43.0776
25.142992065061257 43.5471
25.165803588823465 43.6506
25.18861612625217 43.9967
25.211429678386736 44.115
25.234422489079968 44.1915
25.257238081693636 44.2978
25.280054692141732 44.5175
25.3028723214652 44.4404
25.325869245420463 44.4386
25.348688923599397 44.4947
25.371509623787006 44.4841
25.394331347025812 44.2138
25.41733240110666 43.8866
25.440156181590016 43.1676
25.46298098826268 42.4542
25.48580682216873 41.8091
25.50881202326435 41.2885
25.53163992281684 40.7478
25.55446885274561 40.3943
25.577298814096377 40.0594
25.600308179121807 39.8229
25.623140214533745 39.9709
25.64597328451537 39.9118
25.66898578564376 39.5876
25.691820936010206 39.7793
25.714657124097695 39.7864
25.737494350954734 39.6515
25.760511045684957 39.5486
25.783350361364224 39.6316
25.806190718969255 39.599000000000004
25.82903211955018 39.7532
25.852053024868923 39.747
25.874896522722523 39.8968
25.897741066713106 39.784
25.920586657892454 39.806
25.943611790812668 40.0509
25.966459487728237 40.0619
25.989308234998564 40.0577
26.01215803367705 40.4511
26.03518741123814 40.8295
26.05803932412957 40.8187
26.080892291600094 40.9127
26.10374631470478 41.1039
26.12677995397268 41.1896
26.14963609978026 41.3388
26.172493304397875 40.9516
26.19535156888223 40.6893
26.218389486949604 40.2876
26.241249882640123 39.8768
26.26411134137826 39.471
26.28715248187403 39.5463
26.31001607820869 39.3653
26.3328807407756 39.1022
26.35574647063438 39.3983
26.37879191991473 39.3805
26.401659795896734 39.4367
26.424528742360263 39.4989
26.447398760366614 39.6796
26.470448535598294 39.8941
26.49332070826805 40.0489
26.516193955675355 40.2585
26.53906827888316 40.5323
26.562122397260108 40.648
26.584998883685063 41.1184
26.607876449110325 41.4062
26.63075509460056 41.5621
26.65381357334404 41.8619
26.67669439061878 41.7541
26.699576291163382 41.7149
26.722459276044212 41.6975
26.745522132402975 41.3812
26.768407297649354 41.1343
26.791293550442003 40.84
26.814180891848974 40.5857
26.837248143099337 40.1048
26.860137673466657 40.0175
26.88302829566349 39.6625
26.90592001075963 39.6593
26.92899167420566 39.4424
26.951885586870763 39.0671
26.974780595655517 38.8045
26.99785558178161 38.7137
27.020752794605112 38.4706
27.043651106772522 38.245
27.06655051935668 38.0917
27.089629948036183 37.9595
27.112531573292053 37.9136
27.135434302194138 38.0111
27.158338135817015 37.8694
27.181422024430987 37.8319
27.204328079372566 37.7634
27.22723524226965 37.7198
27.250143514198573 37.9047
27.273231880156334 37.8781
27.296142382065014 37.696
27.319053996245536 37.5856
27.341966723775965 37.6417
27.365059584515222 37.8061
27.38797455070062 37.8919
27.410890633481237 37.6897
27.433807833936918 37.7278
27.456905206923906 37.9396
27.47982465472398 37.7862
27.502745223449743 37.9096
27.525666914182825 37.9995
27.548768816912457 38.0209
27.571692763693633 37.8779
27.59461783573812 37.8151
27.617723149491244 37.606
27.640650484125285 37.6275
27.66357894728264 37.5774
27.686508540048052 37.459
27.709618414237887 37.405
27.732550278321757 37.2291
27.755483275279115 37.2828
27.778417406196485 37.2094
27.801531858397514 37.2494
27.824468269376716 37.1544
27.847405817586786 37.2239
27.870344504116094 37.4056
27.893463551932008 37.4684
27.916404527281053 37.6705
27.93934664422563 37.8028
27.962289903855886 37.7712
27.98541356491974 38.06
28.00835912214229 38.3246
28.03130582533231 38.677
28.054253675581805 38.8714
28.077381967556104 38.7521
28.100332124185126 38.7636
28.123283431160893 38.7494
28.146235889577238 38.5541
28.169368830154156 38.4453
28.192323603752033 38.225
28.215279532083304 37.8088
28.238415973016764 37.6007
28.261374223145094 37.5358
28.284333631303806 37.1288
28.307294198589954 36.9686
28.330435319167677 36.7071
28.353398217078915 36.4156
28.376362277420153 36.0917
28.39932750129032 36.0326
28.422473319286713 35.8162
28.44544088262495 35.7012
28.468409612800283 35.5874
28.491379510913497 35.3431
28.51453004413313 35.1596
28.53750229057244 35.2152
28.56047570826344 35.2139
28.583450298308804 35.2549
28.606605564586562 35.0487
28.629582511831156 35.0039
28.65256063474956 34.8898
28.675539934446338 34.9372
28.698699951647605 34.95
28.72168161743193 34.8648
28.74466446331978 34.8337
28.767648490417624 34.7433
28.790813276438353 34.6999
28.813799678527303 34.7339
28.836787265157085 34.7435
28.859955641890075 34.8274
28.882945610203045 34.6661
28.905936766392035 34.6439
28.928929111566863 34.8007
28.952102288520145 34.6787
28.975097024308607 34.6205
28.998092952423807 34.3602
29.021090073977508 34.2947
29.04426806913204 34.2107
29.067267590245258 34.054
29.090268308143695 34.0325
29.11327022394099 33.8879
29.13645305530891 33.611999999999995
29.159457379627167 33.6705
29.18246290519685 33.72
29.20546963313352 33.658
29.22865731875826 33.6504
29.25166646419296 33.791
29.27467681535305 33.5069
29.29768837335608 33.6037
29.320880931312562 33.569
29.34389491580634 33.6863
29.366910110507334 33.6735
29.38992651653503 33.756
29.41312396492981 33.6252
29.436142806456754 33.5359
29.45916286268059 33.4397
29.48236399319994 33.3589
29.50538649169417 33.1678
29.528410208259935 33.0734
29.55143514402014 32.9739
29.574641196749695 32.845
29.597668583816574 32.715
29.6206971934585 32.4455
29.64372702680042 32.5167
29.666938019934474 32.3524
29.689970313635285 32.2717
29.713003834422636 32.3235
29.73603858342347 32.2456
29.759254535188578 32.1135
29.78229175361658 32.0776
29.80533020365064 32.2568
29.82836988641968 32.2127
29.85159081507472 32.0603
29.874632976355343 32.0058
29.89767637376955 32.1984
29.920721008448314 31.9973
29.9439469322847 31.9836
29.96699405457564 31.9051
29.9900424175358 31.9436
30.013092022298157 31.8423
30.03632295963995 31.8537
30.059375061131373 31.8495
30.08242840783577 31.896
30.105483000888153 31.8867
30.128718970092244 31.8436
30.151776069006917 31.7802
30.17483441768648 31.8386
30.198074175317235 31.7859
30.221135036724256 31.8454
30.24419715131772 31.7174
30.267260520236203 31.7143
30.290505341942243 31.7253
30.313571232750228 31.7869
30.336638381310948 31.7506
30.35970678876503 31.579
30.38295669299435 31.5103
30.40602763151657 31.5728
30.429099832366074 31.5498
30.452173296685572 31.4327
30.47542830191959 31.419
30.498504306502497 31.3428
30.521581577995562 31.5281
30.544660117543582 31.6388
30.56792024229725 31.5908
30.59100133132069 31.5695
30.614083691845494 31.6341
30.637167325018545 31.7209
30.660432587840603 31.7647
30.683518779717886 31.7014
30.70660624769615 31.7074
30.729694992924372 31.8127
30.75296541239743 31.9316
30.77605672557558 31.7951
30.799149319462742 31.6547
30.8224236211637 31.5195
30.845518789950724 31.4508
30.868615242910597 31.4278
30.891712981195973 31.2356
30.91499247215866 31.1767
30.938092794619365 31.0633
30.96119440587579 30.9598
30.984297307082752 30.9059
31.00758200598383 30.796999999999997
31.030687500658694 30.7259
31.053794288760695 30.6677
31.076902371446767 30.503
31.100192296997445 30.6067
31.12330298246119 30.594
31.14641496599209 30.3676
31.169528248749216 30.4564
31.19282341969534 30.458000000000002
31.215939314557186 30.4653
31.239056512134788 30.4878
31.262175013589378 30.3685
31.28547544871168 30.375
31.30859657161541 30.3398
31.331719001892175 30.3038
31.35484274070538 30.4212
31.378148458819545 30.3899
31.401274828443725 30.3957
31.424402510106933 30.4727
31.447712205419993 30.4708
31.470842524931633 30.3776
31.493974159989783 30.3883
31.51710711176168 30.3632
31.54042212308802 30.3463
31.563557722100917 30.3344
31.586694641341655 30.168000000000003
31.609832881979628 30.173000000000002
31.63315322823208 30.0514
31.656294125521327 29.9226
31.679436347728515 29.874000000000002
31.70257989602529 29.7657
31.725905596152327 29.7968
31.74905181052835 29.5971
31.772199354521323 29.6848
31.79534822930507 29.7211
31.818679302290967 29.7118
31.84183085259981 29.6497
31.864983737233473 29.7188
31.88813795736804 29.6694
31.911474422233013 29.5184
31.934631327356435 29.7275
31.9577895715215 29.6588
31.980949155906522 29.5513
32.004291031706956 29.5899
32.027453310562606 29.5894
32.05061693318573 29.4372
32.07396288236386 29.3905
32.09712920658542 29.2656
32.12029687812702 29.1589
32.14346589817093 29.0503
32.166817291729984 29.028000000000002
32.18998902288583 28.9903
32.21316210610336 28.8126
32.23633654256711 28.8168
32.259693399663725 28.7995
32.282870556771144 28.6462
32.30604907069099 28.7597
32.329228942610065 28.6141
32.35259128243769 28.4733
32.375773884550505 28.4622
32.398957848235646 28.3803
32.422143174682176 28.3543
32.445511016471215 28.2724
32.468699082679954 28.2573
32.49188851523011 28.1946
32.51507931531304 28.085
32.538452678331 28.1403
32.56164622776311 28.0837
32.58484114831493 28.0238
32.60803744118015 27.9453
32.631416344731896 28.0647
32.654615396551876 27.9296
32.67781582427913 27.9589
32.701198898634416 27.8432
32.72440209253756 27.7264
32.747606665947124 27.8497
32.77081262006088 27.6763
32.79420126883317 27.6635
32.81740999876112 27.7007
32.840620112999424 27.5776
32.86383161274818 27.5667
32.88722585534586 27.5344
32.91044014056596 27.6116
32.933655814909734 27.5965
32.95687287957963 27.5332
32.98027273544904 27.4279
33.00349259526636 27.4835
33.026713849030116 27.3705
33.04993649794511 27.4059
33.073341986570746 27.364
33.09656744032826 27.3403
33.11979429286444 27.3811
33.14302254538647 27.4228
33.166433686291185 27.2781
33.18966475336992 27.249000000000002
33.212897224069096 27.224
33.23613109959831 27.2049
33.259547912343415 27.1707
33.2827846121627 27.1914
33.306022720453775 27.0986
33.32926223842861 26.8623
33.352684742614166 27.0075
33.37592709463173 26.914
33.399170859982064 26.9039
33.422597648419426 26.8533
33.44584425514446 26.7218
33.46909227885668 26.6769
33.4923417207723 26.5289
33.51577423505344 26.5866
33.539026528130385 26.5097
33.56228024307245 26.4572
33.585535381098246 26.3048
33.60897364093058 26.1915
33.63223163992385 26.2547
33.6554910656699 26.1176
33.678751919389796 26.186999999999998
33.702195944520106 26.112
33.72545966903325 26.1523
33.74872482519663 26.0033
33.771991414233746 26.044
33.79544122444841 26.0276
33.81871069412428 26.0289
33.84198160035767 25.9456
33.86525394437455 25.9465
33.88870955949969 25.8854
33.911984794020626 25.8583
33.93526147001624 25.7909
33.958539588715006 25.7433
33.98200102861669 25.6455
34.0052820477047 25.6095
34.02856451319451 25.5367
34.05203033759056 25.5457
34.07531571090147 25.5385
34.09860253431845 25.4818
34.121890809074316 25.3959
34.145362493118924 25.4416
34.16865368561615 25.3519
34.191946333164054 25.3526
34.21524043699793 25.3303
34.23871800066799 25.2697
34.26201503218366 25.1787
34.28531352370466 25.2302
34.30861347646881 25.1225
34.33209693978188 25.1142
34.3553998301885 25.1474
34.378704185565205 25.0231
34.402010007152356 25.0033
34.42549939016683 24.9749
34.44880815937748 24.8939
34.472118398533134 24.8208
34.49543010887669 24.7669
34.51892543169198 24.6639
34.54224009966052 24.7289
34.56555624255917 24.7466
34.58887386163339 24.6063
34.61237514439016 24.5086
34.6356957311114 24.4971
34.65901779775809 24.5837
34.68252356662995 24.5058
34.705848608458616 24.4142
34.72917513396849 24.3734
34.75250314440949 24.3902
34.77601490857862 24.3177
34.799345904259795 24.2016
34.82267838863559 24.2495
34.846012362958525 24.2435
34.869530142679984 24.168000000000003
34.89286711232212 24.1181
34.91620557568269 24.1701
34.93954553401677 24.1287
34.9630693495876 24.0638
34.986412313340814 24.1286
35.00975677584668 24.0786
35.033102738362956 24.0042
35.05663261012228 23.9728
35.0799815881786 23.8608
35.10333207003229 23.8726
35.12668405694369 23.8416
35.150220005273056 23.7897
35.17357501786656 23.7656
35.19693153931268 23.7811
35.220289570874385 23.7759
35.24383161619786 23.7517
35.267192683604904 23.7629
35.290555264930376 23.6464
35.314101899412165 23.7321
35.33746752422433 23.6879
35.36083466676374 23.624000000000002
35.38420332829803 23.5873
35.407756095629054 23.609
35.43112781085063 23.682
35.45450104888391 23.5562
35.477875810999194 23.605
35.50143473172161 23.4843
35.52481255774625 23.5545
35.54819191167777 23.4199
35.57157279478914 23.3911
35.595137889488406 23.3589
35.61852184675279 23.3624
35.641907337029984 23.206
35.665294361595684 23.2294
35.68886565090076 23.1627
35.7122557598848 23.079
35.73564740699838 23.1185
35.759040593519934 23.063000000000002
35.78261809810353 23.0827
35.80601437933051 22.9804
35.829412203814705 22.9245
35.85281157283719 22.8839
35.876395313415884 22.9357
35.8997977874528 22.8531
35.92320180988546 22.7685
35.946790244133936 22.7213
35.97019737933222 22.7186
35.993606066789866 22.725
36.01701630779276 22.6323
36.04061101440684 22.6269
36.06402437852291 22.5875
36.08743930005611 22.646
36.1108557802951 22.5154
36.13445678011326 22.5743
36.15787639383515 22.4496
36.18129757014299 22.4202
36.20472031032821 22.4059
36.22832762423364 22.339000000000002
36.25175350829375 22.3331
36.275180960119776 22.3372
36.298609981005924 22.3229
36.32222362992669 22.3116
36.34565580510207 22.2919
36.36908955323448 22.2794
36.39252487562093 22.0757
36.416144880530226 22.1146
36.43958336764275 22.0539
36.463023432914625 22.0585
36.486465077645676 21.9577
36.51009145956204 22.0966
36.53353627947859 22.0864
36.55698268276811 22.0379
36.58043067073321 21.909000000000002
36.60406345072071 21.8732
36.62751462435344 21.8819
36.65096738658405 21.8482
36.67460498210655 21.7879
36.69806093788647 21.7502
36.72151848619297 21.7089
36.744977628333636 21.6695
36.76862165890998 21.6074
36.79208400512205 21.6311
36.81554794910557 21.6097
36.83901349217101 21.4878
36.862663978991606 21.4814
36.88613273667352 21.4292
36.90960309738324 21.4304
36.933075062434064 21.4346
36.95673202673572 21.3652
36.98020721697122 21.3469
37.003684015502365 21.2398
37.027162423645365 21.1388
37.050825886711465 21.1561
37.07430753063053 21.1265
37.09779078812467 21.0978
37.121275660513014 21.1069
37.144945643673694 21.0769
37.16843376245278 21.0334
37.19192350009803 21.0317
37.215414857931435 20.9821
37.239091382563885 20.9102
37.262585997426164 20.8977
37.28608223645736 20.8952
37.309763684451696 20.8418
37.33326318851098 20.7886
37.356764320726555 20.776999999999997
37.380267082425526 20.7979
37.40395510942588 20.7473
37.42746114683234 20.7495
37.45096881771841 20.686999999999998
37.474478123414166 20.685
37.49817275092816 20.5825
37.52168534303452 20.5825
37.54519957395567 20.4758
37.568715445024665 20.5553
37.592416694607714 20.4047
37.61593586281424 20.5081
37.63945667518264 20.505
37.66297913304891 20.3458
37.68668702630454 20.3936
37.710212792059274 20.2691
37.733740207334854 20.3083
37.757269273470364 20.1996
37.780983832050374 20.1939
37.80451621684926 20.2119
37.82805025654007 20.1589
37.851585952464795 20.1032
37.8753071980695 20.095
37.89884622345676 19.9732
37.92238690911902 19.9949
37.94611318753442 19.9594
37.969657210779765 19.9617
37.99320289834801 19.8469
38.016750251586465 19.8677
38.04048325513017 19.7964
38.06403395679343 19.7113
38.087586328183946 19.7267
38.11114037065203 19.6829
38.13488012115898 19.7042
38.1584375229181 19.6762
38.181996599821 19.5339
38.205557353221124 19.5726
38.229303872575656 19.6133
38.2528679961576 19.6156
38.27643380031219 19.5552
38.30000128639589 19.4901
38.32375459653193 19.505
38.34732546371299 19.4963
38.37089801690786 19.3685
38.39447225747609 19.3888
38.418232380377425 19.2891
38.441810012983396 19.3323
38.46538933705673 19.299
38.488970353960084 19.2665
38.51273731166058 19.2002
38.536321731567014 19.1712
38.55990784840681 19.2016
38.58367995004091 19.1437
38.60726947812959 19.0963
38.63086070726198 19.108
38.654453638806274 19.064
38.678232613930824 18.9944
38.70182896773327 18.9489
38.72542702806741 18.8876
38.7490267963045 18.8953
38.77281266709232 18.8999
38.79641586862214 18.8309
38.8200207821842 18.8223
38.843627409152944 18.7997
38.86742019782782 18.7503
38.891030269149255 18.7205
38.914642058016156 18.7986
38.938255565806124 18.67
38.96205529464307 18.6211
38.98567225787121 18.6932
39.00929094417078 18.64
39.03291135492255 18.6014
39.05671804624804 18.5475
39.080341923549106 18.4888
39.103967529460334 18.4365
39.127594865365744 18.4156
39.15140854155791 18.3788
39.17503935514948 18.3815
39.19867190290282 18.3579
39.22249083587951 18.2779
39.24612686969409 18.3169
39.269764641845306 18.3193
39.293404153722804 18.2751
39.317230110864074 18.1809
39.34087311998506 18.2039
39.36451787301696 18.1643
39.388164371352595 18.0978
39.41199737518003 18.1142
39.43564738196752 18.0631
39.45929913825317 18.0257
39.48295264543308 18.0395
39.506792718520884 17.9312
39.530449745387216 17.9292
39.55410852735203 17.9386
39.57776906581474 17.925
39.60161623079 17.8488
39.625280300200025 17.8474
39.64894613032202 17.7985
39.67261372255866 17.7843
39.6964680021016 17.7613
39.72013913657293 17.7213
39.74381203738292 17.7079
39.76748670593756 17.6939
39.79134812278169 17.6738
39.81502634488497 17.6106
39.83870633896685 17.5844
39.862388106436654 17.5277
39.88625668336918 17.4807
39.90994201572829 17.5267
39.933629125719285 17.4731
39.957503091207826 17.3878
39.9811937746168 17.3972
40.00488623990914 17.402
40.02858048850006 17.3528
40.05246165409549 17.2998
40.076159487492085 17.3142
40.099859108448875 17.2837
40.123560518384345 17.2473
40.1474489070226 17.2683
40.171153913178564 17.1848
40.194860712584955 17.1615
40.2185693066637 17.1394
40.242464941335314 17.0603
40.26617714307655 17.1128
40.289891143772046 17.0859
40.3136069448471 17.0045
40.33750984859743 16.9477
40.3612292688043 16.9625
40.3849504936829 16.9878
40.40867352466194 16.9537
40.43258372059144 16.8737
40.45631038219906 16.8494
40.48003885420956 16.8399
40.503769138055105 16.8563
40.52768664931955 16.8166
40.55142057531802 16.8291
40.57515631746428 16.7551
40.599079334038514 16.7026
40.62281872700477 16.6757
40.64655994043941 16.6635
40.67030297578061 16.6344
40.69423334835778 16.5525
40.71798004609188 16.5525
40.74172857006355 16.585
40.76547892171441 16.5476
40.7894166736039 16.5548
40.813170699248566 16.4922
40.83692655691388 16.4693
40.86068424804498 16.4595
40.884629402612525 16.3837
40.908390779366385 16.4234
40.932153993938 16.2953
40.95591904777605 16.3497
40.979871628443995 16.2993
41.003640379561936 16.2545
41.02741097430883 16.2293
41.05118341413683 16.2394
41.075143444384416 16.2321
41.098919593177826 16.1605
41.1226975914255 16.1421
41.14647744058318 16.1282
41.170444943946755 16.0798
41.19422851378379 16.0861
41.218013938914645 16.0249
41.24198706625173 15.9747
41.26577622087193 16.0379
41.289567235177785 15.9524
41.31336011063129 15.9361
41.337340752422875 15.9174
41.361137369129835 15.8838
41.38493585138705 15.8135
41.40873620066004 15.8034
41.43272438060107 15.7799
41.45652848292052 15.6919
41.48033445666918 15.7305
41.50414230331616 15.7052
41.528138045159764 15.7184
41.551949656675205 15.6386
41.575763145513235 15.6132
41.59957851314666 15.567
41.62358184070442 15.537
41.64740098505737 15.5657
41.6712220126409 15.5495
41.69504492493139 15.4768
41.71905586207357 15.4819
41.74288256296395 15.423
41.766711153007456 15.3771
41.79054163368412 15.3845
41.814560204340054 15.4221
41.838394485526365 15.3409
41.86223066180303 15.331
41.88625497706819 15.3713
41.910094962812 15.3299
41.93393684811168 15.2462
41.95778063445365 15.2541
41.981812625263366 15.2025
42.00566023303407 15.1839
42.029509746323676 15.0984
42.05336116662236 15.094000000000001
42.077400857069705 15.130999999999998
42.10125611078846 15.1063
42.12511327600405 15.1006
42.14897235421036 15.0177
42.173019768448455 14.9892
42.19688269209613 14.9541
42.22074753323349 14.9363
42.24461429335818 14.8954
42.268669455600495 14.8935
42.292540073217886 14.8518
42.31641261433284 14.8619
42.34028708044675 14.8338
42.36435001496739 14.8404
42.38822835065557 14.8071
42.41210861586426 14.7459
42.4359908120986 14.764000000000001
42.46006154323262 14.6576
42.48394762115317 14.6188
42.507835634632315 14.6422
42.531912233047436 14.6165
42.55580413732265 14.5619
42.579697981698 14.527000000000001
42.60359376768525 14.5543
42.62767820545945 14.538
42.65157789440821 14.4811
42.67547952952185 14.4605
42.699383112316 14.4409
42.72347541395347 14.382
42.74738291190531 14.3624
42.771292362102166 14.3691
42.795203766063516 14.3481
42.819303956130405 14.3693
42.843219287476536 14.2958
42.86713657716324 14.3583
42.89105582671383 14.2945
42.91516392983864 14.2093
42.939087119032166 14.1836
42.963012272677304 14.1737
42.98693939230129 14.1686
43.01105543317513 14.1128
43.034986504731386 14.1006
43.05891954686589 14.0436
43.08285456110972 14.0134
43.10697856448665 14.017999999999999
43.130917542983475 13.972000000000001
43.15485849820081 13.9669
43.17880143167367 13.9601
43.20293342237094 13.9351
43.226880332449 13.9132
43.25082922540554 13.9301
43.27496722682525 13.857000000000001
43.29892010567796 13.8449
43.32287497204102 13.8256
43.34683182745632 13.7571
43.370977859791836 13.7511
43.39493871351105 13.6955
43.41890156092628 13.7761
43.44286640358341 13.706
43.46702049182749 13.6888
43.49098934522816 13.6648
43.51496019852649 13.644
43.5389330532723 13.7011
43.56309522248204 13.632
43.58707210044314 13.6164
43.61105098451946 13.5037
43.63503187626491 13.4894
43.659202151562134 13.4885
43.68318707902681 13.4695
43.70717401884041 13.4127
43.731162972560874 13.3714
43.75534137913236 13.357000000000001
43.779334381108384 13.3462
43.803329401683186 13.3073
43.82732644241872 13.3456
43.8515130055166 13.312000000000001
43.87551410707659 13.2569
43.89951723350145 13.2853
43.923709934595614 13.2168
43.94771713129917 13.2567
43.97172635758096 13.2056
43.99573761501002 13.1512
44.0199385169922 13.1368
44.04395385732619 13.1065
44.067971233533086 13.1008
44.09199064718605 13.0713
44.11619977548961 13.0745
44.14022328470671 13.0654
44.16424883610785 13.044
44.18827643127035 13.0081
44.21249381139513 12.9791
44.236525514814076 12.8927
44.26055926674478 12.8841
44.28459506876863 12.8842
44.3088207262813 12.865
44.33286064928722 12.8436
44.35690262714919 12.8204
44.38094666145278 12.7757
44.4051806219871 12.8203
44.42922879003185 12.7107
44.45327901929361 12.7326
44.477331311362136 12.7277
44.501573600619416 12.6501
44.525630039221795 12.6546
44.54968854541895 12.6667
44.573937102200176 12.6501
44.5979997645541 12.6299
44.622064499300315 12.5994
44.64613130803592 12.5845
44.67038823869318 12.5696
44.69445921643748 12.5222
44.718532272981385 12.4552
44.742607409926194 12.4728
44.76687274034801 12.454
44.79095205918753 12.3672
44.81503346325094 12.399000000000001
44.839116954143876 12.3435
44.86339071028742 12.3803
44.88747839599524 12.3462
44.91156817336837 12.2773
44.93566004401666 12.2979
44.959942251908146 12.2919
44.984038330325966 12.2318
45.00813650686762 12.1985
45.03223678314731 12.1695
45.05652746888232 12.1791
45.08063196592069 12.1682
45.104738567558705 12.1159
45.128847275414856 12.1216
45.15314646515866 12.0686
45.17725940679741 12.079
45.20137445952892 12.0596
45.22568004865265 12.0413
45.24979934496396 12.0059
45.27392075725247 11.9988
45.29804428714431 11.9618
45.322358426247604 11.9455
45.346486212804315 11.9132
45.370616121861914 11.898
45.39474815505086 11.8839
45.41907087049246 11.8538
45.4432071734666 11.8369
45.46734560548283 11.8434
45.49148616817604 11.804
45.51581748638564 11.7678
45.5399623320197 11.7315
45.56410931325473 11.6976
45.58825843173002 11.7255
45.61259837920865 11.7177
45.636751793816 11.6613
45.66090735060093 11.6115
45.68506505120716 11.6316
45.7094136545275 11.6199
45.73357566449271 11.5667
45.75773982322992 11.573
45.78190613238733 11.5269
45.806263418194064 11.5182
45.83043404997326 11.4614
45.85460683713677 11.4949
45.87897065658495 11.4955
45.90314777634752 11.4822
45.92732705646868 11.414000000000001
45.9515084986045 11.3812
45.97588104735473 11.4077
46.00006683541565 11.3659
46.02425479047904 11.3542
46.04844491420549 11.3338
46.0728262191024 11.3224
46.09702070211635 11.2894
46.12121735879483 11.2623
46.14541619080294 11.2717
46.169806278764455 11.1988
46.194009483459034 11.1877
46.21821486849841 11.1958
46.24242243555223 11.1833
46.266821333570014 11.1413
46.29103328674601 11.1405
46.31524742696538 11.1498
46.33946375590237 11.0873
46.36387149104216 11.0501
46.38809221957392 11.064
46.41231514186606 11.0386
46.436540259597464 11.0238
46.460956858999374 10.9795
46.48518638983522 10.9249
46.509418121166966 10.8862
46.533652054678114 10.8675
46.55807754555709 10.902999999999999
46.58231590571962 10.8812
46.60655647313217 10.8535
46.630988654873654 10.8583
46.655233659129024 10.809000000000001
46.67948087571551 10.837
46.70373030632484 10.777000000000001
46.72817142736393 10.7812
46.752425308428684 10.7771
46.77668140861147 10.7221
46.80093972960865 10.6758
46.82538981736788 10.7032
46.849652602470904 10.6961
46.87391761349769 10.6663
46.8981848521493 10.6019
46.9226439341274 10.5698
46.946915650573224 10.5632
46.97118959976749 10.5791
46.99546578341598 10.5105
47.019933887188216 10.5368
47.04421456235744 10.5288
47.06849747711879 10.5031
47.09278263318286 10.4742
47.11725978640143 10.4544
47.14154944775105 10.4147
47.165841355555656 10.4154
47.1901355115306 10.3541
47.214621741924994 10.3744
47.23892041698887 10.3833
47.26322134538975 10.2999
47.28771440635075 10.2952
47.31201986422527 10.2928
47.33632758061436 10.294
47.360637557241866 10.2358
47.38513974410611 10.2577
47.40945426407847 10.2453
47.43377104948137 10.2369
47.45809010204344 10.1904
47.48260144275502 10.1497
47.506925052572285 10.1255
47.53125093475548 10.0933
47.55557909103813 10.1513
47.58009961361992 10.0664
47.60443234110732 10.0964
47.62876734791564 10.0624
47.65310463578333 10.0478
47.6776343683373 9.98865
47.7019762413987 9.94238
47.72632040075572 9.96659
47.75066684815169 9.96222
47.77520581885936 9.894639999999999
47.799556865477655 9.89077
47.823910205386 9.91377
47.84826584033272 9.9001
47.87281407745551 9.86969
47.89717432569297 9.86461
47.92153687423484 9.8591
47.94609208429692 9.824810000000001
47.97045925671401 9.79942
47.99482873471275 9.73682
48.01920052005013 9.75574
48.04376504619224 9.73597
48.068141469543484 9.73198
48.09252020552573 9.72305
48.11690125590099 9.69935
48.1414751266064 9.68496
48.16586082917454 9.64855
48.19024885144316 9.637830000000001
48.2146391951793 9.59285
48.239222439012764 9.61763
48.26361744916137 9.59672
48.28801478610016 9.5843
48.31241445160131 9.58734
48.337007097209366 9.54919
48.36141144338331 9.51384
48.38581812345755 9.49569
48.41022713920929 9.49511
48.434829215320704 9.46632
48.45924292604658 9.43555
48.48365897780325 9.464160000000001
48.50807737237308 9.42842
48.532688907799276 9.39955
48.55711201168574 9.37815
48.581537463754074 9.37848
48.60615611725119 9.34682
48.63058628942721 9.33085
48.65501881516546 9.322460000000001
48.6794536962573 9.302760000000001
48.70408185970339 9.30022
48.72852147531801 9.29168
48.75296345168211 9.22038
48.77740779059232 9.201789999999999
48.80204549302823 9.21069
48.82649458091802 9.19305
48.85094603676547 9.174439999999999
48.87539986237231 9.13256
48.90004713292306 9.12115
48.92450572200832 9.12181
48.94896668628025 9.11788
48.97343002754588 9.090710000000001
48.99808689542115 9.060080000000001
49.02255501470614 9.06652
49.04702551642794 9.04958
49.0714984023988 9.0631
49.096164896893235 9.0045
49.120642575466796 9.00988
49.145122643748394 8.96722
49.16960510355558 8.95675
49.19428125404938 8.938080000000001
49.2187685210852 8.95508
49.243258185121555 8.941139999999999
49.26794160167084 8.89072
49.2924360839405 8.85352
49.31693296869764 8.847389999999999
49.34143225776915 8.823269999999999
49.36612538195438 8.82842
49.39062950396021 8.801
49.41513603578346 8.77034
49.4396449792564 8.748339999999999
49.46434784069503 8.76325
49.488861631846454 8.7472
49.513377840166804 8.72535
49.537896467493745 8.66647
49.56260909589029 8.68385
49.587132585683285 8.675189999999999
49.611658500018365 8.64147
49.636186840738596 8.585410000000001
49.66090926588511 8.612739999999999
49.685442483902584 8.58179
49.70997813385706 8.53373
49.734516217597076 8.573939999999999
49.75924846937352 8.53916
49.7837914452858 8.53812
49.80833686055187 8.49243
49.83288471702571 8.501330000000001
49.85762682540054 8.489139999999999
49.882179588965734 8.46085
49.9067347993235 8.448089999999999
49.93129245833333 8.44945
49.95604445336378 8.41
49.98060703442832 8.42356
50.005172069746266 8.4315
50.02993150438364 8.43213
50.05450147301533 8.35324
50.07907390151433 8.33036
50.10364879174981 8.30655
50.12841816587289 8.27485
50.1529980044635 8.25515
50.17758031042124 8.26596
50.20216508562089 8.23103
50.22694442953363 8.23208
50.25153416817468 8.21411
50.27612638170508 8.19487
50.300721072005196 8.1561
50.325510416102105 8.159239999999999
50.350110084975064 8.11962
50.37471223628208 8.15405
50.39931687190919 8.10623
50.424116246675766 8.10667
50.44872587605249 8.09929
50.47333799543065 8.07974
50.49795260670191 8.02132
50.52276204271512 8.02936
50.54738166295838 8.00725
50.57200378079314 8.039489999999999
50.596628398116835 8.005239999999999
50.62144792604559 8.02807
50.646077567609396 7.9895
50.670709714377715 7.98159
50.69553683636198 7.96334
50.72017401885922 7.95218
50.7448137122895 7.92115
50.76945591856022 7.90715
50.79429318636823 7.90848
50.818940443716784 7.89146
50.84359021965163 7.875310000000001
50.868242516085964 7.83374
50.893089960641895 7.826980000000001
50.917747323549435 7.783589999999999
50.94240721271973 7.7732600000000005
50.96706963007175 7.74442
50.99192728239342 7.768660000000001
51.01659478166073 7.74603
51.04126481489051 7.7704
51.06593738400761 7.74015
51.090805275207074 7.6750300000000005
51.11548294172845 7.6799100000000005
51.14016314993547 7.68808
51.164845901758845 7.665830000000001
51.18972406304274 7.630960000000001
51.21441192780656 7.60842
51.23910234200271 7.618130000000001
51.2637953075678 7.60135
51.288683770237945 7.560230000000001
51.31338186432707 7.53927
51.33808251561888 7.540430000000001
51.362978729967345 7.556589999999999
51.387684521509755 7.52693
51.41239287610203 7.494610000000001
51.437103795691165 7.445710000000001
51.46201036644977 7.46685
51.486726441956634 7.441730000000001
51.51144508832545 7.465380000000001
51.536166307509156 7.40675
51.56108326624387 7.41051
51.58580965706056 7.39082
51.61053862657523 7.39964
51.635270176746864 7.34969
51.66019755512065 7.364380000000001
51.68493429268881 7.327039999999999
51.70967361681515 7.3294
51.73441552946465 7.293080000000001
51.759353359237934 7.26848
51.7841004750961 7.302910000000001
51.80885018539685 7.253419999999999
51.833602492111254 7.2507600000000005
51.8585508051424 7.23442
51.883308330926425 7.236510000000001
51.90806845906181 7.20103
51.932831191525715 7.1903
51.95779001977161 7.157369999999999
51.98255798721516 7.1165199999999995
52.00732856494335 7.1112899999999994
52.03229530577543 7.11145
52.057071130455945 7.10412
52.081849571391054 7.11535
52.106630630568695 7.080260000000001
52.13160794279417 7.0193
52.15639426492067 7.04155
52.18118321127822 7.0164
52.205974783860896 7.02725
52.23096269971011 7.02004
52.255759551287994 6.98175
52.280559035098186 7.01912
52.30536115314103 6.95443
52.33035970494467 6.93642
52.35516711807904 6.931760000000001
52.37997717147198 6.907430000000001
52.40478986713005 6.92621
52.42979908731974 6.88081
52.454617094216 6.86892
52.47943774942214 6.85425
52.50426105495102 6.849880000000001
52.529280976059844 6.85233
52.554109609024096 6.816739999999999
52.57894089837482 6.83465
52.60377484613117 6.772810000000001
52.62880550079408 6.7561
52.65364479223379 6.73198
52.67848674816189 6.73727
52.70352547971946 6.755439999999999
52.72837279155837 6.726189999999999
52.753222773982785 6.6458699999999995
52.778075429022984 6.683889999999999
52.80312495150885 6.680219999999999
52.827982978797436 6.655
52.85284368481815 6.658919999999999
52.87770707160767 6.6230899999999995
52.90276741793998 6.580830000000001
52.92763619336701 6.597060000000001
52.952507655698504 6.595439999999999
52.977381806977576 6.57671
53.00245301017842 6.580439999999999
53.02733256653592 6.55014
53.052214817996074 6.574489999999999
53.077099766608484 6.52666
53.102181859804446 6.4796
53.127072229988265 6.53198
53.15196530349892 6.4720699999999995
53.17686108239249 6.47299
53.20195409881522 6.487480000000001
53.22685531582556 6.44074
53.25175924441303 6.42734
53.27666588664027 6.422999999999999
53.30176985962693 6.36144
53.3266819565689 6.36135
53.35159677336455 6.40827
53.376514312083096 6.35749
53.40162927507703 6.37257
53.42655228516116 6.32932
53.45147802340193 6.30561
53.47660125628886 6.30347
53.50153247842639 6.2772
53.52646643496923 6.24185
53.55140312799818 6.2829
53.576537409691696 6.2739400000000005
53.60147960336152 6.2484
53.626424539786164 6.20834
53.65137222105307 6.22085
53.67651758529126 6.18599
53.70147078399681 6.1927
53.72642673383343 6.15246
53.75138543689533 6.1682
53.776541917524526 6.1176
53.801506154876755 6.13446
53.826473151763246 6.07592
53.851442910284916 6.09975
53.87661054126026 6.07653
53.9015858509782 6.0709599999999995
53.92656392866066 6.09271
53.95154477641532 6.07145
53.976723591801296 6.00244
54.00171000771266 6.03102
54.02669920004598 5.982819999999999
54.051691170915745 6.00101
54.076881204886796 5.993119999999999
54.101878760928514 5.992369999999999
54.12687910187696 5.9665
54.152077577768296 5.93307
54.1770835166946 5.91897
54.20209224691339 5.90011
54.22710377055121 5.8716800000000005
54.25231352511594 5.90158
54.27733066384342 5.8338
54.30235060239643 5.88044
54.32737334290836 5.86092
54.35259441062629 5.80704
54.377622783395324 5.79788
54.40265396455061 5.78184
54.42768795623251 5.80236
54.45292037169559 5.7809099999999995
54.477960012857906 5.7397800000000005
54.50300247099511 5.71471
54.52804774825457 5.69958
54.55329154616743 5.64826
54.57834249018678 5.676159999999999
54.6033962597977 5.62863
54.6284528571545 5.63701
54.653708072335164 5.60026
54.67877035378786 5.59368
54.70383546947698 5.578130000000001
54.72890342156389 5.60095
54.7541700889442 5.5391
54.77924374251975 5.48325
54.8043202390049 5.5267800000000005
54.82959552413022 5.4684
54.8546777351945 5.460430000000001
54.87976279569621 5.4357
54.90485070780914 5.4584
54.930137506558005 5.43128
54.95523115074295 5.37999
54.98032765308844 5.31797
55.005427015775496 5.34238
55.03072536339621 5.34738
55.05583047570572 5.29356
55.080938454927676 5.25456
55.10604930325027 5.26259
55.131359235107396 5.24159
55.15647585066083 5.21465
55.181595341907496 5.19642
55.20671771104285 5.16366
55.232039262617704 5.14987
55.25716741665048 5.11649
55.28229845518636 5.12372
55.30743238042802 5.07848
55.33276558731939 5.07068
55.357905315183636 5.07978
55.383047936390035 5.021380000000001
55.40819345314859 4.97319
55.433538351073295 5.00431
55.458689688238415 5.01349
55.483843927614096 4.926069999999999
55.509197623043605 4.9045
55.53435769621134 4.91846
55.55952067826466 4.89077
55.5846865714265 4.83829
55.61005202069737 4.81111
55.63522376553902 4.81957
55.66039842818645 4.82132
55.68557601087004 4.82062
55.7109532500271 4.71663
55.73613670233794 4.77581
