TT I
1.2716486653135266 7.99833
1.2939594142134223 7.5294300000000005
1.3162702121660406 6.82662
1.3385810600174564 7.31427
1.3608919586137629 6.8563600000000005
1.383202908801069 7.01885
1.405513911425503 6.40281
1.4278249673332093 6.18119
1.4501343378461518 6.7201
1.4724455028545926 6.885510000000001
1.4947567236847858 6.22818
1.517068001182951 6.4244
1.5393793361953272 5.84502
1.5616907295681737 6.23196
1.5840021821477681 5.9518
1.60631369478041 5.68502
1.6286252683124185 6.116680000000001
1.6509369035901333 5.34889
1.6732468618895553 5.73474
1.695558623192809 5.94899
1.7178704487808514 5.52018
1.7401823395001077 5.66648
1.7625012545597203 5.36107
1.7848028405262486 5.6879
1.8071218901122095 5.34203
1.8294236121921872 4.83092
1.8517427996910911 4.599530000000001
1.8740620574440425 4.54684
1.8963639900671978 5.23979
1.9186833908139995 5.4871099999999995
1.9409854680117449 5.01759
1.9633050151394713 5.22583
1.9856246367570705 4.57955
2.0079269371922672 4.431719999999999
2.03024671027244 4.4907900000000005
2.0525491637446027 5.0757900000000005
2.074869091674931 5.02212
2.097171701569106 5.081
2.1194917877373847 5.39471
2.141811954326636 5.003419999999999
2.164114805233074 4.65499
2.186435135143035 4.8763
2.208738150935709 4.88251
2.231058647554722 4.35152
2.2533792288321184 4.1283900000000004
2.275682498336085 4.5742199999999995
2.298003251406138 4.250319999999999
2.3203066942619714 5.07786
2.3426276225136022 4.03021
2.3649486396617507 4.0365
2.387252348930071 4.16487
2.4095735463442893 4.07859
2.4318774374315884 4.7992
2.4541988185014043 4.14909
2.476502894794693 4.66032
2.498824462909887 3.99035
2.521146125856138 4.06728
2.5434504863470337 4.1046
2.5657723414244717 4.21932
2.588076895590662 5.01361
2.610398946189713 5.15484
2.6327210958598384 4.9551099999999995
2.6550259469304716 4.9219
2.6773482972090137 5.859319999999999
2.6996533504259 5.61639
2.7219759047039602 5.98272
2.744298562293959 5.88857
2.7666039251246595 5.4585
2.7889267918020164 5.83153
2.8112323652516555 6.4296
2.833555444408179 6.91895
2.8558786311183852 7.14128
2.8781845268938557 7.88386
2.9005079311721484 8.41618
2.9228140460410397 8.53
2.9451376712799635 9.024939999999999
2.967444008632326 9.56049
2.9897678582247247 10.1396
3.0120918213106695 10.2068
3.0343984987899373 10.1726
3.0567226913198637 10.8296
3.079029599759726 11.8186
3.101354025127254 12.0617
3.123678568232338 12.3776
3.145985829517914 13.242
3.16831061055229 13.2081
3.1906181112775593 13.7751
3.212943133635653 14.3405
3.2352682779763207 14.8486
3.2575761442691227 14.9906
3.2799015350264273 15.6377
3.302209649240067 16.324
3.3245352898092655 16.7986
3.3468436553365257 17.5688
3.369169549113219 17.7246
3.3914955708171384 18.3673
3.413804319727358 18.6453
3.4361305997334863 18.7278
3.4584396084414553 19.1694
3.4807661501462652 20.1145
3.503092824025881 20.5588
3.5254022288463154 20.6086
3.5477291695206588 21.0484
3.5700388426251948 20.8989
3.5923660534916446 21.7106
3.6146934007816114 22.1329
3.637003482731501 22.1845
3.6593311053109985 23.3125
3.681641464033634 23.4757
3.7039693653009733 23.6283
3.726297407241705 23.6986
3.7486081875460804 24.4761
3.7709365132734978 25.0202
3.793247578841633 25.0117
3.8155761917550093 25.6395
3.8378875459837216 25.8933
3.8602164494827234 26.2187
3.882545499606844 26.9674
3.9048572932539183 27.7572
3.9271866390645718 28.2326
3.9494987298666713 28.6393
3.971828374764527 28.5401
3.9941581705403255 29.493000000000002
4.016470713506008 30.0745
4.038800813471445 30.5082
4.061113662089144 30.5705
4.0834440696459176 31.6715
4.105774632334751 31.7149
4.128087945865126 32.3135
4.150418821249301 33.1725
4.172732448931298 33.7612
4.195063640413578 34.1488
4.2173775856475215 35.4051
4.239709096631102 35.766
4.262040768704612 36.2303
4.284355196706267 37.0924
4.306687193387355 37.3133
4.329001947444346 38.8404
4.35133427213731 39.6577
4.373666762177566 40.2805
4.395982011761091 40.9218
4.418314834921175 41.9351
4.44063041906622 42.5522
4.4629635787515625 43.5745
4.4852969080429785 44.8912
4.5076130004776225 46.0751
4.529946671403969 47.038999999999994
4.552263106909177 47.6083
4.574597122877047 48.9338
4.596931312711224 50.1739
4.619248269273446 51.225
4.6415828092605835 52.3609
4.663900117405352 53.6188
4.686235010953232 55.2508
4.708552674085913 56.2095
4.730887924602802 57.5083
4.753223354952695 59.5277
4.775541557023902 60.8978
4.797877349456786 62.381
4.820195915032126 64.34899999999999
4.842532072957498 65.6126
4.864868414979744 68.0417
4.88718753227192 70.0376
4.909524244902505 72.3314
4.931843734218147 74.6497
4.954180820867835 78.2201
4.976518095879839 82.4609
4.998838149695359 85.6669
5.021175803844231 90.3871
5.043496238205739 94.6897
5.065834274903528 101.507
5.088172504230693 108.294
5.1104935158799565 116.99600000000001
5.132832132875765 131.836
5.155153533596801 155.626
5.1774925416746225 211.167
5.199814334878411 558.133
5.2221537374521505 1958.1
5.244493338631803 3761.4
5.266815727034316 5306.17
5.289155727832427 8166.23
5.311478517248165 9597.02
5.333818921080011 6351.64
5.356159527788849 2025.76
5.3784829252032536 472.629
5.400823940070432 217.44400000000002
5.423147747031976 165.05700000000002
5.445489173474152 140.816
5.467830807066149 127.685
5.490155234831516 120.01299999999999
5.512497285125229 113.914
5.534822130975162 110.52600000000001
5.557164601388673 107.40799999999999
5.579489868738879 103.525
5.601832762690846 101.946
5.6241758697774475 100.01299999999999
5.646501775867269 98.90299999999999
5.668845311622074 97.8916
5.691171647754637 97.0583
5.713515615597765 95.8364
5.735859800852677 94.7272
5.758186788542988 94.5631
5.780531411018185 95.1817
5.802858837297399 94.396
5.825203900414495 95.4861
5.8475491852224 96.647
5.869877275883075 98.4485
5.892223006467101 101.272
5.914551544266608 105.46600000000001
5.936897724049891 112.116
5.959244129804903 124.28200000000001
5.981573344815301 155.959
6.0039202049061 290.327
6.026249875609095 756.2460000000001
6.04859719346037 1379.53
6.070927323278297 1899.24
6.093275102315365 2663.43
6.115623113320588 3721.09
6.137953938319995 4050.65
6.160302415650845 2291.07
6.182633708324452 734.053
6.2049826554078376 226.49599999999998
6.227331838745022 124.24799999999999
6.249663839443684 100.396
6.27201349767565 89.2935
6.294345974611799 83.0458
6.316696111167083 78.1554
6.339046488263839 75.2743
6.361379686074702 71.9384
6.383730546639482 70.1971
6.406064229255215 68.3725
6.428415576718203 67.8243
6.450749747566656 66.2414
6.47310158535871 64.5447
6.495453669698332 63.9703
6.517788579421056 62.9175
6.540141159237969 62.1938
6.562476565766648 61.0503
6.5848296444934045 60.5264
6.607182974060425 60.128
6.6295191323281015 59.5468
6.651872965955752 58.7629
6.6742096296068985 58.0065
6.6965639707294615 57.9099
6.71891856698715 56.9068
6.741255995248479 56.673
6.763611104154477 56.5823
6.785949046381137 55.9195
6.808304671371482 55.1433
6.8306605557940046 55.1328
6.852999275508618 54.619
6.875355681171544 54.4779
6.897694923437771 54.5184
6.92005185377892 53.9456
6.9423916220322655 53.88399999999999
6.964749080490181 53.3111
6.987106804399774 53.0854
7.009447368180821 53.2607
7.031805625367033 52.5483
7.054146723727803 52.6692
7.076505517631004 52.4353
7.098864581288365 52.4271
7.121206488070854 52.4263
7.143566093607822 51.854
7.165908543567245 51.8859
7.188268694426048 52.2398
7.2106291193438095 51.903999999999996
7.232972390625943 51.832
7.255333366030969 51.6001
7.277677189091925 51.7089
7.300038718428332 51.8563
7.322400526130865 51.7775
7.344745183422596 52.086000000000006
7.367107550224791 51.8662
7.389452767901992 52.2147
7.411815697249891 51.9689
7.434161478756298 51.7657
7.456524974096713 51.7496
7.478888753837185 51.6026
7.501235387657368 52.8117
7.523599738562711 55.8809
7.545946944825532 61.9753
7.568311870344528 63.8688
7.5906770845765665 59.8473
7.613025156078678 55.4634
7.635390950099687 53.9146
7.657739602662809 53.2813
7.680105979923558 52.8683
7.702472650212829 53.8475
7.724822180948224 53.5155
7.747189439655568 53.8357
7.769539560075357 54.0971
7.791907410653562 54.6476
7.81425812420825 54.596000000000004
7.836626570110925 54.5961
7.858995315087906 55.8356
7.881346924933401 55.7242
7.903716270417482 56.6465
7.926068482028405 56.7034
7.948438431475253 57.2311
7.9708086843180235 57.8955
7.993161805171116 58.7855
8.015532667162402 59.1209
8.037886398416653 60.0727
8.060257873014221 60.1224
8.082629655331942 60.7991
8.104984308787587 61.5153
8.127356708900503 62.3085
8.149711981398308 63.5874
8.172085002766314 64.1087
8.194458336181368 64.9589
8.216814543847752 66.3387
8.23918850371002 67.3557
8.26154533906492 68.5321
8.283919928836452 70.3352
8.306277395339652 71.458
8.328652618483376 73.1965
8.351028159736202 75.5465
8.373386579575245 77.9065
8.395762759396959 80.1775
8.418121819038275 83.4878
8.440498640894003 87.6714
8.462875785192262 95.065
8.485235811156207 110.314
8.507613602688501 172.435
8.529974277114228 367.98900000000003
8.552352719347912 604.307
8.574731488360351 771.29
8.59709314210385 868.328
8.619472567021075 1071.27
8.64183487789147 1443.19
8.664214962183097 1819.44
8.686577933647762 1644.87
8.708958680784317 985.1089999999999
8.731339760774953 420.037
8.753703729764451 177.625
8.77608547780821 117.186
8.798450116065078 103.693
8.820832535634787 97.0199
8.843215292401656 93.3664
8.865580941199045 90.9475
8.887964374703538 88.6091
8.910330701447199 87.2256
8.932714815164482 86.3526
8.955099270424924 84.7815
8.977466620733543 83.6194
8.999851761421976 83.3607
9.022219798361645 83.035
9.04460562795561 82.6141
9.066991803441677 81.9901
9.089360876979615 81.8528
9.111747746589993 81.6007
9.13411751544971 80.7672
9.156505082664324 80.6201
9.178875550323522 81.0807
9.20126381862328 82.074
9.223652438908596 86.9843
9.246023961427412 96.3815
9.26841328802173 98.4875
9.290785518039224 92.9365
9.313175554425882 86.9288
9.335565947154315 82.6781
9.357939245086508 82.212
9.380330352834827 81.8176
9.40270436697103 81.4394
9.425096193225055 81.1569
9.447488380180165 82.33
9.469863475295412 82.979
9.492256385987508 82.9766
9.514632206018318 83.5595
9.537025843935714 84.1239
9.559402392368193 84.6568
9.581796761000229 85.648
9.604191496441521 85.5522
9.626569144158516 86.5179
9.648964615551032 87.2344
9.671343000390081 87.9796
9.693739211225699 89.2513
9.716135793237463 90.4368
9.738515290448102 91.4488
9.760912617143402 92.5319
9.783292860202891 93.5772
9.805690935076182 95.3382
9.828089385495742 96.3098
9.850470754023561 98.7336
9.872869957865444 100.64399999999999
9.89525208097539 103.56299999999999
9.917652041736662 107.53200000000001
9.940052382417589 113.434
9.962435644102392 130.30700000000002
9.984836746950979 185.21099999999998
10.007220771957746 341.853
10.029622640473708 546.923
10.052007432299963 678.342
10.074410069984072 727.638
10.096813093716005 806.0110000000001
10.119199042482517 999.308
10.141602840636468 1343.63
10.163989564971628 1636.3
10.186394141051062 1550.09
10.208799107559706 1014.04
10.231187001965623 492.36
10.253592751657669 222.582
10.275981430388155 136.092
10.298387966769793 116.46600000000001
10.320794897965431 111.135
10.343184759907361 107.60600000000001
10.36559248305461 105.008
10.387983138083852 104.18299999999999
10.410391656691655 106.15100000000001
10.432800574501677 120.95299999999999
10.455192425893369 163.91299999999998
10.47760214443012 215.378
10.499994797678786 248.33700000000002
10.522405320453982 259.22
10.54479877906917 277.759
10.567210109595656 324.217
10.5896218454736 399.49
10.612016518879773 486.18199999999996
10.634429067781074 490.32599999999996
10.656824555333241 388.20099999999996
10.679237920773568 234.512
10.701651695961992 136.799
10.724048411481384 101.431
10.746463008485165 90.516
10.768860546937125 86.2772
10.791275969274796 83.46700000000001
10.81369180576079 81.7345
10.836090585366925 80.4541
10.858507252467449 78.8974
10.88090686379991 77.5488
10.903324365036394 76.7219
10.925724811614439 75.312
10.948143150509463 75.0158
10.970561909719066 74.0765
10.992963615930844 73.3905
11.015383218085756 72.2802
11.037785768347074 71.4715
11.06020621697282 70.8019
11.082627090322113 70.4279
11.105030913430326 69.804
11.12745263854165 69.1215
11.149857314510728 68.4533
11.172279894912576 68.3488
11.194702904450653 67.421
11.217108866490921 66.5915
11.239532736615194 66.4477
11.26193956033512 65.9482
11.284364294577085 65.6935
11.306789462371718 65.1949
11.329197585398376 64.7875
11.351623622610898 64.8741
11.37403261614354 63.9901
11.396459526308487 64.0493
11.418869393879497 63.6111
11.441297180532617 63.3438
11.463725406927658 63.0689
11.486136592353875 62.8069
11.508565700543707 62.3451
11.530977768845315 62.2782
11.553407762368774 61.7753
11.575838200059769 61.7812
11.598251599479612 61.8998
11.620682927815501 61.7045
11.64309721895548 61.6459
11.665529441478206 61.4497
11.687962112597958 61.226000000000006
11.710377748130886 61.001999999999995
11.732811318753434 60.9326
11.755227854859067 61.059
11.777662328529495 60.9123
11.800079768750786 60.7629
11.822515149015453 60.7261
11.844950984084935 60.9465
11.867369787303163 60.9865
11.889806534289491 61.2895
11.912226250487029 62.3287
11.934663912939751 64.1022
11.9571020346363 66.1086
11.979523127133968 65.7219
12.001962169624331 65.3692
12.024384183972964 64.63600000000001
12.046824150809913 67.2941
12.069264581333726 77.1004
12.091687985297767 90.1516
12.11412934550045 101.162
12.136553680195208 107.23899999999999
12.158995973632788 110.859
12.181438735204349 116.086
12.20386447284199 127.046
12.226308172985636 147.561
12.24873485024193 173.91400000000002
12.271179492516982 192.65400000000002
12.293607112949127 177.592
12.316052700916226 140.95600000000002
12.338498763250042 100.523
12.360927805303868 75.5799
12.383374818673879 66.6882
12.405804812803074 63.825
12.428252780773262 63.1609
12.45070122756722 62.9113
12.473132656675375 62.615
12.49558206341869 62.7174
12.518014453510101 62.6486
12.540464823770117 62.7909
12.562915677315177 63.0453
12.58534951575545 63.4556
12.607801338171472 63.2972
12.630236146511358 63.3233
12.652688941369085 63.9626
12.675124723177234 64.1803
12.697578494048786 64.7851
12.720032754458185 64.878
12.742470003354093 65.1915
12.764925245138771 65.976
12.787363476431278 66.419
12.809819703166806 66.4684
12.83227642391173 67.5028
12.854716135692716 67.9379
12.877173846755147 69.0846
12.899614549869717 69.4771
12.9220732548287 70.5221
12.94453245827299 70.9398
12.966974655289818 71.9204
12.989434858002571 72.7073
13.011878055298721 73.7236
13.034339260862497 74.7295
13.056800969391883 76.1956
13.079245674017244 79.0916
13.101708390774869 80.9296
13.12415410463411 86.0323
13.146617833206086 102.366
13.169064559883248 132.798
13.191529303857127 164.28599999999997
13.213994557076367 186.845
13.236442809902437 195.972
13.258909083908291 201.61599999999999
13.28135835851934 213.77
13.30382565690295 239.804
13.326293469022952 284.325
13.348744283242008 342.586
13.371213125129904 390.56199999999995
13.39366497011003 382.656
13.416134845360597 313.156
13.438605238843131 216.19799999999998
13.46105863690397 147.295
13.483530069144786 120.35
13.505984506951902 129.81
13.528456981549432 154.43
13.550929978879088 173.549
13.573385983253365 181.43900000000002
13.595860028340867 183.49200000000002
13.618317081455832 189.3
13.64079217790333 204.86
13.663250283359057 231.706
13.685726434770173 275.23
13.708203115221277 327.472
13.730662806148091 342.86199999999997
13.75314054697177 307.953
13.775601299246777 230.892
13.798080104050406 155.405
13.820559442405358 107.59200000000001
13.843021793671388 88.5817
13.865502201420897 82.0767
13.887965623051947 80.3033
13.910447103807167 78.8524
13.932929122629764 77.17
13.955394156785959 76.6127
13.977877254034569 75.7389
14.000343367582113 74.8372
14.022827546871707 74.0739
14.045294743423524 73.4422
14.06778000837062 72.4026
14.090265817715476 72.3257
14.112734645763819 72.3508
14.13522154619454 73.1641
14.157691466286913 73.8601
14.180179461423874 73.539
14.202668005486178 72.4357
14.22513957064374 71.5461
14.247629214846473 70.1941
14.270101881097517 69.2936
14.29259262906496 68.7577
14.315083930490205 68.7775
14.337558255389705 68.4255
14.360050666019726 68.5952
14.382526101071944 68.3319
14.405019624534942 68.0732
14.427513705993134 67.9568
14.449990813291825 68.0207
14.47248601302899 67.8406
14.49496423954951 68.0226
14.517460561197822 68.0129
14.539939910570322 67.8161
14.562437357763558 67.7353
14.58493536931253 68.0314
14.607416409993311 68.126
14.62991555254159 68.5917
14.652397725157423 68.5999
14.674898002342799 69.0938
14.697398848433282 69.5029
14.719882725991326 70.1187
14.74238471217934 70.8315
14.764869730765593 73.7526
14.787372860692983 80.275
14.809876564079925 93.0491
14.83236330125751 106.931
14.854868153850365 116.26299999999999
14.877356041159485 120.542
14.899862046604186 121.905
14.922351087688757 125.146
14.944858249632887 132.211
14.967365991421232 145.076
14.989856770231246 163.329
15.012365673994204 188.06400000000002
15.03485761569738 207.037
15.05736768508665 204.65599999999998
15.07987833888692 178.095
15.102372032001655 140.516
15.124883856909658 103.45299999999999
15.14737872204565 82.1877
15.169891721717274 73.6263
15.192405310371893 71.0943
15.214901940621196 69.7503
15.237416709527137 68.7855
15.259914520936249 68.5122
15.282430473753607 67.6945
15.304947020131227 66.7913
15.327446610371178 66.5122
15.349964346154254 66.155
15.372465126703139 66.1476
15.394984055556009 65.8957
15.417486030076159 65.7731
15.44000615566487 65.3957
15.462526881230803 65.4029
15.485030653812652 65.1981
15.507552581617434 64.9168
15.530057557334603 65.0527
15.55258069104857 65.4164
15.575104429329837 65.605
15.597611216864632 65.2706
15.620136166564563 65.4688
15.6426441664095 66.1562
15.665170331202765 67.9382
15.687697105158826 73.3417
15.710206930593545 83.5256
15.732734925158933 94.5495
15.755245972089478 102.92200000000001
15.77777519094324 107.118
15.800287463046663 108.117
15.822817909869592 109.306
15.84534897229804 113.21700000000001
15.867863089299354 121.92399999999999
15.890395385222186 134.03
15.912910736597423 151.233
15.935444269699861 172.205
15.957978423016485 184.16299999999998
15.980495633101265 177.852
16.003031029129367 154.379
16.02554948280019 118.64299999999999
16.048086125229432 89.7541
16.070623392487107 73.4668
16.09314371869582 66.2384
16.11568223789321 62.9236
16.13820381691126 61.6804
16.160743591742527 60.8799
16.183283996022084 59.9911
16.205807461423195 59.1312
16.228349126881973 58.5043
16.25087385432698 58.29600000000001
16.27341678466365 57.7004
16.29594277784926 57.376999999999995
16.31848697676433 57.0502
16.341031811604868 56.5538
16.36355971058487 56.3799
16.3861058195587 56.1582
16.40863499352978 55.6661
16.431182380342005 55.3944
16.453730407713202 55.2213
16.476261501364792 55.0525
16.498810812136167 54.7663
16.52134319004079 54.8869
16.54389378792203 54.6955
16.566445031001553 54.4565
16.588979342490088 54.4812
16.61153187824822 54.3603
16.634067483263312 54.2595
16.656621315414416 54.1061
16.679175797408888 53.7568
16.701713349928728 53.8769
16.72426913389191 53.906000000000006
16.74680798922351 53.9071
16.76936507887444 53.7943
16.791905240734874 53.8813
16.814463639794468 53.7494
16.837022695210294 53.8386
16.859564824093756 54.0988
16.882125194503903 54.184
16.904668639217885 54.4349
16.927230328348003 54.3063
16.949792678493612 54.604
16.972338104193863 54.6489
16.994901778652235 54.5156
17.017448529496576 54.8025
17.040013531998152 55.0148
17.06257920018044 55.3443
17.0851279459922 56.269
17.107694947817667 58.5365
17.130245028099072 60.6959
17.15281336730298 62.7674
17.17536478578733 64.0468
17.19793446610687 64.5316
17.220504818648422 64.6911
17.243058251703697 65.1307
17.265629950971032 66.5744
17.288184731571736 68.2576
17.310757781306908 71.4864
17.33333150794385 74.5449
17.355888317140174 78.3927
17.37846339986244 81.3929
17.401021565958885 80.6772
17.42359800851343 76.6235
17.44617513265564 70.9567
17.468735341390783 65.3639
17.491261035594565 61.3518
17.51396340099364 59.33
17.536490463869136 58.8897
17.559018209820174 58.5218
17.58154663977963 58.6597
17.604251766089718 58.8858
17.626781572227713 58.9403
17.64931206518155 59.0483
17.671843245885103 59.363
17.69455114821572 59.4962
17.717083712612634 59.8062
17.739616967569667 60.2539
17.762150914021706 60.93600000000001
17.78486160749854 61.2051
17.807396945166804 61.9531
17.829932977143503 62.4474
17.85246970436452 63.4466
17.875183204129467 66.1407
17.897721330097664 71.6297
17.920260154126645 78.1093
17.942799677153296 83.4421
17.9655159983646 86.5982
17.988056927677544 88.2303
18.010598558807683 88.8741
18.033140892692916 89.9165
18.05586005052525 92.3162
18.07840379824407 96.5958
18.10094825154059 103.28299999999999
18.12366954819864 112.61399999999999
18.146215420998306 126.09700000000001
18.16876200220057 138.796
18.191309292745153 145.531
18.214033452627167 141.91299999999998
18.236582170236648 128.894
18.259131600016456 111.46700000000001
18.281681742907335 96.544
18.304408781233683 87.961
18.32696035875955 85.2151
18.349512652227624 85.7331
18.372065662579683 89.0742
18.394795594587553 93.9537
18.41735004715306 99.212
18.43990521943684 102.631
18.46246111238171 101.785
18.485193953325208 95.301
18.507751296070428 86.0097
18.530309362314178 76.8191
18.552868153000343 69.4768
18.57560391815056 64.7938
18.59816416623245 62.6995
18.620725141597372 61.7772
18.643286845190268 61.0685
18.666025549835414 60.6467
18.688588718427933 60.041000000000004
18.711152618092243 59.5618
18.73389353884365 59.2516
18.75645890921984 58.9126
18.77902501351406 58.5781
18.801591852673102 58.3949
18.824335739722738 57.8551
18.846904057212626 57.8349
18.8694731124168 57.4875
18.89204290628315 57.3957
18.914789774966803 57.4026
18.937361054791623 56.9747
18.959933076131318 56.7322
18.982505839934877 56.9029
19.00525570560582 56.7013
19.027829963004184 56.5378
19.05040496572238 56.5771
19.072980714710468 56.3574
19.095733592739563 56.7922
19.11831084296757 57.2139
19.140888842324735 58.2718
19.16346759176222 59.2478
19.18622349753803 60.5987
19.208803755869358 61.5965
19.231384767143577 61.8972
19.253966532312948 62.1113
19.276725481241822 62.3065
19.29930876296784 62.5338
19.3218928014549 63.5365
19.34465404436217 64.694
19.36723960516257 66.5
19.389825925592426 68.4329
19.412413006605938 71.0214
19.43517731967805 73.41199999999999
19.457765930683355 74.0913
19.48035530514408 72.2223
19.50294544401556 68.6259
19.525712842708348 63.9401
19.54830451925909 59.4599
19.570896963095727 56.2393
19.593490175174704 54.614
19.616260674962184 54.0599
19.638855432416964 53.2806
19.661450960992624 53.4141
19.68404726164677 53.2032
19.706820878021247 53.0911
19.729418731756834 53.3157
19.752017360452857 53.0091
19.77461676506804 53.2591
19.797393513540218 53.129
19.819994478951667 53.3849
19.84259622316767 54.3331
19.8651987471481 55.5891
19.887978643247177 56.7155
19.91058273574792 57.3958
19.933187610901943 58.013999999999996
19.955969879466828 58.1035
19.97857632894404 58.2523
20.00118356396599 58.3582
20.023791585494575 58.6416
20.046577028914875 59.9516
20.069186632506966 61.3428
20.091797025500632 63.8412
20.114408208858933 66.3709
20.137196842715273 69.3516
20.159809615886765 71.8479
20.18242318232135 72.062
20.20503754298326 70.5662
20.227829382875154 68.1471
20.250445341109344 65.0676
20.27306209647285 62.3312
20.29567964993108 60.6816
20.31847471147704 60.1263
20.34109387027612 60.9823
20.363713830075454 62.306000000000004
20.386334591841646 64.1321
20.409132890679302 64.9651
20.431755265564437 64.1553
20.454378445325528 62.1487
20.477002430930366 59.2082
20.499803982716553 55.9292
20.522429589228004 53.1815
20.54505600449589 51.4637
20.567683229489194 50.9038
20.590488049900088 50.4181
20.61311690359731 49.9408
20.63574656993626 49.8337
20.658553853717297 49.527
20.681185154618298 49.597
20.703817271080066 49.403
20.72645020407368 48.8753
20.749260783967177 49.0557
20.771895359337133 49.1142
20.794530754161617 48.9492
20.817166969412938 48.8422
20.83998086114876 48.9224
20.86261872660049 48.6456
20.885257415405402 48.589
20.90789692853701 48.4442
20.930714147864748 48.284
20.953355319030678 48.2056
20.97599731745334 48.562
20.99864014410749 48.5049
21.021460706796564 48.6751
21.044105199328826 49.1828
21.06675052302631 49.1606
21.089396678865015 49.1429
21.112220600704806 49.2301
21.134868430275347 49.3631
21.15751709492456 49.365
21.180166595629693 49.1964
21.202993892429635 49.513000000000005
21.22564507473034 49.6341
21.24829709602816 49.9425
21.27112693608965 50.4696
21.293780644891275 51.1173
21.316435195634053 51.2653
21.339090589297417 51.1364
21.361923832041875 51.1866
21.384580921090404 50.3833
21.407238856007325 49.5762
21.429897637773326 49.0443
21.45273429906592 48.6141
21.475394784108598 48.5871
21.498056118951983 48.3239
21.520718304578022 48.4944
21.543558400304388 48.636
21.566222297108816 48.6255
21.58888704765135 48.9173
21.61155265291521 49.1501
21.63439619898156 50.2563
21.657063523335786 51.0869
21.67973170537063 52.043
21.7024007460706 52.9279
21.72524775840385 53.44
21.747918526116475 53.8871
21.770590155457388 53.8648
21.79326264741238 54.1099
21.816113141960237 54.6581
21.838787368860547 55.5511
21.861462461341976 56.4971
21.884315579735777 57.8784
21.90699241312273 59.6079
21.92967011506078 61.5132
21.95234868653799 63.6828
21.9752053151131 65.4876
21.997885635446785 66.119
22.020566828293532 65.3862
22.04324889464272 63.356
22.066109049404666 60.5111
22.088792872571794 57.943000000000005
22.111477572219204 56.1202
22.1341631493376 55.1423
22.157026846313123 55.1254
22.179714188221507 55.6189
22.202402410582668 56.0173
22.22509151438863 55.7606
22.24795876962584 54.903
22.270649646204486 53.7351
22.293341407213727 52.4514
22.316034053646906 50.9474
22.338904883215342 49.895
22.36159931041458 49.2118
22.38429462602756 49.0903
22.40699083104897 48.6891
22.429865251039757 48.7202
22.452563244831367 48.6065
22.47526213102522 48.687
22.49813925616515 48.5645
22.520839937143307 48.5364
22.543541513520587 48.6608
22.56624398629403 48.5319
22.589124730075895 48.4472
22.611829005656723 48.656000000000006
22.63453418063466 48.3996
22.657240256008077 48.7177
22.680124634582935 49.2354
22.70283252079775 50.0835
22.725541310413075 50.8302
22.74825100442868 51.2507
22.771139033969575 51.7806
22.79385054687155 51.6661
22.81656296718292 51.7797
22.83927629590484 51.8065
22.862167992606945 51.8883
22.88488314827121 52.2294
22.907599215359284 52.6472
22.93031619487366 53.0536
22.953211574954405 53.5651
22.975930389478226 54.5567
22.998650119445763 55.817
23.02137076586092 56.7863
23.044269845560063 57.823
23.06699233506288 58.196000000000005
23.089715744034912 57.3526
23.112617610931565 55.891000000000005
23.135342869061212 54.1336
23.158069049684816 52.1797
23.1807961538087 50.4978
23.20370174880544 49.6973
23.226430710184808 49.2661
23.249160598093425 49.1478
23.271891413539002 49.1365
23.294800752937697 49.4816
23.31753343374794 50.3403
23.340267045128353 50.7027
23.36300158808808 51.4587
23.38591468821339 51.6083
23.408651104658304 51.7403
23.431388455719986 51.6264
23.454126742409 51.367
23.4770436196085 51.6152
23.499783787914662 51.9972
23.522524894889884 52.1786
23.54526694154616 52.306999999999995
23.56818761219047 53.1828
23.59093154860734 53.9325
23.613676427751283 55.2521
23.636422250635754 56.4612
23.659346731118656 57.4806
23.68209445191868 57.8964
23.704843119509587 57.1454
23.72759273490623 55.5606
23.750521041644767 53.2694
23.77327256312355 50.99100000000001
23.796025035462787 49.0531
23.818956224555475 47.4441
23.841710609113413 46.8861
23.86446594758979 46.2717
23.887222241002014 45.8355
23.910157285144578 45.5772
23.932915498962537 45.3877
23.955674670778713 45.2821
23.978434801611975 45.0478
24.001373717286125 44.9171
24.024135776723917 44.7119
24.046898798245582 44.6366
24.06966278287146 44.4423
24.092605586582614 44.2695
24.115371508023642 44.2549
24.1381383956401 44.0198
24.16090625045381 44.0079
24.183852958731244 43.7645
24.206622758582608 43.7024
24.229393528706886 43.5494
24.252165270127392 43.7068
24.27511589952438 43.6443
24.297889594216997 43.4564
24.32066426328598 43.2627
24.34343990775613 43.4223
24.36639447485003 43.2647
24.38917208083877 43.1852
24.41195066531332 42.9517
24.43490819850244 43.0506
24.457688750692377 42.9231
24.48047028445616 42.7965
24.503252800821233 42.6827
24.526214300784112 42.8814
24.548998793132213 42.9315
24.57178427117417 42.7822
24.59457073593893 42.8422
24.617536219319863 42.7829
24.64032466834748 42.9575
24.663114107195035 42.8608
24.685904536893013 42.7365
24.708874020360852 42.7174
24.731666442613744 42.6675
24.754459858818787 42.5156
24.777254270007962 42.4271
24.80022777025625 42.3525
24.82302418230472 42.3728
24.845821592443674 42.2994
24.86862000170663 42.3213
24.891597535453727 42.2585
24.914397953892728 42.5767
24.93719937456671 42.6384
24.96000179851076 42.6618
24.98298338249997 42.7082
25.00578782394922 42.7286
25.028593271784167 42.7925
25.05157790644186 43.1388
25.07438537804115 43.273999999999994
25.097193859145293 43.4061
25.120003350792075 43.5701
25.142992065061257 43.7974
25.165803588823465 43.9798
25.18861612625217 44.2617
25.211429678386736 44.4166
25.234422489079968 44.5732
25.257238081693636 44.7716
25.280054692141732 44.7939
25.3028723214652 44.6496
25.325869245420463 44.8135
25.348688923599397 44.5486
25.371509623787006 44.3952
25.394331347025812 44.6256
25.41733240110666 44.8685
25.440156181590016 44.6786
25.46298098826268 44.8685
25.48580682216873 44.3306
25.50881202326435 43.7806
25.53163992281684 42.9268
25.55446885274561 42.3228
25.577298814096377 41.6187
25.600308179121807 41.3128
25.623140214533745 41.131
25.64597328451537 40.9303
25.66898578564376 40.648
25.691820936010206 40.7305
25.714657124097695 40.5956
25.737494350954734 40.6088
25.760511045684957 40.5938
25.783350361364224 40.5945
25.806190718969255 40.8543
25.82903211955018 40.9798
25.852053024868923 40.9675
25.874896522722523 40.8781
25.897741066713106 40.7853
25.920586657892454 40.7386
25.943611790812668 40.8367
25.966459487728237 40.8234
25.989308234998564 40.8227
26.01215803367705 40.9489
26.03518741123814 41.0705
26.05803932412957 41.0246
26.080892291600094 41.1191
26.10374631470478 41.1129
26.12677995397268 41.4314
26.14963609978026 41.7966
26.172493304397875 41.696000000000005
26.19535156888223 41.9375
26.218389486949604 41.9078
26.241249882640123 41.7247
26.26411134137826 41.2552
26.28715248187403 41.1181
26.31001607820869 40.8344
26.3328807407756 40.5465
26.35574647063438 40.6465
26.37879191991473 40.5575
26.401659795896734 40.6356
26.424528742360263 40.5897
26.447398760366614 40.6976
26.470448535598294 40.806999999999995
26.49332070826805 40.7966
26.516193955675355 40.9263
26.53906827888316 40.9729
26.562122397260108 41.1428
26.584998883685063 41.2225
26.607876449110325 41.4262
26.63075509460056 41.5242
26.65381357334404 41.6095
26.67669439061878 41.7509
26.699576291163382 42.1725
26.722459276044212 42.5101
26.745522132402975 42.5491
26.768407297649354 42.4572
26.791293550442003 42.1772
26.814180891848974 41.9311
26.837248143099337 41.4953
26.860137673466657 41.2042
26.88302829566349 40.8259
26.90592001075963 40.7102
26.92899167420566 40.727
26.951885586870763 40.3717
26.974780595655517 39.9739
26.99785558178161 39.8047
27.020752794605112 39.5454
27.043651106772522 39.398
27.06655051935668 39.1118
27.089629948036183 39.1419
27.112531573292053 38.9184
27.135434302194138 39.0165
27.158338135817015 38.7295
27.181422024430987 38.794000000000004
27.204328079372566 38.7406
27.22723524226965 38.8013
27.250143514198573 38.7986
27.273231880156334 38.7669
27.296142382065014 38.6471
27.319053996245536 38.5932
27.341966723775965 38.6099
27.365059584515222 38.5281
27.38797455070062 38.4579
27.410890633481237 38.5009
27.433807833936918 38.4207
27.456905206923906 38.4698
27.47982465472398 38.4759
27.502745223449743 38.4825
27.525666914182825 38.6409
27.548768816912457 38.5612
27.571692763693633 38.5354
27.59461783573812 38.5902
27.617723149491244 38.6015
27.640650484125285 38.5735
27.66357894728264 38.5897
27.686508540048052 38.5762
27.709618414237887 38.5651
27.732550278321757 38.4072
27.755483275279115 38.3157
27.778417406196485 38.3874
27.801531858397514 38.2614
27.824468269376716 38.1834
27.847405817586786 38.1399
27.870344504116094 38.1547
27.893463551932008 38.241
27.916404527281053 38.3294
27.93934664422563 38.2336
27.962289903855886 38.2054
27.98541356491974 38.4058
28.00835912214229 38.5908
28.03130582533231 38.6892
28.054253675581805 38.7905
28.077381967556104 38.7598
28.100332124185126 38.896
28.123283431160893 39.0751
28.146235889577238 39.1613
28.169368830154156 39.2988
28.192323603752033 39.2401
28.215279532083304 38.9774
28.238415973016764 38.7078
28.261374223145094 38.6418
28.284333631303806 38.2304
28.307294198589954 38.0881
28.330435319167677 37.8454
28.353398217078915 37.6789
28.376362277420153 37.466
28.39932750129032 37.2931
28.422473319286713 36.9709
28.44544088262495 36.9553
28.468409612800283 36.5951
28.491379510913497 36.3342
28.51453004413313 36.1552
28.53750229057244 36.0813
28.56047570826344 36.0975
28.583450298308804 36.1387
28.606605564586562 35.8647
28.629582511831156 36.0605
28.65256063474956 35.8399
28.675539934446338 35.7812
28.698699951647605 35.7413
28.72168161743193 35.6286
28.74466446331978 35.4529
28.767648490417624 35.4694
28.790813276438353 35.4156
28.813799678527303 35.4605
28.836787265157085 35.4074
28.859955641890075 35.3743
28.882945610203045 35.3658
28.905936766392035 35.3531
28.928929111566863 35.4245
28.952102288520145 35.3363
28.975097024308607 35.2647
28.998092952423807 35.1177
29.021090073977508 35.2393
29.04426806913204 35.2848
29.067267590245258 35.0747
29.090268308143695 35.0823
29.11327022394099 34.9317
29.13645305530891 34.764
29.159457379627167 34.588
29.18246290519685 34.51
29.20546963313352 34.4966
29.22865731875826 34.4639
29.25166646419296 34.3291
29.27467681535305 34.2237
29.29768837335608 34.4016
29.320880931312562 34.3481
29.34389491580634 34.235
29.366910110507334 34.2114
29.38992651653503 34.2172
29.41312396492981 34.147
29.436142806456754 34.15
29.45916286268059 34.0834
29.48236399319994 34.1489
29.50538649169417 34.097
29.528410208259935 34.1389
29.55143514402014 33.8985
29.574641196749695 33.742
29.597668583816574 33.7107
29.6206971934585 33.4632
29.64372702680042 33.3692
29.666938019934474 33.2725
29.689970313635285 33.1068
29.713003834422636 33.0138
29.73603858342347 33.0171
29.759254535188578 32.8842
29.78229175361658 32.9544
29.80533020365064 32.9918
29.82836988641968 32.8366
29.85159081507472 32.8322
29.874632976355343 32.8015
29.89767637376955 32.8991
29.920721008448314 32.6622
29.9439469322847 32.6639
29.96699405457564 32.7615
29.9900424175358 32.6974
30.013092022298157 32.6355
30.03632295963995 32.4418
30.059375061131373 32.5331
30.08242840783577 32.6419
30.105483000888153 32.5718
30.128718970092244 32.2852
30.151776069006917 32.4471
30.17483441768648 32.3957
30.198074175317235 32.3799
30.221135036724256 32.2525
30.24419715131772 32.3126
30.267260520236203 32.368
30.290505341942243 32.4664
30.313571232750228 32.5665
30.336638381310948 32.4701
30.35970678876503 32.5749
30.38295669299435 32.4971
30.40602763151657 32.438
30.429099832366074 32.3783
30.452173296685572 32.3342
30.47542830191959 32.3057
30.498504306502497 32.1895
30.521581577995562 32.2271
30.544660117543582 32.2129
30.56792024229725 32.2098
30.59100133132069 32.1287
30.614083691845494 32.1184
30.637167325018545 32.2747
30.660432587840603 32.2318
30.683518779717886 32.0758
30.70660624769615 32.1753
30.729694992924372 32.3044
30.75296541239743 32.2941
30.77605672557558 32.336999999999996
30.799149319462742 32.3248
30.8224236211637 32.1852
30.845518789950724 32.1915
30.868615242910597 32.1927
30.891712981195973 32.0237
30.91499247215866 31.9764
30.938092794619365 31.9769
30.96119440587579 31.9091
30.984297307082752 31.7201
31.00758200598383 31.574
31.030687500658694 31.5216
31.053794288760695 31.4984
31.076902371446767 31.4278
31.100192296997445 31.3396
31.12330298246119 31.3645
31.14641496599209 31.2589
31.169528248749216 31.2069
31.19282341969534 31.0732
31.215939314557186 31.1701
31.239056512134788 31.2308
31.262175013589378 31.1053
31.28547544871168 30.9984
31.30859657161541 30.9398
31.331719001892175 30.8976
31.35484274070538 30.9463
31.378148458819545 30.9861
31.401274828443725 30.956999999999997
31.424402510106933 30.9606
31.447712205419993 30.9519
31.470842524931633 30.8829
31.493974159989783 30.8809
31.51710711176168 30.8868
31.54042212308802 30.9387
31.563557722100917 30.9451
31.586694641341655 30.8882
31.609832881979628 30.8355
31.63315322823208 30.9344
31.656294125521327 30.7765
31.679436347728515 30.7187
31.70257989602529 30.6558
31.725905596152327 30.4555
31.74905181052835 30.3812
31.772199354521323 30.4062
31.79534822930507 30.3725
31.818679302290967 30.3544
31.84183085259981 30.1994
31.864983737233473 30.2116
31.88813795736804 30.2341
31.911474422233013 30.0542
31.934631327356435 30.2368
31.9577895715215 30.1817
31.980949155906522 30.1691
32.004291031706956 30.1514
32.027453310562606 30.1096
32.05061693318573 29.9702
32.07396288236386 30.0795
32.09712920658542 30.0821
32.12029687812702 29.9288
32.14346589817093 29.8637
32.166817291729984 29.8605
32.18998902288583 29.6429
32.21316210610336 29.522
32.23633654256711 29.427
32.259693399663725 29.4997
32.282870556771144 29.3734
32.30604907069099 29.3598
32.329228942610065 29.3218
32.35259128243769 29.0807
32.375773884550505 29.0871
32.398957848235646 29.101
32.422143174682176 29.046
32.445511016471215 28.8769
32.468699082679954 28.8488
32.49188851523011 28.8308
32.51507931531304 28.7579
32.538452678331 28.8467
32.56164622776311 28.6718
32.58484114831493 28.5189
32.60803744118015 28.6204
32.631416344731896 28.6118
32.654615396551876 28.574
32.67781582427913 28.5613
32.701198898634416 28.4067
32.72440209253756 28.3751
32.747606665947124 28.3887
32.77081262006088 28.2636
32.79420126883317 28.2252
32.81740999876112 28.3356
32.840620112999424 28.2248
32.86383161274818 28.2392
32.88722585534586 28.1307
32.91044014056596 28.2436
32.933655814909734 28.1458
32.95687287957963 28.1487
32.98027273544904 28.1003
33.00349259526636 28.0175
33.026713849030116 27.9599
33.04993649794511 27.9038
33.073341986570746 27.8953
33.09656744032826 27.8011
33.11979429286444 27.9328
33.14302254538647 27.8459
33.166433686291185 27.7676
33.18966475336992 27.7862
33.212897224069096 27.7018
33.23613109959831 27.7633
33.259547912343415 27.6148
33.2827846121627 27.7423
33.306022720453775 27.633000000000003
33.32926223842861 27.4742
33.352684742614166 27.6548
33.37592709463173 27.5853
33.399170859982064 27.4729
33.422597648419426 27.4546
33.44584425514446 27.2837
33.46909227885668 27.2471
33.4923417207723 27.2091
33.51577423505344 27.2222
33.539026528130385 27.1189
33.56228024307245 27.0819
33.585535381098246 26.901999999999997
33.60897364093058 26.8303
33.63223163992385 26.9629
33.6554910656699 26.7621
33.678751919389796 26.7711
33.702195944520106 26.7269
33.72545966903325 26.6214
33.74872482519663 26.4859
33.771991414233746 26.6237
33.79544122444841 26.6382
33.81871069412428 26.4847
33.84198160035767 26.4263
33.86525394437455 26.4866
33.88870955949969 26.3588
33.911984794020626 26.4251
33.93526147001624 26.4671
33.958539588715006 26.3434
33.98200102861669 26.1719
34.0052820477047 26.1363
34.02856451319451 26.2049
34.05203033759056 26.1493
34.07531571090147 26.0925
34.09860253431845 26.1065
34.121890809074316 26.0465
34.145362493118924 25.9822
34.16865368561615 25.926
34.191946333164054 25.915
34.21524043699793 25.8961
34.23871800066799 25.8401
34.26201503218366 25.7359
34.28531352370466 25.6111
34.30861347646881 25.5676
34.33209693978188 25.5517
34.3553998301885 25.6683
34.378704185565205 25.611
34.402010007152356 25.5223
34.42549939016683 25.5058
34.44880815937748 25.3964
34.472118398533134 25.3782
34.49543010887669 25.395
34.51892543169198 25.2929
34.54224009966052 25.2592
34.56555624255917 25.2317
34.58887386163339 25.1758
34.61237514439016 25.0644
34.6356957311114 25.0619
34.65901779775809 25.0026
34.68252356662995 25.011999999999997
34.705848608458616 24.9208
34.72917513396849 24.866
34.75250314440949 24.8508
34.77601490857862 24.8161
34.799345904259795 24.6928
34.82267838863559 24.7721
34.846012362958525 24.7016
34.869530142679984 24.6882
34.89286711232212 24.6651
34.91620557568269 24.6814
34.93954553401677 24.6857
34.9630693495876 24.5673
34.986412313340814 24.564
35.00975677584668 24.5193
35.033102738362956 24.4633
35.05663261012228 24.3322
35.0799815881786 24.4005
35.10333207003229 24.2667
35.12668405694369 24.3917
35.150220005273056 24.3492
35.17357501786656 24.2529
35.19693153931268 24.2137
35.220289570874385 24.2347
35.24383161619786 24.2279
35.267192683604904 24.2556
35.290555264930376 24.1171
35.314101899412165 24.0476
35.33746752422433 24.0549
35.36083466676374 24.0775
35.38420332829803 24.0255
35.407756095629054 24.0529
35.43112781085063 23.994
35.45450104888391 23.9954
35.477875810999194 23.9507
35.50143473172161 23.9517
35.52481255774625 24.0549
35.54819191167777 23.9313
35.57157279478914 23.9106
35.595137889488406 23.8078
35.61852184675279 23.8037
35.641907337029984 23.6868
35.665294361595684 23.719
35.68886565090076 23.6447
35.7122557598848 23.6555
35.73564740699838 23.7293
35.759040593519934 23.5673
35.78261809810353 23.5181
35.80601437933051 23.4919
35.829412203814705 23.4181
35.85281157283719 23.3963
35.876395313415884 23.4039
35.8997977874528 23.3235
35.92320180988546 23.2493
35.946790244133936 23.1672
35.97019737933222 23.2513
35.993606066789866 23.1963
36.01701630779276 23.1314
36.04061101440684 23.0158
36.06402437852291 23.0406
36.08743930005611 23.0419
36.1108557802951 22.9353
36.13445678011326 22.9566
36.15787639383515 22.986
36.18129757014299 22.9398
36.20472031032821 22.8098
36.22832762423364 22.7538
36.25175350829375 22.8086
36.275180960119776 22.7606
36.298609981005924 22.7676
36.32222362992669 22.7961
36.34565580510207 22.7069
36.36908955323448 22.6616
36.39252487562093 22.4989
36.416144880530226 22.587
36.43958336764275 22.4879
36.463023432914625 22.5158
36.486465077645676 22.4516
36.51009145956204 22.4576
36.53353627947859 22.4793
36.55698268276811 22.4142
36.58043067073321 22.4211
36.60406345072071 22.3372
36.62751462435344 22.3031
36.65096738658405 22.3005
36.67460498210655 22.2167
36.69806093788647 22.2342
36.72151848619297 22.0283
36.744977628333636 22.129
36.76862165890998 22.0819
36.79208400512205 22.0703
36.81554794910557 22.0668
36.83901349217101 21.9455
36.862663978991606 21.9821
36.88613273667352 21.8862
36.90960309738324 21.8716
36.933075062434064 21.8638
36.95673202673572 21.795
36.98020721697122 21.7251
37.003684015502365 21.7348
37.027162423645365 21.6786
37.050825886711465 21.6588
37.07430753063053 21.5473
37.09779078812467 21.5495
37.121275660513014 21.5073
37.144945643673694 21.44
37.16843376245278 21.4453
37.19192350009803 21.4647
37.215414857931435 21.4381
37.239091382563885 21.3759
37.262585997426164 21.3707
37.28608223645736 21.322
37.309763684451696 21.2633
37.33326318851098 21.1822
37.356764320726555 21.1896
37.380267082425526 21.1945
37.40395510942588 21.1897
37.42746114683234 21.1204
37.45096881771841 21.0988
37.474478123414166 21.0515
37.49817275092816 20.9832
37.52168534303452 20.9569
37.54519957395567 20.7964
37.568715445024665 20.9238
37.592416694607714 20.822
37.61593586281424 20.8737
37.63945667518264 20.9142
37.66297913304891 20.7531
37.68668702630454 20.749000000000002
37.710212792059274 20.6993
37.733740207334854 20.7052
37.757269273470364 20.6301
37.780983832050374 20.6354
37.80451621684926 20.5871
37.82805025654007 20.6184
37.851585952464795 20.5204
37.8753071980695 20.4507
37.89884622345676 20.4218
37.92238690911902 20.3508
37.94611318753442 20.3433
37.969657210779765 20.3236
37.99320289834801 20.2998
38.016750251586465 20.2591
38.04048325513017 20.2683
38.06403395679343 20.1876
38.087586328183946 20.19
38.11114037065203 20.1622
38.13488012115898 20.1307
38.1584375229181 20.084
38.181996599821 20.0293
38.205557353221124 19.9935
38.229303872575656 19.9811
38.2528679961576 19.893
38.27643380031219 19.9071
38.30000128639589 19.8467
38.32375459653193 19.9063
38.34732546371299 19.8423
38.37089801690786 19.8091
38.39447225747609 19.7868
38.418232380377425 19.7516
38.441810012983396 19.7841
38.46538933705673 19.6918
38.488970353960084 19.7279
38.51273731166058 19.6295
38.536321731567014 19.6015
38.55990784840681 19.6231
38.58367995004091 19.5395
38.60726947812959 19.3969
38.63086070726198 19.4124
38.654453638806274 19.4562
38.678232613930824 19.3699
38.70182896773327 19.3228
38.72542702806741 19.2537
38.7490267963045 19.2743
38.77281266709232 19.265
38.79641586862214 19.2628
38.8200207821842 19.205
38.843627409152944 19.2066
38.86742019782782 19.1453
38.891030269149255 19.1287
38.914642058016156 19.125999999999998
38.938255565806124 19.0813
38.96205529464307 19.0404
38.98567225787121 18.9909
39.00929094417078 18.9702
39.03291135492255 18.9619
39.05671804624804 18.965999999999998
39.080341923549106 18.9073
39.103967529460334 18.9114
39.127594865365744 18.7783
39.15140854155791 18.73
39.17503935514948 18.750999999999998
39.19867190290282 18.7387
39.22249083587951 18.7168
39.24612686969409 18.6632
39.269764641845306 18.6374
39.293404153722804 18.6314
39.317230110864074 18.5363
39.34087311998506 18.4762
39.36451787301696 18.5318
39.388164371352595 18.454
39.41199737518003 18.4113
39.43564738196752 18.3594
39.45929913825317 18.4013
39.48295264543308 18.3769
39.506792718520884 18.322
39.530449745387216 18.3374
39.55410852735203 18.2833
39.57776906581474 18.2875
39.60161623079 18.2302
39.625280300200025 18.2052
39.64894613032202 18.1391
39.67261372255866 18.144000000000002
39.6964680021016 18.1475
39.72013913657293 18.165
39.74381203738292 18.1104
39.76748670593756 18.0209
39.79134812278169 18.011
39.81502634488497 17.9342
39.83870633896685 17.9183
39.862388106436654 17.8276
39.88625668336918 17.8021
39.90994201572829 17.9033
39.933629125719285 17.8343
39.957503091207826 17.7636
39.9811937746168 17.8243
40.00488623990914 17.7278
40.02858048850006 17.6791
40.05246165409549 17.6725
40.076159487492085 17.6478
40.099859108448875 17.6877
40.123560518384345 17.5626
40.1474489070226 17.6022
40.171153913178564 17.5701
40.194860712584955 17.5442
40.2185693066637 17.4862
40.242464941335314 17.4301
40.26617714307655 17.3869
40.289891143772046 17.3902
40.3136069448471 17.3889
40.33750984859743 17.3538
40.3612292688043 17.34
40.3849504936829 17.3141
40.40867352466194 17.2841
40.43258372059144 17.2215
40.45631038219906 17.2924
40.48003885420956 17.2014
40.503769138055105 17.1899
40.52768664931955 17.1447
40.55142057531802 17.1357
40.57515631746428 17.1017
40.599079334038514 17.0932
40.62281872700477 16.9631
40.64655994043941 17.0171
40.67030297578061 16.965
40.69423334835778 16.9269
40.71798004609188 16.8864
40.74172857006355 16.82
40.76547892171441 16.887
40.7894166736039 16.8662
40.813170699248566 16.7699
40.83692655691388 16.7369
40.86068424804498 16.7414
40.884629402612525 16.7489
40.908390779366385 16.8334
40.932153993938 16.6993
40.95591904777605 16.6796
40.979871628443995 16.6569
41.003640379561936 16.6184
41.02741097430883 16.5936
41.05118341413683 16.575
41.075143444384416 16.5786
41.098919593177826 16.538
41.1226975914255 16.4935
41.14647744058318 16.455
41.170444943946755 16.397000000000002
41.19422851378379 16.3869
41.218013938914645 16.3592
41.24198706625173 16.2847
41.26577622087193 16.2826
41.289567235177785 16.2588
41.31336011063129 16.2175
41.337340752422875 16.2276
41.361137369129835 16.1901
41.38493585138705 16.1469
41.40873620066004 16.1271
41.43272438060107 16.0839
41.45652848292052 16.0449
41.48033445666918 16.0609
41.50414230331616 15.9892
41.528138045159764 15.9859
41.551949656675205 15.9741
41.575763145513235 15.9511
41.59957851314666 15.9318
41.62358184070442 15.8842
41.64740098505737 15.8867
41.6712220126409 15.8222
41.69504492493139 15.7949
41.71905586207357 15.7864
41.74288256296395 15.757
41.766711153007456 15.729000000000001
41.79054163368412 15.696
41.814560204340054 15.6973
41.838394485526365 15.6336
41.86223066180303 15.6116
41.88625497706819 15.5682
41.910094962812 15.5882
41.93393684811168 15.5623
41.95778063445365 15.5091
41.981812625263366 15.4563
42.00566023303407 15.5369
42.029509746323676 15.4264
42.05336116662236 15.4302
42.077400857069705 15.4388
42.10125611078846 15.3947
42.12511327600405 15.3637
42.14897235421036 15.3073
42.173019768448455 15.2762
42.19688269209613 15.2278
42.22074753323349 15.225999999999999
42.24461429335818 15.1583
42.268669455600495 15.1542
42.292540073217886 15.195
42.31641261433284 15.159
42.34028708044675 15.087
42.36435001496739 15.0823
42.38822835065557 15.0439
42.41210861586426 14.9896
42.4359908120986 15.0227
42.46006154323262 14.9478
42.48394762115317 14.9271
42.507835634632315 14.9932
42.531912233047436 14.9247
42.55580413732265 14.8799
42.579697981698 14.8518
42.60359376768525 14.8183
42.62767820545945 14.8494
42.65157789440821 14.7561
42.67547952952185 14.7397
42.699383112316 14.7849
42.72347541395347 14.6781
42.74738291190531 14.6268
42.771292362102166 14.6838
42.795203766063516 14.6273
42.819303956130405 14.6006
42.843219287476536 14.5588
42.86713657716324 14.5596
42.89105582671383 14.5384
42.91516392983864 14.4785
42.939087119032166 14.4436
42.963012272677304 14.4456
42.98693939230129 14.467
43.01105543317513 14.3951
43.034986504731386 14.402999999999999
43.05891954686589 14.3369
43.08285456110972 14.3583
43.10697856448665 14.3048
43.130917542983475 14.2524
43.15485849820081 14.224
43.17880143167367 14.2365
43.20293342237094 14.1797
43.226880332449 14.1481
43.25082922540554 14.1839
43.27496722682525 14.1418
43.29892010567796 14.0894
43.32287497204102 14.0816
43.34683182745632 14.0428
43.370977859791836 14.0401
43.39493871351105 13.9927
43.41890156092628 14.0552
43.44286640358341 14.0096
43.46702049182749 13.9481
43.49098934522816 13.8999
43.51496019852649 13.8882
43.5389330532723 13.8881
43.56309522248204 13.833
43.58707210044314 13.8254
43.61105098451946 13.7714
43.63503187626491 13.7649
43.659202151562134 13.6763
43.68318707902681 13.675999999999998
43.70717401884041 13.7389
43.731162972560874 13.6676
43.75534137913236 13.63
43.779334381108384 13.5915
43.803329401683186 13.6055
43.82732644241872 13.5913
43.8515130055166 13.5483
43.87551410707659 13.5125
43.89951723350145 13.5549
43.923709934595614 13.4936
43.94771713129917 13.4857
43.97172635758096 13.4996
43.99573761501002 13.4524
44.0199385169922 13.4326
44.04395385732619 13.3765
44.067971233533086 13.3461
44.09199064718605 13.359000000000002
44.11619977548961 13.2971
44.14022328470671 13.2861
44.16424883610785 13.2941
44.18827643127035 13.2768
44.21249381139513 13.2304
44.236525514814076 13.2198
44.26055926674478 13.1506
44.28459506876863 13.2018
44.3088207262813 13.1358
44.33286064928722 13.0928
44.35690262714919 13.06
44.38094666145278 13.0373
44.4051806219871 13.0421
44.42922879003185 13.04
44.45327901929361 12.9871
44.477331311362136 12.9041
44.501573600619416 12.9314
44.525630039221795 12.8424
44.54968854541895 12.8765
44.573937102200176 12.940999999999999
44.5979997645541 12.8416
44.622064499300315 12.8373
44.64613130803592 12.767999999999999
44.67038823869318 12.7632
44.69445921643748 12.769
44.718532272981385 12.7386
44.742607409926194 12.6612
44.76687274034801 12.6418
44.79095205918753 12.649000000000001
44.81503346325094 12.6556
44.839116954143876 12.6331
44.86339071028742 12.6688
44.88747839599524 12.5858
44.91156817336837 12.5263
44.93566004401666 12.557
44.959942251908146 12.5197
44.984038330325966 12.5293
45.00813650686762 12.4562
45.03223678314731 12.4379
45.05652746888232 12.3964
45.08063196592069 12.3611
45.104738567558705 12.3872
45.128847275414856 12.3835
45.15314646515866 12.325999999999999
45.17725940679741 12.3156
45.20137445952892 12.2685
45.22568004865265 12.2618
45.24979934496396 12.2868
45.27392075725247 12.2684
45.29804428714431 12.2336
45.322358426247604 12.185
45.346486212804315 12.1712
45.370616121861914 12.1345
45.39474815505086 12.1085
45.41907087049246 12.0618
45.4432071734666 12.0509
45.46734560548283 12.0704
45.49148616817604 12.1079
45.51581748638564 12.0283
45.5399623320197 11.9695
45.56410931325473 11.9681
45.58825843173002 11.9902
45.61259837920865 11.8809
45.636751793816 11.9026
45.66090735060093 11.8486
45.68506505120716 11.8574
45.7094136545275 11.8492
45.73357566449271 11.8091
45.75773982322992 11.8273
45.78190613238733 11.7684
45.806263418194064 11.7181
45.83043404997326 11.741
45.85460683713677 11.7277
45.87897065658495 11.6887
45.90314777634752 11.6399
45.92732705646868 11.687000000000001
45.9515084986045 11.6369
45.97588104735473 11.5975
46.00006683541565 11.6005
46.02425479047904 11.5773
46.04844491420549 11.5553
46.0728262191024 11.5427
46.09702070211635 11.5387
46.12121735879483 11.4636
46.14541619080294 11.4736
46.169806278764455 11.4756
46.194009483459034 11.4301
46.21821486849841 11.4006
46.24242243555223 11.3883
46.266821333570014 11.3483
46.29103328674601 11.3268
46.31524742696538 11.324000000000002
46.33946375590237 11.3225
46.36387149104216 11.2443
46.38809221957392 11.2075
46.41231514186606 11.2306
46.436540259597464 11.2298
46.460956858999374 11.2131
46.48518638983522 11.2192
46.509418121166966 11.1981
46.533652054678114 11.1693
46.55807754555709 11.1176
46.58231590571962 11.122
46.60655647313217 11.0991
46.630988654873654 11.0681
46.655233659129024 11.0348
46.67948087571551 11.0271
46.70373030632484 11.0239
46.72817142736393 10.982000000000001
46.752425308428684 10.9545
46.77668140861147 10.9523
46.80093972960865 10.9145
46.82538981736788 10.8941
46.849652602470904 10.9057
46.87391761349769 10.8517
46.8981848521493 10.7985
46.9226439341274 10.794
46.946915650573224 10.7588
46.97118959976749 10.782
46.99546578341598 10.7354
47.019933887188216 10.7157
47.04421456235744 10.6863
47.06849747711879 10.6858
47.09278263318286 10.6885
47.11725978640143 10.6754
47.14154944775105 10.6232
47.165841355555656 10.6083
47.1901355115306 10.5743
47.214621741924994 10.5714
47.23892041698887 10.5683
47.26322134538975 10.5623
47.28771440635075 10.5466
47.31201986422527 10.5199
47.33632758061436 10.5086
47.360637557241866 10.4558
47.38513974410611 10.462
47.40945426407847 10.4088
47.43377104948137 10.4329
47.45809010204344 10.3999
47.48260144275502 10.4005
47.506925052572285 10.3667
47.53125093475548 10.3563
47.55557909103813 10.3073
47.58009961361992 10.2761
47.60443234110732 10.2642
47.62876734791564 10.2359
47.65310463578333 10.2213
47.6776343683373 10.205
47.7019762413987 10.1704
47.72632040075572 10.1538
47.75066684815169 10.1256
47.77520581885936 10.0992
47.799556865477655 10.0731
47.823910205386 10.0998
47.84826584033272 10.1116
47.87281407745551 10.0589
47.89717432569297 10.0882
47.92153687423484 10.0507
47.94609208429692 10.0437
47.97045925671401 10.0141
47.99482873471275 9.95312
48.01920052005013 9.952110000000001
48.04376504619224 9.93637
48.068141469543484 9.9234
48.09252020552573 9.90935
48.11690125590099 9.86629
48.1414751266064 9.86158
48.16586082917454 9.86842
48.19024885144316 9.8434
48.2146391951793 9.790569999999999
48.239222439012764 9.83939
48.26361744916137 9.77357
48.28801478610016 9.7757
48.31241445160131 9.75177
48.337007097209366 9.72054
48.36141144338331 9.691460000000001
48.38581812345755 9.68183
48.41022713920929 9.70041
48.434829215320704 9.68689
48.45924292604658 9.64536
48.48365897780325 9.6588
48.50807737237308 9.63476
48.532688907799276 9.63113
48.55711201168574 9.58057
48.581537463754074 9.55008
48.60615611725119 9.56732
48.63058628942721 9.558589999999999
48.65501881516546 9.53386
48.6794536962573 9.48638
48.70408185970339 9.49115
48.72852147531801 9.4344
48.75296345168211 9.406880000000001
48.77740779059232 9.40243
48.80204549302823 9.42186
48.82649458091802 9.411760000000001
48.85094603676547 9.365039999999999
48.87539986237231 9.31653
48.90004713292306 9.346039999999999
48.92450572200832 9.3053
48.94896668628025 9.262360000000001
48.97343002754588 9.25407
48.99808689542115 9.26024
49.02255501470614 9.255989999999999
49.04702551642794 9.21465
49.0714984023988 9.183119999999999
49.096164896893235 9.1579
49.120642575466796 9.1709
49.145122643748394 9.154710000000001
49.16960510355558 9.14894
49.19428125404938 9.12355
49.2187685210852 9.12148
49.243258185121555 9.06879
49.26794160167084 9.01689
49.2924360839405 9.05493
49.31693296869764 9.003589999999999
49.34143225776915 9.0255
49.36612538195438 8.99279
49.39062950396021 8.99667
49.41513603578346 8.979339999999999
49.4396449792564 8.96972
49.46434784069503 8.94171
49.488861631846454 8.9096
49.513377840166804 8.894689999999999
49.537896467493745 8.86688
49.56260909589029 8.83168
49.587132585683285 8.82062
49.611658500018365 8.8175
49.636186840738596 8.79888
49.66090926588511 8.80395
49.685442483902584 8.77665
49.70997813385706 8.74395
49.734516217597076 8.7446
49.75924846937352 8.71826
49.7837914452858 8.71803
49.80833686055187 8.70289
49.83288471702571 8.66639
49.85762682540054 8.66134
49.882179588965734 8.65377
49.9067347993235 8.627410000000001
49.93129245833333 8.61761
49.95604445336378 8.61336
49.98060703442832 8.6052
50.005172069746266 8.57359
50.02993150438364 8.48976
50.05450147301533 8.4937
50.07907390151433 8.5173
50.10364879174981 8.48145
50.12841816587289 8.47971
50.1529980044635 8.46647
50.17758031042124 8.47435
50.20216508562089 8.45479
50.22694442953363 8.39503
50.25153416817468 8.36327
50.27612638170508 8.38308
50.300721072005196 8.32075
50.325510416102105 8.34631
50.350110084975064 8.34371
50.37471223628208 8.3542
50.39931687190919 8.30827
50.424116246675766 8.29111
50.44872587605249 8.27559
50.47333799543065 8.23372
50.49795260670191 8.21853
50.52276204271512 8.23092
50.54738166295838 8.19474
50.57200378079314 8.21464
50.596628398116835 8.1714
50.62144792604559 8.16078
50.646077567609396 8.14308
50.670709714377715 8.14737
50.69553683636198 8.12036
50.72017401885922 8.08204
50.7448137122895 8.11478
50.76945591856022 8.08585
50.79429318636823 8.05304
50.818940443716784 8.06066
50.84359021965163 8.00385
50.868242516085964 8.00838
50.893089960641895 8.00646
50.917747323549435 7.9778199999999995
50.94240721271973 7.96059
50.96706963007175 7.9397
50.99192728239342 7.93237
51.01659478166073 7.94015
51.04126481489051 7.90795
51.06593738400761 7.89485
51.090805275207074 7.85235
51.11548294172845 7.8750800000000005
51.14016314993547 7.86315
51.164845901758845 7.81957
51.18972406304274 7.82153
51.21441192780656 7.77703
51.23910234200271 7.7637
51.2637953075678 7.77355
51.288683770237945 7.72946
51.31338186432707 7.715789999999999
51.33808251561888 7.68823
51.362978729967345 7.721830000000001
51.387684521509755 7.66447
51.41239287610203 7.65437
51.437103795691165 7.66633
51.46201036644977 7.6294699999999995
51.486726441956634 7.58665
51.51144508832545 7.60917
51.536166307509156 7.5894699999999995
51.56108326624387 7.53448
51.58580965706056 7.534
51.61053862657523 7.5109
51.635270176746864 7.512760000000001
51.66019755512065 7.5194
51.68493429268881 7.47845
51.70967361681515 7.48555
51.73441552946465 7.473039999999999
51.759353359237934 7.4308
51.7841004750961 7.4437
51.80885018539685 7.45993
51.833602492111254 7.415780000000001
51.8585508051424 7.41397
51.883308330926425 7.36017
51.90806845906181 7.359310000000001
51.932831191525715 7.32592
51.95779001977161 7.31325
51.98255798721516 7.277489999999999
52.00732856494335 7.271839999999999
52.03229530577543 7.26755
52.057071130455945 7.26761
52.081849571391054 7.20935
52.106630630568695 7.243460000000001
52.13160794279417 7.19158
52.15639426492067 7.19583
52.18118321127822 7.1674
52.205974783860896 7.16838
52.23096269971011 7.148219999999999
52.255759551287994 7.129010000000001
52.280559035098186 7.123130000000001
52.30536115314103 7.095680000000001
52.33035970494467 7.088610000000001
52.35516711807904 7.08868
52.37997717147198 7.02355
52.40478986713005 7.031739999999999
52.42979908731974 7.04015
52.454617094216 7.05968
52.47943774942214 7.01686
52.50426105495102 6.98877
52.529280976059844 6.9539100000000005
52.554109609024096 6.93624
52.57894089837482 6.940989999999999
52.60377484613117 6.9435
52.62880550079408 6.9062399999999995
52.65364479223379 6.87989
52.67848674816189 6.87414
52.70352547971946 6.82827
52.72837279155837 6.87695
52.753222773982785 6.86516
52.778075429022984 6.845089999999999
52.80312495150885 6.833410000000001
52.827982978797436 6.8253
52.85284368481815 6.7649
52.87770707160767 6.734210000000001
52.90276741793998 6.76996
52.92763619336701 6.7327
52.952507655698504 6.75712
52.977381806977576 6.730339999999999
53.00245301017842 6.7093
53.02733256653592 6.7058
53.052214817996074 6.70038
53.077099766608484 6.646889999999999
53.102181859804446 6.68019
53.127072229988265 6.6769300000000005
53.15196530349892 6.65085
53.17686108239249 6.57989
53.20195409881522 6.58718
53.22685531582556 6.59753
53.25175924441303 6.55505
53.27666588664027 6.557589999999999
53.30176985962693 6.52766
53.3266819565689 6.533580000000001
53.35159677336455 6.52384
53.376514312083096 6.4461
53.40162927507703 6.459980000000001
53.42655228516116 6.49138
53.45147802340193 6.4385699999999995
53.47660125628886 6.45069
53.50153247842639 6.44104
53.52646643496923 6.38074
53.55140312799818 6.392119999999999
53.576537409691696 6.39639
53.60147960336152 6.38986
53.626424539786164 6.341069999999999
53.65137222105307 6.3402199999999995
53.67651758529126 6.35241
53.70147078399681 6.31781
53.72642673383343 6.31002
53.75138543689533 6.28015
53.776541917524526 6.29181
53.801506154876755 6.23917
53.826473151763246 6.22074
53.851442910284916 6.19229
53.87661054126026 6.19658
53.9015858509782 6.21028
53.92656392866066 6.18061
53.95154477641532 6.219519999999999
53.976723591801296 6.20361
54.00171000771266 6.15894
54.02669920004598 6.13322
54.051691170915745 6.1763699999999995
54.076881204886796 6.1095
54.101878760928514 6.093030000000001
54.12687910187696 6.04975
54.152077577768296 6.02625
54.1770835166946 6.01166
54.20209224691339 6.01412
54.22710377055121 6.00974
54.25231352511594 6.00261
54.27733066384342 5.96554
54.30235060239643 5.94733
54.32737334290836 5.96454
54.35259441062629 5.923690000000001
54.377622783395324 5.88446
54.40265396455061 5.90491
54.42768795623251 5.87999
54.45292037169559 5.83744
54.477960012857906 5.79014
54.50300247099511 5.7685900000000006
54.52804774825457 5.822769999999999
54.55329154616743 5.77534
54.57834249018678 5.7439800000000005
54.6033962597977 5.72851
54.6284528571545 5.66299
54.653708072335164 5.61201
54.67877035378786 5.63556
54.70383546947698 5.6233
54.72890342156389 5.637569999999999
54.7541700889442 5.5572099999999995
54.77924374251975 5.54465
54.8043202390049 5.5316
54.82959552413022 5.5248800000000005
54.8546777351945 5.500030000000001
54.87976279569621 5.45759
54.90485070780914 5.500859999999999
54.930137506558005 5.39331
54.95523115074295 5.44524
54.98032765308844 5.4143300000000005
55.005427015775496 5.35679
55.03072536339621 5.33676
55.05583047570572 5.33315
55.080938454927676 5.30025
55.10604930325027 5.2794
55.131359235107396 5.27398
55.15647585066083 5.24266
55.181595341907496 5.20728
55.20671771104285 5.17442
55.232039262617704 5.1943
55.25716741665048 5.18499
55.28229845518636 5.12743
55.30743238042802 5.07472
55.33276558731939 5.03479
55.357905315183636 5.04504
55.383047936390035 5.03505
55.40819345314859 5.01653
55.433538351073295 4.98766
55.458689688238415 4.907769999999999
55.483843927614096 4.86716
55.509197623043605 4.91022
55.53435769621134 4.87296
55.55952067826466 4.88206
55.5846865714265 4.823230000000001
55.61005202069737 4.84068
55.63522376553902 4.8241
55.66039842818645 4.79913
55.68557601087004 4.76368
55.7109532500271 4.737419999999999
55.73613670233794 4.76462
