TT I
1.2716486653135266 7.15326
1.2939594142134223 6.76705
1.3162702121660406 6.50611
1.3385810600174564 6.67428
1.3608919586137629 6.659260000000001
1.383202908801069 6.032109999999999
1.405513911425503 5.8769
1.4278249673332093 6.21005
1.4501343378461518 5.9423
1.4724455028545926 5.64979
1.4947567236847858 5.91216
1.517068001182951 6.291980000000001
1.5393793361953272 5.54761
1.5616907295681737 5.4124099999999995
1.5840021821477681 5.24979
1.60631369478041 4.6956
1.6286252683124185 4.86902
1.6509369035901333 4.24972
1.6732468618895553 5.1386
1.695558623192809 4.77407
1.7178704487808514 5.0479
1.7401823395001077 5.49084
1.7625012545597203 5.04346
1.7848028405262486 5.07731
1.8071218901122095 4.57986
1.8294236121921872 4.42713
1.8517427996910911 5.10386
1.8740620574440425 4.74655
1.8963639900671978 4.51543
1.9186833908139995 4.33006
1.9409854680117449 4.91111
1.9633050151394713 5.163959999999999
1.9856246367570705 4.51513
2.0079269371922672 4.58028
2.03024671027244 4.83341
2.0525491637446027 4.6273800000000005
2.074869091674931 4.84863
2.097171701569106 5.34243
2.1194917877373847 4.77184
2.141811954326636 5.27179
2.164114805233074 5.15925
2.186435135143035 5.87045
2.208738150935709 12.7297
2.231058647554722 26.0207
2.2533792288321184 20.327
2.275682498336085 9.65081
2.298003251406138 6.3345
2.3203066942619714 5.82951
2.3426276225136022 5.78156
2.3649486396617507 6.29076
2.387252348930071 6.607880000000001
2.4095735463442893 6.43193
2.4318774374315884 6.29499
2.4541988185014043 6.60925
2.476502894794693 7.01647
2.498824462909887 6.92128
2.521146125856138 7.712619999999999
2.5434504863470337 7.5823100000000005
2.5657723414244717 7.75847
2.588076895590662 7.82937
2.610398946189713 7.535889999999999
2.6327210958598384 8.195839999999999
2.6550259469304716 8.97436
2.6773482972090137 9.110389999999999
2.6996533504259 8.49746
2.7219759047039602 8.52477
2.744298562293959 8.60881
2.7666039251246595 8.1373
2.7889267918020164 8.18197
2.8112323652516555 8.295819999999999
2.833555444408179 8.89597
2.8558786311183852 8.44153
2.8781845268938557 9.027989999999999
2.9005079311721484 9.01634
2.9228140460410397 9.43241
2.9451376712799635 10.128
2.967444008632326 9.55897
2.9897678582247247 9.36533
3.0120918213106695 10.5591
3.0343984987899373 10.9325
3.0567226913198637 11.2053
3.079029599759726 12.1211
3.101354025127254 12.5559
3.123678568232338 13.5765
3.145985829517914 13.4716
3.16831061055229 13.9197
3.1906181112775593 14.7029
3.212943133635653 15.0157
3.2352682779763207 15.4377
3.2575761442691227 15.3919
3.2799015350264273 16.28
3.302209649240067 16.1689
3.3245352898092655 16.8787
3.3468436553365257 17.3021
3.369169549113219 17.7861
3.3914955708171384 18.4722
3.413804319727358 19.1625
3.4361305997334863 19.1665
3.4584396084414553 19.403
3.4807661501462652 19.9961
3.503092824025881 20.7083
3.5254022288463154 21.3024
3.5477291695206588 21.7635
3.5700388426251948 22.4874
3.5923660534916446 24.3155
3.6146934007816114 37.9291
3.637003482731501 81.9947
3.6593311053109985 90.1622
3.681641464033634 53.3606
3.7039693653009733 29.7053
3.726297407241705 26.3329
3.7486081875460804 25.2532
3.7709365132734978 25.8013
3.793247578841633 26.3545
3.8155761917550093 26.4619
3.8378875459837216 27.1395
3.8602164494827234 27.1461
3.882545499606844 27.6995
3.9048572932539183 28.7934
3.9271866390645718 29.2485
3.9494987298666713 29.4387
3.971828374764527 30.0614
3.9941581705403255 30.6174
4.016470713506008 31.2795
4.038800813471445 31.7966
4.061113662089144 32.3442
4.0834440696459176 33.3054
4.105774632334751 33.6392
4.128087945865126 34.3069
4.150418821249301 35.2688
4.172732448931298 36.1847
4.195063640413578 37.759
4.2173775856475215 41.4809
4.239709096631102 71.5575
4.262040768704612 219.213
4.284355196706267 292.752
4.306687193387355 190.368
4.329001947444346 77.2629
4.35133427213731 47.3543
4.373666762177566 44.1698
4.395982011761091 43.9006
4.418314834921175 45.1554
4.44063041906622 52.5695
4.4629635787515625 61.9205
4.4852969080429785 62.3155
4.5076130004776225 53.05
4.529946671403969 49.6902
4.552263106909177 49.9908
4.574597122877047 50.4753
4.596931312711224 51.8085
4.619248269273446 52.2658
4.6415828092605835 53.2885
4.663900117405352 54.763000000000005
4.686235010953232 56.1758
4.708552674085913 57.2275
4.730887924602802 58.9293
4.753223354952695 60.1972
4.775541557023902 61.6165
4.797877349456786 63.2469
4.820195915032126 65.111
4.842532072957498 66.7706
4.864868414979744 67.9988
4.88718753227192 70.6835
4.909524244902505 72.3202
4.931843734218147 73.8353
4.954180820867835 75.9809
4.976518095879839 79.0863
4.998838149695359 82.2188
5.021175803844231 85.4263
5.043496238205739 87.7751
5.065834274903528 91.7532
5.088172504230693 95.5497
5.1104935158799565 101.697
5.132832132875765 121.704
5.155153533596801 160.282
5.1774925416746225 187.22299999999998
5.199814334878411 284.35400000000004
5.2221537374521505 772.44
5.244493338631803 2490.44
5.266815727034316 7639.44
5.289155727832427 13471.9
5.311478517248165 9018.55
5.333818921080011 2788.26
5.356159527788849 510.625
5.3784829252032536 172.649
5.400823940070432 138.415
5.423147747031976 124.264
5.445489173474152 115.41
5.467830807066149 110.596
5.490155234831516 107.571
5.512497285125229 104.167
5.534822130975162 102.056
5.557164601388673 99.9814
5.579489868738879 97.2745
5.601832762690846 96.6339
5.6241758697774475 95.4204
5.646501775867269 94.3539
5.668845311622074 93.084
5.691171647754637 92.2796
5.713515615597765 91.2024
5.735859800852677 90.0355
5.758186788542988 89.8005
5.780531411018185 90.0457
5.802858837297399 89.4371
5.825203900414495 89.6069
5.8475491852224 89.838
5.869877275883075 90.3973
5.892223006467101 90.9574
5.914551544266608 90.9641
5.936897724049891 93.066
5.959244129804903 96.694
5.981573344815301 109.883
6.0039202049061 177.23
6.026249875609095 373.575
6.04859719346037 829.638
6.070927323278297 2137.19
6.093275102315365 4639.64
6.115623113320588 5330.91
6.137953938319995 3138.2
6.160302415650845 891.704
6.182633708324452 209.165
6.2049826554078376 106.727
6.227331838745022 88.5083
6.249663839443684 82.6518
6.27201349767565 80.3526
6.294345974611799 86.3958
6.316696111167083 96.4528
6.339046488263839 91.2818
6.361379686074702 77.51899999999999
6.383730546639482 70.4263
6.406064229255215 67.4714
6.428415576718203 67.142
6.450749747566656 66.3262
6.47310158535871 65.2395
6.495453669698332 64.3544
6.517788579421056 64.0999
6.540141159237969 62.8894
6.562476565766648 62.6608
6.5848296444934045 61.7642
6.607182974060425 61.9233
6.6295191323281015 62.0797
6.651872965955752 65.2288
6.6742096296068985 88.8768
6.6965639707294615 130.905
6.71891856698715 129.713
6.741255995248479 90.4375
6.763611104154477 66.2812
6.785949046381137 59.6235
6.808304671371482 57.7179
6.8306605557940046 57.3225
6.852999275508618 56.6219
6.875355681171544 56.3939
6.897694923437771 56.132
6.92005185377892 56.0039
6.9423916220322655 55.7169
6.964749080490181 54.815
6.987106804399774 54.8842
7.009447368180821 54.9392
7.031805625367033 54.9216
7.054146723727803 54.4906
7.076505517631004 54.4798
7.098864581288365 54.2541
7.121206488070854 54.1963
7.143566093607822 54.1689
7.165908543567245 54.4699
7.188268694426048 54.5486
7.2106291193438095 54.6902
7.232972390625943 56.1729
7.255333366030969 68.4078
7.277677189091925 119.304
7.300038718428332 159.405
7.322400526130865 134.029
7.344745183422596 85.0872
7.367107550224791 60.4796
7.389452767901992 55.3736
7.411815697249891 54.7443
7.434161478756298 53.9185
7.456524974096713 53.5924
7.478888753837185 53.2905
7.501235387657368 53.7219
7.523599738562711 53.8454
7.545946944825532 54.2041
7.568311870344528 54.3633
7.5906770845765665 54.6719
7.613025156078678 55.9201
7.635390950099687 56.8172
7.657739602662809 56.2133
7.680105979923558 55.2081
7.702472650212829 55.0659
7.724822180948224 55.2422
7.747189439655568 55.2612
7.769539560075357 55.3791
7.791907410653562 55.8894
7.81425812420825 56.0886
7.836626570110925 56.1408
7.858995315087906 56.9925
7.881346924933401 56.9769
7.903716270417482 57.4206
7.926068482028405 58.0261
7.948438431475253 58.3227
7.9708086843180235 58.8371
7.993161805171116 59.4899
8.015532667162402 59.9803
8.037886398416653 60.9541
8.060257873014221 61.1246
8.082629655331942 61.7702
8.104984308787587 62.9106
8.127356708900503 66.0347
8.149711981398308 71.3631
8.172085002766314 73.1536
8.194458336181368 70.5875
8.216814543847752 68.1746
8.23918850371002 68.0948
8.26154533906492 69.0061
8.283919928836452 70.7111
8.306277395339652 71.4045
8.328652618483376 72.7154
8.351028159736202 74.4673
8.373386579575245 76.8715
8.395762759396959 78.1793
8.418121819038275 82.8796
8.440498640894003 94.7247
8.462875785192262 107.416
8.485235811156207 115.56
8.507613602688501 145.126
8.529974277114228 219.735
8.552352719347912 342.31
8.574731488360351 595.534
8.59709314210385 1160.55
8.619472567021075 1880.82
8.64183487789147 2270.86
8.664214962183097 1781.67
8.686577933647762 906.033
8.708958680784317 346.681
8.731339760774953 157.219
8.753703729764451 107.786
8.77608547780821 96.2911
8.798450116065078 93.0603
8.820832535634787 91.0371
8.843215292401656 89.2617
8.865580941199045 87.7916
8.887964374703538 87.2101
8.910330701447199 88.3151
8.932714815164482 90.3215
8.955099270424924 89.54
8.977466620733543 86.125
8.999851761421976 83.8708
9.022219798361645 82.3774
9.04460562795561 82.3705
9.066991803441677 81.7478
9.089360876979615 81.5731
9.111747746589993 81.2947
9.13411751544971 80.8426
9.156505082664324 80.5845
9.178875550323522 80.7701
9.20126381862328 80.7713
9.223652438908596 81.3036
9.246023961427412 81.06
9.26841328802173 80.6701
9.290785518039224 80.416
9.313175554425882 81.3527
9.335565947154315 81.2581
9.357939245086508 81.3432
9.380330352834827 81.8796
9.40270436697103 82.4913
9.425096193225055 81.9853
9.447488380180165 82.7333
9.469863475295412 82.5161
9.492256385987508 82.9906
9.514632206018318 83.8949
9.537025843935714 84.115
9.559402392368193 84.8824
9.581796761000229 85.9175
9.604191496441521 86.7198
9.626569144158516 90.1271
9.648964615551032 94.4211
9.671343000390081 96.1219
9.693739211225699 93.7524
9.716135793237463 91.6536
9.738515290448102 91.3199
9.760912617143402 92.3185
9.783292860202891 93.0159
9.805690935076182 94.8616
9.828089385495742 95.5538
9.850470754023561 97.5728
9.872869957865444 105.309
9.89525208097539 119.196
9.917652041736662 130.083
9.940052382417589 128.873
9.962435644102392 131.094
9.984836746950979 157.776
10.007220771957746 212.82
10.029622640473708 304.916
10.052007432299963 478.42199999999997
10.074410069984072 786.689
10.096813093716005 1284.8
10.119199042482517 1812.05
10.141602840636468 1978.13
10.163989564971628 1524.52
10.186394141051062 836.186
10.208799107559706 355.55
10.231187001965623 174.53099999999998
10.253592751657669 121.99799999999999
10.275981430388155 110.213
10.298387966769793 110.14
10.320794897965431 111.90299999999999
10.343184759907361 110.33200000000001
10.36559248305461 105.919
10.387983138083852 101.821
10.410391656691655 102.853
10.432800574501677 111.598
10.455192425893369 125.758
10.47760214443012 150.857
10.499994797678786 193.304
10.522405320453982 275.715
10.54479877906917 407.108
10.567210109595656 526.339
10.5896218454736 586.859
10.612016518879773 493.88599999999997
10.634429067781074 339.283
10.656824555333241 192.88099999999997
10.679237920773568 119.82700000000001
10.701651695961992 94.3709
10.724048411481384 87.8635
10.746463008485165 84.4692
10.768860546937125 83.3343
10.791275969274796 81.8746
10.81369180576079 80.7487
10.836090585366925 79.3685
10.858507252467449 78.3637
10.88090686379991 77.4806
10.903324365036394 76.7267
10.925724811614439 76.5348
10.948143150509463 77.9816
10.970561909719066 77.2372
10.992963615930844 75.4473
11.015383218085756 73.4117
11.037785768347074 72.1784
11.06020621697282 71.88600000000001
11.082627090322113 71.1495
11.105030913430326 70.7618
11.12745263854165 71.292
11.149857314510728 74.5022
11.172279894912576 79.6387
11.194702904450653 80.0713
11.217108866490921 76.2203
11.239532736615194 72.3331
11.26193956033512 70.163
11.284364294577085 68.9456
11.306789462371718 67.1364
11.329197585398376 66.0282
11.351623622610898 65.5969
11.37403261614354 64.7798
11.396459526308487 64.4807
11.418869393879497 64.2863
11.441297180532617 63.9708
11.463725406927658 63.8692
11.486136592353875 63.4362
11.508565700543707 64.1003
11.530977768845315 65.8744
11.553407762368774 66.4723
11.575838200059769 65.9744
11.598251599479612 64.2391
11.620682927815501 62.8219
11.64309721895548 62.7558
11.665529441478206 62.151
11.687962112597958 61.5178
11.710377748130886 61.836999999999996
11.732811318753434 61.5629
11.755227854859067 61.474
11.777662328529495 61.5004
11.800079768750786 61.4454
11.822515149015453 61.5035
11.844950984084935 61.8773
11.867369787303163 61.091
11.889806534289491 61.2944
11.912226250487029 61.4659
11.934663912939751 61.7497
11.9571020346363 61.8226
11.979523127133968 61.816
12.001962169624331 62.3297
12.024384183972964 62.8014
12.046824150809913 65.3323
12.069264581333726 69.8419
12.091687985297767 75.4277
12.11412934550045 84.4951
12.136553680195208 99.51299999999999
12.158995973632788 124.023
12.181438735204349 156.023
12.20386447284199 188.646
12.226308172985636 207.024
12.24873485024193 197.15900000000002
12.271179492516982 161.336
12.293607112949127 121.81700000000001
12.316052700916226 94.3307
12.338498763250042 76.4019
12.360927805303868 68.4475
12.383374818673879 64.9383
12.405804812803074 63.3384
12.428252780773262 63.0663
12.45070122756722 63.2347
12.473132656675375 62.9335
12.49558206341869 63.1828
12.518014453510101 63.3708
12.540464823770117 63.3691
12.562915677315177 63.519
12.58534951575545 64.3174
12.607801338171472 66.1126
12.630236146511358 70.7958
12.652688941369085 75.1518
12.675124723177234 75.4604
12.697578494048786 72.281
12.720032754458185 68.3048
12.742470003354093 66.6168
12.764925245138771 66.7043
12.787363476431278 66.7881
12.809819703166806 67.1165
12.83227642391173 67.9102
12.854716135692716 68.0767
12.877173846755147 69.3585
12.899614549869717 69.6066
12.9220732548287 70.3837
12.94453245827299 70.6913
12.966974655289818 71.654
12.989434858002571 72.5373
13.011878055298721 73.1476
13.034339260862497 74.0447
13.056800969391883 75.1968
13.079245674017244 77.1199
13.101708390774869 78.9083
13.12415410463411 84.3605
13.146617833206086 94.2618
13.169064559883248 104.95100000000001
13.191529303857127 118.73200000000001
13.213994557076367 140.304
13.236442809902437 177.50900000000001
13.258909083908291 237.03799999999998
13.28135835851934 310.217
13.30382565690295 383.295
13.326293469022952 429.316
13.348744283242008 421.395
13.371213125129904 343.236
13.39366497011003 246.671
13.416134845360597 165.399
13.438605238843131 118.56700000000001
13.46105863690397 101.374
13.483530069144786 100.212
13.505984506951902 104.669
13.528456981549432 113.42299999999999
13.550929978879088 128.099
13.573385983253365 151.334
13.595860028340867 192.532
13.618317081455832 249.123
13.64079217790333 311.531
13.663250283359057 357.496
13.685726434770173 370.116
13.708203115221277 323.568
13.730662806148091 247.454
13.75314054697177 176.59
13.775601299246777 123.34
13.798080104050406 94.2085
13.820559442405358 83.416
13.843021793671388 79.9324
13.865502201420897 78.3473
13.887965623051947 78.0743
13.910447103807167 76.9579
13.932929122629764 75.5896
13.955394156785959 75.2001
13.977877254034569 74.3807
14.000343367582113 73.5033
14.022827546871707 72.9642
14.045294743423524 72.2766
14.06778000837062 71.6242
14.090265817715476 71.6056
14.112734645763819 71.2541
14.13522154619454 70.8565
14.157691466286913 70.7991
14.180179461423874 70.4948
14.202668005486178 69.8424
14.22513957064374 69.4904
14.247629214846473 69.1191
14.270101881097517 68.8665
14.29259262906496 69.2639
14.315083930490205 69.6932
14.337558255389705 69.934
14.360050666019726 69.7702
14.382526101071944 68.8092
14.405019624534942 67.7481
14.427513705993134 67.4103
14.449990813291825 67.5218
14.47248601302899 67.2426
14.49496423954951 67.3548
14.517460561197822 67.3977
14.539939910570322 67.3991
14.562437357763558 67.6367
14.58493536931253 69.069
14.607416409993311 69.7361
14.62991555254159 70.3583
14.652397725157423 70.08800000000001
14.674898002342799 69.5941
14.697398848433282 68.9881
14.719882725991326 69.4574
14.74238471217934 70.0929
14.764869730765593 72.6393
14.787372860692983 75.484
14.809876564079925 79.5924
14.83236330125751 84.7805
14.854868153850365 93.10700000000001
14.877356041159485 106.67399999999999
14.899862046604186 125.85600000000001
14.922351087688757 153.859
14.944858249632887 185.71
14.967365991421232 213.938
14.989856770231246 227.582
15.012365673994204 217.63
15.03485761569738 183.00900000000001
15.05736768508665 144.463
15.07987833888692 109.788
15.102372032001655 86.8007
15.124883856909658 74.5588
15.14737872204565 70.7004
15.169891721717274 69.1267
15.192405310371893 68.9301
15.214901940621196 69.2775
15.237416709527137 69.4369
15.259914520936249 69.5415
15.282430473753607 68.4264
15.304947020131227 67.4141
15.327446610371178 66.5962
15.349964346154254 65.7825
15.372465126703139 65.457
15.394984055556009 65.55
15.417486030076159 65.343
15.44000615566487 64.9344
15.462526881230803 64.8118
15.485030653812652 65.0737
15.507552581617434 64.8579
15.530057557334603 65.0797
15.55258069104857 64.8418
15.575104429329837 64.6148
15.597611216864632 64.2647
15.620136166564563 64.3624
15.6426441664095 65.4108
15.665170331202765 66.7992
15.687697105158826 69.4967
15.710206930593545 72.4181
15.732734925158933 76.4488
15.755245972089478 82.4151
15.77777519094324 91.5584
15.800287463046663 104.867
15.822817909869592 125.255
15.84534897229804 149.352
15.867863089299354 174.703
15.890395385222186 190.213
15.912910736597423 194.505
15.935444269699861 179.41099999999997
15.957978423016485 148.34799999999998
15.980495633101265 118.09299999999999
16.003031029129367 92.4921
16.02554948280019 74.85300000000001
16.048086125229432 66.5012
16.070623392487107 63.9213
16.09314371869582 63.1904
16.11568223789321 62.0984
16.13820381691126 61.2411
16.160743591742527 60.3636
16.183283996022084 59.3865
16.205807461423195 58.5512
16.228349126881973 57.9423
16.25087385432698 57.6663
16.27341678466365 57.0035
16.29594277784926 57.1333
16.31848697676433 57.6547
16.341031811604868 57.6829
16.36355971058487 57.9774
16.3861058195587 57.6512
16.40863499352978 56.6549
16.431182380342005 55.7298
16.453730407713202 55.1206
16.476261501364792 54.7233
16.498810812136167 54.2701
16.52134319004079 54.4742
16.54389378792203 54.2815
16.566445031001553 54.2915
16.588979342490088 54.1464
16.61153187824822 53.8747
16.634067483263312 53.7801
16.656621315414416 53.6777
16.679175797408888 53.5089
16.701713349928728 53.4979
16.72426913389191 53.8332
16.74680798922351 53.9113
16.76936507887444 53.9545
16.791905240734874 54.0157
16.814463639794468 53.7182
16.837022695210294 53.8517
16.859564824093756 54.3073
16.882125194503903 54.9466
16.904668639217885 55.6156
16.927230328348003 55.7009
16.949792678493612 55.7267
16.972338104193863 54.9414
16.994901778652235 54.6159
17.017448529496576 54.591
17.040013531998152 54.8012
17.06257920018044 55.0131
17.0851279459922 55.6431
17.107694947817667 56.6055
17.130245028099072 57.3558
17.15281336730298 58.5317
17.17536478578733 60.1793
17.19793446610687 62.2327
17.220504818648422 65.5753
17.243058251703697 69.1985
17.265629950971032 74.3386
17.288184731571736 78.8796
17.310757781306908 82.4866
17.33333150794385 82.5725
17.355888317140174 79.8188
17.37846339986244 75.0977
17.401021565958885 69.232
17.42359800851343 64.1077
17.44617513265564 60.4682
17.468735341390783 58.7559
17.491261035594565 57.917
17.51396340099364 57.6552
17.536490463869136 57.8964
17.559018209820174 57.8783
17.58154663977963 57.9948
17.604251766089718 58.059
17.626781572227713 58.3336
17.64931206518155 58.702
17.671843245885103 59.1421
17.69455114821572 59.2815
17.717083712612634 59.5811
17.739616967569667 59.7703
17.762150914021706 60.056000000000004
17.78486160749854 60.089
17.807396945166804 60.7322
17.829932977143503 61.288999999999994
17.85246970436452 62.4738
17.875183204129467 64.1239
17.897721330097664 66.2437
17.920260154126645 68.2727
17.942799677153296 71.1428
17.9655159983646 74.5911
17.988056927677544 80.3873
18.010598558807683 88.2856
18.033140892692916 98.9168
18.05586005052525 110.868
18.07840379824407 122.695
18.10094825154059 131.72
18.12366954819864 137.19899999999998
18.146215420998306 135.007
18.16876200220057 125.095
18.191309292745153 111.46700000000001
18.214033452627167 99.0079
18.236582170236648 88.4592
18.259131600016456 84.2585
18.281681742907335 84.8373
18.304408781233683 90.0439
18.32696035875955 95.6539
18.349512652227624 100.976
18.372065662579683 104.632
18.394795594587553 104.962
18.41735004715306 99.8824
18.43990521943684 93.0068
18.46246111238171 83.6765
18.485193953325208 74.8388
18.507751296070428 68.1628
18.530309362314178 64.3683
18.552868153000343 62.0932
18.57560391815056 60.9533
18.59816416623245 60.5384
18.620725141597372 59.9328
18.643286845190268 59.5978
18.666025549835414 59.2679
18.688588718427933 58.5185
18.711152618092243 58.466
18.73389353884365 58.18
18.75645890921984 57.9537
18.77902501351406 57.5813
18.801591852673102 57.5982
18.824335739722738 56.7986
18.846904057212626 56.9779
18.8694731124168 56.6442
18.89204290628315 56.5398
18.914789774966803 56.4663
18.937361054791623 56.1118
18.959933076131318 55.8418
18.982505839934877 55.8006
19.00525570560582 55.9367
19.027829963004184 55.6525
19.05040496572238 55.7707
19.072980714710468 55.72
19.095733592739563 55.83
19.11831084296757 56.2393
19.140888842324735 56.5019
19.16346759176222 56.8392
19.18622349753803 57.1697
19.208803755869358 58.1007
19.231384767143577 59.4401
19.253966532312948 60.8134
19.276725481241822 62.968999999999994
19.29930876296784 65.9495
19.3218928014549 68.9146
19.34465404436217 71.7488
19.36723960516257 74.3404
19.389825925592426 74.7364
19.412413006605938 73.6404
19.43517731967805 70.1029
19.457765930683355 65.9727
19.48035530514408 61.3435
19.50294544401556 57.9697
19.525712842708348 55.2383
19.54830451925909 53.9101
19.570896963095727 53.1294
19.593490175174704 52.7842
19.616260674962184 52.8276
19.638855432416964 52.6101
19.661450960992624 52.6616
19.68404726164677 52.6461
19.706820878021247 52.4635
19.729418731756834 52.5719
19.752017360452857 52.2549
19.77461676506804 52.4978
19.797393513540218 52.6265
19.819994478951667 52.657
19.84259622316767 53.0916
19.8651987471481 53.4734
19.887978643247177 53.8668
19.91058273574792 54.2623
19.933187610901943 55.0528
19.955969879466828 56.3077
19.97857632894404 57.6805
20.00118356396599 59.5089
20.023791585494575 61.735
20.046577028914875 64.5325
20.069186632506966 66.8177
20.091797025500632 68.2485
20.114408208858933 68.7373
20.137196842715273 67.4685
20.159809615886765 65.8529
20.18242318232135 63.5605
20.20503754298326 61.7666
20.227829382875154 61.144
20.250445341109344 61.3102
20.27306209647285 62.1596
20.29567964993108 63.7739
20.31847471147704 64.6745
20.34109387027612 64.9389
20.363713830075454 64.6925
20.386334591841646 62.4981
20.409132890679302 59.6931
20.431755265564437 56.7921
20.454378445325528 54.1599
20.477002430930366 52.3655
20.499803982716553 51.3788
20.522429589228004 50.732
20.54505600449589 50.306999999999995
20.567683229489194 50.0177
20.590488049900088 49.5239
20.61311690359731 49.0718
20.63574656993626 48.9756
20.658553853717297 48.7636
20.681185154618298 48.795
20.703817271080066 48.7008
20.72645020407368 48.3097
20.749260783967177 48.3617
20.771895359337133 48.2131
20.794530754161617 47.956
20.817166969412938 47.8956
20.83998086114876 47.8126
20.86261872660049 47.8377
20.885257415405402 47.8154
20.90789692853701 47.5928
20.930714147864748 47.5493
20.953355319030678 47.7793
20.97599731745334 47.8137
20.99864014410749 47.498999999999995
21.021460706796564 47.5441
21.044105199328826 47.8453
21.06675052302631 48.0281
21.089396678865015 48.1607
21.112220600704806 48.6092
21.134868430275347 48.6994
21.15751709492456 49.0958
21.180166595629693 49.6107
21.202993892429635 50.2123
21.22564507473034 50.441
21.24829709602816 50.4155
21.27112693608965 50.5411
21.293780644891275 50.2947
21.316435195634053 49.7152
21.339090589297417 49.006
21.361923832041875 48.7222
21.384580921090404 48.0759
21.407238856007325 47.5621
21.429897637773326 47.5936
21.45273429906592 47.3711
21.475394784108598 47.5304
21.498056118951983 47.3689
21.520718304578022 47.6347
21.543558400304388 47.7387
21.566222297108816 47.968999999999994
21.58888704765135 47.7732
21.61155265291521 48.0344
21.63439619898156 48.519
21.657063523335786 48.7143
21.67973170537063 49.12
21.7024007460706 49.5962
21.72524775840385 50.4965
21.747918526116475 51.437
21.770590155457388 52.602
21.79326264741238 54.5154
21.816113141960237 56.3766
21.838787368860547 58.5538
21.861462461341976 60.5193
21.884315579735777 62.538999999999994
21.90699241312273 63.4165
21.92967011506078 63.3746
21.95234868653799 62.6634
21.9752053151131 61.223
21.997885635446785 59.593999999999994
22.020566828293532 58.0495
22.04324889464272 56.5956
22.066109049404666 55.6659
22.088792872571794 55.1434
22.111477572219204 55.2593
22.1341631493376 55.2331
22.157026846313123 54.8661
22.179714188221507 53.9565
22.202402410582668 53.0259
22.22509151438863 51.6689
22.24795876962584 50.2923
22.270649646204486 49.5626
22.293341407213727 48.9649
22.316034053646906 48.4011
22.338904883215342 48.1258
22.36159931041458 48.0515
22.38429462602756 47.9586
22.40699083104897 47.8734
22.429865251039757 48.0077
22.452563244831367 47.8306
22.47526213102522 47.84
22.49813925616515 47.8585
22.520839937143307 47.8034
22.543541513520587 47.7407
22.56624398629403 47.5667
22.589124730075895 47.4644
22.611829005656723 47.7812
22.63453418063466 47.8021
22.657240256008077 47.88399999999999
22.680124634582935 47.8978
22.70283252079775 48.2203
22.725541310413075 48.4586
22.74825100442868 48.628
22.771139033969575 49.07
22.79385054687155 49.4221
22.81656296718292 50.0787
22.83927629590484 50.9596
22.862167992606945 52.0731
22.88488314827121 53.2975
22.907599215359284 54.455
22.93031619487366 55.544
22.953211574954405 56.3496
22.975930389478226 56.9818
22.998650119445763 56.9149
23.02137076586092 56.1158
23.044269845560063 54.6915
23.06699233506288 53.2571
23.089715744034912 51.4251
23.112617610931565 49.8811
23.135342869061212 48.7958
23.158069049684816 48.0701
23.1807961538087 47.8559
23.20370174880544 47.8683
23.226430710184808 47.8678
23.249160598093425 47.9286
23.271891413539002 47.8108
23.294800752937697 47.792
23.31753343374794 48.0617
23.340267045128353 48.1129
23.36300158808808 48.3809
23.38591468821339 48.6569
23.408651104658304 49.0514
23.431388455719986 49.7139
23.454126742409 50.5965
23.4770436196085 51.748999999999995
23.499783787914662 53.1254
23.522524894889884 54.2964
23.54526694154616 55.5727
23.56818761219047 56.5618
23.59093154860734 56.6871
23.613676427751283 56.9355
23.636422250635754 55.9205
23.659346731118656 54.3031
23.68209445191868 52.5899
23.704843119509587 50.5067
23.72759273490623 48.7788
23.750521041644767 47.3075
23.77327256312355 46.3464
23.796025035462787 45.8573
23.818956224555475 45.356
23.841710609113413 45.1274
23.86446594758979 44.9131
23.887222241002014 44.6237
23.910157285144578 44.4078
23.932915498962537 44.3665
23.955674670778713 44.246
23.978434801611975 44.0614
24.001373717286125 44.1014
24.024135776723917 43.9085
24.046898798245582 43.7415
24.06966278287146 43.7298
24.092605586582614 43.4417
24.115371508023642 43.317
24.1381383956401 43.1778
24.16090625045381 43.2372
24.183852958731244 43.1858
24.206622758582608 42.9771
24.229393528706886 42.7734
24.252165270127392 42.9499
24.27511589952438 42.82899999999999
24.297889594216997 42.6458
24.32066426328598 42.5956
24.34343990775613 42.5405
24.36639447485003 42.5312
24.38917208083877 42.2631
24.41195066531332 42.1805
24.43490819850244 42.3196
24.457688750692377 42.3049
24.48047028445616 42.1863
24.503252800821233 42.3481
24.526214300784112 42.3103
24.548998793132213 42.3205
24.57178427117417 42.2294
24.59457073593893 42.248000000000005
24.617536219319863 42.1035
24.64032466834748 42.0724
24.663114107195035 41.8711
24.685904536893013 41.7052
24.708874020360852 41.7958
24.731666442613744 41.601000000000006
24.754459858818787 41.6096
24.777254270007962 41.6139
24.80022777025625 41.3799
24.82302418230472 41.5036
24.845821592443674 41.4638
24.86862000170663 41.418
24.891597535453727 41.2473
24.914397953892728 41.4666
24.93719937456671 41.4208
24.96000179851076 41.5422
24.98298338249997 41.6676
25.00578782394922 41.839
25.028593271784167 42.0378
25.05157790644186 42.3896
25.07438537804115 42.5414
25.097193859145293 42.92100000000001
25.120003350792075 43.0984
25.142992065061257 43.4167
25.165803588823465 43.6866
25.18861612625217 43.7737
25.211429678386736 43.88399999999999
25.234422489079968 43.9764
25.257238081693636 44.062
25.280054692141732 44.2476
25.3028723214652 44.228
25.325869245420463 44.2193
25.348688923599397 44.2429
25.371509623787006 44.1698
25.394331347025812 43.7523
25.41733240110666 43.14
25.440156181590016 42.6324
25.46298098826268 42.2355
25.48580682216873 41.5718
25.50881202326435 41.1257
25.53163992281684 40.5944
25.55446885274561 40.3241
25.577298814096377 40.125
25.600308179121807 40.0556
25.623140214533745 40.1952
25.64597328451537 40.0285
25.66898578564376 39.7333
25.691820936010206 39.7643
25.714657124097695 39.7326
25.737494350954734 39.7966
25.760511045684957 39.6516
25.783350361364224 39.8308
25.806190718969255 39.6822
25.82903211955018 39.7786
25.852053024868923 39.8509
25.874896522722523 39.8193
25.897741066713106 39.6936
25.920586657892454 39.9506
25.943611790812668 39.9944
25.966459487728237 40.1972
25.989308234998564 40.1969
26.01215803367705 40.5719
26.03518741123814 40.71
26.05803932412957 40.9293
26.080892291600094 40.8409
26.10374631470478 40.8352
26.12677995397268 41.0104
26.14963609978026 40.9677
26.172493304397875 40.4051
26.19535156888223 40.2951
26.218389486949604 40.075
26.241249882640123 39.6906
26.26411134137826 39.4682
26.28715248187403 39.4667
26.31001607820869 39.2418
26.3328807407756 39.1677
26.35574647063438 39.358000000000004
26.37879191991473 39.3497
26.401659795896734 39.3188
26.424528742360263 39.5607
26.447398760366614 39.6694
26.470448535598294 39.6702
26.49332070826805 40.0235
26.516193955675355 40.3954
26.53906827888316 40.5216
26.562122397260108 40.7609
26.584998883685063 41.1169
26.607876449110325 41.3952
26.63075509460056 41.4429
26.65381357334404 41.6009
26.67669439061878 41.5041
26.699576291163382 41.3816
26.722459276044212 41.3103
26.745522132402975 40.9913
26.768407297649354 40.7623
26.791293550442003 40.4196
26.814180891848974 40.0332
26.837248143099337 39.7595
26.860137673466657 39.6714
26.88302829566349 39.4015
26.90592001075963 39.1135
26.92899167420566 39.0979
26.951885586870763 38.7295
26.974780595655517 38.5763
26.99785558178161 38.3904
27.020752794605112 38.4096
27.043651106772522 38.195
27.06655051935668 38.114000000000004
27.089629948036183 37.9903
27.112531573292053 37.9255
27.135434302194138 38.0873
27.158338135817015 37.8471
27.181422024430987 37.8604
27.204328079372566 37.8145
27.22723524226965 37.7863
27.250143514198573 37.8373
27.273231880156334 37.8137
27.296142382065014 37.654
27.319053996245536 37.6096
27.341966723775965 37.7828
27.365059584515222 37.7128
27.38797455070062 37.8477
27.410890633481237 37.7263
27.433807833936918 37.7708
27.456905206923906 37.9189
27.47982465472398 37.9155
27.502745223449743 37.9089
27.525666914182825 37.9756
27.548768816912457 37.9145
27.571692763693633 37.724000000000004
27.59461783573812 37.6503
27.617723149491244 37.4773
27.640650484125285 37.4067
27.66357894728264 37.4465
27.686508540048052 37.4498
27.709618414237887 37.3589
27.732550278321757 37.1226
27.755483275279115 37.1461
27.778417406196485 37.0886
27.801531858397514 37.0445
27.824468269376716 37.1623
27.847405817586786 37.1826
27.870344504116094 37.295
27.893463551932008 37.3005
27.916404527281053 37.5918
27.93934664422563 37.6741
27.962289903855886 37.7718
27.98541356491974 38.0177
28.00835912214229 38.1298
28.03130582533231 38.407
28.054253675581805 38.523
28.077381967556104 38.3557
28.100332124185126 38.2592
28.123283431160893 38.2934
28.146235889577238 38.088
28.169368830154156 37.9907
28.192323603752033 37.7678
28.215279532083304 37.5661
28.238415973016764 37.329
28.261374223145094 37.1617
28.284333631303806 36.9658
28.307294198589954 36.8338
28.330435319167677 36.4541
28.353398217078915 36.2855
28.376362277420153 35.9602
28.39932750129032 35.9242
28.422473319286713 35.8245
28.44544088262495 35.7855
28.468409612800283 35.5336
28.491379510913497 35.3371
28.51453004413313 35.2878
28.53750229057244 35.305
28.56047570826344 35.2903
28.583450298308804 35.1609
28.606605564586562 35.0811
28.629582511831156 35.044000000000004
28.65256063474956 35.0827
28.675539934446338 34.9277
28.698699951647605 35.0674
28.72168161743193 34.7437
28.74466446331978 34.8235
28.767648490417624 34.7963
28.790813276438353 34.9333
28.813799678527303 34.8609
28.836787265157085 34.773
28.859955641890075 34.8611
28.882945610203045 34.8006
28.905936766392035 34.7041
28.928929111566863 34.6813
28.952102288520145 34.6693
28.975097024308607 34.5161
28.998092952423807 34.3388
29.021090073977508 34.3502
29.04426806913204 34.2456
29.067267590245258 34.0461
29.090268308143695 34.0918
29.11327022394099 33.911
29.13645305530891 33.7992
29.159457379627167 33.7121
29.18246290519685 33.7165
29.20546963313352 33.7119
29.22865731875826 33.7111
29.25166646419296 33.7167
29.27467681535305 33.6651
29.29768837335608 33.8737
29.320880931312562 33.8087
29.34389491580634 33.6528
29.366910110507334 33.684
29.38992651653503 33.6765
29.41312396492981 33.6327
29.436142806456754 33.5835
29.45916286268059 33.5561
29.48236399319994 33.3895
29.50538649169417 33.3194
29.528410208259935 33.1118
29.55143514402014 32.9156
29.574641196749695 32.8267
29.597668583816574 32.7675
29.6206971934585 32.443000000000005
29.64372702680042 32.6031
29.666938019934474 32.4448
29.689970313635285 32.5049
29.713003834422636 32.3746
29.73603858342347 32.4432
29.759254535188578 32.2976
29.78229175361658 32.2944
29.80533020365064 32.2946
29.82836988641968 32.2189
29.85159081507472 32.2235
29.874632976355343 32.0703
29.89767637376955 32.1492
29.920721008448314 31.9107
29.9439469322847 32.0184
29.96699405457564 32.0185
29.9900424175358 31.9727
30.013092022298157 31.8696
30.03632295963995 31.8409
30.059375061131373 31.9279
30.08242840783577 31.8685
30.105483000888153 31.9095
30.128718970092244 31.8871
30.151776069006917 31.8521
30.17483441768648 31.8482
30.198074175317235 31.8738
30.221135036724256 31.9348
30.24419715131772 31.8216
30.267260520236203 31.6964
30.290505341942243 31.7063
30.313571232750228 31.8007
30.336638381310948 31.7617
30.35970678876503 31.6573
30.38295669299435 31.6179
30.40602763151657 31.6206
30.429099832366074 31.5615
30.452173296685572 31.4144
30.47542830191959 31.3692
30.498504306502497 31.4294
30.521581577995562 31.6019
30.544660117543582 31.5838
30.56792024229725 31.6284
30.59100133132069 31.5859
30.614083691845494 31.5723
30.637167325018545 31.639
30.660432587840603 31.7034
30.683518779717886 31.6503
30.70660624769615 31.7654
30.729694992924372 31.6097
30.75296541239743 31.704
30.77605672557558 31.5786
30.799149319462742 31.5043
30.8224236211637 31.4039
30.845518789950724 31.3125
30.868615242910597 31.2007
30.891712981195973 31.041
30.91499247215866 31.0312
30.938092794619365 31.0605
30.96119440587579 30.9457
30.984297307082752 30.8088
31.00758200598383 30.6977
31.030687500658694 30.5904
31.053794288760695 30.5475
31.076902371446767 30.4919
31.100192296997445 30.5575
31.12330298246119 30.5797
31.14641496599209 30.4002
31.169528248749216 30.3943
31.19282341969534 30.3614
31.215939314557186 30.3671
31.239056512134788 30.3521
31.262175013589378 30.3961
31.28547544871168 30.2581
31.30859657161541 30.3261
31.331719001892175 30.3197
31.35484274070538 30.4132
31.378148458819545 30.4164
31.401274828443725 30.3252
31.424402510106933 30.3502
31.447712205419993 30.3923
31.470842524931633 30.2882
31.493974159989783 30.1469
31.51710711176168 30.273000000000003
31.54042212308802 30.315
31.563557722100917 30.2333
31.586694641341655 29.9645
31.609832881979628 29.9717
31.63315322823208 29.9734
31.656294125521327 29.8666
31.679436347728515 29.81
31.70257989602529 29.7719
31.725905596152327 29.7111
31.74905181052835 29.589000000000002
31.772199354521323 29.6325
31.79534822930507 29.6091
31.818679302290967 29.6157
31.84183085259981 29.6969
31.864983737233473 29.6466
31.88813795736804 29.6866
31.911474422233013 29.5684
31.934631327356435 29.5673
31.9577895715215 29.4353
31.980949155906522 29.6265
32.004291031706956 29.5457
32.027453310562606 29.4207
32.05061693318573 29.2371
32.07396288236386 29.2575
32.09712920658542 29.1948
32.12029687812702 29.0926
32.14346589817093 29.0717
32.166817291729984 29.0973
32.18998902288583 29.0049
32.21316210610336 28.8304
32.23633654256711 28.7776
32.259693399663725 28.7248
32.282870556771144 28.6281
32.30604907069099 28.6121
32.329228942610065 28.5532
32.35259128243769 28.4484
32.375773884550505 28.3756
32.398957848235646 28.4926
32.422143174682176 28.3317
32.445511016471215 28.3098
32.468699082679954 28.2102
32.49188851523011 28.1255
32.51507931531304 28.0823
32.538452678331 28.0984
32.56164622776311 28.0383
32.58484114831493 28.0339
32.60803744118015 28.017
32.631416344731896 28.0407
32.654615396551876 27.9405
32.67781582427913 27.9069
32.701198898634416 27.8458
32.72440209253756 27.8004
32.747606665947124 27.7212
32.77081262006088 27.5997
32.79420126883317 27.5559
32.81740999876112 27.6314
32.840620112999424 27.5588
32.86383161274818 27.5435
32.88722585534586 27.5544
32.91044014056596 27.557
32.933655814909734 27.5496
32.95687287957963 27.549
32.98027273544904 27.39
33.00349259526636 27.4166
33.026713849030116 27.3734
33.04993649794511 27.384
33.073341986570746 27.3458
33.09656744032826 27.2856
33.11979429286444 27.3028
33.14302254538647 27.3118
33.166433686291185 27.2384
33.18966475336992 27.1848
33.212897224069096 27.0562
33.23613109959831 27.1594
33.259547912343415 27.0524
33.2827846121627 27.139
33.306022720453775 27.0295
33.32926223842861 26.9033
33.352684742614166 26.9092
33.37592709463173 26.8164
33.399170859982064 26.8311
33.422597648419426 26.7622
33.44584425514446 26.7386
33.46909227885668 26.7015
33.4923417207723 26.554000000000002
33.51577423505344 26.6082
33.539026528130385 26.4009
33.56228024307245 26.3892
33.585535381098246 26.4138
33.60897364093058 26.3124
33.63223163992385 26.2474
33.6554910656699 26.1837
33.678751919389796 26.2512
33.702195944520106 26.1169
33.72545966903325 26.0546
33.74872482519663 26.0395
33.771991414233746 26.0556
33.79544122444841 26.0224
33.81871069412428 25.9453
33.84198160035767 25.9236
33.86525394437455 25.9508
33.88870955949969 25.8215
33.911984794020626 25.7602
33.93526147001624 25.7503
33.958539588715006 25.8057
33.98200102861669 25.6273
34.0052820477047 25.5806
34.02856451319451 25.5706
34.05203033759056 25.5036
34.07531571090147 25.5417
34.09860253431845 25.4369
34.121890809074316 25.4704
34.145362493118924 25.4538
34.16865368561615 25.4898
34.191946333164054 25.3376
34.21524043699793 25.3115
34.23871800066799 25.3187
34.26201503218366 25.1642
34.28531352370466 25.0986
34.30861347646881 25.1222
34.33209693978188 25.1317
34.3553998301885 25.0615
34.378704185565205 24.9592
34.402010007152356 24.9238
34.42549939016683 24.9224
34.44880815937748 24.8328
34.472118398533134 24.7753
34.49543010887669 24.8471
34.51892543169198 24.7248
34.54224009966052 24.7518
34.56555624255917 24.7629
34.58887386163339 24.6294
34.61237514439016 24.6129
34.6356957311114 24.566999999999997
34.65901779775809 24.4756
34.68252356662995 24.4617
34.705848608458616 24.4755
34.72917513396849 24.3841
34.75250314440949 24.3962
34.77601490857862 24.3638
34.799345904259795 24.1667
34.82267838863559 24.1821
34.846012362958525 24.3091
34.869530142679984 24.2711
34.89286711232212 24.1306
34.91620557568269 24.1918
34.93954553401677 24.0999
34.9630693495876 23.9744
34.986412313340814 24.1128
35.00975677584668 24.1662
35.033102738362956 23.9676
35.05663261012228 23.9385
35.0799815881786 23.9298
35.10333207003229 23.8195
35.12668405694369 23.9223
35.150220005273056 23.8944
35.17357501786656 23.8113
35.19693153931268 23.7848
35.220289570874385 23.7188
35.24383161619786 23.7464
35.267192683604904 23.7718
35.290555264930376 23.7022
35.314101899412165 23.615
35.33746752422433 23.6659
35.36083466676374 23.7081
35.38420332829803 23.5868
35.407756095629054 23.5676
35.43112781085063 23.5897
35.45450104888391 23.5822
35.477875810999194 23.5631
35.50143473172161 23.4049
35.52481255774625 23.4106
35.54819191167777 23.3823
35.57157279478914 23.3357
35.595137889488406 23.328000000000003
35.61852184675279 23.2962
35.641907337029984 23.3516
35.665294361595684 23.2549
35.68886565090076 23.0968
35.7122557598848 23.0733
35.73564740699838 23.1387
35.759040593519934 23.1189
35.78261809810353 23.0653
35.80601437933051 22.8639
35.829412203814705 22.8853
35.85281157283719 22.8676
35.876395313415884 22.8572
35.8997977874528 22.7274
35.92320180988546 22.7632
35.946790244133936 22.715
35.97019737933222 22.7119
35.993606066789866 22.7684
36.01701630779276 22.7169
36.04061101440684 22.6306
36.06402437852291 22.6429
36.08743930005611 22.6078
36.1108557802951 22.4732
36.13445678011326 22.5311
36.15787639383515 22.4296
36.18129757014299 22.4507
36.20472031032821 22.3647
36.22832762423364 22.2545
36.25175350829375 22.2727
36.275180960119776 22.2522
36.298609981005924 22.4107
36.32222362992669 22.2577
36.34565580510207 22.2183
36.36908955323448 22.1692
36.39252487562093 22.0498
36.416144880530226 22.0003
36.43958336764275 22.1074
36.463023432914625 22.1629
36.486465077645676 21.9643
36.51009145956204 22.0261
36.53353627947859 22.0101
36.55698268276811 21.997
36.58043067073321 21.9365
36.60406345072071 21.8399
36.62751462435344 21.8549
36.65096738658405 21.8892
36.67460498210655 21.7125
36.69806093788647 21.7735
36.72151848619297 21.6968
36.744977628333636 21.7092
36.76862165890998 21.6104
36.79208400512205 21.5805
36.81554794910557 21.5797
36.83901349217101 21.5243
36.862663978991606 21.471
36.88613273667352 21.4878
36.90960309738324 21.4288
36.933075062434064 21.4165
36.95673202673572 21.3329
36.98020721697122 21.2526
37.003684015502365 21.149
37.027162423645365 21.1431
37.050825886711465 21.129
37.07430753063053 21.1106
37.09779078812467 21.1023
37.121275660513014 21.0284
37.144945643673694 21.0447
37.16843376245278 21.0124
37.19192350009803 21.0224
37.215414857931435 20.9208
37.239091382563885 20.8548
37.262585997426164 20.8561
37.28608223645736 20.915
37.309763684451696 20.8348
37.33326318851098 20.7848
37.356764320726555 20.7365
37.380267082425526 20.7275
37.40395510942588 20.698
37.42746114683234 20.6703
37.45096881771841 20.5969
37.474478123414166 20.6368
37.49817275092816 20.6231
37.52168534303452 20.601
37.54519957395567 20.5308
37.568715445024665 20.5545
37.592416694607714 20.4432
37.61593586281424 20.4448
37.63945667518264 20.5053
37.66297913304891 20.4182
37.68668702630454 20.3458
37.710212792059274 20.2749
37.733740207334854 20.2691
37.757269273470364 20.1863
37.780983832050374 20.1693
37.80451621684926 20.147000000000002
37.82805025654007 20.1174
37.851585952464795 20.0412
37.8753071980695 20.0467
37.89884622345676 20.000999999999998
37.92238690911902 19.9407
37.94611318753442 19.8807
37.969657210779765 19.9169
37.99320289834801 19.9337
38.016750251586465 19.8199
38.04048325513017 19.820999999999998
38.06403395679343 19.7412
38.087586328183946 19.7317
38.11114037065203 19.7183
38.13488012115898 19.708
38.1584375229181 19.6673
38.181996599821 19.6786
38.205557353221124 19.5978
38.229303872575656 19.5962
38.2528679961576 19.5726
38.27643380031219 19.4653
38.30000128639589 19.4746
38.32375459653193 19.4869
38.34732546371299 19.4515
38.37089801690786 19.4273
38.39447225747609 19.312
38.418232380377425 19.2896
38.441810012983396 19.2942
38.46538933705673 19.3073
38.488970353960084 19.2956
38.51273731166058 19.2094
38.536321731567014 19.1186
38.55990784840681 19.1122
38.58367995004091 19.1498
38.60726947812959 19.0432
38.63086070726198 19.1154
38.654453638806274 19.0644
38.678232613930824 18.9381
38.70182896773327 18.9478
38.72542702806741 18.9106
38.7490267963045 18.8931
38.77281266709232 18.8871
38.79641586862214 18.9007
38.8200207821842 18.8223
38.843627409152944 18.8542
38.86742019782782 18.8221
38.891030269149255 18.7023
38.914642058016156 18.748
38.938255565806124 18.6903
38.96205529464307 18.64
38.98567225787121 18.5956
39.00929094417078 18.554000000000002
39.03291135492255 18.5824
39.05671804624804 18.615
39.080341923549106 18.495
39.103967529460334 18.5314
39.127594865365744 18.4221
39.15140854155791 18.4065
39.17503935514948 18.3352
39.19867190290282 18.3184
39.22249083587951 18.3233
39.24612686969409 18.355999999999998
39.269764641845306 18.3372
39.293404153722804 18.2948
39.317230110864074 18.1753
39.34087311998506 18.1485
39.36451787301696 18.124000000000002
39.388164371352595 18.0742
39.41199737518003 18.0815
39.43564738196752 18.0605
39.45929913825317 18.0209
39.48295264543308 18.0139
39.506792718520884 17.9796
39.530449745387216 17.9832
39.55410852735203 17.8914
39.57776906581474 17.9396
39.60161623079 17.8634
39.625280300200025 17.794
39.64894613032202 17.7612
39.67261372255866 17.7416
39.6964680021016 17.7299
39.72013913657293 17.6885
39.74381203738292 17.7253
39.76748670593756 17.7182
39.79134812278169 17.7031
39.81502634488497 17.6062
39.83870633896685 17.5818
39.862388106436654 17.5252
39.88625668336918 17.493
39.90994201572829 17.4753
39.933629125719285 17.4947
39.957503091207826 17.4575
39.9811937746168 17.4456
40.00488623990914 17.4378
40.02858048850006 17.352999999999998
40.05246165409549 17.3015
40.076159487492085 17.2805
40.099859108448875 17.2896
40.123560518384345 17.267
40.1474489070226 17.2387
40.171153913178564 17.1269
40.194860712584955 17.1586
40.2185693066637 17.1721
40.242464941335314 17.1062
40.26617714307655 17.1364
40.289891143772046 17.0652
40.3136069448471 17.0051
40.33750984859743 17.0068
40.3612292688043 16.9637
40.3849504936829 16.9688
40.40867352466194 16.9686
40.43258372059144 16.8635
40.45631038219906 16.8893
40.48003885420956 16.8165
40.503769138055105 16.8355
40.52768664931955 16.7623
40.55142057531802 16.7879
40.57515631746428 16.7423
40.599079334038514 16.7371
40.62281872700477 16.7028
40.64655994043941 16.6311
40.67030297578061 16.6265
40.69423334835778 16.6332
40.71798004609188 16.5903
40.74172857006355 16.5308
40.76547892171441 16.5273
40.7894166736039 16.4753
40.813170699248566 16.4344
40.83692655691388 16.3653
40.86068424804498 16.4191
40.884629402612525 16.366
40.908390779366385 16.3824
40.932153993938 16.355
40.95591904777605 16.305999999999997
40.979871628443995 16.2923
41.003640379561936 16.2911
41.02741097430883 16.2394
41.05118341413683 16.1636
41.075143444384416 16.154
41.098919593177826 16.1779
41.1226975914255 16.1446
41.14647744058318 16.0547
41.170444943946755 16.0241
41.19422851378379 16.0832
41.218013938914645 16.0456
41.24198706625173 15.9833
41.26577622087193 16.0035
41.289567235177785 15.9807
41.31336011063129 15.9143
41.337340752422875 15.911
41.361137369129835 15.8785
41.38493585138705 15.8072
41.40873620066004 15.8422
41.43272438060107 15.807
41.45652848292052 15.7313
41.48033445666918 15.6575
41.50414230331616 15.7125
41.528138045159764 15.6491
41.551949656675205 15.6339
41.575763145513235 15.6206
41.59957851314666 15.58
41.62358184070442 15.5726
41.64740098505737 15.5335
41.6712220126409 15.5167
41.69504492493139 15.4717
41.71905586207357 15.4147
41.74288256296395 15.5032
41.766711153007456 15.4326
41.79054163368412 15.3797
41.814560204340054 15.3908
41.838394485526365 15.3985
41.86223066180303 15.2616
41.88625497706819 15.3185
41.910094962812 15.2896
41.93393684811168 15.2687
41.95778063445365 15.1718
41.981812625263366 15.1474
42.00566023303407 15.1894
42.029509746323676 15.145999999999999
42.05336116662236 15.1211
42.077400857069705 15.0415
42.10125611078846 15.022
42.12511327600405 15.0584
42.14897235421036 15.0292
42.173019768448455 15.0139
42.19688269209613 14.8965
42.22074753323349 14.8952
42.24461429335818 14.9163
42.268669455600495 14.8864
42.292540073217886 14.8517
42.31641261433284 14.8566
42.34028708044675 14.7887
42.36435001496739 14.7791
42.38822835065557 14.7684
42.41210861586426 14.7735
42.4359908120986 14.7009
42.46006154323262 14.6672
42.48394762115317 14.6684
42.507835634632315 14.6253
42.531912233047436 14.6206
42.55580413732265 14.637
42.579697981698 14.5871
42.60359376768525 14.5208
42.62767820545945 14.5145
42.65157789440821 14.4971
42.67547952952185 14.4731
42.699383112316 14.4792
42.72347541395347 14.3815
42.74738291190531 14.3915
42.771292362102166 14.3835
42.795203766063516 14.3626
42.819303956130405 14.3182
42.843219287476536 14.2869
42.86713657716324 14.2884
42.89105582671383 14.190999999999999
42.91516392983864 14.2486
42.939087119032166 14.2466
42.963012272677304 14.1605
42.98693939230129 14.2103
43.01105543317513 14.1295
43.034986504731386 14.0785
43.05891954686589 14.0712
43.08285456110972 14.0737
43.10697856448665 14.001
43.130917542983475 13.9755
43.15485849820081 13.9871
43.17880143167367 13.945
43.20293342237094 13.8967
43.226880332449 13.8665
43.25082922540554 13.8946
43.27496722682525 13.9102
43.29892010567796 13.8041
43.32287497204102 13.8319
43.34683182745632 13.7553
43.370977859791836 13.7643
43.39493871351105 13.6665
43.41890156092628 13.7096
43.44286640358341 13.7079
43.46702049182749 13.6826
43.49098934522816 13.686
43.51496019852649 13.6422
43.5389330532723 13.5728
43.56309522248204 13.5862
43.58707210044314 13.536
43.61105098451946 13.5321
43.63503187626491 13.5132
43.659202151562134 13.4943
43.68318707902681 13.467
43.70717401884041 13.459000000000001
43.731162972560874 13.3653
43.75534137913236 13.3911
43.779334381108384 13.3634
43.803329401683186 13.3814
43.82732644241872 13.3419
43.8515130055166 13.2943
43.87551410707659 13.2718
43.89951723350145 13.2844
43.923709934595614 13.2431
43.94771713129917 13.208
43.97172635758096 13.1833
43.99573761501002 13.1913
44.0199385169922 13.0856
44.04395385732619 13.1238
44.067971233533086 13.1313
44.09199064718605 13.0781
44.11619977548961 13.0791
44.14022328470671 13.0334
44.16424883610785 13.0285
44.18827643127035 13.0508
44.21249381139513 12.9399
44.236525514814076 12.9257
44.26055926674478 12.9293
44.28459506876863 12.940999999999999
44.3088207262813 12.8716
44.33286064928722 12.825999999999999
44.35690262714919 12.825999999999999
44.38094666145278 12.8332
44.4051806219871 12.8015
44.42922879003185 12.78
44.45327901929361 12.7485
44.477331311362136 12.7519
44.501573600619416 12.6784
44.525630039221795 12.6682
44.54968854541895 12.6639
44.573937102200176 12.6208
44.5979997645541 12.6066
44.622064499300315 12.5537
44.64613130803592 12.5564
44.67038823869318 12.5672
44.69445921643748 12.5025
44.718532272981385 12.4675
44.742607409926194 12.4303
44.76687274034801 12.4574
44.79095205918753 12.3821
44.81503346325094 12.390999999999998
44.839116954143876 12.3756
44.86339071028742 12.4155
44.88747839599524 12.3206
44.91156817336837 12.2931
44.93566004401666 12.298
44.959942251908146 12.2572
44.984038330325966 12.2335
45.00813650686762 12.2215
45.03223678314731 12.2141
45.05652746888232 12.1678
45.08063196592069 12.1728
45.104738567558705 12.1458
45.128847275414856 12.102
45.15314646515866 12.1103
45.17725940679741 12.1165
45.20137445952892 12.0574
45.22568004865265 12.0245
45.24979934496396 12.0047
45.27392075725247 12.015999999999998
45.29804428714431 11.9984
45.322358426247604 11.9376
45.346486212804315 11.9507
45.370616121861914 11.9313
45.39474815505086 11.9134
45.41907087049246 11.8818
45.4432071734666 11.8439
45.46734560548283 11.8407
45.49148616817604 11.8706
45.51581748638564 11.7968
45.5399623320197 11.7808
45.56410931325473 11.7613
45.58825843173002 11.748
45.61259837920865 11.6933
45.636751793816 11.7169
45.66090735060093 11.6292
45.68506505120716 11.6066
45.7094136545275 11.6209
45.73357566449271 11.5504
45.75773982322992 11.5727
45.78190613238733 11.5224
45.806263418194064 11.4781
45.83043404997326 11.5004
45.85460683713677 11.5492
45.87897065658495 11.5182
45.90314777634752 11.4563
45.92732705646868 11.3853
45.9515084986045 11.4299
45.97588104735473 11.3838
46.00006683541565 11.3761
46.02425479047904 11.3228
46.04844491420549 11.3368
46.0728262191024 11.3639
46.09702070211635 11.3069
46.12121735879483 11.2887
46.14541619080294 11.2346
46.169806278764455 11.2272
46.194009483459034 11.2069
46.21821486849841 11.1935
46.24242243555223 11.1156
46.266821333570014 11.1024
46.29103328674601 11.1078
46.31524742696538 11.1387
46.33946375590237 11.0311
46.36387149104216 11.05
46.38809221957392 11.0907
46.41231514186606 11.0321
46.436540259597464 11.0218
46.460956858999374 10.9816
46.48518638983522 10.9606
46.509418121166966 10.9271
46.533652054678114 10.9511
46.55807754555709 10.9179
46.58231590571962 10.8915
46.60655647313217 10.8555
46.630988654873654 10.8047
46.655233659129024 10.8249
46.67948087571551 10.7966
46.70373030632484 10.7843
46.72817142736393 10.753
46.752425308428684 10.7349
46.77668140861147 10.7142
46.80093972960865 10.6921
46.82538981736788 10.6573
46.849652602470904 10.642000000000001
46.87391761349769 10.6107
46.8981848521493 10.6101
46.9226439341274 10.5923
46.946915650573224 10.5895
46.97118959976749 10.5483
46.99546578341598 10.5274
47.019933887188216 10.5535
47.04421456235744 10.5243
47.06849747711879 10.4757
47.09278263318286 10.4942
47.11725978640143 10.4416
47.14154944775105 10.4119
47.165841355555656 10.4145
47.1901355115306 10.3607
47.214621741924994 10.3949
47.23892041698887 10.380999999999998
47.26322134538975 10.34
47.28771440635075 10.3227
47.31201986422527 10.3226
47.33632758061436 10.2796
47.360637557241866 10.2354
47.38513974410611 10.2535
47.40945426407847 10.2528
47.43377104948137 10.1888
47.45809010204344 10.2136
47.48260144275502 10.1637
47.506925052572285 10.127
47.53125093475548 10.1055
47.55557909103813 10.1248
47.58009961361992 10.0845
47.60443234110732 10.0631
47.62876734791564 10.0637
47.65310463578333 10.0279
47.6776343683373 9.979389999999999
47.7019762413987 9.979560000000001
47.72632040075572 9.96
47.75066684815169 9.95726
47.77520581885936 9.93079
47.799556865477655 9.96535
47.823910205386 9.92413
47.84826584033272 9.90368
47.87281407745551 9.890139999999999
47.89717432569297 9.86549
47.92153687423484 9.887410000000001
47.94609208429692 9.84651
47.97045925671401 9.79593
47.99482873471275 9.74479
48.01920052005013 9.753969999999999
48.04376504619224 9.73407
48.068141469543484 9.772730000000001
48.09252020552573 9.74195
48.11690125590099 9.708910000000001
48.1414751266064 9.669039999999999
48.16586082917454 9.695839999999999
48.19024885144316 9.66592
48.2146391951793 9.62562
48.239222439012764 9.6515
48.26361744916137 9.60288
48.28801478610016 9.557830000000001
48.31241445160131 9.552589999999999
48.337007097209366 9.5619
48.36141144338331 9.513739999999999
48.38581812345755 9.486
48.41022713920929 9.48294
48.434829215320704 9.46696
48.45924292604658 9.4454
48.48365897780325 9.44828
48.50807737237308 9.40629
48.532688907799276 9.39039
48.55711201168574 9.37252
48.581537463754074 9.35628
48.60615611725119 9.36662
48.63058628942721 9.34244
48.65501881516546 9.34644
48.6794536962573 9.27316
48.70408185970339 9.29566
48.72852147531801 9.26679
48.75296345168211 9.24695
48.77740779059232 9.24483
48.80204549302823 9.24841
48.82649458091802 9.22511
48.85094603676547 9.15227
48.87539986237231 9.15922
48.90004713292306 9.151819999999999
48.92450572200832 9.14626
48.94896668628025 9.10834
48.97343002754588 9.1126
48.99808689542115 9.08667
49.02255501470614 9.06093
49.04702551642794 9.061119999999999
49.0714984023988 9.04388
49.096164896893235 8.99574
49.120642575466796 8.991660000000001
49.145122643748394 8.97916
49.16960510355558 8.96347
49.19428125404938 8.93031
49.2187685210852 8.92813
49.243258185121555 8.92709
49.26794160167084 8.893460000000001
49.2924360839405 8.852139999999999
49.31693296869764 8.834610000000001
49.34143225776915 8.79819
49.36612538195438 8.83708
49.39062950396021 8.824810000000001
49.41513603578346 8.78537
49.4396449792564 8.7591
49.46434784069503 8.759260000000001
49.488861631846454 8.74191
49.513377840166804 8.7369
49.537896467493745 8.72768
49.56260909589029 8.66922
49.587132585683285 8.66788
49.611658500018365 8.63509
49.636186840738596 8.64081
49.66090926588511 8.62079
49.685442483902584 8.583169999999999
49.70997813385706 8.5832
49.734516217597076 8.55605
49.75924846937352 8.54743
49.7837914452858 8.54562
49.80833686055187 8.50769
49.83288471702571 8.47073
49.85762682540054 8.46797
49.882179588965734 8.46843
49.9067347993235 8.47362
49.93129245833333 8.40949
49.95604445336378 8.43217
49.98060703442832 8.36773
50.005172069746266 8.37936
50.02993150438364 8.376719999999999
50.05450147301533 8.34562
50.07907390151433 8.34709
50.10364879174981 8.32217
50.12841816587289 8.32887
50.1529980044635 8.30293
50.17758031042124 8.25089
50.20216508562089 8.25977
50.22694442953363 8.23977
50.25153416817468 8.21108
50.27612638170508 8.205680000000001
50.300721072005196 8.1342
50.325510416102105 8.16269
50.350110084975064 8.16645
50.37471223628208 8.157160000000001
50.39931687190919 8.1292
50.424116246675766 8.08779
50.44872587605249 8.097430000000001
50.47333799543065 8.10399
50.49795260670191 8.08511
50.52276204271512 8.05301
50.54738166295838 8.03778
50.57200378079314 8.03245
50.596628398116835 7.991160000000001
50.62144792604559 8.00282
50.646077567609396 7.94602
50.670709714377715 7.9672
50.69553683636198 7.94372
50.72017401885922 7.91102
50.7448137122895 7.9459800000000005
50.76945591856022 7.885910000000001
50.79429318636823 7.89775
50.818940443716784 7.8905199999999995
50.84359021965163 7.89302
50.868242516085964 7.86141
50.893089960641895 7.82999
50.917747323549435 7.816960000000001
50.94240721271973 7.85625
50.96706963007175 7.810169999999999
50.99192728239342 7.74268
51.01659478166073 7.771960000000001
51.04126481489051 7.756810000000001
51.06593738400761 7.72951
51.090805275207074 7.74574
51.11548294172845 7.6867600000000005
51.14016314993547 7.69303
51.164845901758845 7.679860000000001
51.18972406304274 7.64682
51.21441192780656 7.611460000000001
51.23910234200271 7.629239999999999
51.2637953075678 7.61598
51.288683770237945 7.611839999999999
51.31338186432707 7.55438
51.33808251561888 7.529739999999999
51.362978729967345 7.48562
51.387684521509755 7.49631
51.41239287610203 7.530410000000001
51.437103795691165 7.4613
51.46201036644977 7.4454899999999995
51.486726441956634 7.46727
51.51144508832545 7.466480000000001
51.536166307509156 7.43133
51.56108326624387 7.39134
51.58580965706056 7.41793
51.61053862657523 7.38638
51.635270176746864 7.38912
51.66019755512065 7.36723
51.68493429268881 7.3136
51.70967361681515 7.284889999999999
51.73441552946465 7.3021199999999995
51.759353359237934 7.299010000000001
51.7841004750961 7.31767
51.80885018539685 7.258089999999999
51.833602492111254 7.24845
51.8585508051424 7.2607
51.883308330926425 7.251939999999999
51.90806845906181 7.22835
51.932831191525715 7.171469999999999
51.95779001977161 7.17927
51.98255798721516 7.14607
52.00732856494335 7.10728
52.03229530577543 7.10779
52.057071130455945 7.12794
52.081849571391054 7.07773
52.106630630568695 7.0961300000000005
52.13160794279417 7.08542
52.15639426492067 7.096010000000001
52.18118321127822 7.0461100000000005
52.205974783860896 6.9999199999999995
52.23096269971011 7.01071
52.255759551287994 6.999619999999999
52.280559035098186 6.94375
52.30536115314103 6.97368
52.33035970494467 6.92422
52.35516711807904 6.945410000000001
52.37997717147198 6.95719
52.40478986713005 6.91073
52.42979908731974 6.928489999999999
52.454617094216 6.8444899999999995
52.47943774942214 6.85815
52.50426105495102 6.861260000000001
52.529280976059844 6.80842
52.554109609024096 6.81968
52.57894089837482 6.797999999999999
52.60377484613117 6.788760000000001
52.62880550079408 6.80973
52.65364479223379 6.7561
52.67848674816189 6.74717
52.70352547971946 6.725339999999999
52.72837279155837 6.704960000000001
52.753222773982785 6.719060000000001
52.778075429022984 6.719310000000001
52.80312495150885 6.67265
52.827982978797436 6.65153
52.85284368481815 6.642110000000001
52.87770707160767 6.61085
52.90276741793998 6.59477
52.92763619336701 6.59155
52.952507655698504 6.6001199999999995
52.977381806977576 6.59373
53.00245301017842 6.57313
53.02733256653592 6.582669999999999
53.052214817996074 6.55912
53.077099766608484 6.56585
53.102181859804446 6.52896
53.127072229988265 6.511430000000001
53.15196530349892 6.4913300000000005
53.17686108239249 6.44629
53.20195409881522 6.4628
53.22685531582556 6.45846
53.25175924441303 6.44705
53.27666588664027 6.4223099999999995
53.30176985962693 6.43558
53.3266819565689 6.40601
53.35159677336455 6.3887
53.376514312083096 6.40019
53.40162927507703 6.33396
53.42655228516116 6.3586
53.45147802340193 6.35499
53.47660125628886 6.34972
53.50153247842639 6.29459
53.52646643496923 6.2763800000000005
53.55140312799818 6.2914
53.576537409691696 6.24702
53.60147960336152 6.25427
53.626424539786164 6.27224
53.65137222105307 6.21329
53.67651758529126 6.255240000000001
53.70147078399681 6.18905
53.72642673383343 6.17703
53.75138543689533 6.193919999999999
53.776541917524526 6.16429
53.801506154876755 6.1672199999999995
53.826473151763246 6.16067
53.851442910284916 6.0777
53.87661054126026 6.08478
53.9015858509782 6.0736099999999995
53.92656392866066 6.0911
53.95154477641532 6.07425
53.976723591801296 6.087680000000001
54.00171000771266 6.05663
54.02669920004598 6.0393300000000005
54.051691170915745 6.02982
54.076881204886796 6.02265
54.101878760928514 5.96234
54.12687910187696 5.975569999999999
54.152077577768296 5.942
54.1770835166946 5.9327
54.20209224691339 5.93989
54.22710377055121 5.92822
54.25231352511594 5.93749
54.27733066384342 5.86918
54.30235060239643 5.90394
54.32737334290836 5.80858
54.35259441062629 5.75904
54.377622783395324 5.82209
54.40265396455061 5.79266
54.42768795623251 5.770630000000001
54.45292037169559 5.75665
54.477960012857906 5.758719999999999
54.50300247099511 5.72628
54.52804774825457 5.69566
54.55329154616743 5.69905
54.57834249018678 5.67697
54.6033962597977 5.6631
54.6284528571545 5.644819999999999
54.653708072335164 5.63929
54.67877035378786 5.62134
54.70383546947698 5.57913
54.72890342156389 5.55491
54.7541700889442 5.54922
54.77924374251975 5.54776
54.8043202390049 5.52159
54.82959552413022 5.4526
54.8546777351945 5.44829
54.87976279569621 5.39955
54.90485070780914 5.44959
54.930137506558005 5.4153199999999995
54.95523115074295 5.37427
54.98032765308844 5.31959
55.005427015775496 5.36716
55.03072536339621 5.39326
55.05583047570572 5.31586
55.080938454927676 5.26095
55.10604930325027 5.22874
55.131359235107396 5.269369999999999
55.15647585066083 5.2499199999999995
55.181595341907496 5.226719999999999
55.20671771104285 5.16645
55.232039262617704 5.1786
55.25716741665048 5.1067
55.28229845518636 5.14916
55.30743238042802 5.11006
55.33276558731939 5.102469999999999
55.357905315183636 5.09227
55.383047936390035 5.0206800000000005
55.40819345314859 4.97574
55.433538351073295 4.90919
55.458689688238415 4.97677
55.483843927614096 4.89905
55.509197623043605 4.87946
55.53435769621134 4.91134
55.55952067826466 4.86942
55.5846865714265 4.8411599999999995
55.61005202069737 4.83215
55.63522376553902 4.8388
55.66039842818645 4.80086
55.68557601087004 4.76708
55.7109532500271 4.7006
55.73613670233794 4.73767
