TT I
1.2716486653135266 7.34155
1.2939594142134223 6.92858
1.3162702121660406 6.9774
1.3385810600174564 6.589580000000001
1.3608919586137629 6.55333
1.383202908801069 6.2367300000000006
1.405513911425503 5.7384900000000005
1.4278249673332093 6.58484
1.4501343378461518 6.21429
1.4724455028545926 5.91293
1.4947567236847858 5.89859
1.517068001182951 5.992000000000001
1.5393793361953272 5.82795
1.5616907295681737 5.50587
1.5840021821477681 5.24253
1.60631369478041 5.21411
1.6286252683124185 5.53946
1.6509369035901333 5.28127
1.6732468618895553 4.88384
1.695558623192809 4.43976
1.7178704487808514 4.973269999999999
1.7401823395001077 4.56065
1.7625012545597203 4.70411
1.7848028405262486 4.57295
1.8071218901122095 4.39414
1.8294236121921872 4.29657
1.8517427996910911 4.6561900000000005
1.8740620574440425 5.0081
1.8963639900671978 4.56124
1.9186833908139995 4.62753
1.9409854680117449 4.456840000000001
1.9633050151394713 5.39304
1.9856246367570705 4.53862
2.0079269371922672 4.29715
2.03024671027244 4.6114
2.0525491637446027 4.38438
2.074869091674931 4.56787
2.097171701569106 4.24089
2.1194917877373847 4.65645
2.141811954326636 4.64959
2.164114805233074 4.82576
2.186435135143035 5.07636
2.208738150935709 7.82945
2.231058647554722 13.0019
2.2533792288321184 11.0332
2.275682498336085 7.30893
2.298003251406138 5.97927
2.3203066942619714 5.84931
2.3426276225136022 5.04822
2.3649486396617507 6.32523
2.387252348930071 6.48717
2.4095735463442893 5.63416
2.4318774374315884 6.44451
2.4541988185014043 7.204860000000001
2.476502894794693 6.92703
2.498824462909887 6.87517
2.521146125856138 6.941839999999999
2.5434504863470337 7.2359800000000005
2.5657723414244717 7.9161399999999995
2.588076895590662 8.270380000000001
2.610398946189713 8.877360000000001
2.6327210958598384 8.25037
2.6550259469304716 8.13955
2.6773482972090137 8.05044
2.6996533504259 8.69561
2.7219759047039602 8.50191
2.744298562293959 8.43845
2.7666039251246595 8.15973
2.7889267918020164 8.81058
2.8112323652516555 9.00712
2.833555444408179 8.76153
2.8558786311183852 8.87796
2.8781845268938557 9.23656
2.9005079311721484 9.05603
2.9228140460410397 9.30696
2.9451376712799635 8.97804
2.967444008632326 9.71524
2.9897678582247247 10.1399
3.0120918213106695 10.05
3.0343984987899373 10.2688
3.0567226913198637 11.242
3.079029599759726 11.9493
3.101354025127254 12.0975
3.123678568232338 12.8147
3.145985829517914 12.9102
3.16831061055229 13.4526
3.1906181112775593 14.682
3.212943133635653 14.8247
3.2352682779763207 15.0734
3.2575761442691227 15.2052
3.2799015350264273 15.637
3.302209649240067 16.4847
3.3245352898092655 17.042
3.3468436553365257 17.1763
3.369169549113219 17.3142
3.3914955708171384 18.3354
3.413804319727358 18.3075
3.4361305997334863 18.7024
3.4584396084414553 19.2082
3.4807661501462652 19.9324
3.503092824025881 20.2372
3.5254022288463154 20.4151
3.5477291695206588 21.1218
3.5700388426251948 22.0118
3.5923660534916446 23.1976
3.6146934007816114 28.1169
3.637003482731501 45.6522
3.6593311053109985 48.6174
3.681641464033634 34.7249
3.7039693653009733 26.0472
3.726297407241705 25.2179
3.7486081875460804 25.2866
3.7709365132734978 25.5639
3.793247578841633 25.7143
3.8155761917550093 26.188000000000002
3.8378875459837216 26.5148
3.8602164494827234 27.0499
3.882545499606844 27.8219
3.9048572932539183 28.7303
3.9271866390645718 28.8239
3.9494987298666713 29.3837
3.971828374764527 29.4544
3.9941581705403255 30.1374
4.016470713506008 30.7067
4.038800813471445 31.6117
4.061113662089144 32.048
4.0834440696459176 32.7498
4.105774632334751 33.0855
4.128087945865126 33.5179
4.150418821249301 34.3909
4.172732448931298 35.38
4.195063640413578 35.8489
4.2173775856475215 38.1119
4.239709096631102 50.81
4.262040768704612 108.572
4.284355196706267 132.708
4.306687193387355 94.9286
4.329001947444346 54.2483
4.35133427213731 43.4907
4.373666762177566 42.6728
4.395982011761091 43.0238
4.418314834921175 44.0255
4.44063041906622 47.8353
4.4629635787515625 51.9885
4.4852969080429785 52.8143
4.5076130004776225 52.7281
4.529946671403969 58.2169
4.552263106909177 62.3286
4.574597122877047 58.5524
4.596931312711224 54.3406
4.619248269273446 53.1573
4.6415828092605835 53.7524
4.663900117405352 54.4895
4.686235010953232 56.1112
4.708552674085913 57.5809
4.730887924602802 59.2575
4.753223354952695 60.9814
4.775541557023902 64.8943
4.797877349456786 68.5641
4.820195915032126 68.9993
4.842532072957498 67.7318
4.864868414979744 70.3098
4.88718753227192 75.3799
4.909524244902505 77.1193
4.931843734218147 75.8074
4.954180820867835 77.3849
4.976518095879839 80.1695
4.998838149695359 82.66
5.021175803844231 86.3105
5.043496238205739 89.131
5.065834274903528 93.0309
5.088172504230693 98.2093
5.1104935158799565 105.03
5.132832132875765 124.63799999999999
5.155153533596801 153.399
5.1774925416746225 191.09
5.199814334878411 370.935
5.2221537374521505 948.345
5.244493338631803 2778.32
5.266815727034316 8061.56
5.289155727832427 13524.0
5.311478517248165 8826.39
5.333818921080011 2680.49
5.356159527788849 502.958
5.3784829252032536 194.38
5.400823940070432 154.959
5.423147747031976 129.5
5.445489173474152 119.51899999999999
5.467830807066149 119.84700000000001
5.490155234831516 120.249
5.512497285125229 113.00200000000001
5.534822130975162 104.866
5.557164601388673 101.476
5.579489868738879 97.7844
5.601832762690846 96.5022
5.6241758697774475 95.6331
5.646501775867269 95.1301
5.668845311622074 93.9488
5.691171647754637 92.9225
5.713515615597765 92.0491
5.735859800852677 91.8005
5.758186788542988 94.214
5.780531411018185 98.7562
5.802858837297399 98.9589
5.825203900414495 98.1413
5.8475491852224 102.641
5.869877275883075 101.96
5.892223006467101 96.5659
5.914551544266608 93.5552
5.936897724049891 95.988
5.959244129804903 102.264
5.981573344815301 127.92200000000001
6.0039202049061 227.201
6.026249875609095 443.17699999999996
6.04859719346037 910.265
6.070927323278297 2207.73
6.093275102315365 4662.26
6.115623113320588 5192.65
6.137953938319995 2979.78
6.160302415650845 813.812
6.182633708324452 192.90900000000002
6.2049826554078376 104.09
6.227331838745022 87.6993
6.249663839443684 81.8021
6.27201349767565 78.875
6.294345974611799 79.8204
6.316696111167083 81.9179
6.339046488263839 78.991
6.361379686074702 72.6682
6.383730546639482 69.7903
6.406064229255215 69.5245
6.428415576718203 70.6487
6.450749747566656 69.6965
6.47310158535871 66.7517
6.495453669698332 64.676
6.517788579421056 64.0706
6.540141159237969 62.5522
6.562476565766648 61.8707
6.5848296444934045 61.9921
6.607182974060425 62.6811
6.6295191323281015 62.5474
6.651872965955752 62.7753
6.6742096296068985 70.7428
6.6965639707294615 85.471
6.71891856698715 84.4157
6.741255995248479 69.9301
6.763611104154477 61.1858
6.785949046381137 58.7698
6.808304671371482 59.1865
6.8306605557940046 61.1307
6.852999275508618 60.1809
6.875355681171544 57.7334
6.897694923437771 56.0441
6.92005185377892 55.619
6.9423916220322655 55.5999
6.964749080490181 54.6887
6.987106804399774 54.6652
7.009447368180821 55.8876
7.031805625367033 55.4588
7.054146723727803 54.6381
7.076505517631004 54.1164
7.098864581288365 53.8555
7.121206488070854 53.6181
7.143566093607822 54.6
7.165908543567245 55.8012
7.188268694426048 56.1527
7.2106291193438095 54.6987
7.232972390625943 54.3665
7.255333366030969 59.1588
7.277677189091925 76.8561
7.300038718428332 92.6172
7.322400526130865 83.1524
7.344745183422596 65.1993
7.367107550224791 55.9605
7.389452767901992 53.9325
7.411815697249891 53.5279
7.434161478756298 52.9411
7.456524974096713 52.6845
7.478888753837185 52.9599
7.501235387657368 53.4832
7.523599738562711 53.6057
7.545946944825532 53.913999999999994
7.568311870344528 54.1674
7.5906770845765665 53.9756
7.613025156078678 54.5483
7.635390950099687 55.4791
7.657739602662809 55.4676
7.680105979923558 55.6131
7.702472650212829 56.5984
7.724822180948224 56.3493
7.747189439655568 55.9317
7.769539560075357 55.3461
7.791907410653562 55.3397
7.81425812420825 55.4958
7.836626570110925 55.7421
7.858995315087906 56.4106
7.881346924933401 56.6568
7.903716270417482 57.4013
7.926068482028405 57.583999999999996
7.948438431475253 58.292
7.9708086843180235 58.8909
7.993161805171116 59.8041
8.015532667162402 60.1483
8.037886398416653 61.3104
8.060257873014221 61.8613
8.082629655331942 62.766000000000005
8.104984308787587 63.49100000000001
8.127356708900503 65.8307
8.149711981398308 70.3832
8.172085002766314 72.405
8.194458336181368 70.0229
8.216814543847752 68.1563
8.23918850371002 68.5628
8.26154533906492 69.3974
8.283919928836452 70.7645
8.306277395339652 71.6056
8.328652618483376 73.0346
8.351028159736202 75.0831
8.373386579575245 77.0779
8.395762759396959 79.2006
8.418121819038275 82.3531
8.440498640894003 89.3212
8.462875785192262 99.8864
8.485235811156207 122.875
8.507613602688501 170.235
8.529974277114228 243.577
8.552352719347912 364.17900000000003
8.574731488360351 619.534
8.59709314210385 1207.52
8.619472567021075 1945.68
8.64183487789147 2216.79
8.664214962183097 1701.6
8.686577933647762 836.6569999999999
8.708958680784317 295.71
8.731339760774953 139.44799999999998
8.753703729764451 104.455
8.77608547780821 95.9865
8.798450116065078 93.0464
8.820832535634787 91.3326
8.843215292401656 91.7117
8.865580941199045 92.1384
8.887964374703538 91.7111
8.910330701447199 92.0248
8.932714815164482 91.4795
8.955099270424924 88.7574
8.977466620733543 86.0997
8.999851761421976 84.2949
9.022219798361645 83.1658
9.04460562795561 82.9382
9.066991803441677 83.0204
9.089360876979615 83.3463
9.111747746589993 83.1728
9.13411751544971 81.9111
9.156505082664324 80.8129
9.178875550323522 81.1177
9.20126381862328 80.7315
9.223652438908596 80.9933
9.246023961427412 81.1962
9.26841328802173 81.1263
9.290785518039224 81.6911
9.313175554425882 84.1927
9.335565947154315 86.5638
9.357939245086508 86.8047
9.380330352834827 85.9475
9.40270436697103 85.9869
9.425096193225055 85.2164
9.447488380180165 84.4369
9.469863475295412 83.8285
9.492256385987508 83.7915
9.514632206018318 84.2694
9.537025843935714 85.31700000000001
9.559402392368193 86.1656
9.581796761000229 88.6928
9.604191496441521 91.4377
9.626569144158516 94.3419
9.648964615551032 95.5607
9.671343000390081 94.5767
9.693739211225699 92.6344
9.716135793237463 91.9294
9.738515290448102 91.7407
9.760912617143402 93.649
9.783292860202891 96.3127
9.805690935076182 98.8037
9.828089385495742 99.958
9.850470754023561 101.06299999999999
9.872869957865444 103.991
9.89525208097539 109.85600000000001
9.917652041736662 116.39299999999999
9.940052382417589 124.555
9.962435644102392 147.566
9.984836746950979 183.347
10.007220771957746 238.037
10.029622640473708 328.801
10.052007432299963 506.98199999999997
10.074410069984072 825.279
10.096813093716005 1306.38
10.119199042482517 1853.05
10.141602840636468 1976.6
10.163989564971628 1460.08
10.186394141051062 760.818
10.208799107559706 324.637
10.231187001965623 161.982
10.253592751657669 118.21600000000001
10.275981430388155 108.93
10.298387966769793 107.19
10.320794897965431 107.376
10.343184759907361 106.09
10.36559248305461 103.40899999999999
10.387983138083852 103.354
10.410391656691655 109.42299999999999
10.432800574501677 119.084
10.455192425893369 132.622
10.47760214443012 157.601
10.499994797678786 203.033
10.522405320453982 288.442
10.54479877906917 410.86699999999996
10.567210109595656 542.3
10.5896218454736 595.198
10.612016518879773 482.725
10.634429067781074 313.02
10.656824555333241 177.15099999999998
10.679237920773568 111.90799999999999
10.701651695961992 91.8711
10.724048411481384 86.7902
10.746463008485165 84.6598
10.768860546937125 83.4762
10.791275969274796 81.5504
10.81369180576079 81.0285
10.836090585366925 79.729
10.858507252467449 78.4533
10.88090686379991 77.7884
10.903324365036394 77.3216
10.925724811614439 77.1835
10.948143150509463 77.7878
10.970561909719066 77.3202
10.992963615930844 76.3456
11.015383218085756 74.4135
11.037785768347074 72.4942
11.06020621697282 71.7978
11.082627090322113 71.2325
11.105030913430326 70.2835
11.12745263854165 70.2159
11.149857314510728 70.4449
11.172279894912576 72.5723
11.194702904450653 72.2287
11.217108866490921 70.6084
11.239532736615194 68.7164
11.26193956033512 68.1241
11.284364294577085 67.2143
11.306789462371718 66.1389
11.329197585398376 65.7996
11.351623622610898 65.5849
11.37403261614354 64.7919
11.396459526308487 64.8091
11.418869393879497 64.3727
11.441297180532617 63.825
11.463725406927658 63.6665
11.486136592353875 63.5079
11.508565700543707 63.6189
11.530977768845315 64.525
11.553407762368774 64.2432
11.575838200059769 63.8617
11.598251599479612 63.3221
11.620682927815501 62.6567
11.64309721895548 62.277
11.665529441478206 61.9728
11.687962112597958 61.7475
11.710377748130886 62.0129
11.732811318753434 61.5992
11.755227854859067 61.5466
11.777662328529495 61.5669
11.800079768750786 61.7844
11.822515149015453 61.7391
11.844950984084935 62.0074
11.867369787303163 61.8028
11.889806534289491 61.5599
11.912226250487029 61.6266
11.934663912939751 61.8959
11.9571020346363 62.1791
11.979523127133968 62.4038
12.001962169624331 63.4755
12.024384183972964 64.7462
12.046824150809913 67.4385
12.069264581333726 71.6951
12.091687985297767 76.9542
12.11412934550045 86.0094
12.136553680195208 101.44
12.158995973632788 126.133
12.181438735204349 159.596
12.20386447284199 189.139
12.226308172985636 210.197
12.24873485024193 200.678
12.271179492516982 153.393
12.293607112949127 113.445
12.316052700916226 85.6136
12.338498763250042 70.8057
12.360927805303868 65.2964
12.383374818673879 63.597
12.405804812803074 62.6961
12.428252780773262 62.9266
12.45070122756722 63.1068
12.473132656675375 63.1678
12.49558206341869 63.7849
12.518014453510101 64.0965
12.540464823770117 64.0042
12.562915677315177 63.9336
12.58534951575545 63.9566
12.607801338171472 64.6625
12.630236146511358 66.6356
12.652688941369085 68.5188
12.675124723177234 68.8403
12.697578494048786 68.1974
12.720032754458185 66.6534
12.742470003354093 66.3291
12.764925245138771 66.3292
12.787363476431278 66.903
12.809819703166806 67.3401
12.83227642391173 68.1207
12.854716135692716 69.0808
12.877173846755147 69.9315
12.899614549869717 70.6281
12.9220732548287 71.7005
12.94453245827299 72.1844
12.966974655289818 72.9238
12.989434858002571 73.7214
13.011878055298721 74.4838
13.034339260862497 74.8739
13.056800969391883 76.5505
13.079245674017244 79.1216
13.101708390774869 83.3781
13.12415410463411 91.1287
13.146617833206086 99.7751
13.169064559883248 108.73
13.191529303857127 122.156
13.213994557076367 145.27100000000002
13.236442809902437 184.99
13.258909083908291 246.50099999999998
13.28135835851934 316.939
13.30382565690295 392.41
13.326293469022952 445.574
13.348744283242008 419.19800000000004
13.371213125129904 332.647
13.39366497011003 228.262
13.416134845360597 151.739
13.438605238843131 113.994
13.46105863690397 103.117
13.483530069144786 104.14
13.505984506951902 107.926
13.528456981549432 117.742
13.550929978879088 132.21
13.573385983253365 157.608
13.595860028340867 200.291
13.618317081455832 258.873
13.64079217790333 322.791
13.663250283359057 369.89099999999996
13.685726434770173 380.611
13.708203115221277 323.447
13.730662806148091 239.743
13.75314054697177 165.53799999999998
13.775601299246777 114.772
13.798080104050406 91.5737
13.820559442405358 83.0173
13.843021793671388 80.2766
13.865502201420897 78.8214
13.887965623051947 78.6298
13.910447103807167 77.4806
13.932929122629764 76.0532
13.955394156785959 75.4779
13.977877254034569 74.4791
14.000343367582113 73.7531
14.022827546871707 73.1142
14.045294743423524 72.5132
14.06778000837062 71.9054
14.090265817715476 71.8695
14.112734645763819 71.2212
14.13522154619454 71.0712
14.157691466286913 70.7669
14.180179461423874 70.4375
14.202668005486178 69.9875
14.22513957064374 69.592
14.247629214846473 69.1627
14.270101881097517 68.8432
14.29259262906496 68.8045
14.315083930490205 69.1211
14.337558255389705 69.2191
14.360050666019726 68.9526
14.382526101071944 68.3786
14.405019624534942 68.3721
14.427513705993134 67.8429
14.449990813291825 67.7704
14.47248601302899 67.7702
14.49496423954951 67.5686
14.517460561197822 67.801
14.539939910570322 67.4692
14.562437357763558 68.0172
14.58493536931253 68.4904
14.607416409993311 68.5799
14.62991555254159 69.0396
14.652397725157423 69.0586
14.674898002342799 69.2283
14.697398848433282 69.5567
14.719882725991326 70.7489
14.74238471217934 72.5101
14.764869730765593 75.5967
14.787372860692983 78.2365
14.809876564079925 81.8578
14.83236330125751 87.1247
14.854868153850365 96.0126
14.877356041159485 110.601
14.899862046604186 131.005
14.922351087688757 158.958
14.944858249632887 192.56599999999997
14.967365991421232 219.833
14.989856770231246 229.76
15.012365673994204 213.575
15.03485761569738 178.21400000000003
15.05736768508665 136.731
15.07987833888692 102.98
15.102372032001655 83.8535
15.124883856909658 73.7156
15.14737872204565 70.5029
15.169891721717274 69.3677
15.192405310371893 68.9985
15.214901940621196 68.8201
15.237416709527137 68.3206
15.259914520936249 68.2991
15.282430473753607 67.3571
15.304947020131227 66.934
15.327446610371178 66.1267
15.349964346154254 65.7541
15.372465126703139 65.992
15.394984055556009 65.5127
15.417486030076159 65.2455
15.44000615566487 64.752
15.462526881230803 64.5248
15.485030653812652 64.733
15.507552581617434 64.6795
15.530057557334603 64.4882
15.55258069104857 64.8728
15.575104429329837 65.0396
15.597611216864632 64.5282
15.620136166564563 65.4117
15.6426441664095 66.9115
15.665170331202765 69.367
15.687697105158826 71.6185
15.710206930593545 74.4599
15.732734925158933 78.5205
15.755245972089478 84.5473
15.77777519094324 93.9996
15.800287463046663 107.93299999999999
15.822817909869592 128.179
15.84534897229804 152.469
15.867863089299354 177.89700000000002
15.890395385222186 195.99599999999998
15.912910736597423 195.766
15.935444269699861 177.39
15.957978423016485 145.344
15.980495633101265 111.501
16.003031029129367 86.9181
16.02554948280019 71.2073
16.048086125229432 64.6907
16.070623392487107 62.7076
16.09314371869582 61.7637
16.11568223789321 60.9656
16.13820381691126 60.3842
16.160743591742527 59.5968
16.183283996022084 59.0428
16.205807461423195 58.1308
16.228349126881973 57.5463
16.25087385432698 57.7262
16.27341678466365 57.0614
16.29594277784926 56.8783
16.31848697676433 56.8661
16.341031811604868 56.6505
16.36355971058487 56.6441
16.3861058195587 56.4199
16.40863499352978 55.7949
16.431182380342005 55.1752
16.453730407713202 55.0152
16.476261501364792 54.7677
16.498810812136167 54.4468
16.52134319004079 54.483000000000004
16.54389378792203 54.4144
16.566445031001553 54.3041
16.588979342490088 54.0161
16.61153187824822 53.9123
16.634067483263312 53.8167
16.656621315414416 53.9258
16.679175797408888 53.5448
16.701713349928728 53.4683
16.72426913389191 53.6829
16.74680798922351 53.6521
16.76936507887444 53.6309
16.791905240734874 53.7333
16.814463639794468 53.6859
16.837022695210294 53.6998
16.859564824093756 53.832
16.882125194503903 54.2514
16.904668639217885 54.4962
16.927230328348003 54.4443
16.949792678493612 54.6925
16.972338104193863 54.4519
16.994901778652235 54.4731
17.017448529496576 54.5911
17.040013531998152 54.9423
17.06257920018044 55.6493
17.0851279459922 56.1612
17.107694947817667 56.9018
17.130245028099072 57.4319
17.15281336730298 58.8012
17.17536478578733 60.5045
17.19793446610687 63.1578
17.220504818648422 66.1507
17.243058251703697 69.9129
17.265629950971032 74.8879
17.288184731571736 80.1583
17.310757781306908 82.9694
17.33333150794385 83.0613
17.355888317140174 80.2754
17.37846339986244 73.9865
17.401021565958885 67.6127
17.42359800851343 63.0767
17.44617513265564 60.2413
17.468735341390783 58.7786
17.491261035594565 58.1028
17.51396340099364 57.8588
17.536490463869136 58.0387
17.559018209820174 58.0867
17.58154663977963 58.1194
17.604251766089718 58.2955
17.626781572227713 58.568999999999996
17.64931206518155 58.7179
17.671843245885103 59.1595
17.69455114821572 59.3704
17.717083712612634 59.8032
17.739616967569667 59.9278
17.762150914021706 60.355
17.78486160749854 60.7219
17.807396945166804 61.5051
17.829932977143503 62.6616
17.85246970436452 64.1848
17.875183204129467 65.455
17.897721330097664 67.1403
17.920260154126645 69.2674
17.942799677153296 72.4146
17.9655159983646 76.2488
17.988056927677544 81.68
18.010598558807683 89.9962
18.033140892692916 101.236
18.05586005052525 113.405
18.07840379824407 126.24
18.10094825154059 136.358
18.12366954819864 140.637
18.146215420998306 136.535
18.16876200220057 125.76100000000001
18.191309292745153 110.47399999999999
18.214033452627167 96.6037
18.236582170236648 86.8376
18.259131600016456 83.7629
18.281681742907335 85.5459
18.304408781233683 90.6843
18.32696035875955 96.5893
18.349512652227624 101.79
18.372065662579683 106.12
18.394795594587553 105.145
18.41735004715306 98.8989
18.43990521943684 90.6024
18.46246111238171 81.0417
18.485193953325208 72.6594
18.507751296070428 66.7006
18.530309362314178 63.7929
18.552868153000343 61.948
18.57560391815056 60.9298
18.59816416623245 60.5507
18.620725141597372 60.1231
18.643286845190268 59.5903
18.666025549835414 59.0974
18.688588718427933 58.4934
18.711152618092243 58.4867
18.73389353884365 58.2575
18.75645890921984 57.8974
18.77902501351406 57.5127
18.801591852673102 57.5766
18.824335739722738 57.2087
18.846904057212626 57.1153
18.8694731124168 56.7201
18.89204290628315 56.7159
18.914789774966803 56.537
18.937361054791623 56.1259
18.959933076131318 55.9878
18.982505839934877 55.9399
19.00525570560582 55.911
19.027829963004184 55.7929
19.05040496572238 55.9663
19.072980714710468 55.9313
19.095733592739563 56.1256
19.11831084296757 56.198
19.140888842324735 56.5346
19.16346759176222 56.7697
19.18622349753803 57.2238
19.208803755869358 58.0926
19.231384767143577 59.4104
19.253966532312948 61.442
19.276725481241822 63.4732
19.29930876296784 66.156
19.3218928014549 69.2964
19.34465404436217 72.1029
19.36723960516257 74.9507
19.389825925592426 75.116
19.412413006605938 73.2359
19.43517731967805 68.9148
19.457765930683355 64.5588
19.48035530514408 60.2692
19.50294544401556 57.3032
19.525712842708348 55.1012
19.54830451925909 53.8845
19.570896963095727 52.9299
19.593490175174704 52.8339
19.616260674962184 52.835
19.638855432416964 52.5424
19.661450960992624 52.6938
19.68404726164677 52.4795
19.706820878021247 52.3662
19.729418731756834 52.6815
19.752017360452857 52.2547
19.77461676506804 52.5856
19.797393513540218 52.793
19.819994478951667 52.8833
19.84259622316767 53.1529
19.8651987471481 53.4576
19.887978643247177 53.9433
19.91058273574792 54.2308
19.933187610901943 55.1123
19.955969879466828 56.3974
19.97857632894404 57.968
20.00118356396599 59.983999999999995
20.023791585494575 62.4228
20.046577028914875 65.3841
20.069186632506966 67.7535
20.091797025500632 68.9358
20.114408208858933 69.4644
20.137196842715273 67.9167
20.159809615886765 66.2675
20.18242318232135 63.6727
20.20503754298326 61.6771
20.227829382875154 60.8161
20.250445341109344 61.5137
20.27306209647285 62.5899
20.29567964993108 64.0087
20.31847471147704 65.1898
20.34109387027612 65.2657
20.363713830075454 64.5732
20.386334591841646 62.2308
20.409132890679302 59.2174
20.431755265564437 56.2262
20.454378445325528 53.4381
20.477002430930366 51.7532
20.499803982716553 50.7292
20.522429589228004 50.2213
20.54505600449589 49.8114
20.567683229489194 49.641999999999996
20.590488049900088 49.2486
20.61311690359731 49.1956
20.63574656993626 48.9745
20.658553853717297 48.7784
20.681185154618298 48.7049
20.703817271080066 48.519
20.72645020407368 48.2619
20.749260783967177 48.2004
20.771895359337133 48.2493
20.794530754161617 48.1064
20.817166969412938 47.9703
20.83998086114876 48.06100000000001
20.86261872660049 47.9892
20.885257415405402 48.0858
20.90789692853701 47.9474
20.930714147864748 47.771
20.953355319030678 47.8485
20.97599731745334 47.8742
20.99864014410749 47.5676
21.021460706796564 47.6135
21.044105199328826 47.9493
21.06675052302631 48.0685
21.089396678865015 48.4063
21.112220600704806 48.7344
21.134868430275347 48.816
21.15751709492456 49.2383
21.180166595629693 49.5974
21.202993892429635 50.034
21.22564507473034 50.472
21.24829709602816 50.6252
21.27112693608965 50.4714
21.293780644891275 50.4975
21.316435195634053 49.9136
21.339090589297417 49.1452
21.361923832041875 48.4533
21.384580921090404 47.9083
21.407238856007325 47.4986
21.429897637773326 47.44
21.45273429906592 47.7613
21.475394784108598 47.6789
21.498056118951983 47.5278
21.520718304578022 47.7964
21.543558400304388 47.888000000000005
21.566222297108816 48.1743
21.58888704765135 48.3063
21.61155265291521 48.4481
21.63439619898156 48.9068
21.657063523335786 48.8919
21.67973170537063 49.3777
21.7024007460706 50.0158
21.72524775840385 50.7917
21.747918526116475 51.7008
21.770590155457388 53.2137
21.79326264741238 54.9878
21.816113141960237 56.9385
21.838787368860547 58.8786
21.861462461341976 61.05
21.884315579735777 63.1597
21.90699241312273 64.1202
21.92967011506078 64.1029
21.95234868653799 63.0699
21.9752053151131 61.1865
21.997885635446785 59.0557
22.020566828293532 57.4261
22.04324889464272 56.083
22.066109049404666 55.4805
22.088792872571794 55.505
22.111477572219204 55.4861
22.1341631493376 55.5708
22.157026846313123 54.934
22.179714188221507 53.9326
22.202402410582668 52.7449
22.22509151438863 51.2003
22.24795876962584 49.9913
22.270649646204486 49.1077
22.293341407213727 48.7845
22.316034053646906 48.2907
22.338904883215342 48.1364
22.36159931041458 48.1978
22.38429462602756 48.0312
22.40699083104897 47.7776
22.429865251039757 47.8249
22.452563244831367 47.8244
22.47526213102522 47.8717
22.49813925616515 47.8245
22.520839937143307 47.8617
22.543541513520587 47.6905
22.56624398629403 47.6403
22.589124730075895 47.6896
22.611829005656723 47.8303
22.63453418063466 47.9122
22.657240256008077 48.2161
22.680124634582935 48.2318
22.70283252079775 48.3919
22.725541310413075 48.6536
22.74825100442868 48.9662
22.771139033969575 49.343999999999994
22.79385054687155 49.6745
22.81656296718292 50.3202
22.83927629590484 51.3306
22.862167992606945 52.4184
22.88488314827121 53.6621
22.907599215359284 54.8782
22.93031619487366 55.9835
22.953211574954405 56.7157
22.975930389478226 57.3294
22.998650119445763 57.1303
23.02137076586092 56.0716
23.044269845560063 54.3257
23.06699233506288 52.5632
23.089715744034912 50.8373
23.112617610931565 49.4193
23.135342869061212 48.7154
23.158069049684816 48.015
23.1807961538087 47.8374
23.20370174880544 47.7753
23.226430710184808 48.0478
23.249160598093425 48.0383
23.271891413539002 47.9325
23.294800752937697 48.0131
23.31753343374794 48.2314
23.340267045128353 48.2547
23.36300158808808 48.6942
23.38591468821339 48.9804
23.408651104658304 49.3034
23.431388455719986 50.1473
23.454126742409 51.0976
23.4770436196085 52.2284
23.499783787914662 53.5857
23.522524894889884 54.6137
23.54526694154616 55.7475
23.56818761219047 56.9758
23.59093154860734 57.2801
23.613676427751283 57.1069
23.636422250635754 55.9272
23.659346731118656 53.7979
23.68209445191868 51.9838
23.704843119509587 49.8272
23.72759273490623 48.0373
23.750521041644767 46.8754
23.77327256312355 46.0942
23.796025035462787 45.6491
23.818956224555475 45.0879
23.841710609113413 45.1305
23.86446594758979 44.9502
23.887222241002014 44.623999999999995
23.910157285144578 44.4332
23.932915498962537 44.4045
23.955674670778713 44.3414
23.978434801611975 43.9664
24.001373717286125 43.8465
24.024135776723917 43.8562
24.046898798245582 43.6563
24.06966278287146 43.6614
24.092605586582614 43.4458
24.115371508023642 43.3794
24.1381383956401 43.251000000000005
24.16090625045381 43.1351
24.183852958731244 42.9729
24.206622758582608 42.9362
24.229393528706886 42.7693
24.252165270127392 42.9898
24.27511589952438 42.9802
24.297889594216997 42.7902
24.32066426328598 42.4358
24.34343990775613 42.5816
24.36639447485003 42.3358
24.38917208083877 42.3063
24.41195066531332 42.3987
24.43490819850244 42.3528
24.457688750692377 42.2519
24.48047028445616 42.2178
24.503252800821233 42.266000000000005
24.526214300784112 42.4283
24.548998793132213 42.4509
24.57178427117417 42.3299
24.59457073593893 42.2821
24.617536219319863 42.2062
24.64032466834748 42.2851
24.663114107195035 42.0086
24.685904536893013 41.8063
24.708874020360852 41.6657
24.731666442613744 41.5678
24.754459858818787 41.5334
24.777254270007962 41.5145
24.80022777025625 41.5622
24.82302418230472 41.6059
24.845821592443674 41.4838
24.86862000170663 41.393
24.891597535453727 41.3279
24.914397953892728 41.6152
24.93719937456671 41.5993
24.96000179851076 41.6824
24.98298338249997 41.9184
25.00578782394922 42.103
25.028593271784167 42.2331
25.05157790644186 42.5278
25.07438537804115 42.5428
25.097193859145293 42.9031
25.120003350792075 43.1849
25.142992065061257 43.5956
25.165803588823465 43.7793
25.18861612625217 43.9706
25.211429678386736 44.063
25.234422489079968 44.0677
25.257238081693636 44.0817
25.280054692141732 44.2632
25.3028723214652 44.3418
25.325869245420463 44.4663
25.348688923599397 44.3688
25.371509623787006 44.2376
25.394331347025812 43.8427
25.41733240110666 43.2043
25.440156181590016 42.4686
25.46298098826268 41.9427
25.48580682216873 41.4805
25.50881202326435 40.9129
25.53163992281684 40.5765
25.55446885274561 40.4564
25.577298814096377 40.0504
25.600308179121807 40.1645
25.623140214533745 40.2088
25.64597328451537 40.1117
25.66898578564376 39.8799
25.691820936010206 39.8254
25.714657124097695 39.7533
25.737494350954734 39.9708
25.760511045684957 39.654
25.783350361364224 39.6932
25.806190718969255 39.6757
25.82903211955018 39.951
25.852053024868923 39.9226
25.874896522722523 39.863
25.897741066713106 39.7811
25.920586657892454 40.07
25.943611790812668 40.2112
25.966459487728237 40.4786
25.989308234998564 40.3982
26.01215803367705 40.7851
26.03518741123814 40.946
26.05803932412957 41.0085
26.080892291600094 40.9929
26.10374631470478 40.9868
26.12677995397268 41.1316
26.14963609978026 41.0208
26.172493304397875 40.5448
26.19535156888223 40.2616
26.218389486949604 39.902
26.241249882640123 39.6172
26.26411134137826 39.5058
26.28715248187403 39.4617
26.31001607820869 39.4925
26.3328807407756 39.2533
26.35574647063438 39.4067
26.37879191991473 39.3252
26.401659795896734 39.404
26.424528742360263 39.6411
26.447398760366614 39.7762
26.470448535598294 39.8519
26.49332070826805 40.0764
26.516193955675355 40.4336
26.53906827888316 40.6681
26.562122397260108 40.8566
26.584998883685063 41.1201
26.607876449110325 41.4031
26.63075509460056 41.559
26.65381357334404 41.6178
26.67669439061878 41.6209
26.699576291163382 41.4445
26.722459276044212 41.1752
26.745522132402975 40.8443
26.768407297649354 40.5558
26.791293550442003 40.3228
26.814180891848974 40.0946
26.837248143099337 39.8402
26.860137673466657 39.7317
26.88302829566349 39.3846
26.90592001075963 39.2304
26.92899167420566 39.0921
26.951885586870763 38.7462
26.974780595655517 38.5827
26.99785558178161 38.6312
27.020752794605112 38.4085
27.043651106772522 38.2586
27.06655051935668 38.1568
27.089629948036183 38.0414
27.112531573292053 37.9934
27.135434302194138 38.1465
27.158338135817015 37.9502
27.181422024430987 37.8983
27.204328079372566 37.8428
27.22723524226965 37.8174
27.250143514198573 37.8404
27.273231880156334 37.9208
27.296142382065014 37.7401
27.319053996245536 37.7271
27.341966723775965 37.7093
27.365059584515222 37.8531
27.38797455070062 37.9255
27.410890633481237 37.8351
27.433807833936918 37.8185
27.456905206923906 37.8966
27.47982465472398 37.8295
27.502745223449743 38.0146
27.525666914182825 37.9796
27.548768816912457 37.9872
27.571692763693633 37.6976
27.59461783573812 37.6514
27.617723149491244 37.5126
27.640650484125285 37.4335
27.66357894728264 37.4433
27.686508540048052 37.4071
27.709618414237887 37.3283
27.732550278321757 37.2141
27.755483275279115 37.2197
27.778417406196485 37.2216
27.801531858397514 37.2014
27.824468269376716 37.2665
27.847405817586786 37.1424
27.870344504116094 37.3229
27.893463551932008 37.4354
27.916404527281053 37.6892
27.93934664422563 37.7918
27.962289903855886 37.8329
27.98541356491974 38.0771
28.00835912214229 38.2481
28.03130582533231 38.4055
28.054253675581805 38.6577
28.077381967556104 38.4475
28.100332124185126 38.3417
28.123283431160893 38.1812
28.146235889577238 38.1761
28.169368830154156 37.9807
28.192323603752033 37.7401
28.215279532083304 37.4659
28.238415973016764 37.2246
28.261374223145094 37.2089
28.284333631303806 36.8364
28.307294198589954 36.6993
28.330435319167677 36.4282
28.353398217078915 36.1036
28.376362277420153 36.0038
28.39932750129032 35.8918
28.422473319286713 35.7563
28.44544088262495 35.8018
28.468409612800283 35.5647
28.491379510913497 35.364000000000004
28.51453004413313 35.2557
28.53750229057244 35.4109
28.56047570826344 35.3416
28.583450298308804 35.1308
28.606605564586562 34.9813
28.629582511831156 35.1789
28.65256063474956 34.9748
28.675539934446338 34.9618
28.698699951647605 34.879
28.72168161743193 34.8037
28.74466446331978 34.8101
28.767648490417624 34.7608
28.790813276438353 34.7902
28.813799678527303 34.8105
28.836787265157085 34.8931
28.859955641890075 34.841
28.882945610203045 34.8008
28.905936766392035 34.6122
28.928929111566863 34.7386
28.952102288520145 34.5772
28.975097024308607 34.5501
28.998092952423807 34.3092
29.021090073977508 34.1684
29.04426806913204 34.2326
29.067267590245258 34.0748
29.090268308143695 33.9935
29.11327022394099 33.9029
29.13645305530891 33.7662
29.159457379627167 33.8072
29.18246290519685 33.8573
29.20546963313352 33.727
29.22865731875826 33.7103
29.25166646419296 33.8307
29.27467681535305 33.6153
29.29768837335608 33.6026
29.320880931312562 33.7175
29.34389491580634 33.7466
29.366910110507334 33.6758
29.38992651653503 33.5805
29.41312396492981 33.4535
29.436142806456754 33.4878
29.45916286268059 33.4277
29.48236399319994 33.3299
29.50538649169417 33.1552
29.528410208259935 33.006
29.55143514402014 32.8604
29.574641196749695 32.8169
29.597668583816574 32.6341
29.6206971934585 32.5052
29.64372702680042 32.6207
29.666938019934474 32.4912
29.689970313635285 32.4888
29.713003834422636 32.477
29.73603858342347 32.4598
29.759254535188578 32.2511
29.78229175361658 32.2928
29.80533020365064 32.3643
29.82836988641968 32.3263
29.85159081507472 32.1885
29.874632976355343 32.235
29.89767637376955 32.2142
29.920721008448314 32.0197
29.9439469322847 32.0448
29.96699405457564 32.0423
29.9900424175358 32.059
30.013092022298157 31.8959
30.03632295963995 31.9135
30.059375061131373 31.8575
30.08242840783577 31.8908
30.105483000888153 31.9878
30.128718970092244 31.8613
30.151776069006917 31.8619
30.17483441768648 31.8656
30.198074175317235 31.8012
30.221135036724256 31.8207
30.24419715131772 31.7569
30.267260520236203 31.6895
30.290505341942243 31.6615
30.313571232750228 31.7182
30.336638381310948 31.6996
30.35970678876503 31.6995
30.38295669299435 31.63
30.40602763151657 31.5972
30.429099832366074 31.671
30.452173296685572 31.5623
30.47542830191959 31.5252
30.498504306502497 31.4302
30.521581577995562 31.5627
30.544660117543582 31.6194
30.56792024229725 31.6207
30.59100133132069 31.5379
30.614083691845494 31.6664
30.637167325018545 31.724
30.660432587840603 31.6849
30.683518779717886 31.6979
30.70660624769615 31.6377
30.729694992924372 31.6237
30.75296541239743 31.6487
30.77605672557558 31.5696
30.799149319462742 31.4454
30.8224236211637 31.3592
30.845518789950724 31.3363
30.868615242910597 31.2894
30.891712981195973 31.1042
30.91499247215866 31.1634
30.938092794619365 31.0274
30.96119440587579 30.9459
30.984297307082752 30.8753
31.00758200598383 30.8321
31.030687500658694 30.7544
31.053794288760695 30.6082
31.076902371446767 30.4462
31.100192296997445 30.5569
31.12330298246119 30.4205
31.14641496599209 30.3802
31.169528248749216 30.3948
31.19282341969534 30.3336
31.215939314557186 30.4016
31.239056512134788 30.3996
31.262175013589378 30.3951
31.28547544871168 30.2251
31.30859657161541 30.2568
31.331719001892175 30.3579
31.35484274070538 30.4612
31.378148458819545 30.4367
31.401274828443725 30.4046
31.424402510106933 30.365
31.447712205419993 30.401999999999997
31.470842524931633 30.4219
31.493974159989783 30.2663
31.51710711176168 30.2916
31.54042212308802 30.266
31.563557722100917 30.2477
31.586694641341655 30.0679
31.609832881979628 29.9037
31.63315322823208 29.8858
31.656294125521327 29.7518
31.679436347728515 29.798000000000002
31.70257989602529 29.7039
31.725905596152327 29.6365
31.74905181052835 29.6533
31.772199354521323 29.6456
31.79534822930507 29.6853
31.818679302290967 29.676
31.84183085259981 29.6614
31.864983737233473 29.5904
31.88813795736804 29.691999999999997
31.911474422233013 29.5672
31.934631327356435 29.6017
31.9577895715215 29.5464
31.980949155906522 29.544
32.004291031706956 29.4765
32.027453310562606 29.3861
32.05061693318573 29.1926
32.07396288236386 29.2708
32.09712920658542 29.2695
32.12029687812702 29.0958
32.14346589817093 29.0711
32.166817291729984 29.0182
32.18998902288583 28.9341
32.21316210610336 28.8582
32.23633654256711 28.5703
32.259693399663725 28.6073
32.282870556771144 28.5939
32.30604907069099 28.6947
32.329228942610065 28.6597
32.35259128243769 28.5667
32.375773884550505 28.4547
32.398957848235646 28.3951
32.422143174682176 28.3534
32.445511016471215 28.309
32.468699082679954 28.2273
32.49188851523011 28.2211
32.51507931531304 28.1886
32.538452678331 28.1634
32.56164622776311 28.0827
32.58484114831493 28.0219
32.60803744118015 28.0584
32.631416344731896 28.0036
32.654615396551876 28.0369
32.67781582427913 28.0062
32.701198898634416 27.8203
32.72440209253756 27.7551
32.747606665947124 27.7941
32.77081262006088 27.6472
32.79420126883317 27.6153
32.81740999876112 27.6046
32.840620112999424 27.6326
32.86383161274818 27.583000000000002
32.88722585534586 27.576999999999998
32.91044014056596 27.6158
32.933655814909734 27.479
32.95687287957963 27.4936
32.98027273544904 27.4771
33.00349259526636 27.3266
33.026713849030116 27.429000000000002
33.04993649794511 27.365
33.073341986570746 27.3291
33.09656744032826 27.4152
33.11979429286444 27.3798
33.14302254538647 27.3887
33.166433686291185 27.2954
33.18966475336992 27.2446
33.212897224069096 27.1357
33.23613109959831 27.1228
33.259547912343415 27.1204
33.2827846121627 27.1438
33.306022720453775 26.9844
33.32926223842861 26.9172
33.352684742614166 26.8836
33.37592709463173 26.8907
33.399170859982064 26.8608
33.422597648419426 26.8273
33.44584425514446 26.6024
33.46909227885668 26.5906
33.4923417207723 26.4756
33.51577423505344 26.5259
33.539026528130385 26.435
33.56228024307245 26.4425
33.585535381098246 26.3578
33.60897364093058 26.3155
33.63223163992385 26.3074
33.6554910656699 26.1902
33.678751919389796 26.1998
33.702195944520106 26.1045
33.72545966903325 26.1106
33.74872482519663 26.1016
33.771991414233746 26.0345
33.79544122444841 26.108
33.81871069412428 25.9449
33.84198160035767 25.8354
33.86525394437455 25.9161
33.88870955949969 25.9193
33.911984794020626 25.8555
33.93526147001624 25.8458
33.958539588715006 25.7753
33.98200102861669 25.6302
34.0052820477047 25.59
34.02856451319451 25.6101
34.05203033759056 25.559
34.07531571090147 25.5387
34.09860253431845 25.5616
34.121890809074316 25.4213
34.145362493118924 25.4292
34.16865368561615 25.4173
34.191946333164054 25.2931
34.21524043699793 25.3127
34.23871800066799 25.3308
34.26201503218366 25.1836
34.28531352370466 25.1777
34.30861347646881 25.1234
34.33209693978188 25.1155
34.3553998301885 25.0482
34.378704185565205 24.9672
34.402010007152356 24.9447
34.42549939016683 24.982
34.44880815937748 24.8272
34.472118398533134 24.7651
34.49543010887669 24.7683
34.51892543169198 24.6434
34.54224009966052 24.6072
34.56555624255917 24.745
34.58887386163339 24.6038
34.61237514439016 24.5725
34.6356957311114 24.5753
34.65901779775809 24.5906
34.68252356662995 24.561999999999998
34.705848608458616 24.4807
34.72917513396849 24.4213
34.75250314440949 24.3271
34.77601490857862 24.3199
34.799345904259795 24.284000000000002
34.82267838863559 24.2009
34.846012362958525 24.205
34.869530142679984 24.2509
34.89286711232212 24.1598
34.91620557568269 24.175
34.93954553401677 24.1045
34.9630693495876 24.0716
34.986412313340814 24.0948
35.00975677584668 24.0866
35.033102738362956 23.9728
35.05663261012228 24.0126
35.0799815881786 23.941999999999997
35.10333207003229 23.9184
35.12668405694369 23.8753
35.150220005273056 23.8233
35.17357501786656 23.822
35.19693153931268 23.7555
35.220289570874385 23.6998
35.24383161619786 23.7036
35.267192683604904 23.7929
35.290555264930376 23.7372
35.314101899412165 23.665
35.33746752422433 23.5788
35.36083466676374 23.6225
35.38420332829803 23.576999999999998
35.407756095629054 23.5718
35.43112781085063 23.5518
35.45450104888391 23.5089
35.477875810999194 23.511
35.50143473172161 23.5237
35.52481255774625 23.4896
35.54819191167777 23.3891
35.57157279478914 23.4078
35.595137889488406 23.1961
35.61852184675279 23.2531
35.641907337029984 23.1737
35.665294361595684 23.147
35.68886565090076 23.1484
35.7122557598848 23.1733
35.73564740699838 23.1622
35.759040593519934 23.0636
35.78261809810353 23.002
35.80601437933051 22.9425
35.829412203814705 22.9139
35.85281157283719 22.7552
35.876395313415884 22.8625
35.8997977874528 22.7785
35.92320180988546 22.8497
35.946790244133936 22.7773
35.97019737933222 22.7566
35.993606066789866 22.6552
36.01701630779276 22.725
36.04061101440684 22.5731
36.06402437852291 22.6297
36.08743930005611 22.5937
36.1108557802951 22.5365
36.13445678011326 22.5003
36.15787639383515 22.4908
36.18129757014299 22.4472
36.20472031032821 22.3701
36.22832762423364 22.3431
36.25175350829375 22.3222
36.275180960119776 22.2455
36.298609981005924 22.288
36.32222362992669 22.2251
36.34565580510207 22.1943
36.36908955323448 22.1525
36.39252487562093 22.0403
36.416144880530226 22.0761
36.43958336764275 22.0304
36.463023432914625 22.0681
36.486465077645676 22.0357
36.51009145956204 22.0802
36.53353627947859 22.046
36.55698268276811 21.9926
36.58043067073321 21.9034
36.60406345072071 21.7653
36.62751462435344 21.8411
36.65096738658405 21.7835
36.67460498210655 21.7712
36.69806093788647 21.6944
36.72151848619297 21.6636
36.744977628333636 21.6821
36.76862165890998 21.58
36.79208400512205 21.6158
36.81554794910557 21.561
36.83901349217101 21.4955
36.862663978991606 21.4072
36.88613273667352 21.3735
36.90960309738324 21.3627
36.933075062434064 21.3282
36.95673202673572 21.3335
36.98020721697122 21.2854
37.003684015502365 21.2212
37.027162423645365 21.2597
37.050825886711465 21.2091
37.07430753063053 21.0821
37.09779078812467 21.1634
37.121275660513014 21.1516
37.144945643673694 21.0132
37.16843376245278 20.9837
37.19192350009803 21.0575
37.215414857931435 20.9989
37.239091382563885 20.947
37.262585997426164 20.9037
37.28608223645736 20.8434
37.309763684451696 20.8283
37.33326318851098 20.7607
37.356764320726555 20.6789
37.380267082425526 20.7538
37.40395510942588 20.7739
37.42746114683234 20.6842
37.45096881771841 20.6532
37.474478123414166 20.598000000000003
37.49817275092816 20.5348
37.52168534303452 20.5433
37.54519957395567 20.5024
37.568715445024665 20.4857
37.592416694607714 20.4826
37.61593586281424 20.4408
37.63945667518264 20.4315
37.66297913304891 20.3829
37.68668702630454 20.2926
37.710212792059274 20.2044
37.733740207334854 20.2468
37.757269273470364 20.2143
37.780983832050374 20.1435
37.80451621684926 20.1298
37.82805025654007 20.1585
37.851585952464795 20.0242
37.8753071980695 20.0388
37.89884622345676 20.0453
37.92238690911902 19.916
37.94611318753442 19.9212
37.969657210779765 19.9282
37.99320289834801 19.8424
38.016750251586465 19.8882
38.04048325513017 19.8112
38.06403395679343 19.7751
38.087586328183946 19.7644
38.11114037065203 19.7224
38.13488012115898 19.7577
38.1584375229181 19.6647
38.181996599821 19.5839
38.205557353221124 19.6132
38.229303872575656 19.6005
38.2528679961576 19.6121
38.27643380031219 19.4888
38.30000128639589 19.4696
38.32375459653193 19.494
38.34732546371299 19.4307
38.37089801690786 19.3705
38.39447225747609 19.3271
38.418232380377425 19.3095
38.441810012983396 19.3164
38.46538933705673 19.3229
38.488970353960084 19.2198
38.51273731166058 19.1794
38.536321731567014 19.1716
38.55990784840681 19.1589
38.58367995004091 19.1605
38.60726947812959 19.076
38.63086070726198 19.0633
38.654453638806274 19.0972
38.678232613930824 19.0217
38.70182896773327 18.9783
38.72542702806741 18.914
38.7490267963045 18.8976
38.77281266709232 18.8952
38.79641586862214 18.8183
38.8200207821842 18.8188
38.843627409152944 18.8615
38.86742019782782 18.7455
38.891030269149255 18.7047
38.914642058016156 18.7551
38.938255565806124 18.6593
38.96205529464307 18.6107
38.98567225787121 18.5579
39.00929094417078 18.5546
39.03291135492255 18.5917
39.05671804624804 18.5218
39.080341923549106 18.4654
39.103967529460334 18.4642
39.127594865365744 18.4349
39.15140854155791 18.401
39.17503935514948 18.3632
39.19867190290282 18.3757
39.22249083587951 18.359
39.24612686969409 18.327
39.269764641845306 18.2853
39.293404153722804 18.2341
39.317230110864074 18.1738
39.34087311998506 18.1463
39.36451787301696 18.141
39.388164371352595 18.0544
39.41199737518003 18.0498
39.43564738196752 18.0367
39.45929913825317 17.9347
39.48295264543308 17.9619
39.506792718520884 17.9482
39.530449745387216 17.9144
39.55410852735203 17.89
39.57776906581474 17.9003
39.60161623079 17.8441
39.625280300200025 17.7709
39.64894613032202 17.7058
39.67261372255866 17.7437
39.6964680021016 17.6879
39.72013913657293 17.7675
39.74381203738292 17.695999999999998
39.76748670593756 17.5998
39.79134812278169 17.6337
39.81502634488497 17.645
39.83870633896685 17.5928
39.862388106436654 17.5193
39.88625668336918 17.5133
39.90994201572829 17.4939
39.933629125719285 17.4391
39.957503091207826 17.4863
39.9811937746168 17.4403
40.00488623990914 17.3616
40.02858048850006 17.3377
40.05246165409549 17.3397
40.076159487492085 17.2678
40.099859108448875 17.3125
40.123560518384345 17.235
40.1474489070226 17.2336
40.171153913178564 17.1849
40.194860712584955 17.1334
40.2185693066637 17.1443
40.242464941335314 17.0791
40.26617714307655 17.0337
40.289891143772046 17.085
40.3136069448471 17.028
40.33750984859743 16.9852
40.3612292688043 16.9814
40.3849504936829 16.942999999999998
40.40867352466194 16.8852
40.43258372059144 16.9075
40.45631038219906 16.9008
40.48003885420956 16.7931
40.503769138055105 16.7995
40.52768664931955 16.8296
40.55142057531802 16.8385
40.57515631746428 16.7541
40.599079334038514 16.7454
40.62281872700477 16.6103
40.64655994043941 16.5916
40.67030297578061 16.65
40.69423334835778 16.6129
40.71798004609188 16.5715
40.74172857006355 16.5349
40.76547892171441 16.4875
40.7894166736039 16.4492
40.813170699248566 16.4168
40.83692655691388 16.4574
40.86068424804498 16.4835
40.884629402612525 16.3979
40.908390779366385 16.3966
40.932153993938 16.3572
40.95591904777605 16.2964
40.979871628443995 16.3046
41.003640379561936 16.2962
41.02741097430883 16.2708
41.05118341413683 16.203
41.075143444384416 16.2054
41.098919593177826 16.1655
41.1226975914255 16.1625
41.14647744058318 16.0948
41.170444943946755 16.102999999999998
41.19422851378379 16.0339
41.218013938914645 16.0083
41.24198706625173 15.9814
41.26577622087193 15.9821
41.289567235177785 15.9453
41.31336011063129 15.9199
41.337340752422875 15.8713
41.361137369129835 15.8482
41.38493585138705 15.8352
41.40873620066004 15.8388
41.43272438060107 15.7637
41.45652848292052 15.7249
41.48033445666918 15.6933
41.50414230331616 15.6885
41.528138045159764 15.6786
41.551949656675205 15.6181
41.575763145513235 15.6076
41.59957851314666 15.6183
41.62358184070442 15.5642
41.64740098505737 15.4849
41.6712220126409 15.4934
41.69504492493139 15.4824
41.71905586207357 15.446
41.74288256296395 15.4418
41.766711153007456 15.4344
41.79054163368412 15.3704
41.814560204340054 15.369000000000002
41.838394485526365 15.3741
41.86223066180303 15.3596
41.88625497706819 15.2668
41.910094962812 15.2182
41.93393684811168 15.2175
41.95778063445365 15.1884
41.981812625263366 15.199000000000002
42.00566023303407 15.1322
42.029509746323676 15.133
42.05336116662236 15.1331
42.077400857069705 15.0822
42.10125611078846 15.0317
42.12511327600405 15.0186
42.14897235421036 15.0424
42.173019768448455 14.9953
42.19688269209613 14.9852
42.22074753323349 14.9306
42.24461429335818 14.9007
42.268669455600495 14.8988
42.292540073217886 14.8733
42.31641261433284 14.8362
42.34028708044675 14.7516
42.36435001496739 14.716
42.38822835065557 14.8012
42.41210861586426 14.7586
42.4359908120986 14.7528
42.46006154323262 14.7137
42.48394762115317 14.6274
42.507835634632315 14.6575
42.531912233047436 14.5905
42.55580413732265 14.5566
42.579697981698 14.5045
42.60359376768525 14.4977
42.62767820545945 14.5258
42.65157789440821 14.5141
42.67547952952185 14.4225
42.699383112316 14.4475
42.72347541395347 14.3547
42.74738291190531 14.3907
42.771292362102166 14.4275
42.795203766063516 14.3417
42.819303956130405 14.2759
42.843219287476536 14.2935
42.86713657716324 14.2685
42.89105582671383 14.2457
42.91516392983864 14.2435
42.939087119032166 14.1854
42.963012272677304 14.1646
42.98693939230129 14.0555
43.01105543317513 14.1016
43.034986504731386 14.1046
43.05891954686589 14.0712
43.08285456110972 14.0357
43.10697856448665 13.9838
43.130917542983475 13.950999999999999
43.15485849820081 14.0158
43.17880143167367 13.936
43.20293342237094 13.9063
43.226880332449 13.8739
43.25082922540554 13.8658
43.27496722682525 13.8518
43.29892010567796 13.8611
43.32287497204102 13.8076
43.34683182745632 13.7522
43.370977859791836 13.7657
43.39493871351105 13.6952
43.41890156092628 13.751
43.44286640358341 13.7187
43.46702049182749 13.6886
43.49098934522816 13.6265
43.51496019852649 13.6043
43.5389330532723 13.5871
43.56309522248204 13.5356
43.58707210044314 13.5259
43.61105098451946 13.4761
43.63503187626491 13.4908
43.659202151562134 13.4405
43.68318707902681 13.4549
43.70717401884041 13.4524
43.731162972560874 13.374
43.75534137913236 13.3353
43.779334381108384 13.3629
43.803329401683186 13.3319
43.82732644241872 13.3554
43.8515130055166 13.2769
43.87551410707659 13.2246
43.89951723350145 13.2426
43.923709934595614 13.1963
43.94771713129917 13.2079
43.97172635758096 13.1997
43.99573761501002 13.1683
44.0199385169922 13.120999999999999
44.04395385732619 13.1035
44.067971233533086 13.1137
44.09199064718605 13.0474
44.11619977548961 13.002
44.14022328470671 12.9853
44.16424883610785 12.9648
44.18827643127035 12.994000000000002
44.21249381139513 12.9922
44.236525514814076 12.9565
44.26055926674478 12.888
44.28459506876863 12.9285
44.3088207262813 12.845
44.33286064928722 12.8758
44.35690262714919 12.794
44.38094666145278 12.7471
44.4051806219871 12.8
44.42922879003185 12.7493
44.45327901929361 12.7297
44.477331311362136 12.7103
44.501573600619416 12.637
44.525630039221795 12.6473
44.54968854541895 12.6252
44.573937102200176 12.5738
44.5979997645541 12.5973
44.622064499300315 12.5565
44.64613130803592 12.5484
44.67038823869318 12.4991
44.69445921643748 12.5169
44.718532272981385 12.4845
44.742607409926194 12.4878
44.76687274034801 12.4828
44.79095205918753 12.4056
44.81503346325094 12.4349
44.839116954143876 12.4155
44.86339071028742 12.3584
44.88747839599524 12.3078
44.91156817336837 12.290999999999999
44.93566004401666 12.3035
44.959942251908146 12.2595
44.984038330325966 12.2146
45.00813650686762 12.1773
45.03223678314731 12.2289
45.05652746888232 12.1751
45.08063196592069 12.1551
45.104738567558705 12.1355
45.128847275414856 12.1048
45.15314646515866 12.043
45.17725940679741 12.0581
45.20137445952892 12.0602
45.22568004865265 12.0241
45.24979934496396 11.9933
45.27392075725247 11.9672
45.29804428714431 11.9427
45.322358426247604 11.9108
45.346486212804315 11.9213
45.370616121861914 11.8973
45.39474815505086 11.8252
45.41907087049246 11.8056
45.4432071734666 11.7961
45.46734560548283 11.8288
45.49148616817604 11.8386
45.51581748638564 11.7798
45.5399623320197 11.7416
45.56410931325473 11.7043
45.58825843173002 11.7156
45.61259837920865 11.6927
45.636751793816 11.6859
45.66090735060093 11.6324
45.68506505120716 11.5892
45.7094136545275 11.59
45.73357566449271 11.5374
45.75773982322992 11.5348
45.78190613238733 11.56
45.806263418194064 11.4836
45.83043404997326 11.5182
45.85460683713677 11.4945
45.87897065658495 11.4271
45.90314777634752 11.427999999999999
45.92732705646868 11.4218
45.9515084986045 11.4347
45.97588104735473 11.3898
46.00006683541565 11.312000000000001
46.02425479047904 11.33
46.04844491420549 11.2692
46.0728262191024 11.3258
46.09702070211635 11.3117
46.12121735879483 11.322000000000001
46.14541619080294 11.2567
46.169806278764455 11.2149
46.194009483459034 11.2114
46.21821486849841 11.1563
46.24242243555223 11.1518
46.266821333570014 11.109000000000002
46.29103328674601 11.0953
46.31524742696538 11.1288
46.33946375590237 11.0622
46.36387149104216 11.071
46.38809221957392 11.0341
46.41231514186606 11.0076
46.436540259597464 10.9801
46.460956858999374 10.9438
46.48518638983522 10.9676
46.509418121166966 10.9696
46.533652054678114 10.9175
46.55807754555709 10.8808
46.58231590571962 10.9025
46.60655647313217 10.8176
46.630988654873654 10.7858
46.655233659129024 10.7745
46.67948087571551 10.7804
46.70373030632484 10.7933
46.72817142736393 10.7758
46.752425308428684 10.706
46.77668140861147 10.7072
46.80093972960865 10.6794
46.82538981736788 10.636
46.849652602470904 10.6078
46.87391761349769 10.6305
46.8981848521493 10.6441
46.9226439341274 10.5729
46.946915650573224 10.5679
46.97118959976749 10.565999999999999
46.99546578341598 10.5309
47.019933887188216 10.5463
47.04421456235744 10.5168
47.06849747711879 10.4845
47.09278263318286 10.4305
47.11725978640143 10.4117
47.14154944775105 10.4118
47.165841355555656 10.3962
47.1901355115306 10.3622
47.214621741924994 10.3807
47.23892041698887 10.3331
47.26322134538975 10.3296
47.28771440635075 10.2645
47.31201986422527 10.2873
47.33632758061436 10.2523
47.360637557241866 10.2507
47.38513974410611 10.2724
47.40945426407847 10.1891
47.43377104948137 10.1894
47.45809010204344 10.1588
47.48260144275502 10.1514
47.506925052572285 10.1281
47.53125093475548 10.1041
47.55557909103813 10.1094
47.58009961361992 10.0572
47.60443234110732 10.0481
47.62876734791564 10.0255
47.65310463578333 9.98744
47.6776343683373 9.99198
47.7019762413987 9.96203
47.72632040075572 9.94132
47.75066684815169 9.96397
47.77520581885936 9.92646
47.799556865477655 9.91128
47.823910205386 9.91297
47.84826584033272 9.90423
47.87281407745551 9.83608
47.89717432569297 9.87093
47.92153687423484 9.81521
47.94609208429692 9.77081
47.97045925671401 9.78157
47.99482873471275 9.76907
48.01920052005013 9.71917
48.04376504619224 9.72666
48.068141469543484 9.719339999999999
48.09252020552573 9.704369999999999
48.11690125590099 9.692910000000001
48.1414751266064 9.67331
48.16586082917454 9.67863
48.19024885144316 9.608880000000001
48.2146391951793 9.6122
48.239222439012764 9.58866
48.26361744916137 9.5556
48.28801478610016 9.56405
48.31241445160131 9.55313
48.337007097209366 9.53836
48.36141144338331 9.51812
48.38581812345755 9.50103
48.41022713920929 9.46798
48.434829215320704 9.47348
48.45924292604658 9.42764
48.48365897780325 9.43934
48.50807737237308 9.36363
48.532688907799276 9.43142
48.55711201168574 9.38452
48.581537463754074 9.35614
48.60615611725119 9.38137
48.63058628942721 9.3267
48.65501881516546 9.30289
48.6794536962573 9.29242
48.70408185970339 9.27471
48.72852147531801 9.21044
48.75296345168211 9.19281
48.77740779059232 9.23073
48.80204549302823 9.25792
48.82649458091802 9.16864
48.85094603676547 9.1446
48.87539986237231 9.14467
48.90004713292306 9.1411
48.92450572200832 9.10087
48.94896668628025 9.10042
48.97343002754588 9.13071
48.99808689542115 9.05982
49.02255501470614 9.0629
49.04702551642794 9.02024
49.0714984023988 9.00603
49.096164896893235 8.9625
49.120642575466796 8.98889
49.145122643748394 8.94968
49.16960510355558 8.93332
49.19428125404938 8.92888
49.2187685210852 8.93111
49.243258185121555 8.90441
49.26794160167084 8.870610000000001
49.2924360839405 8.86988
49.31693296869764 8.82864
49.34143225776915 8.79049
49.36612538195438 8.799430000000001
49.39062950396021 8.8096
49.41513603578346 8.7608
49.4396449792564 8.72874
49.46434784069503 8.76614
49.488861631846454 8.70618
49.513377840166804 8.70303
49.537896467493745 8.703330000000001
49.56260909589029 8.6284
49.587132585683285 8.63508
49.611658500018365 8.63653
49.636186840738596 8.63213
49.66090926588511 8.59849
49.685442483902584 8.57117
49.70997813385706 8.54635
49.734516217597076 8.558810000000001
49.75924846937352 8.55668
49.7837914452858 8.51198
49.80833686055187 8.522960000000001
49.83288471702571 8.48513
49.85762682540054 8.49438
49.882179588965734 8.46468
49.9067347993235 8.44508
49.93129245833333 8.43029
49.95604445336378 8.4325
49.98060703442832 8.40259
50.005172069746266 8.39149
50.02993150438364 8.339960000000001
50.05450147301533 8.340489999999999
50.07907390151433 8.33618
50.10364879174981 8.31981
50.12841816587289 8.30618
50.1529980044635 8.28846
50.17758031042124 8.2671
50.20216508562089 8.29083
50.22694442953363 8.2412
50.25153416817468 8.21241
50.27612638170508 8.1883
50.300721072005196 8.14937
50.325510416102105 8.17334
50.350110084975064 8.13693
50.37471223628208 8.11626
50.39931687190919 8.10656
50.424116246675766 8.13382
50.44872587605249 8.09947
50.47333799543065 8.08133
50.49795260670191 8.08404
50.52276204271512 8.03472
50.54738166295838 8.02363
50.57200378079314 8.03117
50.596628398116835 7.9798
50.62144792604559 7.98124
50.646077567609396 7.9496199999999995
50.670709714377715 7.949510000000001
50.69553683636198 7.9547300000000005
50.72017401885922 7.91025
50.7448137122895 7.9029300000000005
50.76945591856022 7.894830000000001
50.79429318636823 7.886639999999999
50.818940443716784 7.84625
50.84359021965163 7.823910000000001
50.868242516085964 7.820760000000001
50.893089960641895 7.81827
50.917747323549435 7.781339999999999
50.94240721271973 7.8017
50.96706963007175 7.72691
50.99192728239342 7.699389999999999
51.01659478166073 7.74798
51.04126481489051 7.715330000000001
51.06593738400761 7.741860000000001
51.090805275207074 7.68992
51.11548294172845 7.68607
51.14016314993547 7.64585
51.164845901758845 7.65199
51.18972406304274 7.64195
51.21441192780656 7.626869999999999
51.23910234200271 7.60186
51.2637953075678 7.5672
51.288683770237945 7.570139999999999
51.31338186432707 7.57062
51.33808251561888 7.5118100000000005
51.362978729967345 7.49918
51.387684521509755 7.514060000000001
51.41239287610203 7.4931600000000005
51.437103795691165 7.48115
51.46201036644977 7.45547
51.486726441956634 7.4389899999999995
51.51144508832545 7.448189999999999
51.536166307509156 7.405810000000001
51.56108326624387 7.38258
51.58580965706056 7.4307
51.61053862657523 7.4100399999999995
51.635270176746864 7.344939999999999
51.66019755512065 7.34324
51.68493429268881 7.31847
51.70967361681515 7.3356
51.73441552946465 7.3015
51.759353359237934 7.28665
51.7841004750961 7.301410000000001
51.80885018539685 7.2655
51.833602492111254 7.25735
51.8585508051424 7.21282
51.883308330926425 7.18807
51.90806845906181 7.2085
51.932831191525715 7.16524
51.95779001977161 7.158919999999999
51.98255798721516 7.13667
52.00732856494335 7.12511
52.03229530577543 7.08029
52.057071130455945 7.07275
52.081849571391054 7.08312
52.106630630568695 7.06118
52.13160794279417 7.03178
52.15639426492067 7.02458
52.18118321127822 7.03765
52.205974783860896 7.0038100000000005
52.23096269971011 6.9572199999999995
52.255759551287994 6.9581
52.280559035098186 6.974530000000001
52.30536115314103 6.9637
52.33035970494467 6.94905
52.35516711807904 6.94694
52.37997717147198 6.889460000000001
52.40478986713005 6.938089999999999
52.42979908731974 6.91485
52.454617094216 6.88391
52.47943774942214 6.84312
52.50426105495102 6.80156
52.529280976059844 6.812130000000001
52.554109609024096 6.814
52.57894089837482 6.789439999999999
52.60377484613117 6.77508
52.62880550079408 6.778510000000001
52.65364479223379 6.7311
52.67848674816189 6.74528
52.70352547971946 6.73687
52.72837279155837 6.72037
52.753222773982785 6.702319999999999
52.778075429022984 6.6661
52.80312495150885 6.670780000000001
52.827982978797436 6.661580000000001
52.85284368481815 6.64765
52.87770707160767 6.6466199999999995
52.90276741793998 6.62873
52.92763619336701 6.616230000000001
52.952507655698504 6.617139999999999
52.977381806977576 6.58608
53.00245301017842 6.560560000000001
53.02733256653592 6.51894
53.052214817996074 6.54971
53.077099766608484 6.50025
53.102181859804446 6.52658
53.127072229988265 6.5210099999999995
53.15196530349892 6.4996
53.17686108239249 6.43958
53.20195409881522 6.42922
53.22685531582556 6.42063
53.25175924441303 6.417680000000001
53.27666588664027 6.43383
53.30176985962693 6.37531
53.3266819565689 6.391769999999999
53.35159677336455 6.39088
53.376514312083096 6.37098
53.40162927507703 6.34328
53.42655228516116 6.3383400000000005
53.45147802340193 6.3201
53.47660125628886 6.30366
53.50153247842639 6.27201
53.52646643496923 6.277769999999999
53.55140312799818 6.25595
53.576537409691696 6.23635
53.60147960336152 6.21173
53.626424539786164 6.25402
53.65137222105307 6.23005
53.67651758529126 6.229419999999999
53.70147078399681 6.16781
53.72642673383343 6.16689
53.75138543689533 6.16743
53.776541917524526 6.12197
53.801506154876755 6.10304
53.826473151763246 6.1237900000000005
53.851442910284916 6.06045
53.87661054126026 6.11149
53.9015858509782 6.08068
53.92656392866066 6.06036
53.95154477641532 6.0577
53.976723591801296 6.034269999999999
54.00171000771266 6.00967
54.02669920004598 5.97565
54.051691170915745 5.98134
54.076881204886796 5.9942
54.101878760928514 5.99999
54.12687910187696 5.934069999999999
54.152077577768296 5.9848300000000005
54.1770835166946 5.91603
54.20209224691339 5.93049
54.22710377055121 5.89133
54.25231352511594 5.8656
54.27733066384342 5.88022
54.30235060239643 5.87325
54.32737334290836 5.85479
54.35259441062629 5.78906
54.377622783395324 5.78299
54.40265396455061 5.74492
54.42768795623251 5.76023
54.45292037169559 5.77731
54.477960012857906 5.76165
54.50300247099511 5.7041900000000005
54.52804774825457 5.7038400000000005
54.55329154616743 5.64966
54.57834249018678 5.64406
54.6033962597977 5.6028199999999995
54.6284528571545 5.65146
54.653708072335164 5.58268
54.67877035378786 5.61885
54.70383546947698 5.55605
54.72890342156389 5.56691
54.7541700889442 5.56786
54.77924374251975 5.49988
54.8043202390049 5.45158
54.82959552413022 5.45962
54.8546777351945 5.4318
54.87976279569621 5.39919
54.90485070780914 5.38037
54.930137506558005 5.33889
54.95523115074295 5.39044
54.98032765308844 5.3689800000000005
55.005427015775496 5.30295
55.03072536339621 5.35621
55.05583047570572 5.244759999999999
55.080938454927676 5.24507
55.10604930325027 5.23038
55.131359235107396 5.31957
55.15647585066083 5.221030000000001
55.181595341907496 5.1826300000000005
55.20671771104285 5.150469999999999
55.232039262617704 5.14529
55.25716741665048 5.114269999999999
55.28229845518636 5.11281
55.30743238042802 5.08204
55.33276558731939 5.04596
55.357905315183636 5.08252
55.383047936390035 5.02686
55.40819345314859 4.96345
55.433538351073295 4.94067
55.458689688238415 4.9653599999999996
55.483843927614096 4.93607
55.509197623043605 4.92014
55.53435769621134 4.8712800000000005
55.55952067826466 4.88362
55.5846865714265 4.833419999999999
55.61005202069737 4.841130000000001
55.63522376553902 4.8053
55.66039842818645 4.7974
55.68557601087004 4.76345
55.7109532500271 4.6915
55.73613670233794 4.75226
