TT I
1.2716486653135266 8.40555
1.2939594142134223 7.39705
1.3162702121660406 6.66855
1.3385810600174564 7.59426
1.3608919586137629 7.1974100000000005
1.383202908801069 6.659739999999999
1.405513911425503 7.4744600000000005
1.4278249673332093 6.5814
1.4501343378461518 6.5033
1.4724455028545926 6.07912
1.4947567236847858 6.44857
1.517068001182951 6.384869999999999
1.5393793361953272 6.59167
1.5616907295681737 6.43144
1.5840021821477681 5.74792
1.60631369478041 5.80181
1.6286252683124185 5.522390000000001
1.6509369035901333 5.01507
1.6732468618895553 5.15578
1.695558623192809 5.429790000000001
1.7178704487808514 5.50946
1.7401823395001077 5.46726
1.7625012545597203 5.07316
1.7848028405262486 5.1942900000000005
1.8071218901122095 5.31291
1.8294236121921872 5.08062
1.8517427996910911 5.3345
1.8740620574440425 5.28609
1.8963639900671978 5.44
1.9186833908139995 5.06128
1.9409854680117449 4.88455
1.9633050151394713 4.8750800000000005
1.9856246367570705 4.99354
2.0079269371922672 4.69626
2.03024671027244 5.23728
2.0525491637446027 4.87906
2.074869091674931 4.7398
2.097171701569106 4.69204
2.1194917877373847 4.665430000000001
2.141811954326636 4.93728
2.164114805233074 4.72215
2.186435135143035 5.24059
2.208738150935709 4.25995
2.231058647554722 4.32817
2.2533792288321184 4.04603
2.275682498336085 4.9608300000000005
2.298003251406138 4.67479
2.3203066942619714 4.38229
2.3426276225136022 4.366680000000001
2.3649486396617507 4.25116
2.387252348930071 4.21553
2.4095735463442893 4.35679
2.4318774374315884 4.31865
2.4541988185014043 3.963
2.476502894794693 4.32575
2.498824462909887 4.17375
2.521146125856138 4.2746
2.5434504863470337 4.06086
2.5657723414244717 5.02192
2.588076895590662 4.9968699999999995
2.610398946189713 5.14989
2.6327210958598384 4.810919999999999
2.6550259469304716 5.16341
2.6773482972090137 5.09879
2.6996533504259 5.023630000000001
2.7219759047039602 5.76823
2.744298562293959 6.0286800000000005
2.7666039251246595 6.18456
2.7889267918020164 6.57177
2.8112323652516555 6.5115300000000005
2.833555444408179 6.694369999999999
2.8558786311183852 7.616339999999999
2.8781845268938557 7.9387300000000005
2.9005079311721484 8.159939999999999
2.9228140460410397 8.87523
2.9451376712799635 8.89086
2.967444008632326 9.823310000000001
2.9897678582247247 9.84068
3.0120918213106695 10.5032
3.0343984987899373 10.4106
3.0567226913198637 10.913
3.079029599759726 11.636
3.101354025127254 12.1504
3.123678568232338 13.0155
3.145985829517914 13.0313
3.16831061055229 13.4248
3.1906181112775593 14.0757
3.212943133635653 14.6741
3.2352682779763207 15.1729
3.2575761442691227 15.3243
3.2799015350264273 14.9694
3.302209649240067 16.3503
3.3245352898092655 16.4773
3.3468436553365257 16.6907
3.369169549113219 17.1764
3.3914955708171384 18.5255
3.413804319727358 18.6475
3.4361305997334863 18.8511
3.4584396084414553 18.8955
3.4807661501462652 20.1208
3.503092824025881 20.2114
3.5254022288463154 20.5277
3.5477291695206588 20.737
3.5700388426251948 21.5132
3.5923660534916446 21.5384
3.6146934007816114 21.7945
3.637003482731501 22.5682
3.6593311053109985 22.1313
3.681641464033634 22.9878
3.7039693653009733 23.3772
3.726297407241705 24.2618
3.7486081875460804 24.7134
3.7709365132734978 25.0374
3.793247578841633 24.9954
3.8155761917550093 25.1603
3.8378875459837216 26.037
3.8602164494827234 26.0338
3.882545499606844 26.8772
3.9048572932539183 28.0937
3.9271866390645718 28.0768
3.9494987298666713 28.6264
3.971828374764527 29.133000000000003
3.9941581705403255 29.1289
4.016470713506008 29.5722
4.038800813471445 30.4317
4.061113662089144 30.7625
4.0834440696459176 31.6671
4.105774632334751 31.5647
4.128087945865126 32.3701
4.150418821249301 32.7209
4.172732448931298 33.5308
4.195063640413578 34.5669
4.2173775856475215 35.1192
4.239709096631102 35.55
4.262040768704612 36.289
4.284355196706267 37.0919
4.306687193387355 37.1474
4.329001947444346 38.3665
4.35133427213731 39.218
4.373666762177566 40.3911
4.395982011761091 40.7739
4.418314834921175 42.1141
4.44063041906622 42.2484
4.4629635787515625 43.523999999999994
4.4852969080429785 44.9145
4.5076130004776225 45.6654
4.529946671403969 46.8386
4.552263106909177 47.5078
4.574597122877047 49.0589
4.596931312711224 50.5004
4.619248269273446 51.6205
4.6415828092605835 52.2701
4.663900117405352 53.3137
4.686235010953232 55.0417
4.708552674085913 56.4683
4.730887924602802 57.8855
4.753223354952695 59.1282
4.775541557023902 60.4504
4.797877349456786 61.9788
4.820195915032126 64.1393
4.842532072957498 65.6767
4.864868414979744 67.7684
4.88718753227192 69.9284
4.909524244902505 72.434
4.931843734218147 74.843
4.954180820867835 78.3907
4.976518095879839 82.181
4.998838149695359 86.2982
5.021175803844231 90.9637
5.043496238205739 95.7801
5.065834274903528 102.354
5.088172504230693 109.389
5.1104935158799565 119.09299999999999
5.132832132875765 134.516
5.155153533596801 159.114
5.1774925416746225 219.65200000000002
5.199814334878411 590.81
5.2221537374521505 2029.49
5.244493338631803 3774.09
5.266815727034316 5104.66
5.289155727832427 7667.62
5.311478517248165 9451.73
5.333818921080011 6668.77
5.356159527788849 2234.23
5.3784829252032536 524.8530000000001
5.400823940070432 229.835
5.423147747031976 170.33
5.445489173474152 143.85299999999998
5.467830807066149 130.314
5.490155234831516 121.955
5.512497285125229 114.995
5.534822130975162 112.374
5.557164601388673 108.6
5.579489868738879 104.131
5.601832762690846 101.822
5.6241758697774475 100.431
5.646501775867269 99.1141
5.668845311622074 98.3057
5.691171647754637 97.641
5.713515615597765 97.0116
5.735859800852677 95.8164
5.758186788542988 94.7663
5.780531411018185 95.1792
5.802858837297399 95.2808
5.825203900414495 95.8461
5.8475491852224 97.2984
5.869877275883075 99.1684
5.892223006467101 102.559
5.914551544266608 106.991
5.936897724049891 114.271
5.959244129804903 127.292
5.981573344815301 161.065
6.0039202049061 303.65
6.026249875609095 781.793
6.04859719346037 1406.72
6.070927323278297 1859.55
6.093275102315365 2515.65
6.115623113320588 3551.41
6.137953938319995 3967.12
6.160302415650845 2310.55
6.182633708324452 752.17
6.2049826554078376 233.62
6.227331838745022 128.86
6.249663839443684 102.501
6.27201349767565 90.6339
6.294345974611799 84.2524
6.316696111167083 78.6153
6.339046488263839 75.5334
6.361379686074702 72.5422
6.383730546639482 70.5567
6.406064229255215 68.6025
6.428415576718203 67.5887
6.450749747566656 66.2109
6.47310158535871 65.3945
6.495453669698332 63.839
6.517788579421056 63.211000000000006
6.540141159237969 62.3373
6.562476565766648 61.6973
6.5848296444934045 60.4439
6.607182974060425 60.119
6.6295191323281015 59.511
6.651872965955752 58.7876
6.6742096296068985 58.1608
6.6965639707294615 58.03
6.71891856698715 57.156000000000006
6.741255995248479 57.1024
6.763611104154477 56.2217
6.785949046381137 55.6211
6.808304671371482 55.3204
6.8306605557940046 55.2542
6.852999275508618 54.2958
6.875355681171544 54.0837
6.897694923437771 54.3756
6.92005185377892 53.8654
6.9423916220322655 53.6937
6.964749080490181 53.4714
6.987106804399774 53.2336
7.009447368180821 53.1482
7.031805625367033 52.7701
7.054146723727803 52.8264
7.076505517631004 52.449
7.098864581288365 52.2008
7.121206488070854 52.1391
7.143566093607822 51.7759
7.165908543567245 52.1192
7.188268694426048 51.8612
7.2106291193438095 51.7892
7.232972390625943 51.7583
7.255333366030969 51.4381
7.277677189091925 51.5641
7.300038718428332 51.6444
7.322400526130865 51.1168
7.344745183422596 51.4283
7.367107550224791 51.5685
7.389452767901992 51.5368
7.411815697249891 51.5522
7.434161478756298 51.4347
7.456524974096713 51.3491
7.478888753837185 51.7644
7.501235387657368 52.7754
7.523599738562711 56.5626
7.545946944825532 63.917
7.568311870344528 66.4211
7.5906770845765665 61.3916
7.613025156078678 56.25
7.635390950099687 54.1894
7.657739602662809 53.2905
7.680105979923558 52.8972
7.702472650212829 53.5516
7.724822180948224 53.5056
7.747189439655568 53.5816
7.769539560075357 53.9422
7.791907410653562 54.4872
7.81425812420825 54.3646
7.836626570110925 54.6222
7.858995315087906 55.592
7.881346924933401 55.8592
7.903716270417482 56.4029
7.926068482028405 56.9805
7.948438431475253 57.2226
7.9708086843180235 57.83
7.993161805171116 58.3937
8.015532667162402 58.8626
8.037886398416653 59.7296
8.060257873014221 60.2892
8.082629655331942 60.4809
8.104984308787587 61.0631
8.127356708900503 62.0791
8.149711981398308 63.3571
8.172085002766314 64.0
8.194458336181368 64.9218
8.216814543847752 65.7836
8.23918850371002 67.6571
8.26154533906492 68.9388
8.283919928836452 70.5098
8.306277395339652 71.4904
8.328652618483376 73.0387
8.351028159736202 75.5732
8.373386579575245 77.9745
8.395762759396959 79.9487
8.418121819038275 83.3608
8.440498640894003 88.5296
8.462875785192262 96.0261
8.485235811156207 111.693
8.507613602688501 177.92700000000002
8.529974277114228 378.577
8.552352719347912 618.202
8.574731488360351 771.95
8.59709314210385 839.745
8.619472567021075 1010.61
8.64183487789147 1373.5
8.664214962183097 1797.35
8.686577933647762 1683.02
8.708958680784317 1014.3
8.731339760774953 446.30199999999996
8.753703729764451 185.447
8.77608547780821 119.61200000000001
8.798450116065078 105.037
8.820832535634787 97.9808
8.843215292401656 94.3978
8.865580941199045 91.1779
8.887964374703538 89.2602
8.910330701447199 87.4053
8.932714815164482 86.1012
8.955099270424924 84.5938
8.977466620733543 84.1724
8.999851761421976 83.8311
9.022219798361645 82.4446
9.04460562795561 82.5586
9.066991803441677 82.1355
9.089360876979615 81.8619
9.111747746589993 81.4964
9.13411751544971 81.0406
9.156505082664324 80.8302
9.178875550323522 80.8417
9.20126381862328 82.2437
9.223652438908596 88.0603
9.246023961427412 98.8445
9.26841328802173 102.404
9.290785518039224 96.4783
9.313175554425882 88.5785
9.335565947154315 83.2182
9.357939245086508 82.0904
9.380330352834827 81.8944
9.40270436697103 81.7414
9.425096193225055 81.3067
9.447488380180165 82.3389
9.469863475295412 82.6058
9.492256385987508 82.751
9.514632206018318 83.493
9.537025843935714 83.8102
9.559402392368193 84.4637
9.581796761000229 85.6064
9.604191496441521 85.9728
9.626569144158516 86.4905
9.648964615551032 86.8152
9.671343000390081 88.0106
9.693739211225699 89.0012
9.716135793237463 89.8831
9.738515290448102 90.6487
9.760912617143402 91.8936
9.783292860202891 93.7153
9.805690935076182 95.2418
9.828089385495742 96.0811
9.850470754023561 98.0954
9.872869957865444 100.69
9.89525208097539 103.414
9.917652041736662 107.574
9.940052382417589 114.03200000000001
9.962435644102392 132.02700000000002
9.984836746950979 189.993
10.007220771957746 352.01
10.029622640473708 560.252
10.052007432299963 683.443
10.074410069984072 711.893
10.096813093716005 764.174
10.119199042482517 939.627
10.141602840636468 1273.42
10.163989564971628 1595.58
10.186394141051062 1592.34
10.208799107559706 1058.36
10.231187001965623 533.198
10.253592751657669 232.771
10.275981430388155 137.81
10.298387966769793 117.791
10.320794897965431 111.928
10.343184759907361 108.182
10.36559248305461 105.126
10.387983138083852 104.149
10.410391656691655 106.671
10.432800574501677 121.83200000000001
10.455192425893369 166.012
10.47760214443012 218.965
10.499994797678786 249.834
10.522405320453982 255.482
10.54479877906917 266.784
10.567210109595656 306.05
10.5896218454736 379.69199999999995
10.612016518879773 470.19599999999997
10.634429067781074 489.699
10.656824555333241 392.031
10.679237920773568 248.054
10.701651695961992 142.821
10.724048411481384 102.911
10.746463008485165 91.3562
10.768860546937125 86.6286
10.791275969274796 83.2225
10.81369180576079 81.5784
10.836090585366925 80.0384
10.858507252467449 78.727
10.88090686379991 77.6052
10.903324365036394 76.6404
10.925724811614439 75.4838
10.948143150509463 74.8907
10.970561909719066 73.7331
10.992963615930844 73.1368
11.015383218085756 72.292
11.037785768347074 71.2614
11.06020621697282 70.7241
11.082627090322113 70.4713
11.105030913430326 69.684
11.12745263854165 69.2842
11.149857314510728 67.9372
11.172279894912576 68.2672
11.194702904450653 67.3734
11.217108866490921 66.5709
11.239532736615194 65.9632
11.26193956033512 65.8939
11.284364294577085 65.6932
11.306789462371718 65.2165
11.329197585398376 64.8728
11.351623622610898 64.7581
11.37403261614354 64.1341
11.396459526308487 64.3079
11.418869393879497 63.5947
11.441297180532617 63.3865
11.463725406927658 62.845
11.486136592353875 62.4606
11.508565700543707 62.2616
11.530977768845315 62.1827
11.553407762368774 61.9117
11.575838200059769 61.8621
11.598251599479612 61.591
11.620682927815501 61.6381
11.64309721895548 61.5022
11.665529441478206 61.1085
11.687962112597958 61.1051
11.710377748130886 61.0014
11.732811318753434 60.8144
11.755227854859067 60.9109
11.777662328529495 60.8503
11.800079768750786 60.7388
11.822515149015453 60.9189
11.844950984084935 61.2105
11.867369787303163 60.8623
11.889806534289491 61.1196
11.912226250487029 62.0231
11.934663912939751 64.4542
11.9571020346363 66.5647
11.979523127133968 66.8132
12.001962169624331 66.3131
12.024384183972964 65.2418
12.046824150809913 67.8995
12.069264581333726 77.6071
12.091687985297767 91.0955
12.11412934550045 102.072
12.136553680195208 107.37799999999999
12.158995973632788 109.23200000000001
12.181438735204349 112.54299999999999
12.20386447284199 122.675
12.226308172985636 142.362
12.24873485024193 168.22
12.271179492516982 188.05900000000003
12.293607112949127 182.71599999999998
12.316052700916226 145.112
12.338498763250042 103.791
12.360927805303868 77.1784
12.383374818673879 66.8361
12.405804812803074 63.7717
12.428252780773262 62.9971
12.45070122756722 62.9406
12.473132656675375 62.6598
12.49558206341869 62.5042
12.518014453510101 62.7711
12.540464823770117 62.6745
12.562915677315177 62.4333
12.58534951575545 63.1546
12.607801338171472 62.7937
12.630236146511358 62.9494
12.652688941369085 63.6103
12.675124723177234 63.8604
12.697578494048786 64.4079
12.720032754458185 64.5695
12.742470003354093 65.0763
12.764925245138771 65.8342
12.787363476431278 65.9954
12.809819703166806 66.3043
12.83227642391173 66.8678
12.854716135692716 67.4275
12.877173846755147 68.7777
12.899614549869717 69.0187
12.9220732548287 70.0166
12.94453245827299 70.3259
12.966974655289818 71.6592
12.989434858002571 72.1368
13.011878055298721 73.1364
13.034339260862497 74.5251
13.056800969391883 76.0036
13.079245674017244 78.9441
13.101708390774869 80.946
13.12415410463411 86.3075
13.146617833206086 103.068
13.169064559883248 134.377
13.191529303857127 166.218
13.213994557076367 188.785
13.236442809902437 195.69
13.258909083908291 197.305
13.28135835851934 205.269
13.30382565690295 227.517
13.326293469022952 270.35200000000003
13.348744283242008 330.351
13.371213125129904 384.398
13.39366497011003 389.095
13.416134845360597 321.835
13.438605238843131 224.58900000000003
13.46105863690397 150.172
13.483530069144786 122.506
13.505984506951902 131.537
13.528456981549432 156.32399999999998
13.550929978879088 174.98
13.573385983253365 182.058
13.595860028340867 180.775
13.618317081455832 183.263
13.64079217790333 196.196
13.663250283359057 221.808
13.685726434770173 263.028
13.708203115221277 315.7
13.730662806148091 340.17800000000005
13.75314054697177 313.54200000000003
13.775601299246777 244.68200000000002
13.798080104050406 164.053
13.820559442405358 109.84700000000001
13.843021793671388 88.9347
13.865502201420897 82.3275
13.887965623051947 80.5509
13.910447103807167 78.9164
13.932929122629764 77.1002
13.955394156785959 76.7215
13.977877254034569 75.4574
14.000343367582113 74.4832
14.022827546871707 73.964
14.045294743423524 73.1507
14.06778000837062 72.7612
14.090265817715476 72.4845
14.112734645763819 72.2326
14.13522154619454 73.5559
14.157691466286913 74.6388
14.180179461423874 74.1711
14.202668005486178 72.9191
14.22513957064374 71.5732
14.247629214846473 70.1968
14.270101881097517 69.2737
14.29259262906496 69.1005
14.315083930490205 68.6881
14.337558255389705 68.3969
14.360050666019726 68.1243
14.382526101071944 67.8818
14.405019624534942 67.8414
14.427513705993134 67.5531
14.449990813291825 67.4142
14.47248601302899 67.476
14.49496423954951 67.5646
14.517460561197822 67.7149
14.539939910570322 67.5315
14.562437357763558 67.7589
14.58493536931253 68.045
14.607416409993311 67.9957
14.62991555254159 68.2699
14.652397725157423 68.4175
14.674898002342799 68.8736
14.697398848433282 69.1309
14.719882725991326 70.1272
14.74238471217934 70.8356
14.764869730765593 73.5249
14.787372860692983 80.657
14.809876564079925 94.1399
14.83236330125751 107.60700000000001
14.854868153850365 117.066
14.877356041159485 120.383
14.899862046604186 120.29299999999999
14.922351087688757 121.61200000000001
14.944858249632887 127.62299999999999
14.967365991421232 139.209
14.989856770231246 157.187
15.012365673994204 182.285
15.03485761569738 203.613
15.05736768508665 205.66299999999998
15.07987833888692 181.641
15.102372032001655 145.782
15.124883856909658 105.927
15.14737872204565 83.4628
15.169891721717274 74.0973
15.192405310371893 70.9947
15.214901940621196 69.6079
15.237416709527137 68.5802
15.259914520936249 68.0432
15.282430473753607 67.5811
15.304947020131227 66.7795
15.327446610371178 66.3749
15.349964346154254 65.8863
15.372465126703139 65.9533
15.394984055556009 65.8205
15.417486030076159 65.4871
15.44000615566487 65.2256
15.462526881230803 65.248
15.485030653812652 65.1319
15.507552581617434 64.5529
15.530057557334603 65.0228
15.55258069104857 64.9407
15.575104429329837 64.9532
15.597611216864632 64.9879
15.620136166564563 65.376
15.6426441664095 66.0379
15.665170331202765 67.7732
15.687697105158826 73.6475
15.710206930593545 84.3152
15.732734925158933 95.9116
15.755245972089478 103.689
15.77777519094324 107.28
15.800287463046663 106.905
15.822817909869592 107.071
15.84534897229804 109.61399999999999
15.867863089299354 117.38799999999999
15.890395385222186 128.868
15.912910736597423 146.28799999999998
15.935444269699861 168.64
15.957978423016485 183.637
15.980495633101265 179.88299999999998
16.003031029129367 156.61
16.02554948280019 121.329
16.048086125229432 91.7895
16.070623392487107 74.4119
16.09314371869582 66.8141
16.11568223789321 63.2606
16.13820381691126 61.7237
16.160743591742527 60.9251
16.183283996022084 60.0255
16.205807461423195 59.0966
16.228349126881973 58.2467
16.25087385432698 58.2403
16.27341678466365 57.5697
16.29594277784926 57.2491
16.31848697676433 56.8326
16.341031811604868 56.0497
16.36355971058487 56.086000000000006
16.3861058195587 55.9915
16.40863499352978 55.5763
16.431182380342005 55.1648
16.453730407713202 55.1226
16.476261501364792 54.9119
16.498810812136167 54.5547
16.52134319004079 54.7267
16.54389378792203 54.3349
16.566445031001553 54.4049
16.588979342490088 54.2483
16.61153187824822 54.2133
16.634067483263312 53.7811
16.656621315414416 53.7025
16.679175797408888 53.6886
16.701713349928728 53.6346
16.72426913389191 53.8803
16.74680798922351 53.7658
16.76936507887444 53.7066
16.791905240734874 53.7088
16.814463639794468 53.6622
16.837022695210294 53.6761
16.859564824093756 53.8926
16.882125194503903 53.9947
16.904668639217885 54.0767
16.927230328348003 54.3629
16.949792678493612 54.7316
16.972338104193863 54.8021
16.994901778652235 54.6871
17.017448529496576 54.659
17.040013531998152 54.9118
17.06257920018044 55.176
17.0851279459922 56.4416
17.107694947817667 58.5941
17.130245028099072 60.8718
17.15281336730298 62.8155
17.17536478578733 64.1263
17.19793446610687 64.2198
17.220504818648422 64.4511
17.243058251703697 64.4124
17.265629950971032 65.476
17.288184731571736 67.2164
17.310757781306908 70.3816
17.33333150794385 73.6382
17.355888317140174 77.4069
17.37846339986244 80.8605
17.401021565958885 81.0613
17.42359800851343 77.8973
17.44617513265564 72.0266
17.468735341390783 66.2708
17.491261035594565 61.5043
17.51396340099364 59.3049
17.536490463869136 58.8066
17.559018209820174 58.4063
17.58154663977963 58.5943
17.604251766089718 58.753
17.626781572227713 58.7105
17.64931206518155 59.0368
17.671843245885103 59.2338
17.69455114821572 59.4627
17.717083712612634 59.8086
17.739616967569667 60.353
17.762150914021706 60.9078
17.78486160749854 61.1431
17.807396945166804 61.8767
17.829932977143503 62.6239
17.85246970436452 63.4132
17.875183204129467 66.13
17.897721330097664 71.852
17.920260154126645 78.4622
17.942799677153296 84.0741
17.9655159983646 86.9686
17.988056927677544 87.9676
18.010598558807683 87.9879
18.033140892692916 88.475
18.05586005052525 90.1944
18.07840379824407 94.0919
18.10094825154059 100.235
18.12366954819864 109.323
18.146215420998306 122.637
18.16876200220057 136.891
18.191309292745153 145.416
18.214033452627167 143.635
18.236582170236648 131.51
18.259131600016456 113.54799999999999
18.281681742907335 97.2039
18.304408781233683 87.7431
18.32696035875955 84.2277
18.349512652227624 84.0974
18.372065662579683 87.3231
18.394795594587553 92.3078
18.41735004715306 97.7592
18.43990521943684 102.09200000000001
18.46246111238171 102.177
18.485193953325208 96.802
18.507751296070428 87.4733
18.530309362314178 77.7201
18.552868153000343 69.8237
18.57560391815056 64.9819
18.59816416623245 63.0336
18.620725141597372 61.9892
18.643286845190268 61.1233
18.666025549835414 60.5908
18.688588718427933 59.6252
18.711152618092243 59.3585
18.73389353884365 59.1489
18.75645890921984 58.7717
18.77902501351406 58.4466
18.801591852673102 58.3093
18.824335739722738 57.7267
18.846904057212626 57.6447
18.8694731124168 57.181999999999995
18.89204290628315 57.3463
18.914789774966803 57.3495
18.937361054791623 56.9032
18.959933076131318 56.4334
18.982505839934877 56.3644
19.00525570560582 56.3981
19.027829963004184 56.3148
19.05040496572238 56.3921
19.072980714710468 56.2945
19.095733592739563 56.32899999999999
19.11831084296757 56.9007
19.140888842324735 58.1295
19.16346759176222 59.3671
19.18622349753803 60.507
19.208803755869358 61.3434
19.231384767143577 61.6386
19.253966532312948 61.701
19.276725481241822 61.693999999999996
19.29930876296784 61.9547
19.3218928014549 62.7731
19.34465404436217 63.8951
19.36723960516257 65.42
19.389825925592426 67.3806
19.412413006605938 69.8619
19.43517731967805 72.4724
19.457765930683355 73.6753
19.48035530514408 72.4571
19.50294544401556 69.0864
19.525712842708348 64.2245
19.54830451925909 60.0008
19.570896963095727 56.2543
19.593490175174704 54.4614
19.616260674962184 53.9339
19.638855432416964 53.3702
19.661450960992624 53.2929
19.68404726164677 53.0733
19.706820878021247 52.9859
19.729418731756834 53.2504
19.752017360452857 52.8466
19.77461676506804 53.1093
19.797393513540218 53.1514
19.819994478951667 53.3615
19.84259622316767 54.4157
19.8651987471481 55.4875
19.887978643247177 56.4207
19.91058273574792 57.321999999999996
19.933187610901943 57.9216
19.955969879466828 58.047
19.97857632894404 57.964
20.00118356396599 57.9244
20.023791585494575 58.2203
20.046577028914875 59.3283
20.069186632506966 60.6148
20.091797025500632 62.8862
20.114408208858933 65.6138
20.137196842715273 68.7266
20.159809615886765 71.3458
20.18242318232135 71.8461
20.20503754298326 70.8404
20.227829382875154 68.488
20.250445341109344 65.4123
20.27306209647285 62.2714
20.29567964993108 60.4111
20.31847471147704 59.6609
20.34109387027612 60.0966
20.363713830075454 61.7354
20.386334591841646 63.3592
20.409132890679302 64.4569
20.431755265564437 64.324
20.454378445325528 62.3044
20.477002430930366 59.4978
20.499803982716553 56.0774
20.522429589228004 53.0755
20.54505600449589 51.4541
20.567683229489194 50.784
20.590488049900088 50.1667
20.61311690359731 49.9008
20.63574656993626 49.7399
20.658553853717297 49.3659
20.681185154618298 49.343999999999994
20.703817271080066 49.1682
20.72645020407368 48.8777
20.749260783967177 48.9005
20.771895359337133 48.9811
20.794530754161617 48.8734
20.817166969412938 48.7568
20.83998086114876 48.7662
20.86261872660049 48.4917
20.885257415405402 48.5637
20.90789692853701 48.3144
20.930714147864748 48.2627
20.953355319030678 48.1255
20.97599731745334 48.3751
20.99864014410749 48.463
21.021460706796564 48.6058
21.044105199328826 48.7983
21.06675052302631 48.968999999999994
21.089396678865015 49.0072
21.112220600704806 49.1211
21.134868430275347 49.0316
21.15751709492456 49.0467
21.180166595629693 49.0151
21.202993892429635 49.1717
21.22564507473034 49.2353
21.24829709602816 49.4393
21.27112693608965 50.1442
21.293780644891275 50.8017
21.316435195634053 50.8607
21.339090589297417 50.7523
21.361923832041875 50.7823
21.384580921090404 50.3832
21.407238856007325 49.5359
21.429897637773326 49.0033
21.45273429906592 48.4071
21.475394784108598 48.3069
21.498056118951983 48.2456
21.520718304578022 48.2582
21.543558400304388 48.3794
21.566222297108816 48.5827
21.58888704765135 48.553999999999995
21.61155265291521 48.9128
21.63439619898156 49.8926
21.657063523335786 50.8333
21.67973170537063 52.0064
21.7024007460706 52.8916
21.72524775840385 53.2357
21.747918526116475 53.7185
21.770590155457388 53.6148
21.79326264741238 53.6907
21.816113141960237 53.9792
21.838787368860547 54.7865
21.861462461341976 55.7698
21.884315579735777 57.3399
21.90699241312273 59.0155
21.92967011506078 60.659
21.95234868653799 62.7974
21.9752053151131 64.6177
21.997885635446785 65.6405
22.020566828293532 65.6667
22.04324889464272 63.7267
22.066109049404666 60.8524
22.088792872571794 58.1476
22.111477572219204 55.9819
22.1341631493376 55.1416
22.157026846313123 54.9385
22.179714188221507 55.3141
22.202402410582668 55.7811
22.22509151438863 55.6143
22.24795876962584 54.9355
22.270649646204486 53.9357
22.293341407213727 52.3471
22.316034053646906 51.0252
22.338904883215342 49.9392
22.36159931041458 49.2554
22.38429462602756 48.7785
22.40699083104897 48.6164
22.429865251039757 48.4517
22.452563244831367 48.4877
22.47526213102522 48.4506
22.49813925616515 48.3253
22.520839937143307 48.4702
22.543541513520587 48.4978
22.56624398629403 48.4515
22.589124730075895 48.2261
22.611829005656723 48.3944
22.63453418063466 48.4627
22.657240256008077 48.6474
22.680124634582935 49.2401
22.70283252079775 49.8877
22.725541310413075 50.6796
22.74825100442868 51.0309
22.771139033969575 51.8391
22.79385054687155 51.5888
22.81656296718292 51.4797
22.83927629590484 51.4343
22.862167992606945 51.619
22.88488314827121 51.8102
22.907599215359284 52.083
22.93031619487366 52.4691
22.953211574954405 52.9793
22.975930389478226 54.0187
22.998650119445763 55.1281
23.02137076586092 56.0766
23.044269845560063 57.2281
23.06699233506288 57.8636
23.089715744034912 57.3123
23.112617610931565 56.126999999999995
23.135342869061212 54.3645
23.158069049684816 52.4637
23.1807961538087 50.6135
23.20370174880544 49.6441
23.226430710184808 49.2346
23.249160598093425 48.9571
23.271891413539002 49.0773
23.294800752937697 49.3752
23.31753343374794 50.2783
23.340267045128353 50.8268
23.36300158808808 51.339
23.38591468821339 51.6488
23.408651104658304 51.5849
23.431388455719986 51.3579
23.454126742409 51.2318
23.4770436196085 51.2303
23.499783787914662 51.3993
23.522524894889884 51.4714
23.54526694154616 51.9585
23.56818761219047 52.6342
23.59093154860734 53.2482
23.613676427751283 54.5811
23.636422250635754 55.8117
23.659346731118656 56.9702
23.68209445191868 57.6792
23.704843119509587 57.3147
23.72759273490623 55.7643
23.750521041644767 53.6136
23.77327256312355 51.1761
23.796025035462787 49.0607
23.818956224555475 47.292
23.841710609113413 46.6726
23.86446594758979 46.2143
23.887222241002014 45.7797
23.910157285144578 45.3895
23.932915498962537 45.3597
23.955674670778713 45.27
23.978434801611975 45.0706
24.001373717286125 44.9628
24.024135776723917 44.7338
24.046898798245582 44.6466
24.06966278287146 44.5053
24.092605586582614 44.2932
24.115371508023642 44.0441
24.1381383956401 43.8765
24.16090625045381 43.8015
24.183852958731244 43.8136
24.206622758582608 43.5879
24.229393528706886 43.4091
24.252165270127392 43.4884
24.27511589952438 43.5633
24.297889594216997 43.2946
24.32066426328598 43.2817
24.34343990775613 43.1276
24.36639447485003 43.0912
24.38917208083877 42.9923
24.41195066531332 42.9574
24.43490819850244 42.9569
24.457688750692377 42.6649
24.48047028445616 42.6098
24.503252800821233 42.7151
24.526214300784112 42.8025
24.548998793132213 42.6714
24.57178427117417 42.5625
24.59457073593893 42.7081
24.617536219319863 42.6773
24.64032466834748 42.8495
24.663114107195035 42.7607
24.685904536893013 42.6648
24.708874020360852 42.696999999999996
24.731666442613744 42.63
24.754459858818787 42.5569
24.777254270007962 42.3816
24.80022777025625 42.2623
24.82302418230472 42.083999999999996
24.845821592443674 42.2255
24.86862000170663 42.2498
24.891597535453727 42.1882
24.914397953892728 42.4637
24.93719937456671 42.3048
24.96000179851076 42.3534
24.98298338249997 42.4722
25.00578782394922 42.6378
25.028593271784167 42.6829
25.05157790644186 43.0118
25.07438537804115 43.1998
25.097193859145293 43.3449
25.120003350792075 43.5464
25.142992065061257 43.7312
25.165803588823465 43.7841
25.18861612625217 43.9944
25.211429678386736 43.9563
25.234422489079968 44.3592
25.257238081693636 44.4758
25.280054692141732 44.6307
25.3028723214652 44.5421
25.325869245420463 44.4345
25.348688923599397 44.2166
25.371509623787006 44.4092
25.394331347025812 44.3319
25.41733240110666 44.5685
25.440156181590016 44.6454
25.46298098826268 44.7305
25.48580682216873 44.2642
25.50881202326435 43.646
25.53163992281684 43.0963
25.55446885274561 42.3523
25.577298814096377 41.5663
25.600308179121807 41.1257
25.623140214533745 41.2568
25.64597328451537 40.9544
25.66898578564376 40.6514
25.691820936010206 40.6544
25.714657124097695 40.4624
25.737494350954734 40.5138
25.760511045684957 40.5769
25.783350361364224 40.6112
25.806190718969255 40.698
25.82903211955018 40.7781
25.852053024868923 40.8443
25.874896522722523 40.8132
25.897741066713106 40.7387
25.920586657892454 40.6553
25.943611790812668 40.6915
25.966459487728237 40.6324
25.989308234998564 40.5232
26.01215803367705 40.7847
26.03518741123814 40.74
26.05803932412957 40.8485
26.080892291600094 40.8143
26.10374631470478 40.9693
26.12677995397268 41.2205
26.14963609978026 41.5043
26.172493304397875 41.5911
26.19535156888223 41.7382
26.218389486949604 41.7667
26.241249882640123 41.4774
26.26411134137826 41.3007
26.28715248187403 41.0582
26.31001607820869 40.7472
26.3328807407756 40.5308
26.35574647063438 40.6497
26.37879191991473 40.5323
26.401659795896734 40.5344
26.424528742360263 40.584
26.447398760366614 40.5111
26.470448535598294 40.5272
26.49332070826805 40.5725
26.516193955675355 40.6792
26.53906827888316 40.8302
26.562122397260108 40.9436
26.584998883685063 41.0472
26.607876449110325 41.0852
26.63075509460056 41.2723
26.65381357334404 41.3938
26.67669439061878 41.5431
26.699576291163382 41.8646
26.722459276044212 42.2189
26.745522132402975 42.3512
26.768407297649354 42.4091
26.791293550442003 42.0815
26.814180891848974 41.84
26.837248143099337 41.3183
26.860137673466657 41.0681
26.88302829566349 40.5436
26.90592001075963 40.5709
26.92899167420566 40.5735
26.951885586870763 40.2173
26.974780595655517 40.0602
26.99785558178161 39.845
27.020752794605112 39.5357
27.043651106772522 39.2878
27.06655051935668 39.0878
27.089629948036183 38.852
27.112531573292053 38.8538
27.135434302194138 38.8569
27.158338135817015 38.7918
27.181422024430987 38.7251
27.204328079372566 38.625
27.22723524226965 38.7022
27.250143514198573 38.7683
27.273231880156334 38.6816
27.296142382065014 38.5617
27.319053996245536 38.4548
27.341966723775965 38.4325
27.365059584515222 38.4508
27.38797455070062 38.4556
27.410890633481237 38.3698
27.433807833936918 38.3128
27.456905206923906 38.3267
27.47982465472398 38.3793
27.502745223449743 38.4338
27.525666914182825 38.5038
27.548768816912457 38.3377
27.571692763693633 38.3915
27.59461783573812 38.51
27.617723149491244 38.4192
27.640650484125285 38.4862
27.66357894728264 38.5919
27.686508540048052 38.5659
27.709618414237887 38.3985
27.732550278321757 38.2834
27.755483275279115 38.1189
27.778417406196485 38.2473
27.801531858397514 38.1376
27.824468269376716 38.0721
27.847405817586786 37.9242
27.870344504116094 38.0112
27.893463551932008 38.0497
27.916404527281053 38.1278
27.93934664422563 38.1908
27.962289903855886 38.3229
27.98541356491974 38.3939
28.00835912214229 38.2343
28.03130582533231 38.4494
28.054253675581805 38.5945
28.077381967556104 38.4987
28.100332124185126 38.7394
28.123283431160893 38.7591
28.146235889577238 38.998000000000005
28.169368830154156 39.1066
28.192323603752033 39.0663
28.215279532083304 38.8164
28.238415973016764 38.7139
28.261374223145094 38.4518
28.284333631303806 38.2871
28.307294198589954 37.9906
28.330435319167677 37.758
28.353398217078915 37.6041
28.376362277420153 37.4287
28.39932750129032 37.1531
28.422473319286713 36.999
28.44544088262495 36.859
28.468409612800283 36.5068
28.491379510913497 36.2374
28.51453004413313 36.1738
28.53750229057244 36.0365
28.56047570826344 35.9369
28.583450298308804 36.0219
28.606605564586562 35.8149
28.629582511831156 35.9067
28.65256063474956 35.7348
28.675539934446338 35.7498
28.698699951647605 35.8013
28.72168161743193 35.4955
28.74466446331978 35.5289
28.767648490417624 35.361
28.790813276438353 35.2649
28.813799678527303 35.2919
28.836787265157085 35.288000000000004
28.859955641890075 35.2301
28.882945610203045 35.1413
28.905936766392035 35.11
28.928929111566863 35.2642
28.952102288520145 35.2747
28.975097024308607 35.1626
28.998092952423807 35.1533
29.021090073977508 35.0546
29.04426806913204 35.1133
29.067267590245258 34.9503
29.090268308143695 34.7316
29.11327022394099 34.845
29.13645305530891 34.7289
29.159457379627167 34.6236
29.18246290519685 34.3228
29.20546963313352 34.3614
29.22865731875826 34.2874
29.25166646419296 34.2637
29.27467681535305 34.0822
29.29768837335608 34.1512
29.320880931312562 33.9602
29.34389491580634 34.0675
29.366910110507334 33.9699
29.38992651653503 33.9858
29.41312396492981 33.9744
29.436142806456754 33.9833
29.45916286268059 33.954
29.48236399319994 34.010999999999996
29.50538649169417 34.0669
29.528410208259935 33.971
29.55143514402014 33.6786
29.574641196749695 33.6073
29.597668583816574 33.5706
29.6206971934585 33.4168
29.64372702680042 33.4165
29.666938019934474 33.1975
29.689970313635285 33.0807
29.713003834422636 32.9598
29.73603858342347 32.8685
29.759254535188578 32.7523
29.78229175361658 32.6508
29.80533020365064 32.8235
29.82836988641968 32.8501
29.85159081507472 32.6836
29.874632976355343 32.7371
29.89767637376955 32.6932
29.920721008448314 32.5104
29.9439469322847 32.598
29.96699405457564 32.55
29.9900424175358 32.5171
30.013092022298157 32.5487
30.03632295963995 32.3424
30.059375061131373 32.4127
30.08242840783577 32.5009
30.105483000888153 32.4413
30.128718970092244 32.2777
30.151776069006917 32.2892
30.17483441768648 32.2224
30.198074175317235 32.2284
30.221135036724256 32.2575
30.24419715131772 32.2472
30.267260520236203 32.1672
30.290505341942243 32.2397
30.313571232750228 32.4144
30.336638381310948 32.429
30.35970678876503 32.4312
30.38295669299435 32.3475
30.40602763151657 32.293
30.429099832366074 32.343
30.452173296685572 32.1921
30.47542830191959 32.1264
30.498504306502497 32.0362
30.521581577995562 32.0413
30.544660117543582 32.1238
30.56792024229725 32.0548
30.59100133132069 31.9934
30.614083691845494 32.0031
30.637167325018545 32.0261
30.660432587840603 32.0792
30.683518779717886 31.9065
30.70660624769615 31.9667
30.729694992924372 32.1262
30.75296541239743 32.1802
30.77605672557558 32.135999999999996
30.799149319462742 32.2001
30.8224236211637 32.1567
30.845518789950724 32.1011
30.868615242910597 32.0853
30.891712981195973 31.9894
30.91499247215866 31.8653
30.938092794619365 31.8429
30.96119440587579 31.7009
30.984297307082752 31.6465
31.00758200598383 31.4987
31.030687500658694 31.4165
31.053794288760695 31.3821
31.076902371446767 31.1831
31.100192296997445 31.1751
31.12330298246119 31.1426
31.14641496599209 30.9558
31.169528248749216 31.0519
31.19282341969534 31.0023
31.215939314557186 30.9711
31.239056512134788 31.0205
31.262175013589378 30.9428
31.28547544871168 30.8626
31.30859657161541 30.8026
31.331719001892175 30.7459
31.35484274070538 30.9296
31.378148458819545 30.8867
31.401274828443725 30.7948
31.424402510106933 30.7412
31.447712205419993 30.8188
31.470842524931633 30.7357
31.493974159989783 30.7235
31.51710711176168 30.6497
31.54042212308802 30.6843
31.563557722100917 30.795
31.586694641341655 30.6972
31.609832881979628 30.7997
31.63315322823208 30.7851
31.656294125521327 30.6908
31.679436347728515 30.5902
31.70257989602529 30.4181
31.725905596152327 30.3877
31.74905181052835 30.1756
31.772199354521323 30.2132
31.79534822930507 30.2473
31.818679302290967 30.2214
31.84183085259981 30.0858
31.864983737233473 30.0255
31.88813795736804 30.1936
31.911474422233013 29.9453
31.934631327356435 30.084
31.9577895715215 29.9776
31.980949155906522 29.8876
32.004291031706956 30.0339
32.027453310562606 29.9917
32.05061693318573 29.8178
32.07396288236386 29.9575
32.09712920658542 29.7869
32.12029687812702 29.7126
32.14346589817093 29.7306
32.166817291729984 29.7665
32.18998902288583 29.6424
32.21316210610336 29.5585
32.23633654256711 29.3703
32.259693399663725 29.3721
32.282870556771144 29.3693
32.30604907069099 29.3466
32.329228942610065 29.2102
32.35259128243769 28.9762
32.375773884550505 29.0397
32.398957848235646 28.8717
32.422143174682176 28.8887
32.445511016471215 28.8183
32.468699082679954 28.8167
32.49188851523011 28.7969
32.51507931531304 28.648000000000003
32.538452678331 28.6196
32.56164622776311 28.5586
32.58484114831493 28.4927
32.60803744118015 28.4461
32.631416344731896 28.5211
32.654615396551876 28.4247
32.67781582427913 28.4358
32.701198898634416 28.3229
32.72440209253756 28.3333
32.747606665947124 28.3454
32.77081262006088 28.1774
32.79420126883317 28.179000000000002
32.81740999876112 28.1456
32.840620112999424 28.0596
32.86383161274818 27.9881
32.88722585534586 28.0388
32.91044014056596 28.0407
32.933655814909734 28.0008
32.95687287957963 28.0093
32.98027273544904 27.8692
33.00349259526636 27.9458
33.026713849030116 27.8844
33.04993649794511 27.8468
33.073341986570746 27.8433
33.09656744032826 27.8377
33.11979429286444 27.7905
33.14302254538647 27.7485
33.166433686291185 27.7056
33.18966475336992 27.6008
33.212897224069096 27.5963
33.23613109959831 27.5838
33.259547912343415 27.5945
33.2827846121627 27.6055
33.306022720453775 27.3928
33.32926223842861 27.4932
33.352684742614166 27.4959
33.37592709463173 27.4076
33.399170859982064 27.3729
33.422597648419426 27.4307
33.44584425514446 27.2781
33.46909227885668 27.1971
33.4923417207723 27.1312
33.51577423505344 27.1172
33.539026528130385 26.9766
33.56228024307245 26.9322
33.585535381098246 26.7941
33.60897364093058 26.8442
33.63223163992385 26.8238
33.6554910656699 26.745
33.678751919389796 26.658
33.702195944520106 26.5934
33.72545966903325 26.543000000000003
33.74872482519663 26.5312
33.771991414233746 26.4578
33.79544122444841 26.4156
33.81871069412428 26.3421
33.84198160035767 26.3234
33.86525394437455 26.3782
33.88870955949969 26.2405
33.911984794020626 26.3274
33.93526147001624 26.2348
33.958539588715006 26.1839
33.98200102861669 26.1581
34.0052820477047 26.0571
34.02856451319451 26.1013
34.05203033759056 26.0257
34.07531571090147 26.0608
34.09860253431845 25.9639
34.121890809074316 25.8876
34.145362493118924 25.8597
34.16865368561615 25.7946
34.191946333164054 25.7665
34.21524043699793 25.6841
34.23871800066799 25.614
34.26201503218366 25.6063
34.28531352370466 25.6316
34.30861347646881 25.6093
34.33209693978188 25.4839
34.3553998301885 25.4203
34.378704185565205 25.4593
34.402010007152356 25.3977
34.42549939016683 25.314
34.44880815937748 25.3147
34.472118398533134 25.3184
34.49543010887669 25.2578
34.51892543169198 25.1517
34.54224009966052 25.198
34.56555624255917 25.0471
34.58887386163339 25.0005
34.61237514439016 24.9471
34.6356957311114 24.9176
34.65901779775809 24.9194
34.68252356662995 24.9152
34.705848608458616 24.9415
34.72917513396849 24.803
34.75250314440949 24.8114
34.77601490857862 24.7813
34.799345904259795 24.6402
34.82267838863559 24.6928
34.846012362958525 24.6505
34.869530142679984 24.6458
34.89286711232212 24.5915
34.91620557568269 24.6146
34.93954553401677 24.5286
34.9630693495876 24.3539
34.986412313340814 24.3877
35.00975677584668 24.3661
35.033102738362956 24.5045
35.05663261012228 24.2964
35.0799815881786 24.3362
35.10333207003229 24.2054
35.12668405694369 24.2814
35.150220005273056 24.2062
35.17357501786656 24.1747
35.19693153931268 24.1231
35.220289570874385 24.1441
35.24383161619786 24.1139
35.267192683604904 24.1029
35.290555264930376 24.0207
35.314101899412165 24.0403
35.33746752422433 23.9895
35.36083466676374 24.0615
35.38420332829803 23.9193
35.407756095629054 24.0155
35.43112781085063 23.9792
35.45450104888391 23.8865
35.477875810999194 23.9068
35.50143473172161 23.8316
35.52481255774625 23.8245
35.54819191167777 23.8493
35.57157279478914 23.7932
35.595137889488406 23.7441
35.61852184675279 23.7009
35.641907337029984 23.6684
35.665294361595684 23.5756
35.68886565090076 23.5701
35.7122557598848 23.5787
35.73564740699838 23.6202
35.759040593519934 23.4952
35.78261809810353 23.4173
35.80601437933051 23.3346
35.829412203814705 23.3324
35.85281157283719 23.3231
35.876395313415884 23.3364
35.8997977874528 23.2196
35.92320180988546 23.2454
35.946790244133936 23.1265
35.97019737933222 23.1385
35.993606066789866 23.1142
36.01701630779276 23.1297
36.04061101440684 22.9882
36.06402437852291 22.9769
36.08743930005611 22.9925
36.1108557802951 22.8537
36.13445678011326 22.8651
36.15787639383515 22.8568
36.18129757014299 22.8318
36.20472031032821 22.6351
36.22832762423364 22.7243
36.25175350829375 22.7006
36.275180960119776 22.6858
36.298609981005924 22.6682
36.32222362992669 22.6303
36.34565580510207 22.5339
36.36908955323448 22.5143
36.39252487562093 22.5109
36.416144880530226 22.5254
36.43958336764275 22.4377
36.463023432914625 22.4336
36.486465077645676 22.3346
36.51009145956204 22.4117
36.53353627947859 22.2765
36.55698268276811 22.2934
36.58043067073321 22.2596
36.60406345072071 22.1762
36.62751462435344 22.1545
36.65096738658405 22.1709
36.67460498210655 22.1225
36.69806093788647 22.1138
36.72151848619297 22.0328
36.744977628333636 22.0631
36.76862165890998 21.9859
36.79208400512205 21.9239
36.81554794910557 21.8961
36.83901349217101 21.8449
36.862663978991606 21.8649
36.88613273667352 21.8179
36.90960309738324 21.781999999999996
36.933075062434064 21.6822
36.95673202673572 21.6974
36.98020721697122 21.6234
37.003684015502365 21.5531
37.027162423645365 21.538
37.050825886711465 21.5764
37.07430753063053 21.5628
37.09779078812467 21.5515
37.121275660513014 21.4328
37.144945643673694 21.462
37.16843376245278 21.4178
37.19192350009803 21.3559
37.215414857931435 21.291
37.239091382563885 21.2684
37.262585997426164 21.1904
37.28608223645736 21.2562
37.309763684451696 21.2204
37.33326318851098 21.1477
37.356764320726555 21.1013
37.380267082425526 21.1184
37.40395510942588 21.1413
37.42746114683234 20.9672
37.45096881771841 20.9722
37.474478123414166 20.9324
37.49817275092816 20.9296
37.52168534303452 20.8574
37.54519957395567 20.7921
37.568715445024665 20.8339
37.592416694607714 20.8249
37.61593586281424 20.7909
37.63945667518264 20.7549
37.66297913304891 20.7252
37.68668702630454 20.7301
37.710212792059274 20.5815
37.733740207334854 20.6225
37.757269273470364 20.548000000000002
37.780983832050374 20.5102
37.80451621684926 20.5199
37.82805025654007 20.5563
37.851585952464795 20.4448
37.8753071980695 20.3187
37.89884622345676 20.34
37.92238690911902 20.340999999999998
37.94611318753442 20.2947
37.969657210779765 20.2358
37.99320289834801 20.2848
38.016750251586465 20.1837
38.04048325513017 20.1775
38.06403395679343 20.2038
38.087586328183946 20.157
38.11114037065203 20.0358
38.13488012115898 20.1078
38.1584375229181 19.9834
38.181996599821 19.9845
38.205557353221124 19.9728
38.229303872575656 19.8992
38.2528679961576 19.762999999999998
38.27643380031219 19.8719
38.30000128639589 19.814
38.32375459653193 19.7797
38.34732546371299 19.7454
38.37089801690786 19.7113
38.39447225747609 19.6987
38.418232380377425 19.6792
38.441810012983396 19.6034
38.46538933705673 19.5943
38.488970353960084 19.5737
38.51273731166058 19.5347
38.536321731567014 19.4901
38.55990784840681 19.4438
38.58367995004091 19.4315
38.60726947812959 19.3315
38.63086070726198 19.3486
38.654453638806274 19.4456
38.678232613930824 19.2947
38.70182896773327 19.275
38.72542702806741 19.2163
38.7490267963045 19.2191
38.77281266709232 19.1223
38.79641586862214 19.211
38.8200207821842 19.1199
38.843627409152944 19.1527
38.86742019782782 19.124000000000002
38.891030269149255 19.0517
38.914642058016156 19.0139
38.938255565806124 19.0025
38.96205529464307 19.0262
38.98567225787121 18.9403
39.00929094417078 18.8991
39.03291135492255 18.869
39.05671804624804 18.8732
39.080341923549106 18.7849
39.103967529460334 18.72
39.127594865365744 18.7617
39.15140854155791 18.6891
39.17503935514948 18.6799
39.19867190290282 18.6636
39.22249083587951 18.6424
39.24612686969409 18.6334
39.269764641845306 18.5598
39.293404153722804 18.5055
39.317230110864074 18.524
39.34087311998506 18.4191
39.36451787301696 18.4037
39.388164371352595 18.3919
39.41199737518003 18.3672
39.43564738196752 18.378
39.45929913825317 18.2987
39.48295264543308 18.2785
39.506792718520884 18.238
39.530449745387216 18.1591
39.55410852735203 18.1768
39.57776906581474 18.195
39.60161623079 18.1655
39.625280300200025 18.144000000000002
39.64894613032202 18.0008
39.67261372255866 18.045
39.6964680021016 18.0547
39.72013913657293 17.9956
39.74381203738292 18.0187
39.76748670593756 17.9415
39.79134812278169 17.9305
39.81502634488497 17.9469
39.83870633896685 17.8685
39.862388106436654 17.8412
39.88625668336918 17.851
39.90994201572829 17.8134
39.933629125719285 17.8003
39.957503091207826 17.7264
39.9811937746168 17.7678
40.00488623990914 17.6524
40.02858048850006 17.6069
40.05246165409549 17.6537
40.076159487492085 17.582
40.099859108448875 17.5254
40.123560518384345 17.5411
40.1474489070226 17.4749
40.171153913178564 17.4624
40.194860712584955 17.4161
40.2185693066637 17.393
40.242464941335314 17.3742
40.26617714307655 17.3651
40.289891143772046 17.3973
40.3136069448471 17.3177
40.33750984859743 17.2552
40.3612292688043 17.2455
40.3849504936829 17.2496
40.40867352466194 17.2617
40.43258372059144 17.1848
40.45631038219906 17.1634
40.48003885420956 17.0879
40.503769138055105 17.0608
40.52768664931955 17.0878
40.55142057531802 17.0826
40.57515631746428 17.0492
40.599079334038514 17.0041
40.62281872700477 16.9143
40.64655994043941 16.9192
40.67030297578061 16.9367
40.69423334835778 16.8841
40.71798004609188 16.8511
40.74172857006355 16.7852
40.76547892171441 16.7271
40.7894166736039 16.7786
40.813170699248566 16.7445
40.83692655691388 16.7567
40.86068424804498 16.773
40.884629402612525 16.6699
40.908390779366385 16.6761
40.932153993938 16.6325
40.95591904777605 16.5888
40.979871628443995 16.6082
41.003640379561936 16.5682
41.02741097430883 16.4884
41.05118341413683 16.4013
41.075143444384416 16.4603
41.098919593177826 16.4806
41.1226975914255 16.4814
41.14647744058318 16.3675
41.170444943946755 16.331
41.19422851378379 16.3677
41.218013938914645 16.3261
41.24198706625173 16.2615
41.26577622087193 16.209
41.289567235177785 16.2163
41.31336011063129 16.1631
41.337340752422875 16.0745
41.361137369129835 16.1589
41.38493585138705 16.1165
41.40873620066004 16.0642
41.43272438060107 16.0944
41.45652848292052 15.9493
41.48033445666918 15.8729
41.50414230331616 15.9255
41.528138045159764 15.9622
41.551949656675205 15.9284
41.575763145513235 15.8639
41.59957851314666 15.872
41.62358184070442 15.8254
41.64740098505737 15.793
41.6712220126409 15.7374
41.69504492493139 15.7419
41.71905586207357 15.7595
41.74288256296395 15.6997
41.766711153007456 15.6789
41.79054163368412 15.6979
41.814560204340054 15.6719
41.838394485526365 15.5876
41.86223066180303 15.619000000000002
41.88625497706819 15.6018
41.910094962812 15.5137
41.93393684811168 15.4994
41.95778063445365 15.4551
41.981812625263366 15.3995
42.00566023303407 15.3917
42.029509746323676 15.4168
42.05336116662236 15.3773
42.077400857069705 15.3128
42.10125611078846 15.3594
42.12511327600405 15.2809
42.14897235421036 15.222000000000001
42.173019768448455 15.1932
42.19688269209613 15.1801
42.22074753323349 15.1926
42.24461429335818 15.1713
42.268669455600495 15.1219
42.292540073217886 15.0534
42.31641261433284 15.058
42.34028708044675 15.0552
42.36435001496739 15.0131
42.38822835065557 14.9872
42.41210861586426 14.9673
42.4359908120986 14.9524
42.46006154323262 14.9198
42.48394762115317 14.8673
42.507835634632315 14.8743
42.531912233047436 14.8317
42.55580413732265 14.794
42.579697981698 14.8229
42.60359376768525 14.8155
42.62767820545945 14.7282
42.65157789440821 14.7279
42.67547952952185 14.7141
42.699383112316 14.6768
42.72347541395347 14.61
42.74738291190531 14.5627
42.771292362102166 14.5898
42.795203766063516 14.577
42.819303956130405 14.5799
42.843219287476536 14.491
42.86713657716324 14.5225
42.89105582671383 14.5063
42.91516392983864 14.4315
42.939087119032166 14.4153
42.963012272677304 14.4374
42.98693939230129 14.399000000000001
43.01105543317513 14.3564
43.034986504731386 14.3087
43.05891954686589 14.2844
43.08285456110972 14.2871
43.10697856448665 14.2251
43.130917542983475 14.2101
43.15485849820081 14.2391
43.17880143167367 14.1782
43.20293342237094 14.1709
43.226880332449 14.1143
43.25082922540554 14.0824
43.27496722682525 14.1047
43.29892010567796 14.0462
43.32287497204102 14.0172
43.34683182745632 14.0124
43.370977859791836 13.9775
43.39493871351105 13.9656
43.41890156092628 13.9889
43.44286640358341 13.9623
43.46702049182749 13.8662
43.49098934522816 13.8707
43.51496019852649 13.8792
43.5389330532723 13.7933
43.56309522248204 13.7572
43.58707210044314 13.8106
43.61105098451946 13.7657
43.63503187626491 13.7547
43.659202151562134 13.7218
43.68318707902681 13.671
43.70717401884041 13.6097
43.731162972560874 13.6216
43.75534137913236 13.6375
43.779334381108384 13.5634
43.803329401683186 13.5699
43.82732644241872 13.5101
43.8515130055166 13.520999999999999
43.87551410707659 13.4932
43.89951723350145 13.5067
43.923709934595614 13.4104
43.94771713129917 13.4155
43.97172635758096 13.3847
43.99573761501002 13.3496
44.0199385169922 13.365
44.04395385732619 13.3131
44.067971233533086 13.3373
44.09199064718605 13.2627
44.11619977548961 13.2659
44.14022328470671 13.2177
44.16424883610785 13.1941
44.18827643127035 13.1884
44.21249381139513 13.1813
44.236525514814076 13.142999999999999
44.26055926674478 13.110999999999999
44.28459506876863 13.1331
44.3088207262813 13.0555
44.33286064928722 13.0279
44.35690262714919 12.9943
44.38094666145278 12.9511
44.4051806219871 13.0113
44.42922879003185 12.9775
44.45327901929361 12.9475
44.477331311362136 12.9602
44.501573600619416 12.8904
44.525630039221795 12.8781
44.54968854541895 12.8661
44.573937102200176 12.829
44.5979997645541 12.7713
44.622064499300315 12.7799
44.64613130803592 12.7233
44.67038823869318 12.732000000000001
44.69445921643748 12.7197
44.718532272981385 12.6544
44.742607409926194 12.6751
44.76687274034801 12.6455
44.79095205918753 12.6264
44.81503346325094 12.637
44.839116954143876 12.5548
44.86339071028742 12.5361
44.88747839599524 12.534
44.91156817336837 12.4924
44.93566004401666 12.4971
44.959942251908146 12.4973
44.984038330325966 12.4892
45.00813650686762 12.3726
45.03223678314731 12.3875
45.05652746888232 12.4157
45.08063196592069 12.3598
45.104738567558705 12.3226
45.128847275414856 12.3116
45.15314646515866 12.273
45.17725940679741 12.2614
45.20137445952892 12.2393
45.22568004865265 12.2133
45.24979934496396 12.2187
45.27392075725247 12.2029
45.29804428714431 12.1599
45.322358426247604 12.1438
45.346486212804315 12.1139
45.370616121861914 12.0814
45.39474815505086 12.082
45.41907087049246 12.0139
45.4432071734666 12.0037
45.46734560548283 12.0237
45.49148616817604 12.0201
45.51581748638564 11.9693
45.5399623320197 11.9377
45.56410931325473 11.9058
45.58825843173002 11.9056
45.61259837920865 11.8781
45.636751793816 11.8589
45.66090735060093 11.7828
45.68506505120716 11.8026
45.7094136545275 11.8074
45.73357566449271 11.7347
45.75773982322992 11.7241
45.78190613238733 11.7612
45.806263418194064 11.6927
45.83043404997326 11.6815
45.85460683713677 11.665
45.87897065658495 11.6953
45.90314777634752 11.6476
45.92732705646868 11.6285
45.9515084986045 11.5969
45.97588104735473 11.6011
46.00006683541565 11.5779
46.02425479047904 11.5513
46.04844491420549 11.5206
46.0728262191024 11.5043
46.09702070211635 11.4793
46.12121735879483 11.4504
46.14541619080294 11.4013
46.169806278764455 11.4158
46.194009483459034 11.4317
46.21821486849841 11.3522
46.24242243555223 11.3268
46.266821333570014 11.2954
46.29103328674601 11.3178
46.31524742696538 11.32
46.33946375590237 11.2656
46.36387149104216 11.2657
46.38809221957392 11.208
46.41231514186606 11.1986
46.436540259597464 11.1739
46.460956858999374 11.1851
46.48518638983522 11.138
46.509418121166966 11.0549
46.533652054678114 11.0736
46.55807754555709 11.0923
46.58231590571962 11.0805
46.60655647313217 11.0435
46.630988654873654 11.0423
46.655233659129024 10.9852
46.67948087571551 10.9786
46.70373030632484 10.9537
46.72817142736393 10.9363
46.752425308428684 10.9438
46.77668140861147 10.9073
46.80093972960865 10.8671
46.82538981736788 10.8698
46.849652602470904 10.8437
46.87391761349769 10.7562
46.8981848521493 10.7718
46.9226439341274 10.7179
46.946915650573224 10.7367
46.97118959976749 10.7401
46.99546578341598 10.7431
47.019933887188216 10.6871
47.04421456235744 10.6733
47.06849747711879 10.6324
47.09278263318286 10.6092
47.11725978640143 10.6371
47.14154944775105 10.6184
47.165841355555656 10.5599
47.1901355115306 10.5419
47.214621741924994 10.542
47.23892041698887 10.5071
47.26322134538975 10.4994
47.28771440635075 10.4321
47.31201986422527 10.4577
47.33632758061436 10.4674
47.360637557241866 10.4321
47.38513974410611 10.3853
47.40945426407847 10.3594
47.43377104948137 10.3861
47.45809010204344 10.335
47.48260144275502 10.3182
47.506925052572285 10.2607
47.53125093475548 10.2573
47.55557909103813 10.2567
47.58009961361992 10.2523
47.60443234110732 10.2011
47.62876734791564 10.221
47.65310463578333 10.1872
47.6776343683373 10.1816
47.7019762413987 10.1554
47.72632040075572 10.1297
47.75066684815169 10.1069
47.77520581885936 10.0799
47.799556865477655 10.0707
47.823910205386 10.0541
47.84826584033272 10.0459
47.87281407745551 9.993319999999999
47.89717432569297 10.0237
47.92153687423484 9.98001
47.94609208429692 9.985660000000001
47.97045925671401 9.97396
47.99482873471275 9.92603
48.01920052005013 9.92683
48.04376504619224 9.889619999999999
48.068141469543484 9.916
48.09252020552573 9.86254
48.11690125590099 9.84303
48.1414751266064 9.810039999999999
48.16586082917454 9.79309
48.19024885144316 9.77197
48.2146391951793 9.76929
48.239222439012764 9.769039999999999
48.26361744916137 9.7193
48.28801478610016 9.717080000000001
48.31241445160131 9.7312
48.337007097209366 9.69275
48.36141144338331 9.67585
48.38581812345755 9.63955
48.41022713920929 9.63084
48.434829215320704 9.616389999999999
48.45924292604658 9.595260000000001
48.48365897780325 9.62191
48.50807737237308 9.58044
48.532688907799276 9.57057
48.55711201168574 9.51029
48.581537463754074 9.47873
48.60615611725119 9.53585
48.63058628942721 9.538960000000001
48.65501881516546 9.46785
48.6794536962573 9.47245
48.70408185970339 9.47028
48.72852147531801 9.42075
48.75296345168211 9.36473
48.77740779059232 9.36309
48.80204549302823 9.352039999999999
48.82649458091802 9.31228
48.85094603676547 9.338460000000001
48.87539986237231 9.322280000000001
48.90004713292306 9.304110000000001
48.92450572200832 9.30522
48.94896668628025 9.31338
48.97343002754588 9.25562
48.99808689542115 9.2139
49.02255501470614 9.1951
49.04702551642794 9.157580000000001
49.0714984023988 9.14643
49.096164896893235 9.14795
49.120642575466796 9.09215
49.145122643748394 9.10331
49.16960510355558 9.08164
49.19428125404938 9.07517
49.2187685210852 9.05561
49.243258185121555 9.03629
49.26794160167084 9.03524
49.2924360839405 9.018419999999999
49.31693296869764 8.97213
49.34143225776915 8.97264
49.36612538195438 8.95687
49.39062950396021 8.97222
49.41513603578346 8.92481
49.4396449792564 8.89387
49.46434784069503 8.90065
49.488861631846454 8.84613
49.513377840166804 8.85834
49.537896467493745 8.81552
49.56260909589029 8.79007
49.587132585683285 8.807730000000001
49.611658500018365 8.766869999999999
49.636186840738596 8.77166
49.66090926588511 8.767539999999999
49.685442483902584 8.774939999999999
49.70997813385706 8.72359
49.734516217597076 8.69197
49.75924846937352 8.69732
49.7837914452858 8.68774
49.80833686055187 8.60586
49.83288471702571 8.61459
49.85762682540054 8.62955
49.882179588965734 8.63325
49.9067347993235 8.566880000000001
49.93129245833333 8.57686
49.95604445336378 8.59014
49.98060703442832 8.56044
50.005172069746266 8.52191
50.02993150438364 8.54343
50.05450147301533 8.49163
50.07907390151433 8.50715
50.10364879174981 8.49906
50.12841816587289 8.429969999999999
50.1529980044635 8.40801
50.17758031042124 8.42811
50.20216508562089 8.422419999999999
50.22694442953363 8.36999
50.25153416817468 8.363
50.27612638170508 8.36656
50.300721072005196 8.34671
50.325510416102105 8.312330000000001
50.350110084975064 8.29401
50.37471223628208 8.340539999999999
50.39931687190919 8.27967
50.424116246675766 8.26838
50.44872587605249 8.23588
50.47333799543065 8.23113
50.49795260670191 8.2268
50.52276204271512 8.16592
50.54738166295838 8.16716
50.57200378079314 8.12384
50.596628398116835 8.07708
50.62144792604559 8.08809
50.646077567609396 8.12475
50.670709714377715 8.10276
50.69553683636198 8.10484
50.72017401885922 8.07357
50.7448137122895 8.04814
50.76945591856022 8.05782
50.79429318636823 8.03709
50.818940443716784 7.973489999999999
50.84359021965163 7.98752
50.868242516085964 7.96705
50.893089960641895 7.94698
50.917747323549435 7.9050199999999995
50.94240721271973 7.92532
50.96706963007175 7.90068
50.99192728239342 7.889460000000001
51.01659478166073 7.8875399999999996
51.04126481489051 7.88581
51.06593738400761 7.851560000000001
51.090805275207074 7.84806
51.11548294172845 7.831230000000001
51.14016314993547 7.807510000000001
51.164845901758845 7.80474
51.18972406304274 7.759339999999999
51.21441192780656 7.76112
51.23910234200271 7.75405
51.2637953075678 7.712999999999999
51.288683770237945 7.70334
51.31338186432707 7.659789999999999
51.33808251561888 7.648739999999999
51.362978729967345 7.640610000000001
51.387684521509755 7.65866
51.41239287610203 7.653989999999999
51.437103795691165 7.608630000000001
51.46201036644977 7.58525
51.486726441956634 7.5841
51.51144508832545 7.572369999999999
51.536166307509156 7.55254
51.56108326624387 7.556989999999999
51.58580965706056 7.50765
51.61053862657523 7.5091600000000005
51.635270176746864 7.468889999999999
51.66019755512065 7.48296
51.68493429268881 7.44663
51.70967361681515 7.46052
51.73441552946465 7.40072
51.759353359237934 7.43042
51.7841004750961 7.4320699999999995
51.80885018539685 7.41467
51.833602492111254 7.34505
51.8585508051424 7.35573
51.883308330926425 7.34576
51.90806845906181 7.30151
51.932831191525715 7.301089999999999
51.95779001977161 7.29794
51.98255798721516 7.25992
52.00732856494335 7.25073
52.03229530577543 7.22233
52.057071130455945 7.239669999999999
52.081849571391054 7.206860000000001
52.106630630568695 7.20275
52.13160794279417 7.211410000000001
52.15639426492067 7.17819
52.18118321127822 7.173430000000001
52.205974783860896 7.119389999999999
52.23096269971011 7.125719999999999
52.255759551287994 7.14418
52.280559035098186 7.100789999999999
52.30536115314103 7.082160000000001
52.33035970494467 7.081410000000001
52.35516711807904 7.0786
52.37997717147198 7.02296
52.40478986713005 7.0136
52.42979908731974 7.04245
52.454617094216 6.98929
52.47943774942214 6.984260000000001
52.50426105495102 6.9671
52.529280976059844 6.944389999999999
52.554109609024096 6.936710000000001
52.57894089837482 6.920660000000001
52.60377484613117 6.9259699999999995
52.62880550079408 6.90378
52.65364479223379 6.860110000000001
52.67848674816189 6.874210000000001
52.70352547971946 6.88968
52.72837279155837 6.8278300000000005
52.753222773982785 6.7923100000000005
52.778075429022984 6.78707
52.80312495150885 6.80302
52.827982978797436 6.81257
52.85284368481815 6.74797
52.87770707160767 6.73163
52.90276741793998 6.73314
52.92763619336701 6.73175
52.952507655698504 6.69475
52.977381806977576 6.68975
53.00245301017842 6.6646399999999995
53.02733256653592 6.67559
53.052214817996074 6.6569199999999995
53.077099766608484 6.63885
53.102181859804446 6.62903
53.127072229988265 6.62183
53.15196530349892 6.608
53.17686108239249 6.57912
53.20195409881522 6.59506
53.22685531582556 6.586869999999999
53.25175924441303 6.52519
53.27666588664027 6.55859
53.30176985962693 6.5431099999999995
53.3266819565689 6.53262
53.35159677336455 6.4825099999999996
53.376514312083096 6.4592
53.40162927507703 6.50818
53.42655228516116 6.45716
53.45147802340193 6.42091
53.47660125628886 6.38542
53.50153247842639 6.38957
53.52646643496923 6.38846
53.55140312799818 6.40533
53.576537409691696 6.3269
53.60147960336152 6.35921
53.626424539786164 6.35206
53.65137222105307 6.3341400000000005
53.67651758529126 6.28723
53.70147078399681 6.23884
53.72642673383343 6.27712
53.75138543689533 6.20806
53.776541917524526 6.283440000000001
53.801506154876755 6.24276
53.826473151763246 6.19859
53.851442910284916 6.18123
53.87661054126026 6.21855
53.9015858509782 6.19079
53.92656392866066 6.16199
53.95154477641532 6.14266
53.976723591801296 6.13235
54.00171000771266 6.15431
54.02669920004598 6.06971
54.051691170915745 6.09074
54.076881204886796 6.05919
54.101878760928514 6.0666
54.12687910187696 6.03107
54.152077577768296 6.06608
54.1770835166946 6.00871
54.20209224691339 5.9711099999999995
54.22710377055121 5.96065
54.25231352511594 5.94806
54.27733066384342 5.93365
54.30235060239643 5.92856
54.32737334290836 5.94727
54.35259441062629 5.87898
54.377622783395324 5.86196
54.40265396455061 5.8454
54.42768795623251 5.848730000000001
54.45292037169559 5.82671
54.477960012857906 5.78621
54.50300247099511 5.78217
54.52804774825457 5.76013
54.55329154616743 5.75394
54.57834249018678 5.6823
54.6033962597977 5.70201
54.6284528571545 5.67122
54.653708072335164 5.6405
54.67877035378786 5.59682
54.70383546947698 5.60026
54.72890342156389 5.59226
54.7541700889442 5.52613
54.77924374251975 5.5122
54.8043202390049 5.50738
54.82959552413022 5.45376
54.8546777351945 5.45446
54.87976279569621 5.424169999999999
54.90485070780914 5.4674
54.930137506558005 5.36453
54.95523115074295 5.41484
54.98032765308844 5.33517
55.005427015775496 5.32897
55.03072536339621 5.37027
55.05583047570572 5.34927
55.080938454927676 5.31745
55.10604930325027 5.287730000000001
55.131359235107396 5.2581
55.15647585066083 5.1418099999999995
55.181595341907496 5.18219
55.20671771104285 5.16212
55.232039262617704 5.14089
55.25716741665048 5.12525
55.28229845518636 5.1031699999999995
55.30743238042802 5.050009999999999
55.33276558731939 5.07252
55.357905315183636 5.0778
55.383047936390035 4.98577
55.40819345314859 4.953869999999999
55.433538351073295 4.9577800000000005
55.458689688238415 4.89519
55.483843927614096 4.8926099999999995
55.509197623043605 4.8404300000000005
55.53435769621134 4.86024
55.55952067826466 4.805969999999999
55.5846865714265 4.79774
55.61005202069737 4.77425
55.63522376553902 4.77994
55.66039842818645 4.74862
55.68557601087004 4.80743
55.7109532500271 4.7140699999999995
55.73613670233794 4.74177
