TT I
1.2716486653135266 6.97761
1.2939594142134223 6.869669999999999
1.3162702121660406 6.48369
1.3385810600174564 6.62732
1.3608919586137629 6.53722
1.383202908801069 6.21325
1.405513911425503 5.974880000000001
1.4278249673332093 5.90188
1.4501343378461518 6.0142
1.4724455028545926 5.87829
1.4947567236847858 5.11029
1.517068001182951 5.59848
1.5393793361953272 5.74571
1.5616907295681737 5.71044
1.5840021821477681 5.10492
1.60631369478041 4.31038
1.6286252683124185 5.8069
1.6509369035901333 5.080509999999999
1.6732468618895553 4.98384
1.695558623192809 4.68564
1.7178704487808514 5.37249
1.7401823395001077 4.7222599999999995
1.7625012545597203 4.26403
1.7848028405262486 4.57142
1.8071218901122095 5.09174
1.8294236121921872 4.14141
1.8517427996910911 4.5986400000000005
1.8740620574440425 4.56555
1.8963639900671978 4.664280000000001
1.9186833908139995 3.8772599999999997
1.9409854680117449 4.84697
1.9633050151394713 4.690930000000001
1.9856246367570705 4.399430000000001
2.0079269371922672 4.8968300000000005
2.03024671027244 4.56316
2.0525491637446027 4.96059
2.074869091674931 4.23395
2.097171701569106 4.35195
2.1194917877373847 4.47211
2.141811954326636 4.55366
2.164114805233074 5.04366
2.186435135143035 5.7977300000000005
2.208738150935709 8.18113
2.231058647554722 12.8868
2.2533792288321184 11.0878
2.275682498336085 7.308669999999999
2.298003251406138 5.87827
2.3203066942619714 6.04122
2.3426276225136022 5.6096900000000005
2.3649486396617507 6.147419999999999
2.387252348930071 5.8337
2.4095735463442893 6.05738
2.4318774374315884 6.51511
2.4541988185014043 6.5329
2.476502894794693 6.96156
2.498824462909887 6.924110000000001
2.521146125856138 7.8815800000000005
2.5434504863470337 8.09406
2.5657723414244717 7.70786
2.588076895590662 8.53084
2.610398946189713 9.00357
2.6327210958598384 8.314119999999999
2.6550259469304716 8.60927
2.6773482972090137 8.714889999999999
2.6996533504259 8.91768
2.7219759047039602 8.5092
2.744298562293959 8.447000000000001
2.7666039251246595 8.78222
2.7889267918020164 8.81685
2.8112323652516555 8.14681
2.833555444408179 9.07439
2.8558786311183852 8.73939
2.8781845268938557 8.83245
2.9005079311721484 9.29693
2.9228140460410397 9.323210000000001
2.9451376712799635 9.24902
2.967444008632326 9.291139999999999
2.9897678582247247 9.82143
3.0120918213106695 10.4068
3.0343984987899373 10.8516
3.0567226913198637 10.9654
3.079029599759726 11.6008
3.101354025127254 12.2713
3.123678568232338 12.9191
3.145985829517914 13.3319
3.16831061055229 14.1355
3.1906181112775593 14.5901
3.212943133635653 15.1592
3.2352682779763207 15.2679
3.2575761442691227 15.1378
3.2799015350264273 15.6517
3.302209649240067 16.3762
3.3245352898092655 16.7274
3.3468436553365257 17.4331
3.369169549113219 18.0787
3.3914955708171384 18.499000000000002
3.413804319727358 18.8004
3.4361305997334863 18.8699
3.4584396084414553 18.7217
3.4807661501462652 19.7919
3.503092824025881 20.5679
3.5254022288463154 20.9813
3.5477291695206588 21.2942
3.5700388426251948 21.8712
3.5923660534916446 22.6938
3.6146934007816114 28.5906
3.637003482731501 45.9605
3.6593311053109985 49.0579
3.681641464033634 35.1015
3.7039693653009733 26.2217
3.726297407241705 24.9227
3.7486081875460804 25.0093
3.7709365132734978 25.3929
3.793247578841633 26.2696
3.8155761917550093 26.1962
3.8378875459837216 26.5288
3.8602164494827234 27.1574
3.882545499606844 28.128
3.9048572932539183 28.1012
3.9271866390645718 28.628
3.9494987298666713 29.3712
3.971828374764527 30.0082
3.9941581705403255 30.2792
4.016470713506008 31.0664
4.038800813471445 31.4606
4.061113662089144 32.0007
4.0834440696459176 32.9272
4.105774632334751 32.8582
4.128087945865126 33.758
4.150418821249301 34.1206
4.172732448931298 35.1261
4.195063640413578 36.4808
4.2173775856475215 38.709
4.239709096631102 51.8963
4.262040768704612 109.527
4.284355196706267 134.131
4.306687193387355 96.3456
4.329001947444346 54.9203
4.35133427213731 43.7056
4.373666762177566 42.8881
4.395982011761091 43.1343
4.418314834921175 44.0661
4.44063041906622 47.6745
4.4629635787515625 51.9523
4.4852969080429785 52.8404
4.5076130004776225 52.3997
4.529946671403969 57.7094
4.552263106909177 62.7206
4.574597122877047 58.5189
4.596931312711224 54.0031
4.619248269273446 53.1082
4.6415828092605835 53.9338
4.663900117405352 54.8698
4.686235010953232 56.2227
4.708552674085913 57.9816
4.730887924602802 58.9359
4.753223354952695 60.8989
4.775541557023902 65.2679
4.797877349456786 68.2555
4.820195915032126 68.5122
4.842532072957498 67.7742
4.864868414979744 70.8963
4.88718753227192 74.6979
4.909524244902505 77.1576
4.931843734218147 76.1733
4.954180820867835 77.2708
4.976518095879839 80.132
4.998838149695359 82.2144
5.021175803844231 85.7165
5.043496238205739 88.9209
5.065834274903528 93.316
5.088172504230693 97.3705
5.1104935158799565 104.454
5.132832132875765 124.245
5.155153533596801 152.871
5.1774925416746225 190.19299999999998
5.199814334878411 369.80199999999996
5.2221537374521505 945.304
5.244493338631803 2769.56
5.266815727034316 8048.61
5.289155727832427 13530.3
5.311478517248165 8854.06
5.333818921080011 2689.28
5.356159527788849 504.337
5.3784829252032536 193.722
5.400823940070432 153.705
5.423147747031976 130.097
5.445489173474152 118.98100000000001
5.467830807066149 118.934
5.490155234831516 119.73299999999999
5.512497285125229 112.515
5.534822130975162 105.475
5.557164601388673 101.12799999999999
5.579489868738879 98.2055
5.601832762690846 96.9032
5.6241758697774475 95.4088
5.646501775867269 94.4524
5.668845311622074 93.87299999999999
5.691171647754637 93.1156
5.713515615597765 92.1045
5.735859800852677 91.8469
5.758186788542988 94.1543
5.780531411018185 98.7631
5.802858837297399 99.3757
5.825203900414495 98.3492
5.8475491852224 102.905
5.869877275883075 101.734
5.892223006467101 96.4711
5.914551544266608 93.5732
5.936897724049891 95.3511
5.959244129804903 102.005
5.981573344815301 127.6
6.0039202049061 227.02700000000002
6.026249875609095 443.059
6.04859719346037 907.829
6.070927323278297 2202.76
6.093275102315365 4657.99
6.115623113320588 5190.42
6.137953938319995 2989.03
6.160302415650845 819.466
6.182633708324452 194.019
6.2049826554078376 104.765
6.227331838745022 87.4694
6.249663839443684 81.5566
6.27201349767565 78.5342
6.294345974611799 79.4166
6.316696111167083 81.8106
6.339046488263839 78.9232
6.361379686074702 72.595
6.383730546639482 69.7102
6.406064229255215 69.4002
6.428415576718203 71.2782
6.450749747566656 69.7672
6.47310158535871 66.5176
6.495453669698332 64.501
6.517788579421056 63.6191
6.540141159237969 62.5778
6.562476565766648 61.6406
6.5848296444934045 61.6791
6.607182974060425 62.0975
6.6295191323281015 62.2369
6.651872965955752 62.2232
6.6742096296068985 70.9896
6.6965639707294615 86.085
6.71891856698715 85.1542
6.741255995248479 69.8488
6.763611104154477 61.105
6.785949046381137 58.1599
6.808304671371482 58.783
6.8306605557940046 61.013999999999996
6.852999275508618 59.7699
6.875355681171544 57.2965
6.897694923437771 55.9078
6.92005185377892 55.3968
6.9423916220322655 55.1163
6.964749080490181 54.8329
6.987106804399774 55.0736
7.009447368180821 55.5723
7.031805625367033 55.1789
7.054146723727803 54.8153
7.076505517631004 54.1351
7.098864581288365 53.9845
7.121206488070854 53.6659
7.143566093607822 54.3134
7.165908543567245 56.143
7.188268694426048 55.9826
7.2106291193438095 54.9031
7.232972390625943 54.6154
7.255333366030969 59.4634
7.277677189091925 77.9501
7.300038718428332 93.3507
7.322400526130865 83.9685
7.344745183422596 65.4875
7.367107550224791 55.8122
7.389452767901992 54.0894
7.411815697249891 53.739
7.434161478756298 52.9809
7.456524974096713 52.9014
7.478888753837185 52.7095
7.501235387657368 53.0867
7.523599738562711 53.4234
7.545946944825532 53.8478
7.568311870344528 54.2763
7.5906770845765665 54.1563
7.613025156078678 54.4154
7.635390950099687 55.3259
7.657739602662809 55.2559
7.680105979923558 55.7141
7.702472650212829 56.5763
7.724822180948224 56.3595
7.747189439655568 55.7564
7.769539560075357 55.0218
7.791907410653562 55.6724
7.81425812420825 55.4385
7.836626570110925 55.8794
7.858995315087906 56.6161
7.881346924933401 57.0002
7.903716270417482 57.402
7.926068482028405 57.7588
7.948438431475253 58.1505
7.9708086843180235 58.8232
7.993161805171116 59.6703
8.015532667162402 60.2856
8.037886398416653 61.4542
8.060257873014221 61.9527
8.082629655331942 62.5995
8.104984308787587 63.2902
8.127356708900503 65.3642
8.149711981398308 70.1547
8.172085002766314 72.4792
8.194458336181368 70.1028
8.216814543847752 68.2812
8.23918850371002 68.5766
8.26154533906492 69.1792
8.283919928836452 70.9387
8.306277395339652 71.8255
8.328652618483376 73.0423
8.351028159736202 75.4019
8.373386579575245 77.4148
8.395762759396959 79.0873
8.418121819038275 82.3071
8.440498640894003 89.1864
8.462875785192262 100.038
8.485235811156207 123.00299999999999
8.507613602688501 169.94799999999998
8.529974277114228 243.355
8.552352719347912 363.69800000000004
8.574731488360351 618.7040000000001
8.59709314210385 1205.48
8.619472567021075 1943.41
8.64183487789147 2217.41
8.664214962183097 1704.8
8.686577933647762 841.74
8.708958680784317 297.481
8.731339760774953 139.585
8.753703729764451 104.60700000000001
8.77608547780821 95.8431
8.798450116065078 92.6477
8.820832535634787 90.9993
8.843215292401656 91.7785
8.865580941199045 92.0697
8.887964374703538 91.5932
8.910330701447199 91.9033
8.932714815164482 91.786
8.955099270424924 88.7483
8.977466620733543 85.6361
8.999851761421976 84.0734
9.022219798361645 83.1538
9.04460562795561 83.031
9.066991803441677 82.8562
9.089360876979615 83.3647
9.111747746589993 83.1822
9.13411751544971 81.9907
9.156505082664324 81.2173
9.178875550323522 81.127
9.20126381862328 80.8547
9.223652438908596 81.1785
9.246023961427412 81.1265
9.26841328802173 81.3166
9.290785518039224 81.6367
9.313175554425882 84.0914
9.335565947154315 86.0985
9.357939245086508 86.4745
9.380330352834827 85.6768
9.40270436697103 85.6852
9.425096193225055 84.6975
9.447488380180165 84.4164
9.469863475295412 83.6117
9.492256385987508 83.6259
9.514632206018318 84.4402
9.537025843935714 84.8413
9.559402392368193 86.0462
9.581796761000229 88.7149
9.604191496441521 91.2014
9.626569144158516 94.3928
9.648964615551032 95.4059
9.671343000390081 94.8292
9.693739211225699 92.6374
9.716135793237463 91.9729
9.738515290448102 92.0166
9.760912617143402 93.6587
9.783292860202891 96.2213
9.805690935076182 99.37799999999999
9.828089385495742 99.6044
9.850470754023561 100.488
9.872869957865444 103.38799999999999
9.89525208097539 109.76100000000001
9.917652041736662 116.35700000000001
9.940052382417589 123.89399999999999
9.962435644102392 147.07399999999998
9.984836746950979 184.329
10.007220771957746 238.21200000000002
10.029622640473708 327.827
10.052007432299963 506.60900000000004
10.074410069984072 823.617
10.096813093716005 1302.27
10.119199042482517 1852.34
10.141602840636468 1977.9
10.163989564971628 1463.24
10.186394141051062 764.7330000000001
10.208799107559706 326.04400000000004
10.231187001965623 162.21200000000002
10.253592751657669 118.171
10.275981430388155 109.12700000000001
10.298387966769793 107.552
10.320794897965431 107.822
10.343184759907361 106.12899999999999
10.36559248305461 103.325
10.387983138083852 103.279
10.410391656691655 108.845
10.432800574501677 119.304
10.455192425893369 132.424
10.47760214443012 157.61
10.499994797678786 203.278
10.522405320453982 288.404
10.54479877906917 410.694
10.567210109595656 541.29
10.5896218454736 593.484
10.612016518879773 482.598
10.634429067781074 314.27
10.656824555333241 178.00900000000001
10.679237920773568 111.88600000000001
10.701651695961992 92.161
10.724048411481384 87.146
10.746463008485165 84.9353
10.768860546937125 83.4795
10.791275969274796 81.543
10.81369180576079 80.8431
10.836090585366925 79.8763
10.858507252467449 78.4044
10.88090686379991 77.6699
10.903324365036394 77.3235
10.925724811614439 76.9061
10.948143150509463 77.6673
10.970561909719066 77.041
10.992963615930844 76.1001
11.015383218085756 74.4073
11.037785768347074 72.6069
11.06020621697282 71.6999
11.082627090322113 71.1425
11.105030913430326 70.3369
11.12745263854165 70.0381
11.149857314510728 70.9322
11.172279894912576 73.0968
11.194702904450653 72.3884
11.217108866490921 70.2948
11.239532736615194 68.7076
11.26193956033512 67.6853
11.284364294577085 67.1809
11.306789462371718 66.3427
11.329197585398376 65.9151
11.351623622610898 65.975
11.37403261614354 65.0928
11.396459526308487 64.7396
11.418869393879497 64.4899
11.441297180532617 64.0858
11.463725406927658 63.4945
11.486136592353875 63.3261
11.508565700543707 63.4069
11.530977768845315 64.4296
11.553407762368774 64.2004
11.575838200059769 64.267
11.598251599479612 63.0992
11.620682927815501 62.4295
11.64309721895548 62.2958
11.665529441478206 62.2724
11.687962112597958 61.6202
11.710377748130886 62.0774
11.732811318753434 61.8874
11.755227854859067 61.641000000000005
11.777662328529495 61.7455
11.800079768750786 61.8517
11.822515149015453 61.8535
11.844950984084935 62.2081
11.867369787303163 61.8051
11.889806534289491 61.5712
11.912226250487029 61.7239
11.934663912939751 61.6944
11.9571020346363 62.015
11.979523127133968 62.3106
12.001962169624331 63.4172
12.024384183972964 64.7174
12.046824150809913 67.6265
12.069264581333726 71.4803
12.091687985297767 76.681
12.11412934550045 86.0039
12.136553680195208 101.11399999999999
12.158995973632788 126.398
12.181438735204349 159.54399999999998
12.20386447284199 188.703
12.226308172985636 210.544
12.24873485024193 200.957
12.271179492516982 153.94
12.293607112949127 114.029
12.316052700916226 86.0519
12.338498763250042 70.794
12.360927805303868 65.3706
12.383374818673879 63.7589
12.405804812803074 62.9464
12.428252780773262 63.0175
12.45070122756722 63.2963
12.473132656675375 63.2307
12.49558206341869 63.9644
12.518014453510101 64.0487
12.540464823770117 63.6658
12.562915677315177 63.9598
12.58534951575545 64.1618
12.607801338171472 64.6704
12.630236146511358 66.6317
12.652688941369085 68.5767
12.675124723177234 68.9271
12.697578494048786 68.3143
12.720032754458185 66.9118
12.742470003354093 66.5237
12.764925245138771 66.7598
12.787363476431278 66.8745
12.809819703166806 67.4396
12.83227642391173 68.3609
12.854716135692716 68.712
12.877173846755147 69.8744
12.899614549869717 70.5058
12.9220732548287 71.5604
12.94453245827299 72.1718
12.966974655289818 72.931
12.989434858002571 73.9417
13.011878055298721 74.09100000000001
13.034339260862497 74.9999
13.056800969391883 76.4754
13.079245674017244 79.3901
13.101708390774869 83.4321
13.12415410463411 91.3832
13.146617833206086 99.4671
13.169064559883248 108.706
13.191529303857127 122.758
13.213994557076367 145.327
13.236442809902437 184.68099999999998
13.258909083908291 245.769
13.28135835851934 316.88599999999997
13.30382565690295 392.73199999999997
13.326293469022952 446.606
13.348744283242008 419.976
13.371213125129904 333.325
13.39366497011003 229.263
13.416134845360597 152.275
13.438605238843131 114.209
13.46105863690397 103.081
13.483530069144786 104.04
13.505984506951902 108.262
13.528456981549432 117.59
13.550929978879088 132.165
13.573385983253365 157.259
13.595860028340867 199.937
13.618317081455832 258.659
13.64079217790333 323.529
13.663250283359057 370.175
13.685726434770173 380.82199999999995
13.708203115221277 324.682
13.730662806148091 240.158
13.75314054697177 165.768
13.775601299246777 115.225
13.798080104050406 91.7722
13.820559442405358 83.0433
13.843021793671388 80.2132
13.865502201420897 78.5928
13.887965623051947 78.043
13.910447103807167 77.2824
13.932929122629764 76.0495
13.955394156785959 75.6098
13.977877254034569 74.5722
14.000343367582113 73.69800000000001
14.022827546871707 73.137
14.045294743423524 72.7104
14.06778000837062 71.9891
14.090265817715476 71.5738
14.112734645763819 71.3181
14.13522154619454 70.9535
14.157691466286913 70.6632
14.180179461423874 70.6205
14.202668005486178 70.1172
14.22513957064374 69.5511
14.247629214846473 69.1864
14.270101881097517 69.062
14.29259262906496 68.8575
14.315083930490205 69.1587
14.337558255389705 69.1289
14.360050666019726 68.9768
14.382526101071944 68.4597
14.405019624534942 68.1583
14.427513705993134 67.9096
14.449990813291825 67.9272
14.47248601302899 67.8834
14.49496423954951 67.8316
14.517460561197822 67.862
14.539939910570322 67.4341
14.562437357763558 67.9023
14.58493536931253 68.3863
14.607416409993311 68.8068
14.62991555254159 69.10600000000001
14.652397725157423 69.0653
14.674898002342799 69.1554
14.697398848433282 69.5461
14.719882725991326 70.7892
14.74238471217934 72.668
14.764869730765593 75.7369
14.787372860692983 78.4974
14.809876564079925 81.9481
14.83236330125751 87.4116
14.854868153850365 95.75
14.877356041159485 110.42200000000001
14.899862046604186 131.394
14.922351087688757 159.532
14.944858249632887 192.543
14.967365991421232 220.081
14.989856770231246 229.55700000000002
15.012365673994204 214.115
15.03485761569738 178.919
15.05736768508665 137.225
15.07987833888692 103.60700000000001
15.102372032001655 84.2024
15.124883856909658 73.9026
15.14737872204565 70.5159
15.169891721717274 69.3613
15.192405310371893 68.9318
15.214901940621196 68.4897
15.237416709527137 68.1559
15.259914520936249 68.2016
15.282430473753607 67.3357
15.304947020131227 66.9092
15.327446610371178 66.2201
15.349964346154254 65.8477
15.372465126703139 65.7314
15.394984055556009 65.5167
15.417486030076159 65.237
15.44000615566487 64.8174
15.462526881230803 64.88
15.485030653812652 64.8762
15.507552581617434 64.5575
15.530057557334603 64.7496
15.55258069104857 64.7015
15.575104429329837 65.1003
15.597611216864632 65.108
15.620136166564563 65.5219
15.6426441664095 67.0478
15.665170331202765 69.0366
15.687697105158826 71.3327
15.710206930593545 74.2739
15.732734925158933 78.4269
15.755245972089478 84.5471
15.77777519094324 93.814
15.800287463046663 107.348
15.822817909869592 128.013
15.84534897229804 152.904
15.867863089299354 177.63099999999997
15.890395385222186 196.041
15.912910736597423 195.923
15.935444269699861 177.265
15.957978423016485 145.454
15.980495633101265 111.6
16.003031029129367 87.2687
16.02554948280019 71.3304
16.048086125229432 64.6963
16.070623392487107 62.6583
16.09314371869582 61.805
16.11568223789321 60.9048
16.13820381691126 60.2283
16.160743591742527 59.5574
16.183283996022084 59.0833
16.205807461423195 58.0313
16.228349126881973 57.8074
16.25087385432698 57.5435
16.27341678466365 57.0321
16.29594277784926 56.8896
16.31848697676433 56.6414
16.341031811604868 56.5029
16.36355971058487 56.5753
16.3861058195587 56.358999999999995
16.40863499352978 55.5775
16.431182380342005 55.0627
16.453730407713202 54.9742
16.476261501364792 54.8015
16.498810812136167 54.5296
16.52134319004079 54.5788
16.54389378792203 54.5143
16.566445031001553 54.4284
16.588979342490088 54.0175
16.61153187824822 53.9215
16.634067483263312 53.9361
16.656621315414416 53.7971
16.679175797408888 53.5336
16.701713349928728 53.5622
16.72426913389191 53.797
16.74680798922351 53.6701
16.76936507887444 53.6542
16.791905240734874 53.7324
16.814463639794468 53.663999999999994
16.837022695210294 53.7175
16.859564824093756 54.0346
16.882125194503903 54.2723
16.904668639217885 54.6359
16.927230328348003 54.5429
16.949792678493612 54.5188
16.972338104193863 54.4935
16.994901778652235 54.343
17.017448529496576 54.6775
17.040013531998152 55.1833
17.06257920018044 55.5998
17.0851279459922 56.0358
17.107694947817667 56.9324
17.130245028099072 57.596000000000004
17.15281336730298 58.9841
17.17536478578733 60.4267
17.19793446610687 62.8822
17.220504818648422 66.0227
17.243058251703697 70.0383
17.265629950971032 74.7738
17.288184731571736 80.1225
17.310757781306908 83.1083
17.33333150794385 83.126
17.355888317140174 80.1796
17.37846339986244 74.1169
17.401021565958885 67.3047
17.42359800851343 63.0153
17.44617513265564 60.1205
17.468735341390783 59.013999999999996
17.491261035594565 58.2853
17.51396340099364 58.0449
17.536490463869136 58.0431
17.559018209820174 58.0179
17.58154663977963 58.2191
17.604251766089718 58.2868
17.626781572227713 58.7285
17.64931206518155 58.7855
17.671843245885103 59.3289
17.69455114821572 59.1582
17.717083712612634 59.5385
17.739616967569667 59.7345
17.762150914021706 60.2949
17.78486160749854 60.5806
17.807396945166804 61.4816
17.829932977143503 62.8329
17.85246970436452 64.2367
17.875183204129467 65.4198
17.897721330097664 66.9308
17.920260154126645 69.2375
17.942799677153296 72.1795
17.9655159983646 76.2167
17.988056927677544 81.8825
18.010598558807683 90.2141
18.033140892692916 100.81299999999999
18.05586005052525 113.44200000000001
18.07840379824407 126.412
18.10094825154059 136.196
18.12366954819864 140.82399999999998
18.146215420998306 136.58
18.16876200220057 125.90299999999999
18.191309292745153 110.368
18.214033452627167 96.7803
18.236582170236648 86.9098
18.259131600016456 83.7595
18.281681742907335 85.4175
18.304408781233683 90.7602
18.32696035875955 96.6973
18.349512652227624 101.65100000000001
18.372065662579683 106.296
18.394795594587553 104.68
18.41735004715306 98.6409
18.43990521943684 90.6921
18.46246111238171 81.2178
18.485193953325208 72.855
18.507751296070428 67.0186
18.530309362314178 63.6251
18.552868153000343 62.1279
18.57560391815056 61.018
18.59816416623245 60.4932
18.620725141597372 60.038000000000004
18.643286845190268 59.7509
18.666025549835414 59.2344
18.688588718427933 58.6826
18.711152618092243 58.5749
18.73389353884365 58.2334
18.75645890921984 57.9052
18.77902501351406 57.8167
18.801591852673102 57.7327
18.824335739722738 56.9714
18.846904057212626 57.2771
18.8694731124168 56.854
18.89204290628315 56.7853
18.914789774966803 56.6103
18.937361054791623 56.3816
18.959933076131318 56.1394
18.982505839934877 56.0216
19.00525570560582 55.9961
19.027829963004184 55.7363
19.05040496572238 56.0364
19.072980714710468 55.9704
19.095733592739563 56.2336
19.11831084296757 56.5719
19.140888842324735 56.5335
19.16346759176222 56.6949
19.18622349753803 57.3653
19.208803755869358 58.2648
19.231384767143577 59.3692
19.253966532312948 61.0042
19.276725481241822 63.3706
19.29930876296784 66.235
19.3218928014549 69.2523
19.34465404436217 72.1364
19.36723960516257 74.71600000000001
19.389825925592426 74.937
19.412413006605938 73.5598
19.43517731967805 69.2271
19.457765930683355 64.5244
19.48035530514408 60.1719
19.50294544401556 56.9797
19.525712842708348 54.8882
19.54830451925909 53.9666
19.570896963095727 53.1611
19.593490175174704 52.9158
19.616260674962184 52.8368
19.638855432416964 52.6321
19.661450960992624 52.7916
19.68404726164677 52.6584
19.706820878021247 52.413000000000004
19.729418731756834 52.6502
19.752017360452857 52.3639
19.77461676506804 52.7471
19.797393513540218 52.8843
19.819994478951667 52.9079
19.84259622316767 53.3422
19.8651987471481 53.8091
19.887978643247177 53.8674
19.91058273574792 54.4402
19.933187610901943 55.2371
19.955969879466828 56.426
19.97857632894404 58.3026
20.00118356396599 60.0373
20.023791585494575 62.5522
20.046577028914875 65.1017
20.069186632506966 67.4084
20.091797025500632 68.8554
20.114408208858933 69.1977
20.137196842715273 67.9521
20.159809615886765 66.2693
20.18242318232135 63.4839
20.20503754298326 61.7288
20.227829382875154 61.0123
20.250445341109344 61.4027
20.27306209647285 62.5819
20.29567964993108 64.1577
20.31847471147704 65.2378
20.34109387027612 65.3344
20.363713830075454 64.5328
20.386334591841646 62.3245
20.409132890679302 59.3321
20.431755265564437 56.1169
20.454378445325528 53.6178
20.477002430930366 51.7675
20.499803982716553 50.8411
20.522429589228004 50.1547
20.54505600449589 49.9323
20.567683229489194 49.6694
20.590488049900088 49.2864
20.61311690359731 49.2671
20.63574656993626 49.1424
20.658553853717297 48.7611
20.681185154618298 48.7556
20.703817271080066 48.6044
20.72645020407368 48.3004
20.749260783967177 48.1583
20.771895359337133 47.9829
20.794530754161617 48.1229
20.817166969412938 48.0454
20.83998086114876 47.9247
20.86261872660049 47.9146
20.885257415405402 47.9305
20.90789692853701 47.8839
20.930714147864748 47.8497
20.953355319030678 47.7837
20.97599731745334 48.0646
20.99864014410749 47.6469
21.021460706796564 47.8027
21.044105199328826 48.0285
21.06675052302631 48.2047
21.089396678865015 48.488
21.112220600704806 48.6287
21.134868430275347 49.1509
21.15751709492456 49.43899999999999
21.180166595629693 49.6263
21.202993892429635 50.2938
21.22564507473034 50.4665
21.24829709602816 50.585
21.27112693608965 50.6273
21.293780644891275 50.498999999999995
21.316435195634053 49.7933
21.339090589297417 48.9273
21.361923832041875 48.4029
21.384580921090404 47.8082
21.407238856007325 47.687
21.429897637773326 47.4141
21.45273429906592 47.5264
21.475394784108598 47.6526
21.498056118951983 47.6942
21.520718304578022 47.7654
21.543558400304388 47.9373
21.566222297108816 48.1461
21.58888704765135 48.2143
21.61155265291521 48.4276
21.63439619898156 48.8002
21.657063523335786 48.9808
21.67973170537063 49.6512
21.7024007460706 49.9639
21.72524775840385 50.7741
21.747918526116475 51.9452
21.770590155457388 53.37
21.79326264741238 54.8565
21.816113141960237 56.9704
21.838787368860547 58.9401
21.861462461341976 61.2024
21.884315579735777 63.0686
21.90699241312273 64.1131
21.92967011506078 64.1674
21.95234868653799 63.1018
21.9752053151131 61.2097
21.997885635446785 59.1516
22.020566828293532 57.476000000000006
22.04324889464272 56.1834
22.066109049404666 55.4461
22.088792872571794 55.5174
22.111477572219204 55.4953
22.1341631493376 55.6727
22.157026846313123 54.9483
22.179714188221507 54.1966
22.202402410582668 52.6717
22.22509151438863 51.24
22.24795876962584 50.1568
22.270649646204486 49.1905
22.293341407213727 48.7578
22.316034053646906 48.3616
22.338904883215342 48.18600000000001
22.36159931041458 48.2504
22.38429462602756 48.1025
22.40699083104897 47.8709
22.429865251039757 47.7008
22.452563244831367 47.9211
22.47526213102522 47.7818
22.49813925616515 47.6873
22.520839937143307 47.8342
22.543541513520587 47.9267
22.56624398629403 47.7004
22.589124730075895 47.7762
22.611829005656723 47.9939
22.63453418063466 48.0067
22.657240256008077 48.2023
22.680124634582935 48.228
22.70283252079775 48.3628
22.725541310413075 48.7589
22.74825100442868 48.8374
22.771139033969575 49.3392
22.79385054687155 49.5558
22.81656296718292 50.3491
22.83927629590484 51.2362
22.862167992606945 52.3509
22.88488314827121 53.6796
22.907599215359284 54.7062
22.93031619487366 55.8488
22.953211574954405 56.7786
22.975930389478226 57.293
22.998650119445763 57.3767
23.02137076586092 56.0558
23.044269845560063 54.412
23.06699233506288 52.6914
23.089715744034912 50.9742
23.112617610931565 49.6293
23.135342869061212 48.7834
23.158069049684816 48.1863
23.1807961538087 47.9027
23.20370174880544 48.0168
23.226430710184808 47.9123
23.249160598093425 48.0523
23.271891413539002 47.9323
23.294800752937697 48.0072
23.31753343374794 48.2445
23.340267045128353 48.1971
23.36300158808808 48.503
23.38591468821339 48.8439
23.408651104658304 49.3465
23.431388455719986 49.9877
23.454126742409 51.0027
23.4770436196085 52.0936
23.499783787914662 53.6048
23.522524894889884 54.6627
23.54526694154616 55.8518
23.56818761219047 56.9705
23.59093154860734 57.3473
23.613676427751283 57.2028
23.636422250635754 55.8899
23.659346731118656 54.1383
23.68209445191868 52.1119
23.704843119509587 49.9066
23.72759273490623 48.1956
23.750521041644767 46.9359
23.77327256312355 46.0996
23.796025035462787 45.5798
23.818956224555475 45.2521
23.841710609113413 45.1286
23.86446594758979 44.8768
23.887222241002014 44.7665
23.910157285144578 44.2787
23.932915498962537 44.4315
23.955674670778713 44.1697
23.978434801611975 43.9569
24.001373717286125 44.0142
24.024135776723917 43.8694
24.046898798245582 43.8253
24.06966278287146 43.7634
24.092605586582614 43.5157
24.115371508023642 43.272
24.1381383956401 43.1669
24.16090625045381 43.0251
24.183852958731244 43.068000000000005
24.206622758582608 42.9027
24.229393528706886 42.6952
24.252165270127392 42.926
24.27511589952438 42.8295
24.297889594216997 42.5824
24.32066426328598 42.4656
24.34343990775613 42.4166
24.36639447485003 42.3454
24.38917208083877 42.4551
24.41195066531332 42.3423
24.43490819850244 42.4384
24.457688750692377 42.28
24.48047028445616 42.3147
24.503252800821233 42.3339
24.526214300784112 42.3802
24.548998793132213 42.4754
24.57178427117417 42.4562
24.59457073593893 42.2909
24.617536219319863 42.2845
24.64032466834748 42.1891
24.663114107195035 42.0932
24.685904536893013 41.8269
24.708874020360852 41.7203
24.731666442613744 41.6713
24.754459858818787 41.6772
24.777254270007962 41.5702
24.80022777025625 41.5226
24.82302418230472 41.4272
24.845821592443674 41.5005
24.86862000170663 41.4475
24.891597535453727 41.4008
24.914397953892728 41.6077
24.93719937456671 41.5668
24.96000179851076 41.7761
24.98298338249997 41.7722
25.00578782394922 42.0792
25.028593271784167 42.1115
25.05157790644186 42.7101
25.07438537804115 42.7883
25.097193859145293 42.9286
25.120003350792075 43.273
25.142992065061257 43.5657
25.165803588823465 43.8197
25.18861612625217 43.9286
25.211429678386736 43.8925
25.234422489079968 44.0196
25.257238081693636 44.0757
25.280054692141732 44.3392
25.3028723214652 44.2931
25.325869245420463 44.361000000000004
25.348688923599397 44.3942
25.371509623787006 44.2048
25.394331347025812 43.8163
25.41733240110666 43.298
25.440156181590016 42.5538
25.46298098826268 41.9786
25.48580682216873 41.4613
25.50881202326435 40.9896
25.53163992281684 40.5864
25.55446885274561 40.4614
25.577298814096377 40.2242
25.600308179121807 40.0743
25.623140214533745 40.1388
25.64597328451537 39.9898
25.66898578564376 39.7744
25.691820936010206 39.8754
25.714657124097695 39.8575
25.737494350954734 39.918
25.760511045684957 39.7301
25.783350361364224 39.7555
25.806190718969255 39.745
25.82903211955018 39.8155
25.852053024868923 39.8111
25.874896522722523 39.95
25.897741066713106 39.9105
25.920586657892454 39.9812
25.943611790812668 40.0695
25.966459487728237 40.2489
25.989308234998564 40.3004
26.01215803367705 40.6743
26.03518741123814 40.9563
26.05803932412957 41.0721
26.080892291600094 41.0409
26.10374631470478 41.0908
26.12677995397268 41.3374
26.14963609978026 40.9235
26.172493304397875 40.4958
26.19535156888223 40.273
26.218389486949604 40.0028
26.241249882640123 39.6965
26.26411134137826 39.4946
26.28715248187403 39.4274
26.31001607820869 39.342
26.3328807407756 39.319
26.35574647063438 39.4436
26.37879191991473 39.3875
26.401659795896734 39.3581
26.424528742360263 39.5663
26.447398760366614 39.7066
26.470448535598294 39.7576
26.49332070826805 40.0676
26.516193955675355 40.4645
26.53906827888316 40.6962
26.562122397260108 40.824
26.584998883685063 41.2032
26.607876449110325 41.3662
26.63075509460056 41.5031
26.65381357334404 41.6137
26.67669439061878 41.5562
26.699576291163382 41.3056
26.722459276044212 41.2529
26.745522132402975 40.9493
26.768407297649354 40.5238
26.791293550442003 40.2081
26.814180891848974 40.0616
26.837248143099337 39.7908
26.860137673466657 39.6652
26.88302829566349 39.4401
26.90592001075963 39.294000000000004
26.92899167420566 39.0913
26.951885586870763 38.7774
26.974780595655517 38.7793
26.99785558178161 38.4101
27.020752794605112 38.2705
27.043651106772522 38.114000000000004
27.06655051935668 38.2459
27.089629948036183 38.1065
27.112531573292053 38.1142
27.135434302194138 38.0992
27.158338135817015 37.8929
27.181422024430987 37.9646
27.204328079372566 37.8705
27.22723524226965 37.8772
27.250143514198573 37.95
27.273231880156334 37.9476
27.296142382065014 37.7915
27.319053996245536 37.6177
27.341966723775965 37.7716
27.365059584515222 37.8822
27.38797455070062 37.9316
27.410890633481237 37.8033
27.433807833936918 37.8317
27.456905206923906 37.8374
27.47982465472398 37.7723
27.502745223449743 37.9147
27.525666914182825 38.0896
27.548768816912457 37.9352
27.571692763693633 37.8698
27.59461783573812 37.799
27.617723149491244 37.5633
27.640650484125285 37.4444
27.66357894728264 37.546
27.686508540048052 37.5233
27.709618414237887 37.4483
27.732550278321757 37.2268
27.755483275279115 37.0561
27.778417406196485 37.2498
27.801531858397514 37.1529
27.824468269376716 37.1855
27.847405817586786 37.2293
27.870344504116094 37.4025
27.893463551932008 37.4834
27.916404527281053 37.6467
27.93934664422563 37.8232
27.962289903855886 37.9022
27.98541356491974 38.1447
28.00835912214229 38.3236
28.03130582533231 38.4434
28.054253675581805 38.5685
28.077381967556104 38.5336
28.100332124185126 38.391
28.123283431160893 38.3047
28.146235889577238 38.0866
28.169368830154156 37.9562
28.192323603752033 37.7671
28.215279532083304 37.4676
28.238415973016764 37.3025
28.261374223145094 37.2466
28.284333631303806 37.0755
28.307294198589954 36.8714
28.330435319167677 36.553000000000004
28.353398217078915 36.2218
28.376362277420153 35.9804
28.39932750129032 35.8212
28.422473319286713 35.8499
28.44544088262495 35.7383
28.468409612800283 35.6304
28.491379510913497 35.4772
28.51453004413313 35.3085
28.53750229057244 35.3139
28.56047570826344 35.2386
28.583450298308804 35.2479
28.606605564586562 34.9544
28.629582511831156 35.1387
28.65256063474956 35.0391
28.675539934446338 35.0369
28.698699951647605 35.1001
28.72168161743193 34.8655
28.74466446331978 34.9581
28.767648490417624 34.9024
28.790813276438353 34.8398
28.813799678527303 34.8742
28.836787265157085 34.8785
28.859955641890075 34.8451
28.882945610203045 34.8083
28.905936766392035 34.7592
28.928929111566863 34.7564
28.952102288520145 34.64
28.975097024308607 34.537
28.998092952423807 34.3945
29.021090073977508 34.3612
29.04426806913204 34.3585
29.067267590245258 34.2313
29.090268308143695 34.1278
29.11327022394099 33.9002
29.13645305530891 33.749
29.159457379627167 33.8136
29.18246290519685 33.6429
29.20546963313352 33.7227
29.22865731875826 33.7361
29.25166646419296 33.8211
29.27467681535305 33.746
29.29768837335608 33.7076
29.320880931312562 33.7243
29.34389491580634 33.7443
29.366910110507334 33.6514
29.38992651653503 33.7309
29.41312396492981 33.7009
29.436142806456754 33.5898
29.45916286268059 33.4307
29.48236399319994 33.343
29.50538649169417 33.1928
29.528410208259935 33.0517
29.55143514402014 32.9847
29.574641196749695 32.7498
29.597668583816574 32.657
29.6206971934585 32.5122
29.64372702680042 32.7197
29.666938019934474 32.5059
29.689970313635285 32.4544
29.713003834422636 32.3468
29.73603858342347 32.4235
29.759254535188578 32.3194
29.78229175361658 32.1516
29.80533020365064 32.2158
29.82836988641968 32.2144
29.85159081507472 32.1772
29.874632976355343 32.207
29.89767637376955 32.1354
29.920721008448314 31.9759
29.9439469322847 32.0044
29.96699405457564 32.0286
29.9900424175358 32.1248
30.013092022298157 31.8954
30.03632295963995 31.9404
30.059375061131373 31.971
30.08242840783577 31.9442
30.105483000888153 31.9596
30.128718970092244 31.859
30.151776069006917 31.8233
30.17483441768648 31.9263
30.198074175317235 31.864
30.221135036724256 31.9213
30.24419715131772 31.9304
30.267260520236203 31.758000000000003
30.290505341942243 31.7756
30.313571232750228 31.8364
30.336638381310948 31.8101
30.35970678876503 31.7961
30.38295669299435 31.605999999999998
30.40602763151657 31.5746
30.429099832366074 31.6417
30.452173296685572 31.6236
30.47542830191959 31.586
30.498504306502497 31.4434
30.521581577995562 31.5568
30.544660117543582 31.5997
30.56792024229725 31.5921
30.59100133132069 31.5418
30.614083691845494 31.6666
30.637167325018545 31.6979
30.660432587840603 31.6798
30.683518779717886 31.6938
30.70660624769615 31.7417
30.729694992924372 31.6316
30.75296541239743 31.5602
30.77605672557558 31.6043
30.799149319462742 31.7441
30.8224236211637 31.5444
30.845518789950724 31.4339
30.868615242910597 31.2657
30.891712981195973 31.1151
30.91499247215866 31.0084
30.938092794619365 31.0622
30.96119440587579 30.915
30.984297307082752 30.773000000000003
31.00758200598383 30.7499
31.030687500658694 30.6801
31.053794288760695 30.5757
31.076902371446767 30.5698
31.100192296997445 30.5241
31.12330298246119 30.5468
31.14641496599209 30.4564
31.169528248749216 30.4418
31.19282341969534 30.4295
31.215939314557186 30.4713
31.239056512134788 30.4608
31.262175013589378 30.4466
31.28547544871168 30.3478
31.30859657161541 30.314
31.331719001892175 30.3511
31.35484274070538 30.4111
31.378148458819545 30.4393
31.401274828443725 30.3592
31.424402510106933 30.3703
31.447712205419993 30.4716
31.470842524931633 30.3084
31.493974159989783 30.3595
31.51710711176168 30.3139
31.54042212308802 30.2677
31.563557722100917 30.2706
31.586694641341655 30.1086
31.609832881979628 30.0031
31.63315322823208 29.980999999999998
31.656294125521327 29.7731
31.679436347728515 29.81
31.70257989602529 29.7573
31.725905596152327 29.6023
31.74905181052835 29.5959
31.772199354521323 29.6711
31.79534822930507 29.6629
31.818679302290967 29.6171
31.84183085259981 29.5928
31.864983737233473 29.7314
31.88813795736804 29.7191
31.911474422233013 29.5702
31.934631327356435 29.7243
31.9577895715215 29.6647
31.980949155906522 29.5889
32.004291031706956 29.5276
32.027453310562606 29.4415
32.05061693318573 29.2196
32.07396288236386 29.2872
32.09712920658542 29.1909
32.12029687812702 29.0649
32.14346589817093 29.0514
32.166817291729984 29.015
32.18998902288583 29.014
32.21316210610336 28.9672
32.23633654256711 28.756
32.259693399663725 28.7568
32.282870556771144 28.6799
32.30604907069099 28.7126
32.329228942610065 28.6067
32.35259128243769 28.523000000000003
32.375773884550505 28.5049
32.398957848235646 28.383000000000003
32.422143174682176 28.3244
32.445511016471215 28.2959
32.468699082679954 28.243000000000002
32.49188851523011 28.1418
32.51507931531304 28.1045
32.538452678331 28.1753
32.56164622776311 28.1007
32.58484114831493 28.0108
32.60803744118015 27.9535
32.631416344731896 27.9861
32.654615396551876 27.9826
32.67781582427913 27.9498
32.701198898634416 27.9116
32.72440209253756 27.7685
32.747606665947124 27.7478
32.77081262006088 27.6156
32.79420126883317 27.6009
32.81740999876112 27.6939
32.840620112999424 27.6443
32.86383161274818 27.4987
32.88722585534586 27.4769
32.91044014056596 27.5514
32.933655814909734 27.4042
32.95687287957963 27.4403
32.98027273544904 27.3621
33.00349259526636 27.3485
33.026713849030116 27.4135
33.04993649794511 27.4643
33.073341986570746 27.3935
33.09656744032826 27.4167
33.11979429286444 27.3814
33.14302254538647 27.3523
33.166433686291185 27.2977
33.18966475336992 27.2352
33.212897224069096 27.0905
33.23613109959831 27.1451
33.259547912343415 27.0703
33.2827846121627 27.0547
33.306022720453775 26.9704
33.32926223842861 26.9347
33.352684742614166 26.893
33.37592709463173 26.8767
33.399170859982064 26.8426
33.422597648419426 26.7739
33.44584425514446 26.5985
33.46909227885668 26.616999999999997
33.4923417207723 26.5762
33.51577423505344 26.5296
33.539026528130385 26.4433
33.56228024307245 26.4094
33.585535381098246 26.3317
33.60897364093058 26.2774
33.63223163992385 26.2506
33.6554910656699 26.1912
33.678751919389796 26.2744
33.702195944520106 26.166999999999998
33.72545966903325 26.1307
33.74872482519663 26.1281
33.771991414233746 26.1063
33.79544122444841 26.0541
33.81871069412428 25.921999999999997
33.84198160035767 25.9251
33.86525394437455 25.8852
33.88870955949969 25.8707
33.911984794020626 25.8655
33.93526147001624 25.8658
33.958539588715006 25.6878
33.98200102861669 25.7648
34.0052820477047 25.6839
34.02856451319451 25.6429
34.05203033759056 25.5712
34.07531571090147 25.5835
34.09860253431845 25.5882
34.121890809074316 25.4931
34.145362493118924 25.4366
34.16865368561615 25.3925
34.191946333164054 25.3777
34.21524043699793 25.3966
34.23871800066799 25.3327
34.26201503218366 25.3052
34.28531352370466 25.2442
34.30861347646881 25.1396
34.33209693978188 25.1117
34.3553998301885 25.0833
34.378704185565205 24.9401
34.402010007152356 24.9721
34.42549939016683 24.9471
34.44880815937748 24.8375
34.472118398533134 24.8347
34.49543010887669 24.7762
34.51892543169198 24.6716
34.54224009966052 24.7453
34.56555624255917 24.7153
34.58887386163339 24.5261
34.61237514439016 24.566999999999997
34.6356957311114 24.5099
34.65901779775809 24.5381
34.68252356662995 24.4496
34.705848608458616 24.494
34.72917513396849 24.429000000000002
34.75250314440949 24.3239
34.77601490857862 24.3232
34.799345904259795 24.2558
34.82267838863559 24.2562
34.846012362958525 24.275
34.869530142679984 24.195999999999998
34.89286711232212 24.1764
34.91620557568269 24.1629
34.93954553401677 24.0844
34.9630693495876 24.0162
34.986412313340814 24.0437
35.00975677584668 24.1308
35.033102738362956 24.0087
35.05663261012228 23.9515
35.0799815881786 23.9047
35.10333207003229 23.8204
35.12668405694369 23.8631
35.150220005273056 23.8644
35.17357501786656 23.8421
35.19693153931268 23.7747
35.220289570874385 23.8274
35.24383161619786 23.8218
35.267192683604904 23.8103
35.290555264930376 23.6994
35.314101899412165 23.6457
35.33746752422433 23.7572
35.36083466676374 23.655
35.38420332829803 23.6091
35.407756095629054 23.6653
35.43112781085063 23.5722
35.45450104888391 23.5154
35.477875810999194 23.5295
35.50143473172161 23.4604
35.52481255774625 23.538
35.54819191167777 23.4304
35.57157279478914 23.4192
35.595137889488406 23.4042
35.61852184675279 23.2551
35.641907337029984 23.1657
35.665294361595684 23.2138
35.68886565090076 23.1357
35.7122557598848 23.0824
35.73564740699838 23.0822
35.759040593519934 23.114
35.78261809810353 23.095
35.80601437933051 22.9279
35.829412203814705 22.8885
35.85281157283719 22.7049
35.876395313415884 22.8846
35.8997977874528 22.7926
35.92320180988546 22.7672
35.946790244133936 22.7024
35.97019737933222 22.8221
35.993606066789866 22.6441
36.01701630779276 22.6631
36.04061101440684 22.5901
36.06402437852291 22.6924
36.08743930005611 22.6643
36.1108557802951 22.5391
36.13445678011326 22.5656
36.15787639383515 22.4618
36.18129757014299 22.4737
36.20472031032821 22.3578
36.22832762423364 22.3211
36.25175350829375 22.296999999999997
36.275180960119776 22.2227
36.298609981005924 22.2722
36.32222362992669 22.3034
36.34565580510207 22.2385
36.36908955323448 22.2749
36.39252487562093 22.0669
36.416144880530226 22.0897
36.43958336764275 22.0897
36.463023432914625 22.0893
36.486465077645676 21.9571
36.51009145956204 22.0275
36.53353627947859 22.0095
36.55698268276811 21.9615
36.58043067073321 21.928
36.60406345072071 21.8304
36.62751462435344 21.7832
36.65096738658405 21.7998
36.67460498210655 21.8148
36.69806093788647 21.7803
36.72151848619297 21.671
36.744977628333636 21.7046
36.76862165890998 21.6549
36.79208400512205 21.5825
36.81554794910557 21.5835
36.83901349217101 21.4667
36.862663978991606 21.4328
36.88613273667352 21.4691
36.90960309738324 21.3872
36.933075062434064 21.4009
36.95673202673572 21.3324
36.98020721697122 21.3392
37.003684015502365 21.3034
37.027162423645365 21.2122
37.050825886711465 21.2364
37.07430753063053 21.1486
37.09779078812467 21.0532
37.121275660513014 21.1232
37.144945643673694 21.0715
37.16843376245278 21.0079
37.19192350009803 20.9898
37.215414857931435 20.9063
37.239091382563885 20.8704
37.262585997426164 20.802
37.28608223645736 20.8355
37.309763684451696 20.8241
37.33326318851098 20.7606
37.356764320726555 20.866
37.380267082425526 20.8105
37.40395510942588 20.7753
37.42746114683234 20.660999999999998
37.45096881771841 20.6458
37.474478123414166 20.6017
37.49817275092816 20.4962
37.52168534303452 20.4957
37.54519957395567 20.4861
37.568715445024665 20.5316
37.592416694607714 20.4504
37.61593586281424 20.4919
37.63945667518264 20.4214
37.66297913304891 20.3246
37.68668702630454 20.2959
37.710212792059274 20.2043
37.733740207334854 20.2462
37.757269273470364 20.2246
37.780983832050374 20.2046
37.80451621684926 20.1214
37.82805025654007 20.0192
37.851585952464795 20.0274
37.8753071980695 20.058
37.89884622345676 19.9715
37.92238690911902 20.0252
37.94611318753442 19.9245
37.969657210779765 19.9256
37.99320289834801 19.9063
38.016750251586465 19.8767
38.04048325513017 19.8415
38.06403395679343 19.7789
38.087586328183946 19.7914
38.11114037065203 19.7553
38.13488012115898 19.6681
38.1584375229181 19.671
38.181996599821 19.6141
38.205557353221124 19.6164
38.229303872575656 19.6386
38.2528679961576 19.5655
38.27643380031219 19.4742
38.30000128639589 19.4542
38.32375459653193 19.4394
38.34732546371299 19.4841
38.37089801690786 19.4088
38.39447225747609 19.3497
38.418232380377425 19.3091
38.441810012983396 19.2763
38.46538933705673 19.2392
38.488970353960084 19.234
38.51273731166058 19.2196
38.536321731567014 19.1272
38.55990784840681 19.1785
38.58367995004091 19.0746
38.60726947812959 19.0106
38.63086070726198 19.0372
38.654453638806274 19.0403
38.678232613930824 19.0296
38.70182896773327 18.977
38.72542702806741 18.9618
38.7490267963045 18.8905
38.77281266709232 18.8889
38.79641586862214 18.8975
38.8200207821842 18.8175
38.843627409152944 18.8371
38.86742019782782 18.7742
38.891030269149255 18.7271
38.914642058016156 18.7133
38.938255565806124 18.6553
38.96205529464307 18.6502
38.98567225787121 18.6261
39.00929094417078 18.5851
39.03291135492255 18.5858
39.05671804624804 18.5528
39.080341923549106 18.5275
39.103967529460334 18.474
39.127594865365744 18.3628
39.15140854155791 18.3596
39.17503935514948 18.4081
39.19867190290282 18.3449
39.22249083587951 18.3271
39.24612686969409 18.2829
39.269764641845306 18.3105
39.293404153722804 18.2775
39.317230110864074 18.1962
39.34087311998506 18.1974
39.36451787301696 18.2063
39.388164371352595 18.0971
39.41199737518003 18.0834
39.43564738196752 18.1043
39.45929913825317 18.0675
39.48295264543308 18.0343
39.506792718520884 17.8903
39.530449745387216 17.8837
39.55410852735203 17.9074
39.57776906581474 17.968
39.60161623079 17.9471
39.625280300200025 17.8731
39.64894613032202 17.7909
39.67261372255866 17.7357
39.6964680021016 17.7879
39.72013913657293 17.6999
39.74381203738292 17.702
39.76748670593756 17.672
39.79134812278169 17.665
39.81502634488497 17.6261
39.83870633896685 17.6356
39.862388106436654 17.5392
39.88625668336918 17.5108
39.90994201572829 17.5171
39.933629125719285 17.4574
39.957503091207826 17.3898
39.9811937746168 17.4762
40.00488623990914 17.4301
40.02858048850006 17.3359
40.05246165409549 17.2943
40.076159487492085 17.3479
40.099859108448875 17.2444
40.123560518384345 17.209
40.1474489070226 17.2231
40.171153913178564 17.2008
40.194860712584955 17.180999999999997
40.2185693066637 17.1273
40.242464941335314 17.0877
40.26617714307655 17.062
40.289891143772046 17.0276
40.3136069448471 17.0233
40.33750984859743 17.0357
40.3612292688043 16.9614
40.3849504936829 16.9033
40.40867352466194 16.9579
40.43258372059144 16.8945
40.45631038219906 16.8967
40.48003885420956 16.8036
40.503769138055105 16.8731
40.52768664931955 16.7899
40.55142057531802 16.7731
40.57515631746428 16.7512
40.599079334038514 16.7338
40.62281872700477 16.7242
40.64655994043941 16.6706
40.67030297578061 16.6014
40.69423334835778 16.6347
40.71798004609188 16.6463
40.74172857006355 16.5816
40.76547892171441 16.5624
40.7894166736039 16.5115
40.813170699248566 16.4124
40.83692655691388 16.404
40.86068424804498 16.4161
40.884629402612525 16.4361
40.908390779366385 16.3615
40.932153993938 16.3111
40.95591904777605 16.2882
40.979871628443995 16.3382
41.003640379561936 16.3063
41.02741097430883 16.2395
41.05118341413683 16.2247
41.075143444384416 16.2063
41.098919593177826 16.2166
41.1226975914255 16.1241
41.14647744058318 16.0487
41.170444943946755 16.0625
41.19422851378379 16.0707
41.218013938914645 16.0112
41.24198706625173 15.9984
41.26577622087193 15.9379
41.289567235177785 15.8995
41.31336011063129 15.9235
41.337340752422875 15.864
41.361137369129835 15.8711
41.38493585138705 15.8237
41.40873620066004 15.8493
41.43272438060107 15.7757
41.45652848292052 15.6959
41.48033445666918 15.7372
41.50414230331616 15.7412
41.528138045159764 15.6437
41.551949656675205 15.5921
41.575763145513235 15.5715
41.59957851314666 15.6037
41.62358184070442 15.5572
41.64740098505737 15.4954
41.6712220126409 15.5349
41.69504492493139 15.4705
41.71905586207357 15.4253
41.74288256296395 15.4562
41.766711153007456 15.4251
41.79054163368412 15.3755
41.814560204340054 15.3613
41.838394485526365 15.357999999999999
41.86223066180303 15.3198
41.88625497706819 15.2487
41.910094962812 15.2601
41.93393684811168 15.2816
41.95778063445365 15.2042
41.981812625263366 15.1781
42.00566023303407 15.1304
42.029509746323676 15.078
42.05336116662236 15.0828
42.077400857069705 15.0708
42.10125611078846 15.0862
42.12511327600405 15.0697
42.14897235421036 14.9962
42.173019768448455 15.0033
42.19688269209613 14.9394
42.22074753323349 14.9093
42.24461429335818 14.8642
42.268669455600495 14.8941
42.292540073217886 14.9098
42.31641261433284 14.8661
42.34028708044675 14.8101
42.36435001496739 14.7714
42.38822835065557 14.7722
42.41210861586426 14.7211
42.4359908120986 14.7142
42.46006154323262 14.7407
42.48394762115317 14.6621
42.507835634632315 14.6405
42.531912233047436 14.6266
42.55580413732265 14.5881
42.579697981698 14.61
42.60359376768525 14.610999999999999
42.62767820545945 14.5021
42.65157789440821 14.4981
42.67547952952185 14.4564
42.699383112316 14.4687
42.72347541395347 14.4017
42.74738291190531 14.3501
42.771292362102166 14.354000000000001
42.795203766063516 14.3501
42.819303956130405 14.3184
42.843219287476536 14.3241
42.86713657716324 14.2704
42.89105582671383 14.2257
42.91516392983864 14.2218
42.939087119032166 14.1524
42.963012272677304 14.1756
42.98693939230129 14.1902
43.01105543317513 14.1525
43.034986504731386 14.1153
43.05891954686589 14.0527
43.08285456110972 14.0665
43.10697856448665 14.0506
43.130917542983475 13.9755
43.15485849820081 13.9906
43.17880143167367 13.9413
43.20293342237094 13.8499
43.226880332449 13.8899
43.25082922540554 13.8884
43.27496722682525 13.8621
43.29892010567796 13.8029
43.32287497204102 13.8054
43.34683182745632 13.763
43.370977859791836 13.7597
43.39493871351105 13.7409
43.41890156092628 13.7302
43.44286640358341 13.6946
43.46702049182749 13.6971
43.49098934522816 13.6211
43.51496019852649 13.6089
43.5389330532723 13.6109
43.56309522248204 13.5648
43.58707210044314 13.5431
43.61105098451946 13.4881
43.63503187626491 13.4819
43.659202151562134 13.4851
43.68318707902681 13.4131
43.70717401884041 13.4517
43.731162972560874 13.4399
43.75534137913236 13.4033
43.779334381108384 13.3668
43.803329401683186 13.3596
43.82732644241872 13.3712
43.8515130055166 13.2861
43.87551410707659 13.3054
43.89951723350145 13.2706
43.923709934595614 13.2085
43.94771713129917 13.1967
43.97172635758096 13.1737
43.99573761501002 13.1882
44.0199385169922 13.1558
44.04395385732619 13.1035
44.067971233533086 13.1193
44.09199064718605 13.0566
44.11619977548961 13.0605
44.14022328470671 13.0443
44.16424883610785 13.0254
44.18827643127035 13.009
44.21249381139513 12.9543
44.236525514814076 12.9177
44.26055926674478 12.9029
44.28459506876863 12.8665
44.3088207262813 12.8521
44.33286064928722 12.8179
44.35690262714919 12.7684
44.38094666145278 12.7624
44.4051806219871 12.7738
44.42922879003185 12.7504
44.45327901929361 12.687999999999999
44.477331311362136 12.7085
44.501573600619416 12.6708
44.525630039221795 12.6257
44.54968854541895 12.636
44.573937102200176 12.618
44.5979997645541 12.6518
44.622064499300315 12.5616
44.64613130803592 12.5273
44.67038823869318 12.5445
44.69445921643748 12.5117
44.718532272981385 12.4543
44.742607409926194 12.4782
44.76687274034801 12.4149
44.79095205918753 12.3905
44.81503346325094 12.3994
44.839116954143876 12.395999999999999
44.86339071028742 12.3467
44.88747839599524 12.3391
44.91156817336837 12.3117
44.93566004401666 12.2853
44.959942251908146 12.2624
44.984038330325966 12.2506
45.00813650686762 12.1962
45.03223678314731 12.1691
45.05652746888232 12.1381
45.08063196592069 12.1648
45.104738567558705 12.1123
45.128847275414856 12.0674
45.15314646515866 12.0348
45.17725940679741 12.0497
45.20137445952892 12.0178
45.22568004865265 11.9817
45.24979934496396 12.0151
45.27392075725247 11.9761
45.29804428714431 11.9538
45.322358426247604 11.9242
45.346486212804315 11.8834
45.370616121861914 11.874
45.39474815505086 11.9009
45.41907087049246 11.8383
45.4432071734666 11.8484
45.46734560548283 11.8417
45.49148616817604 11.7948
45.51581748638564 11.7482
45.5399623320197 11.7384
45.56410931325473 11.7134
45.58825843173002 11.747
45.61259837920865 11.6886
45.636751793816 11.695
45.66090735060093 11.6338
45.68506505120716 11.6067
45.7094136545275 11.6273
45.73357566449271 11.5353
45.75773982322992 11.5275
45.78190613238733 11.5383
45.806263418194064 11.4985
45.83043404997326 11.5311
45.85460683713677 11.5485
45.87897065658495 11.4646
45.90314777634752 11.4204
45.92732705646868 11.3799
45.9515084986045 11.3748
45.97588104735473 11.3896
46.00006683541565 11.3667
46.02425479047904 11.3149
46.04844491420549 11.3125
46.0728262191024 11.2944
46.09702070211635 11.3093
46.12121735879483 11.2829
46.14541619080294 11.2496
46.169806278764455 11.2495
46.194009483459034 11.1963
46.21821486849841 11.1945
46.24242243555223 11.1795
46.266821333570014 11.1501
46.29103328674601 11.1556
46.31524742696538 11.1358
46.33946375590237 11.061
46.36387149104216 11.0491
46.38809221957392 11.0567
46.41231514186606 11.015
46.436540259597464 11.0256
46.460956858999374 10.9998
46.48518638983522 10.9572
46.509418121166966 10.9197
46.533652054678114 10.9429
46.55807754555709 10.8799
46.58231590571962 10.9187
46.60655647313217 10.8725
46.630988654873654 10.7845
46.655233659129024 10.784
46.67948087571551 10.792
46.70373030632484 10.7786
46.72817142736393 10.7443
46.752425308428684 10.7161
46.77668140861147 10.7295
46.80093972960865 10.6594
46.82538981736788 10.6606
46.849652602470904 10.6417
46.87391761349769 10.6323
46.8981848521493 10.6319
46.9226439341274 10.6063
46.946915650573224 10.5664
46.97118959976749 10.5629
46.99546578341598 10.5113
47.019933887188216 10.488
47.04421456235744 10.475
47.06849747711879 10.467
47.09278263318286 10.4543
47.11725978640143 10.478
47.14154944775105 10.3982
47.165841355555656 10.3842
47.1901355115306 10.3841
47.214621741924994 10.3473
47.23892041698887 10.3245
47.26322134538975 10.274000000000001
47.28771440635075 10.308
47.31201986422527 10.3052
47.33632758061436 10.2388
47.360637557241866 10.2184
47.38513974410611 10.1973
47.40945426407847 10.2285
47.43377104948137 10.2213
47.45809010204344 10.1962
47.48260144275502 10.1681
47.506925052572285 10.1433
47.53125093475548 10.0987
47.55557909103813 10.1031
47.58009961361992 10.0478
47.60443234110732 10.0696
47.62876734791564 10.0482
47.65310463578333 10.0153
47.6776343683373 9.98166
47.7019762413987 9.984539999999999
47.72632040075572 9.968169999999999
47.75066684815169 9.97518
47.77520581885936 9.926969999999999
47.799556865477655 9.95273
47.823910205386 9.88654
47.84826584033272 9.875910000000001
47.87281407745551 9.84032
47.89717432569297 9.84932
47.92153687423484 9.82518
47.94609208429692 9.78708
47.97045925671401 9.79637
47.99482873471275 9.78524
48.01920052005013 9.73864
48.04376504619224 9.70321
48.068141469543484 9.75723
48.09252020552573 9.7067
48.11690125590099 9.6611
48.1414751266064 9.66741
48.16586082917454 9.663160000000001
48.19024885144316 9.607660000000001
48.2146391951793 9.63444
48.239222439012764 9.62653
48.26361744916137 9.57417
48.28801478610016 9.57703
48.31241445160131 9.49439
48.337007097209366 9.516539999999999
48.36141144338331 9.54133
48.38581812345755 9.46774
48.41022713920929 9.49507
48.434829215320704 9.50501
48.45924292604658 9.4466
48.48365897780325 9.48049
48.50807737237308 9.40922
48.532688907799276 9.39752
48.55711201168574 9.36435
48.581537463754074 9.34854
48.60615611725119 9.39891
48.63058628942721 9.34018
48.65501881516546 9.32643
48.6794536962573 9.25099
48.70408185970339 9.268880000000001
48.72852147531801 9.26257
48.75296345168211 9.22379
48.77740779059232 9.202960000000001
48.80204549302823 9.240160000000001
48.82649458091802 9.19464
48.85094603676547 9.16653
48.87539986237231 9.11011
48.90004713292306 9.13609
48.92450572200832 9.13302
48.94896668628025 9.09919
48.97343002754588 9.08703
48.99808689542115 9.07059
49.02255501470614 9.04522
49.04702551642794 8.9944
49.0714984023988 9.006639999999999
49.096164896893235 8.99232
49.120642575466796 8.9664
49.145122643748394 8.98259
49.16960510355558 8.91452
49.19428125404938 8.925989999999999
49.2187685210852 8.91435
49.243258185121555 8.88755
49.26794160167084 8.87199
49.2924360839405 8.86922
49.31693296869764 8.864930000000001
49.34143225776915 8.84165
49.36612538195438 8.81542
49.39062950396021 8.79808
49.41513603578346 8.75624
49.4396449792564 8.71865
49.46434784069503 8.71849
49.488861631846454 8.71635
49.513377840166804 8.72635
49.537896467493745 8.71005
49.56260909589029 8.65035
49.587132585683285 8.664539999999999
49.611658500018365 8.647210000000001
49.636186840738596 8.6035
49.66090926588511 8.60576
49.685442483902584 8.623380000000001
49.70997813385706 8.5299
49.734516217597076 8.53416
49.75924846937352 8.51412
49.7837914452858 8.52795
49.80833686055187 8.512780000000001
49.83288471702571 8.459610000000001
49.85762682540054 8.49094
49.882179588965734 8.46836
49.9067347993235 8.41963
49.93129245833333 8.39552
49.95604445336378 8.43237
49.98060703442832 8.37847
50.005172069746266 8.36923
50.02993150438364 8.35238
50.05450147301533 8.3116
50.07907390151433 8.32392
50.10364879174981 8.32071
50.12841816587289 8.2822
50.1529980044635 8.30282
50.17758031042124 8.27542
50.20216508562089 8.25797
50.22694442953363 8.239130000000001
50.25153416817468 8.19474
50.27612638170508 8.18339
50.300721072005196 8.19983
50.325510416102105 8.15568
50.350110084975064 8.15893
50.37471223628208 8.16637
50.39931687190919 8.10511
50.424116246675766 8.10765
50.44872587605249 8.085139999999999
50.47333799543065 8.03865
50.49795260670191 8.05129
50.52276204271512 8.032739999999999
50.54738166295838 8.02798
50.57200378079314 8.00029
50.596628398116835 7.98942
50.62144792604559 7.99785
50.646077567609396 7.9710399999999995
50.670709714377715 7.984139999999999
50.69553683636198 7.984439999999999
50.72017401885922 7.934060000000001
50.7448137122895 7.90711
50.76945591856022 7.881069999999999
50.79429318636823 7.87395
50.818940443716784 7.83972
50.84359021965163 7.84271
50.868242516085964 7.812819999999999
50.893089960641895 7.80059
50.917747323549435 7.81313
50.94240721271973 7.78251
50.96706963007175 7.73071
50.99192728239342 7.75218
51.01659478166073 7.760110000000001
51.04126481489051 7.736689999999999
51.06593738400761 7.7312
51.090805275207074 7.70245
51.11548294172845 7.6817
51.14016314993547 7.673439999999999
51.164845901758845 7.663819999999999
51.18972406304274 7.65229
51.21441192780656 7.6319
51.23910234200271 7.62357
51.2637953075678 7.57795
51.288683770237945 7.5623
51.31338186432707 7.545310000000001
51.33808251561888 7.51807
51.362978729967345 7.51496
51.387684521509755 7.48216
51.41239287610203 7.491219999999999
51.437103795691165 7.48911
51.46201036644977 7.459969999999999
51.486726441956634 7.416739999999999
51.51144508832545 7.47187
51.536166307509156 7.40148
51.56108326624387 7.37402
51.58580965706056 7.3990800000000005
51.61053862657523 7.3692899999999995
51.635270176746864 7.318980000000001
51.66019755512065 7.317880000000001
51.68493429268881 7.33122
51.70967361681515 7.2941
51.73441552946465 7.2689
51.759353359237934 7.27163
51.7841004750961 7.22805
51.80885018539685 7.23733
51.833602492111254 7.23042
51.8585508051424 7.2119800000000005
51.883308330926425 7.227460000000001
51.90806845906181 7.17963
51.932831191525715 7.15561
51.95779001977161 7.1550899999999995
51.98255798721516 7.1513100000000005
52.00732856494335 7.12977
52.03229530577543 7.0856
52.057071130455945 7.082269999999999
52.081849571391054 7.10181
52.106630630568695 7.062689999999999
52.13160794279417 7.025589999999999
52.15639426492067 7.0416300000000005
52.18118321127822 7.03993
52.205974783860896 7.003610000000001
52.23096269971011 6.98965
52.255759551287994 6.99644
52.280559035098186 6.957839999999999
52.30536115314103 6.9485
52.33035970494467 6.909610000000001
52.35516711807904 6.933610000000001
52.37997717147198 6.901860000000001
52.40478986713005 6.89261
52.42979908731974 6.88275
52.454617094216 6.88808
52.47943774942214 6.88048
52.50426105495102 6.856139999999999
52.529280976059844 6.80426
52.554109609024096 6.819889999999999
52.57894089837482 6.79955
52.60377484613117 6.82371
52.62880550079408 6.7454
52.65364479223379 6.741910000000001
52.67848674816189 6.76416
52.70352547971946 6.72472
52.72837279155837 6.692589999999999
52.753222773982785 6.6753800000000005
52.778075429022984 6.71881
52.80312495150885 6.691389999999999
52.827982978797436 6.6758
52.85284368481815 6.65296
52.87770707160767 6.60703
52.90276741793998 6.61493
52.92763619336701 6.57182
52.952507655698504 6.57185
52.977381806977576 6.56826
53.00245301017842 6.571689999999999
53.02733256653592 6.572030000000001
53.052214817996074 6.557169999999999
53.077099766608484 6.51375
53.102181859804446 6.48268
53.127072229988265 6.51741
53.15196530349892 6.50622
53.17686108239249 6.45223
53.20195409881522 6.4405
53.22685531582556 6.44592
53.25175924441303 6.3933
53.27666588664027 6.40561
53.30176985962693 6.37981
53.3266819565689 6.35272
53.35159677336455 6.3554
53.376514312083096 6.354830000000001
53.40162927507703 6.3716099999999996
53.42655228516116 6.35344
53.45147802340193 6.31668
53.47660125628886 6.26627
53.50153247842639 6.27956
53.52646643496923 6.27006
53.55140312799818 6.30094
53.576537409691696 6.23022
53.60147960336152 6.23832
53.626424539786164 6.208419999999999
53.65137222105307 6.19816
53.67651758529126 6.21816
53.70147078399681 6.21887
53.72642673383343 6.18727
53.75138543689533 6.13101
53.776541917524526 6.11367
53.801506154876755 6.11411
53.826473151763246 6.12565
53.851442910284916 6.08225
53.87661054126026 6.06496
53.9015858509782 6.05283
53.92656392866066 6.04148
53.95154477641532 6.06675
53.976723591801296 6.03063
54.00171000771266 6.05694
54.02669920004598 6.0311699999999995
54.051691170915745 6.0385599999999995
54.076881204886796 5.96668
54.101878760928514 5.98961
54.12687910187696 5.97967
54.152077577768296 5.9825
54.1770835166946 5.92581
54.20209224691339 5.9122900000000005
54.22710377055121 5.89147
54.25231352511594 5.8503099999999995
54.27733066384342 5.828180000000001
54.30235060239643 5.86672
54.32737334290836 5.83903
54.35259441062629 5.81238
54.377622783395324 5.785480000000001
54.40265396455061 5.812819999999999
54.42768795623251 5.743519999999999
54.45292037169559 5.71606
54.477960012857906 5.74279
54.50300247099511 5.72144
54.52804774825457 5.65836
54.55329154616743 5.66202
54.57834249018678 5.63129
54.6033962597977 5.61316
54.6284528571545 5.6029599999999995
54.653708072335164 5.59119
54.67877035378786 5.59475
54.70383546947698 5.53862
54.72890342156389 5.5414699999999995
54.7541700889442 5.49349
54.77924374251975 5.48994
54.8043202390049 5.46687
54.82959552413022 5.4591199999999995
54.8546777351945 5.47826
54.87976279569621 5.36166
54.90485070780914 5.36742
54.930137506558005 5.35659
54.95523115074295 5.37096
54.98032765308844 5.355090000000001
55.005427015775496 5.35533
55.03072536339621 5.34045
55.05583047570572 5.31313
55.080938454927676 5.28302
55.10604930325027 5.22929
55.131359235107396 5.229080000000001
55.15647585066083 5.1937
55.181595341907496 5.17446
55.20671771104285 5.1833599999999995
55.232039262617704 5.16017
55.25716741665048 5.09621
55.28229845518636 5.11609
55.30743238042802 5.10341
55.33276558731939 4.99289
55.357905315183636 5.026680000000001
55.383047936390035 4.980569999999999
55.40819345314859 4.98148
55.433538351073295 4.97717
55.458689688238415 5.01207
55.483843927614096 4.90269
55.509197623043605 4.89729
55.53435769621134 4.84805
55.55952067826466 4.880780000000001
55.5846865714265 4.84479
55.61005202069737 4.79997
55.63522376553902 4.83082
55.66039842818645 4.770569999999999
55.68557601087004 4.7503400000000005
55.7109532500271 4.7076
55.73613670233794 4.7469
