TT I
1.2716486653135266 8.32673
1.2939594142134223 7.94517
1.3162702121660406 7.29891
1.3385810600174564 7.72076
1.3608919586137629 7.68533
1.383202908801069 7.23945
1.405513911425503 6.1744
1.4278249673332093 6.16365
1.4501343378461518 6.60415
1.4724455028545926 6.55236
1.4947567236847858 5.8775699999999995
1.517068001182951 6.307869999999999
1.5393793361953272 6.60195
1.5616907295681737 6.09357
1.5840021821477681 5.55882
1.60631369478041 5.88811
1.6286252683124185 5.88255
1.6509369035901333 5.777830000000001
1.6732468618895553 6.02272
1.695558623192809 6.20461
1.7178704487808514 5.26016
1.7401823395001077 5.26398
1.7625012545597203 5.67703
1.7848028405262486 5.12277
1.8071218901122095 5.84419
1.8294236121921872 5.13949
1.8517427996910911 5.194
1.8740620574440425 5.1067800000000005
1.8963639900671978 5.18204
1.9186833908139995 5.4805
1.9409854680117449 4.9973
1.9633050151394713 5.72864
1.9856246367570705 5.9110000000000005
2.0079269371922672 4.768669999999999
2.03024671027244 4.180969999999999
2.0525491637446027 5.1658599999999995
2.074869091674931 4.76282
2.097171701569106 4.7617400000000005
2.1194917877373847 4.97443
2.141811954326636 4.98689
2.164114805233074 4.30071
2.186435135143035 4.19875
2.208738150935709 5.057119999999999
2.231058647554722 4.6472
2.2533792288321184 4.18534
2.275682498336085 4.39766
2.298003251406138 4.966880000000001
2.3203066942619714 4.73165
2.3426276225136022 4.72026
2.3649486396617507 4.01161
2.387252348930071 4.51461
2.4095735463442893 3.73894
2.4318774374315884 3.19516
2.4541988185014043 3.9189
2.476502894794693 4.2753
2.498824462909887 3.34599
2.521146125856138 3.73098
2.5434504863470337 4.21111
2.5657723414244717 3.4673
2.588076895590662 4.6764
2.610398946189713 4.5352
2.6327210958598384 4.651
2.6550259469304716 3.8625800000000003
2.6773482972090137 4.2693900000000005
2.6996533504259 4.58946
2.7219759047039602 5.63049
2.744298562293959 5.59079
2.7666039251246595 6.0772900000000005
2.7889267918020164 5.98209
2.8112323652516555 6.61746
2.833555444408179 6.79323
2.8558786311183852 7.2208
2.8781845268938557 7.6254
2.9005079311721484 7.68273
2.9228140460410397 7.90447
2.9451376712799635 8.70324
2.967444008632326 9.11303
2.9897678582247247 9.31453
3.0120918213106695 9.94984
3.0343984987899373 10.3061
3.0567226913198637 10.8628
3.079029599759726 11.6664
3.101354025127254 12.4411
3.123678568232338 13.0536
3.145985829517914 12.8697
3.16831061055229 13.2451
3.1906181112775593 13.5431
3.212943133635653 14.2641
3.2352682779763207 14.9161
3.2575761442691227 15.4209
3.2799015350264273 15.5014
3.302209649240067 15.7462
3.3245352898092655 16.2807
3.3468436553365257 16.691
3.369169549113219 17.0794
3.3914955708171384 18.0375
3.413804319727358 18.8205
3.4361305997334863 18.5745
3.4584396084414553 19.1012
3.4807661501462652 19.7712
3.503092824025881 20.4251
3.5254022288463154 20.4726
3.5477291695206588 20.581
3.5700388426251948 20.85
3.5923660534916446 21.570999999999998
3.6146934007816114 21.8644
3.637003482731501 22.1369
3.6593311053109985 22.6749
3.681641464033634 22.616999999999997
3.7039693653009733 23.3946
3.726297407241705 24.1051
3.7486081875460804 24.272
3.7709365132734978 24.6316
3.793247578841633 24.9635
3.8155761917550093 25.4725
3.8378875459837216 25.7255
3.8602164494827234 26.3776
3.882545499606844 26.5559
3.9048572932539183 27.3213
3.9271866390645718 27.7384
3.9494987298666713 28.4298
3.971828374764527 28.7386
3.9941581705403255 29.4581
4.016470713506008 29.6818
4.038800813471445 30.541
4.061113662089144 30.725
4.0834440696459176 31.6363
4.105774632334751 31.9534
4.128087945865126 32.3476
4.150418821249301 32.9824
4.172732448931298 33.8388
4.195063640413578 34.6889
4.2173775856475215 35.0125
4.239709096631102 35.8327
4.262040768704612 36.0836
4.284355196706267 37.1205
4.306687193387355 37.7362
4.329001947444346 38.6347
4.35133427213731 39.2914
4.373666762177566 40.3684
4.395982011761091 40.925
4.418314834921175 41.511
4.44063041906622 43.008
4.4629635787515625 43.5545
4.4852969080429785 43.9781
4.5076130004776225 45.6699
4.529946671403969 46.5475
4.552263106909177 47.2991
4.574597122877047 48.7063
4.596931312711224 50.195
4.619248269273446 51.3712
4.6415828092605835 52.1943
4.663900117405352 53.1
4.686235010953232 54.7646
4.708552674085913 55.9553
4.730887924602802 57.1559
4.753223354952695 59.3347
4.775541557023902 60.9777
4.797877349456786 62.1715
4.820195915032126 64.061
4.842532072957498 66.0349
4.864868414979744 68.3665
4.88718753227192 70.0402
4.909524244902505 72.8532
4.931843734218147 75.257
4.954180820867835 78.999
4.976518095879839 82.8322
4.998838149695359 86.8611
5.021175803844231 92.0248
5.043496238205739 96.4733
5.065834274903528 103.196
5.088172504230693 110.647
5.1104935158799565 120.50200000000001
5.132832132875765 136.3
5.155153533596801 161.934
5.1774925416746225 225.65200000000002
5.199814334878411 608.0509999999999
5.2221537374521505 2071.6
5.244493338631803 3779.62
5.266815727034316 4957.5
5.289155727832427 7479.27
5.311478517248165 9409.26
5.333818921080011 6745.88
5.356159527788849 2317.82
5.3784829252032536 559.413
5.400823940070432 241.275
5.423147747031976 175.733
5.445489173474152 147.018
5.467830807066149 132.468
5.490155234831516 123.149
5.512497285125229 116.696
5.534822130975162 113.23899999999999
5.557164601388673 109.444
5.579489868738879 104.963
5.601832762690846 102.87700000000001
5.6241758697774475 101.079
5.646501775867269 99.5122
5.668845311622074 99.1256
5.691171647754637 98.2168
5.713515615597765 97.3175
5.735859800852677 96.1548
5.758186788542988 95.5024
5.780531411018185 96.2106
5.802858837297399 96.0955
5.825203900414495 96.71
5.8475491852224 97.8267
5.869877275883075 100.285
5.892223006467101 103.514
5.914551544266608 107.898
5.936897724049891 115.869
5.959244129804903 129.679
5.981573344815301 165.205
6.0039202049061 311.293
6.026249875609095 795.284
6.04859719346037 1413.95
6.070927323278297 1831.14
6.093275102315365 2420.53
6.115623113320588 3449.98
6.137953938319995 3922.44
6.160302415650845 2396.43
6.182633708324452 810.7230000000001
6.2049826554078376 249.938
6.227331838745022 133.483
6.249663839443684 104.81200000000001
6.27201349767565 91.8602
6.294345974611799 85.1444
6.316696111167083 79.5229
6.339046488263839 75.9711
6.361379686074702 73.0477
6.383730546639482 71.0003
6.406064229255215 68.7446
6.428415576718203 67.6016
6.450749747566656 66.5062
6.47310158535871 64.9693
6.495453669698332 63.7138
6.517788579421056 63.617
6.540141159237969 62.256
6.562476565766648 61.0997
6.5848296444934045 60.6963
6.607182974060425 59.6696
6.6295191323281015 59.3091
6.651872965955752 58.8843
6.6742096296068985 58.1129
6.6965639707294615 57.358000000000004
6.71891856698715 56.8978
6.741255995248479 56.3451
6.763611104154477 55.8933
6.785949046381137 55.6638
6.808304671371482 55.1339
6.8306605557940046 54.9959
6.852999275508618 54.3055
6.875355681171544 53.9695
6.897694923437771 53.7827
6.92005185377892 53.6627
6.9423916220322655 53.681000000000004
6.964749080490181 53.111999999999995
6.987106804399774 52.7119
7.009447368180821 52.9242
7.031805625367033 52.4631
7.054146723727803 52.292
7.076505517631004 52.0849
7.098864581288365 52.0187
7.121206488070854 51.7377
7.143566093607822 51.6062
7.165908543567245 51.7207
7.188268694426048 51.5061
7.2106291193438095 51.167
7.232972390625943 51.3558
7.255333366030969 51.3358
7.277677189091925 51.0164
7.300038718428332 51.52
7.322400526130865 51.2456
7.344745183422596 51.7194
7.367107550224791 51.4419
7.389452767901992 51.9789
7.411815697249891 51.9821
7.434161478756298 51.3104
7.456524974096713 51.3132
7.478888753837185 51.5772
7.501235387657368 52.8112
7.523599738562711 56.9667
7.545946944825532 64.9664
7.568311870344528 68.5111
7.5906770845765665 62.6211
7.613025156078678 56.6011
7.635390950099687 53.9714
7.657739602662809 52.9359
7.680105979923558 52.8769
7.702472650212829 53.6548
7.724822180948224 53.2399
7.747189439655568 53.5002
7.769539560075357 54.1997
7.791907410653562 54.6824
7.81425812420825 54.5401
7.836626570110925 54.6535
7.858995315087906 55.4062
7.881346924933401 55.5284
7.903716270417482 56.3678
7.926068482028405 56.496
7.948438431475253 57.3487
7.9708086843180235 57.7508
7.993161805171116 58.0044
8.015532667162402 58.3518
8.037886398416653 59.6905
8.060257873014221 60.256
8.082629655331942 60.647
8.104984308787587 61.4017
8.127356708900503 62.57899999999999
8.149711981398308 63.3501
8.172085002766314 63.8672
8.194458336181368 64.7989
8.216814543847752 65.8815
8.23918850371002 66.9643
8.26154533906492 68.1081
8.283919928836452 70.1032
8.306277395339652 71.3499
8.328652618483376 73.279
8.351028159736202 75.4715
8.373386579575245 77.4534
8.395762759396959 80.2846
8.418121819038275 83.586
8.440498640894003 88.9495
8.462875785192262 96.6902
8.485235811156207 113.163
8.507613602688501 180.648
8.529974277114228 385.50300000000004
8.552352719347912 626.739
8.574731488360351 773.342
8.59709314210385 816.427
8.619472567021075 959.7080000000001
8.64183487789147 1310.81
8.664214962183097 1769.59
8.686577933647762 1702.61
8.708958680784317 1077.93
8.731339760774953 481.435
8.753703729764451 197.27900000000002
8.77608547780821 122.26
8.798450116065078 106.116
8.820832535634787 98.7269
8.843215292401656 94.1619
8.865580941199045 91.5608
8.887964374703538 89.5396
8.910330701447199 87.6726
8.932714815164482 86.5438
8.955099270424924 84.7893
8.977466620733543 83.9373
8.999851761421976 83.6307
9.022219798361645 82.5772
9.04460562795561 82.3772
9.066991803441677 81.8002
9.089360876979615 81.8254
9.111747746589993 81.7687
9.13411751544971 80.7653
9.156505082664324 80.5724
9.178875550323522 81.1396
9.20126381862328 82.3554
9.223652438908596 89.2776
9.246023961427412 101.545
9.26841328802173 105.57600000000001
9.290785518039224 99.0443
9.313175554425882 89.9298
9.335565947154315 83.7955
9.357939245086508 81.9463
9.380330352834827 81.7183
9.40270436697103 81.5409
9.425096193225055 81.403
9.447488380180165 82.5987
9.469863475295412 82.7379
9.492256385987508 83.0746
9.514632206018318 83.589
9.537025843935714 83.912
9.559402392368193 84.1543
9.581796761000229 85.7147
9.604191496441521 85.4555
9.626569144158516 86.2286
9.648964615551032 86.8309
9.671343000390081 87.8405
9.693739211225699 88.9767
9.716135793237463 89.9457
9.738515290448102 90.7376
9.760912617143402 92.0188
9.783292860202891 93.4255
9.805690935076182 94.803
9.828089385495742 95.8765
9.850470754023561 98.1509
9.872869957865444 100.90899999999999
9.89525208097539 104.501
9.917652041736662 107.93299999999999
9.940052382417589 114.62299999999999
9.962435644102392 132.72899999999998
9.984836746950979 192.15
10.007220771957746 356.478
10.029622640473708 568.4630000000001
10.052007432299963 685.566
10.074410069984072 701.0110000000001
10.096813093716005 737.148
10.119199042482517 892.83
10.141602840636468 1218.2
10.163989564971628 1565.24
10.186394141051062 1590.01
10.208799107559706 1104.1
10.231187001965623 561.293
10.253592751657669 242.78099999999998
10.275981430388155 141.29399999999998
10.298387966769793 118.887
10.320794897965431 112.709
10.343184759907361 108.39299999999999
10.36559248305461 105.738
10.387983138083852 104.889
10.410391656691655 107.09700000000001
10.432800574501677 122.402
10.455192425893369 167.66099999999997
10.47760214443012 221.86
10.499994797678786 251.692
10.522405320453982 252.554
10.54479877906917 258.78
10.567210109595656 294.129
10.5896218454736 365.236
10.612016518879773 464.269
10.634429067781074 496.027
10.656824555333241 399.91900000000004
10.679237920773568 253.206
10.701651695961992 144.942
10.724048411481384 104.32799999999999
10.746463008485165 92.3441
10.768860546937125 87.0438
10.791275969274796 83.4459
10.81369180576079 81.9315
10.836090585366925 80.4824
10.858507252467449 78.9119
10.88090686379991 77.5383
10.903324365036394 76.5439
10.925724811614439 75.2012
10.948143150509463 75.2082
10.970561909719066 74.0078
10.992963615930844 72.8804
11.015383218085756 72.36399999999999
11.037785768347074 71.3442
11.06020621697282 70.8739
11.082627090322113 70.3091
11.105030913430326 69.4912
11.12745263854165 69.1246
11.149857314510728 68.3241
11.172279894912576 68.1449
11.194702904450653 67.1933
11.217108866490921 66.3494
11.239532736615194 66.0394
11.26193956033512 65.7938
11.284364294577085 65.3908
11.306789462371718 64.7587
11.329197585398376 64.7299
11.351623622610898 64.7667
11.37403261614354 63.8689
11.396459526308487 63.934
11.418869393879497 63.553000000000004
11.441297180532617 63.353
11.463725406927658 62.7657
11.486136592353875 62.4418
11.508565700543707 61.88
11.530977768845315 62.1101
11.553407762368774 61.6376
11.575838200059769 61.6337
11.598251599479612 61.2707
11.620682927815501 61.3433
11.64309721895548 61.2944
11.665529441478206 61.3802
11.687962112597958 61.1083
11.710377748130886 60.9721
11.732811318753434 60.7669
11.755227854859067 60.7887
11.777662328529495 60.705
11.800079768750786 60.501999999999995
11.822515149015453 60.452
11.844950984084935 60.7912
11.867369787303163 60.6463
11.889806534289491 61.1324
11.912226250487029 62.3415
11.934663912939751 64.6198
11.9571020346363 67.3266
11.979523127133968 67.2728
12.001962169624331 66.5593
12.024384183972964 65.6969
12.046824150809913 68.1275
12.069264581333726 77.9559
12.091687985297767 91.5892
12.11412934550045 102.82799999999999
12.136553680195208 107.383
12.158995973632788 107.866
12.181438735204349 110.42
12.20386447284199 119.374
12.226308172985636 137.162
12.24873485024193 164.597
12.271179492516982 186.8
12.293607112949127 184.21900000000002
12.316052700916226 148.618
12.338498763250042 108.00200000000001
12.360927805303868 78.2772
12.383374818673879 67.3409
12.405804812803074 64.1843
12.428252780773262 63.2567
12.45070122756722 62.8822
12.473132656675375 62.273999999999994
12.49558206341869 62.4877
12.518014453510101 62.424
12.540464823770117 62.6835
12.562915677315177 62.8104
12.58534951575545 63.0682
12.607801338171472 62.7994
12.630236146511358 63.176
12.652688941369085 63.7319
12.675124723177234 63.7407
12.697578494048786 64.1025
12.720032754458185 64.4609
12.742470003354093 65.1854
12.764925245138771 65.5118
12.787363476431278 66.0272
12.809819703166806 66.428
12.83227642391173 66.8602
12.854716135692716 67.5306
12.877173846755147 68.8029
12.899614549869717 69.2844
12.9220732548287 70.1077
12.94453245827299 70.6026
12.966974655289818 71.6276
12.989434858002571 72.5351
13.011878055298721 73.4079
13.034339260862497 74.5586
13.056800969391883 76.0592
13.079245674017244 79.0714
13.101708390774869 81.0352
13.12415410463411 86.5279
13.146617833206086 103.68299999999999
13.169064559883248 135.22899999999998
13.191529303857127 168.295
13.213994557076367 190.463
13.236442809902437 194.888
13.258909083908291 193.59900000000002
13.28135835851934 199.479
13.30382565690295 219.419
13.326293469022952 259.651
13.348744283242008 320.214
13.371213125129904 379.463
13.39366497011003 390.184
13.416134845360597 329.57800000000003
13.438605238843131 233.433
13.46105863690397 155.72799999999998
13.483530069144786 124.73
13.505984506951902 132.656
13.528456981549432 158.284
13.550929978879088 176.61599999999999
13.573385983253365 182.842
13.595860028340867 179.49200000000002
13.618317081455832 179.007
13.64079217790333 189.86700000000002
13.663250283359057 213.67700000000002
13.685726434770173 253.543
13.708203115221277 308.308
13.730662806148091 337.56199999999995
13.75314054697177 319.19
13.775601299246777 250.479
13.798080104050406 167.977
13.820559442405358 111.875
13.843021793671388 89.615
13.865502201420897 82.3201
13.887965623051947 80.3657
13.910447103807167 78.581
13.932929122629764 77.2709
13.955394156785959 76.7162
13.977877254034569 75.432
14.000343367582113 74.5692
14.022827546871707 73.8621
14.045294743423524 72.898
14.06778000837062 72.4169
14.090265817715476 72.5824
14.112734645763819 72.7922
14.13522154619454 73.7894
14.157691466286913 74.9725
14.180179461423874 74.6123
14.202668005486178 73.4801
14.22513957064374 71.7908
14.247629214846473 70.464
14.270101881097517 69.3833
14.29259262906496 68.6507
14.315083930490205 68.4264
14.337558255389705 68.0128
14.360050666019726 68.2466
14.382526101071944 67.9068
14.405019624534942 67.90100000000001
14.427513705993134 67.4589
14.449990813291825 67.5032
14.47248601302899 67.5974
14.49496423954951 67.6306
14.517460561197822 67.7633
14.539939910570322 67.4452
14.562437357763558 67.6328
14.58493536931253 67.8401
14.607416409993311 67.9496
14.62991555254159 68.1612
14.652397725157423 68.3301
14.674898002342799 68.8234
14.697398848433282 69.1769
14.719882725991326 69.9359
14.74238471217934 70.553
14.764869730765593 73.6966
14.787372860692983 80.6527
14.809876564079925 94.2005
14.83236330125751 108.59
14.854868153850365 117.74600000000001
14.877356041159485 120.311
14.899862046604186 119.275
14.922351087688757 119.838
14.944858249632887 124.575
14.967365991421232 135.322
14.989856770231246 152.24200000000002
15.012365673994204 178.275
15.03485761569738 201.105
15.05736768508665 206.687
15.07987833888692 186.77
15.102372032001655 150.264
15.124883856909658 108.587
15.14737872204565 84.8088
15.169891721717274 74.6014
15.192405310371893 71.3477
15.214901940621196 69.9123
15.237416709527137 68.5946
15.259914520936249 68.0949
15.282430473753607 67.3761
15.304947020131227 66.5363
15.327446610371178 66.3937
15.349964346154254 65.9389
15.372465126703139 65.7976
15.394984055556009 65.5642
15.417486030076159 65.5923
15.44000615566487 65.3354
15.462526881230803 65.1246
15.485030653812652 65.041
15.507552581617434 64.7353
15.530057557334603 64.73
15.55258069104857 64.6658
15.575104429329837 65.1708
15.597611216864632 64.8456
15.620136166564563 65.3808
15.6426441664095 66.2403
15.665170331202765 68.0404
15.687697105158826 73.6959
15.710206930593545 84.495
15.732734925158933 96.0306
15.755245972089478 104.431
15.77777519094324 107.579
15.800287463046663 106.696
15.822817909869592 105.634
15.84534897229804 107.176
15.867863089299354 114.40700000000001
15.890395385222186 124.95100000000001
15.912910736597423 141.933
15.935444269699861 164.317
15.957978423016485 182.15599999999998
15.980495633101265 181.278
16.003031029129367 160.806
16.02554948280019 126.32700000000001
16.048086125229432 94.5396
16.070623392487107 75.9874
16.09314371869582 67.29
16.11568223789321 63.515
16.13820381691126 61.7858
16.160743591742527 60.7702
16.183283996022084 60.0043
16.205807461423195 58.9507
16.228349126881973 58.3873
16.25087385432698 58.1879
16.27341678466365 57.4825
16.29594277784926 57.3452
16.31848697676433 56.684
16.341031811604868 56.1976
16.36355971058487 56.0722
16.3861058195587 55.8495
16.40863499352978 55.4632
16.431182380342005 55.2067
16.453730407713202 55.0353
16.476261501364792 54.7052
16.498810812136167 54.6474
16.52134319004079 54.7256
16.54389378792203 54.3575
16.566445031001553 54.232
16.588979342490088 54.0962
16.61153187824822 54.0871
16.634067483263312 53.8737
16.656621315414416 53.7009
16.679175797408888 53.3297
16.701713349928728 53.4634
16.72426913389191 53.8298
16.74680798922351 53.5272
16.76936507887444 53.419
16.791905240734874 53.6301
16.814463639794468 53.5636
16.837022695210294 53.6922
16.859564824093756 53.7368
16.882125194503903 53.8844
16.904668639217885 54.3036
16.927230328348003 54.1134
16.949792678493612 54.555
16.972338104193863 54.6408
16.994901778652235 54.5059
17.017448529496576 54.669
17.040013531998152 54.7362
17.06257920018044 55.1047
17.0851279459922 56.1817
17.107694947817667 58.4646
17.130245028099072 60.6433
17.15281336730298 62.8006
17.17536478578733 64.1661
17.19793446610687 64.2762
17.220504818648422 64.0896
17.243058251703697 63.5759
17.265629950971032 64.7141
17.288184731571736 66.378
17.310757781306908 69.3652
17.33333150794385 72.1787
17.355888317140174 76.6128
17.37846339986244 80.4526
17.401021565958885 81.315
17.42359800851343 78.3139
17.44617513265564 72.67
17.468735341390783 66.7103
17.491261035594565 61.8283
17.51396340099364 59.4178
17.536490463869136 58.6402
17.559018209820174 58.2928
17.58154663977963 58.4848
17.604251766089718 58.7147
17.626781572227713 58.7649
17.64931206518155 58.674
17.671843245885103 59.1175
17.69455114821572 59.3858
17.717083712612634 59.5871
17.739616967569667 60.0733
17.762150914021706 60.8492
17.78486160749854 60.9766
17.807396945166804 61.6388
17.829932977143503 62.3866
17.85246970436452 63.4465
17.875183204129467 66.1138
17.897721330097664 71.6645
17.920260154126645 78.8959
17.942799677153296 84.2425
17.9655159983646 87.3002
17.988056927677544 87.8809
18.010598558807683 87.4282
18.033140892692916 87.3407
18.05586005052525 88.6962
18.07840379824407 92.1577
18.10094825154059 97.9466
18.12366954819864 106.963
18.146215420998306 120.177
18.16876200220057 135.079
18.191309292745153 144.834
18.214033452627167 145.558
18.236582170236648 133.118
18.259131600016456 115.477
18.281681742907335 98.2765
18.304408781233683 87.5359
18.32696035875955 83.3548
18.349512652227624 83.1838
18.372065662579683 85.9878
18.394795594587553 90.7962
18.41735004715306 96.4556
18.43990521943684 101.116
18.46246111238171 102.37700000000001
18.485193953325208 97.4421
18.507751296070428 88.5176
18.530309362314178 78.671
18.552868153000343 70.4436
18.57560391815056 65.3411
18.59816416623245 62.9748
18.620725141597372 61.7657
18.643286845190268 61.1105
18.666025549835414 60.5887
18.688588718427933 59.8587
18.711152618092243 59.6579
18.73389353884365 59.1206
18.75645890921984 58.7157
18.77902501351406 58.1971
18.801591852673102 58.3089
18.824335739722738 57.8357
18.846904057212626 57.6467
18.8694731124168 57.3565
18.89204290628315 57.4102
18.914789774966803 56.9843
18.937361054791623 56.8017
18.959933076131318 56.4408
18.982505839934877 56.4195
19.00525570560582 56.4245
19.027829963004184 56.2658
19.05040496572238 56.1721
19.072980714710468 56.2285
19.095733592739563 56.3747
19.11831084296757 56.8552
19.140888842324735 58.0662
19.16346759176222 59.151
19.18622349753803 60.4743
19.208803755869358 61.5401
19.231384767143577 61.8463
19.253966532312948 61.6373
19.276725481241822 61.7198
19.29930876296784 61.7811
19.3218928014549 62.1526
19.34465404436217 63.3576
19.36723960516257 65.0945
19.389825925592426 66.8509
19.412413006605938 69.5925
19.43517731967805 72.0219
19.457765930683355 73.641
19.48035530514408 72.8455
19.50294544401556 69.8427
19.525712842708348 64.8839
19.54830451925909 60.5385
19.570896963095727 56.479
19.593490175174704 54.625
19.616260674962184 53.813
19.638855432416964 53.3496
19.661450960992624 53.4606
19.68404726164677 53.1406
19.706820878021247 52.8899
19.729418731756834 53.0753
19.752017360452857 52.7858
19.77461676506804 52.8955
19.797393513540218 52.903999999999996
19.819994478951667 53.0447
19.84259622316767 54.2596
19.8651987471481 55.6417
19.887978643247177 56.4756
19.91058273574792 57.1282
19.933187610901943 58.0142
19.955969879466828 58.0703
19.97857632894404 57.7046
20.00118356396599 57.6628
20.023791585494575 57.9424
20.046577028914875 58.8538
20.069186632506966 60.3049
20.091797025500632 62.3941
20.114408208858933 65.1658
20.137196842715273 68.1317
20.159809615886765 70.8849
20.18242318232135 71.7348
20.20503754298326 71.2337
20.227829382875154 68.8208
20.250445341109344 65.3338
20.27306209647285 62.1513
20.29567964993108 60.2112
20.31847471147704 59.4701
20.34109387027612 60.0338
20.363713830075454 61.3287
20.386334591841646 63.1274
20.409132890679302 64.2963
20.431755265564437 64.2695
20.454378445325528 62.5378
20.477002430930366 59.6292
20.499803982716553 56.4333
20.522429589228004 53.6802
20.54505600449589 51.6378
20.567683229489194 50.7822
20.590488049900088 50.0402
20.61311690359731 49.7849
20.63574656993626 49.5678
20.658553853717297 49.5088
20.681185154618298 49.3543
20.703817271080066 49.208
20.72645020407368 48.95399999999999
20.749260783967177 48.8372
20.771895359337133 48.9547
20.794530754161617 48.8585
20.817166969412938 48.7253
20.83998086114876 48.7038
20.86261872660049 48.4911
20.885257415405402 48.4542
20.90789692853701 48.2059
20.930714147864748 48.1339
20.953355319030678 48.2963
20.97599731745334 48.4171
20.99864014410749 48.3555
21.021460706796564 48.4546
21.044105199328826 48.8108
21.06675052302631 49.1417
21.089396678865015 48.9004
21.112220600704806 48.9891
21.134868430275347 48.8434
21.15751709492456 48.823
21.180166595629693 48.8241
21.202993892429635 48.9296
21.22564507473034 49.1742
21.24829709602816 49.4457
21.27112693608965 49.8476
21.293780644891275 50.5942
21.316435195634053 50.8691
21.339090589297417 50.9504
21.361923832041875 50.8553
21.384580921090404 50.2733
21.407238856007325 49.4585
21.429897637773326 48.9906
21.45273429906592 48.6461
21.475394784108598 48.2562
21.498056118951983 48.1288
21.520718304578022 48.2651
21.543558400304388 48.3624
21.566222297108816 48.6005
21.58888704765135 48.5524
21.61155265291521 48.9381
21.63439619898156 49.8422
21.657063523335786 51.0148
21.67973170537063 52.2184
21.7024007460706 52.827
21.72524775840385 53.3099
21.747918526116475 53.5494
21.770590155457388 53.6176
21.79326264741238 53.5048
21.816113141960237 53.7307
21.838787368860547 54.5121
21.861462461341976 55.3472
21.884315579735777 56.8694
21.90699241312273 58.4137
21.92967011506078 60.2123
21.95234868653799 62.4508
21.9752053151131 64.4972
21.997885635446785 65.7661
22.020566828293532 65.5974
22.04324889464272 63.8618
22.066109049404666 61.0105
22.088792872571794 58.1326
22.111477572219204 55.8609
22.1341631493376 54.8395
22.157026846313123 54.5308
22.179714188221507 55.1344
22.202402410582668 55.8579
22.22509151438863 55.6553
22.24795876962584 54.8733
22.270649646204486 53.9776
22.293341407213727 52.8261
22.316034053646906 51.1311
22.338904883215342 49.9838
22.36159931041458 49.4177
22.38429462602756 48.7222
22.40699083104897 48.5607
22.429865251039757 48.3913
22.452563244831367 48.3768
22.47526213102522 48.3237
22.49813925616515 48.4085
22.520839937143307 48.3168
22.543541513520587 48.3023
22.56624398629403 48.2383
22.589124730075895 48.2837
22.611829005656723 48.573
22.63453418063466 48.3001
22.657240256008077 48.6141
22.680124634582935 49.0833
22.70283252079775 49.8636
22.725541310413075 50.666000000000004
22.74825100442868 51.0336
22.771139033969575 51.6149
22.79385054687155 51.5822
22.81656296718292 51.5009
22.83927629590484 51.251000000000005
22.862167992606945 51.3839
22.88488314827121 51.5545
22.907599215359284 51.8004
22.93031619487366 52.1088
22.953211574954405 52.7125
22.975930389478226 53.5351
22.998650119445763 54.6446
23.02137076586092 55.8399
23.044269845560063 57.0049
23.06699233506288 57.8597
23.089715744034912 57.5159
23.112617610931565 56.4538
23.135342869061212 54.6443
23.158069049684816 52.7746
23.1807961538087 50.8423
23.20370174880544 49.6221
23.226430710184808 49.2286
23.249160598093425 48.7301
23.271891413539002 48.9032
23.294800752937697 49.313
23.31753343374794 50.1911
23.340267045128353 50.5205
23.36300158808808 51.2775
23.38591468821339 51.5305
23.408651104658304 51.5758
23.431388455719986 51.3293
23.454126742409 51.0357
23.4770436196085 50.9783
23.499783787914662 51.2665
23.522524894889884 51.2414
23.54526694154616 51.4813
23.56818761219047 52.1938
23.59093154860734 52.9603
23.613676427751283 54.2743
23.636422250635754 55.4762
23.659346731118656 56.6576
23.68209445191868 57.5267
23.704843119509587 57.2586
23.72759273490623 55.9355
23.750521041644767 53.9804
23.77327256312355 51.6357
23.796025035462787 49.3053
23.818956224555475 47.6417
23.841710609113413 46.6908
23.86446594758979 46.0892
23.887222241002014 45.6628
23.910157285144578 45.232
23.932915498962537 45.3157
23.955674670778713 45.1094
23.978434801611975 44.8422
24.001373717286125 44.7624
24.024135776723917 44.5851
24.046898798245582 44.4731
24.06966278287146 44.244
24.092605586582614 44.1093
24.115371508023642 43.9951
24.1381383956401 43.7066
24.16090625045381 43.7635
24.183852958731244 43.6631
24.206622758582608 43.6329
24.229393528706886 43.3576
24.252165270127392 43.3116
24.27511589952438 43.3203
24.297889594216997 43.2079
24.32066426328598 43.1683
24.34343990775613 43.1548
24.36639447485003 43.0782
24.38917208083877 42.96
24.41195066531332 42.8971
24.43490819850244 42.9188
24.457688750692377 42.6988
24.48047028445616 42.5011
24.503252800821233 42.6505
24.526214300784112 42.6077
24.548998793132213 42.6681
24.57178427117417 42.5665
24.59457073593893 42.5828
24.617536219319863 42.6379
24.64032466834748 42.7805
24.663114107195035 42.7375
24.685904536893013 42.6616
24.708874020360852 42.7601
24.731666442613744 42.5078
24.754459858818787 42.3816
24.777254270007962 42.3561
24.80022777025625 42.0715
24.82302418230472 41.9762
24.845821592443674 42.0914
24.86862000170663 42.101000000000006
24.891597535453727 42.0369
24.914397953892728 42.4339
24.93719937456671 42.3147
24.96000179851076 42.3678
24.98298338249997 42.4444
25.00578782394922 42.5168
25.028593271784167 42.533
25.05157790644186 42.8102
25.07438537804115 42.9484
25.097193859145293 43.1482
25.120003350792075 43.3057
25.142992065061257 43.6741
25.165803588823465 43.7827
25.18861612625217 43.75899999999999
25.211429678386736 44.0442
25.234422489079968 44.2076
25.257238081693636 44.3502
25.280054692141732 44.4473
25.3028723214652 44.4485
25.325869245420463 44.3121
25.348688923599397 44.2637
25.371509623787006 44.1104
25.394331347025812 44.1334
25.41733240110666 44.478
25.440156181590016 44.6516
25.46298098826268 44.648
25.48580682216873 44.3734
25.50881202326435 43.7435
25.53163992281684 43.105
25.55446885274561 42.2573
25.577298814096377 41.5045
25.600308179121807 41.1343
25.623140214533745 41.0054
25.64597328451537 40.7984
25.66898578564376 40.614000000000004
25.691820936010206 40.5354
25.714657124097695 40.5441
25.737494350954734 40.444
25.760511045684957 40.2958
25.783350361364224 40.6057
25.806190718969255 40.7019
25.82903211955018 40.7867
25.852053024868923 40.8649
25.874896522722523 40.9686
25.897741066713106 40.6492
25.920586657892454 40.6617
25.943611790812668 40.5966
25.966459487728237 40.6113
25.989308234998564 40.4257
26.01215803367705 40.6584
26.03518741123814 40.6782
26.05803932412957 40.6783
26.080892291600094 40.6633
26.10374631470478 40.8764
26.12677995397268 40.9709
26.14963609978026 41.4134
26.172493304397875 41.4875
26.19535156888223 41.7659
26.218389486949604 41.7269
26.241249882640123 41.5619
26.26411134137826 41.1883
26.28715248187403 41.088
26.31001607820869 40.7189
26.3328807407756 40.5167
26.35574647063438 40.6997
26.37879191991473 40.5799
26.401659795896734 40.580999999999996
26.424528742360263 40.6147
26.447398760366614 40.6286
26.470448535598294 40.4908
26.49332070826805 40.4173
26.516193955675355 40.5994
26.53906827888316 40.7053
26.562122397260108 40.7134
26.584998883685063 40.91
26.607876449110325 41.0313
26.63075509460056 41.0654
26.65381357334404 41.2382
26.67669439061878 41.4069
26.699576291163382 41.6642
26.722459276044212 42.1166
26.745522132402975 42.1623
26.768407297649354 42.3306
26.791293550442003 42.0773
26.814180891848974 41.7862
26.837248143099337 41.2406
26.860137673466657 41.1238
26.88302829566349 40.7288
26.90592001075963 40.514
26.92899167420566 40.3515
26.951885586870763 40.1804
26.974780595655517 40.0915
26.99785558178161 39.8729
27.020752794605112 39.6079
27.043651106772522 39.229
27.06655051935668 39.1025
27.089629948036183 38.8561
27.112531573292053 38.8585
27.135434302194138 38.9508
27.158338135817015 38.7177
27.181422024430987 38.66
27.204328079372566 38.5623
27.22723524226965 38.6161
27.250143514198573 38.6606
27.273231880156334 38.6366
27.296142382065014 38.4951
27.319053996245536 38.3877
27.341966723775965 38.4212
27.365059584515222 38.4765
27.38797455070062 38.3777
27.410890633481237 38.3694
27.433807833936918 38.1922
27.456905206923906 38.296
27.47982465472398 38.2214
27.502745223449743 38.2355
27.525666914182825 38.3022
27.548768816912457 38.3346
27.571692763693633 38.3053
27.59461783573812 38.3289
27.617723149491244 38.3285
27.640650484125285 38.4261
27.66357894728264 38.4533
27.686508540048052 38.4153
27.709618414237887 38.3998
27.732550278321757 38.1973
27.755483275279115 38.2798
27.778417406196485 38.336999999999996
27.801531858397514 38.2425
27.824468269376716 38.0188
27.847405817586786 37.9111
27.870344504116094 38.0725
27.893463551932008 38.077
27.916404527281053 38.2769
27.93934664422563 38.1634
27.962289903855886 37.948
27.98541356491974 38.1796
28.00835912214229 38.2123
28.03130582533231 38.3934
28.054253675581805 38.5426
28.077381967556104 38.4549
28.100332124185126 38.5892
28.123283431160893 38.7991
28.146235889577238 38.97
28.169368830154156 39.0603
28.192323603752033 39.0824
28.215279532083304 38.7163
28.238415973016764 38.5196
28.261374223145094 38.4009
28.284333631303806 38.0595
28.307294198589954 37.9584
28.330435319167677 37.6389
28.353398217078915 37.5295
28.376362277420153 37.2618
28.39932750129032 37.1248
28.422473319286713 36.8982
28.44544088262495 36.8583
28.468409612800283 36.4898
28.491379510913497 36.0899
28.51453004413313 36.1512
28.53750229057244 36.0527
28.56047570826344 35.91
28.583450298308804 35.8682
28.606605564586562 35.6669
28.629582511831156 35.814
28.65256063474956 35.7065
28.675539934446338 35.6349
28.698699951647605 35.6277
28.72168161743193 35.4252
28.74466446331978 35.4585
28.767648490417624 35.3461
28.790813276438353 35.2495
28.813799678527303 35.2146
28.836787265157085 35.2723
28.859955641890075 35.1458
28.882945610203045 35.1765
28.905936766392035 35.0428
28.928929111566863 35.1532
28.952102288520145 35.1919
28.975097024308607 35.1504
28.998092952423807 35.0223
29.021090073977508 35.0694
29.04426806913204 35.0497
29.067267590245258 34.9402
29.090268308143695 34.8932
29.11327022394099 34.7604
29.13645305530891 34.6105
29.159457379627167 34.4993
29.18246290519685 34.4065
29.20546963313352 34.2191
29.22865731875826 34.1396
29.25166646419296 34.2193
29.27467681535305 34.0351
29.29768837335608 34.0991
29.320880931312562 34.1302
29.34389491580634 33.9985
29.366910110507334 33.8818
29.38992651653503 33.8819
29.41312396492981 33.9282
29.436142806456754 33.9556
29.45916286268059 33.8965
29.48236399319994 33.9759
29.50538649169417 33.9913
29.528410208259935 34.0393
29.55143514402014 33.7497
29.574641196749695 33.6937
29.597668583816574 33.5867
29.6206971934585 33.3293
29.64372702680042 33.2827
29.666938019934474 33.1756
29.689970313635285 33.0114
29.713003834422636 32.8681
29.73603858342347 32.8492
29.759254535188578 32.7407
29.78229175361658 32.7009
29.80533020365064 32.6761
29.82836988641968 32.7333
29.85159081507472 32.5994
29.874632976355343 32.6367
29.89767637376955 32.6469
29.920721008448314 32.5414
29.9439469322847 32.5901
29.96699405457564 32.4469
29.9900424175358 32.4845
30.013092022298157 32.3353
30.03632295963995 32.1833
30.059375061131373 32.3611
30.08242840783577 32.4101
30.105483000888153 32.4453
30.128718970092244 32.3487
30.151776069006917 32.3004
30.17483441768648 32.2082
30.198074175317235 32.18
30.221135036724256 32.28
30.24419715131772 32.1592
30.267260520236203 32.0883
30.290505341942243 32.2464
30.313571232750228 32.2273
30.336638381310948 32.3179
30.35970678876503 32.3567
30.38295669299435 32.2722
30.40602763151657 32.2534
30.429099832366074 32.2052
30.452173296685572 32.1155
30.47542830191959 32.0942
30.498504306502497 32.0089
30.521581577995562 32.0329
30.544660117543582 32.0367
30.56792024229725 31.9415
30.59100133132069 31.9634
30.614083691845494 31.9514
30.637167325018545 31.9926
30.660432587840603 31.9206
30.683518779717886 31.8494
30.70660624769615 31.945
30.729694992924372 32.0262
30.75296541239743 32.0102
30.77605672557558 32.0987
30.799149319462742 32.1328
30.8224236211637 32.16
30.845518789950724 32.0703
30.868615242910597 32.0441
30.891712981195973 31.9271
30.91499247215866 31.909000000000002
30.938092794619365 31.6385
30.96119440587579 31.6806
30.984297307082752 31.6854
31.00758200598383 31.4787
31.030687500658694 31.3224
31.053794288760695 31.32
31.076902371446767 31.2185
31.100192296997445 31.2039
31.12330298246119 31.125
31.14641496599209 31.0397
31.169528248749216 30.9813
31.19282341969534 30.9287
31.215939314557186 30.9398
31.239056512134788 30.9979
31.262175013589378 30.9138
31.28547544871168 30.8587
31.30859657161541 30.7673
31.331719001892175 30.8061
31.35484274070538 30.8233
31.378148458819545 30.8089
31.401274828443725 30.6867
31.424402510106933 30.6879
31.447712205419993 30.7463
31.470842524931633 30.4579
31.493974159989783 30.6239
31.51710711176168 30.7276
31.54042212308802 30.7279
31.563557722100917 30.7291
31.586694641341655 30.5979
31.609832881979628 30.7007
31.63315322823208 30.6969
31.656294125521327 30.5488
31.679436347728515 30.5203
31.70257989602529 30.549
31.725905596152327 30.3011
31.74905181052835 30.1478
31.772199354521323 30.3123
31.79534822930507 30.1624
31.818679302290967 30.1239
31.84183085259981 30.1338
31.864983737233473 30.0825
31.88813795736804 30.09
31.911474422233013 29.9422
31.934631327356435 29.9292
31.9577895715215 29.9182
31.980949155906522 29.8312
32.004291031706956 29.936999999999998
32.027453310562606 29.9367
32.05061693318573 29.8172
32.07396288236386 29.8515
32.09712920658542 29.8055
32.12029687812702 29.6798
32.14346589817093 29.6047
32.166817291729984 29.587
32.18998902288583 29.5693
32.21316210610336 29.3998
32.23633654256711 29.3746
32.259693399663725 29.3908
32.282870556771144 29.2155
32.30604907069099 29.2716
32.329228942610065 29.1313
32.35259128243769 28.965
32.375773884550505 28.9376
32.398957848235646 29.0044
32.422143174682176 28.8562
32.445511016471215 28.8369
32.468699082679954 28.7372
32.49188851523011 28.6627
32.51507931531304 28.5802
32.538452678331 28.5443
32.56164622776311 28.5312
32.58484114831493 28.346
32.60803744118015 28.3906
32.631416344731896 28.3752
32.654615396551876 28.3707
32.67781582427913 28.3341
32.701198898634416 28.2746
32.72440209253756 28.2743
32.747606665947124 28.2704
32.77081262006088 28.1223
32.79420126883317 28.1296
32.81740999876112 28.1559
32.840620112999424 28.0763
32.86383161274818 28.0495
32.88722585534586 27.9308
32.91044014056596 28.0228
32.933655814909734 27.8883
32.95687287957963 27.9332
32.98027273544904 27.7607
33.00349259526636 27.7836
33.026713849030116 27.8199
33.04993649794511 27.8282
33.073341986570746 27.7557
33.09656744032826 27.719
33.11979429286444 27.6757
33.14302254538647 27.551
33.166433686291185 27.6186
33.18966475336992 27.581999999999997
33.212897224069096 27.5853
33.23613109959831 27.5125
33.259547912343415 27.465999999999998
33.2827846121627 27.4728
33.306022720453775 27.5102
33.32926223842861 27.3763
33.352684742614166 27.3248
33.37592709463173 27.3672
33.399170859982064 27.3538
33.422597648419426 27.3227
33.44584425514446 27.1613
33.46909227885668 27.182
33.4923417207723 27.0391
33.51577423505344 27.0754
33.539026528130385 26.9857
33.56228024307245 26.9019
33.585535381098246 26.8115
33.60897364093058 26.7592
33.63223163992385 26.8061
33.6554910656699 26.624000000000002
33.678751919389796 26.6919
33.702195944520106 26.5419
33.72545966903325 26.5555
33.74872482519663 26.4121
33.771991414233746 26.4646
33.79544122444841 26.408
33.81871069412428 26.3662
33.84198160035767 26.3169
33.86525394437455 26.3237
33.88870955949969 26.1879
33.911984794020626 26.243000000000002
33.93526147001624 26.2176
33.958539588715006 26.2013
33.98200102861669 26.1266
34.0052820477047 26.081999999999997
34.02856451319451 26.0832
34.05203033759056 25.9607
34.07531571090147 26.0039
34.09860253431845 26.0627
34.121890809074316 25.941999999999997
34.145362493118924 25.898000000000003
34.16865368561615 25.7484
34.191946333164054 25.6863
34.21524043699793 25.6771
34.23871800066799 25.6665
34.26201503218366 25.5354
34.28531352370466 25.561999999999998
34.30861347646881 25.4625
34.33209693978188 25.3982
34.3553998301885 25.4218
34.378704185565205 25.4607
34.402010007152356 25.3999
34.42549939016683 25.3936
34.44880815937748 25.3031
34.472118398533134 25.2538
34.49543010887669 25.2573
34.51892543169198 25.1717
34.54224009966052 25.1949
34.56555624255917 25.1092
34.58887386163339 25.0373
34.61237514439016 24.9212
34.6356957311114 24.8792
34.65901779775809 24.8997
34.68252356662995 24.8102
34.705848608458616 24.8272
34.72917513396849 24.7685
34.75250314440949 24.695999999999998
34.77601490857862 24.5951
34.799345904259795 24.558000000000003
34.82267838863559 24.6232
34.846012362958525 24.63
34.869530142679984 24.5372
34.89286711232212 24.5457
34.91620557568269 24.4831
34.93954553401677 24.4589
34.9630693495876 24.4104
34.986412313340814 24.4337
35.00975677584668 24.4393
35.033102738362956 24.3717
35.05663261012228 24.3221
35.0799815881786 24.3378
35.10333207003229 24.2172
35.12668405694369 24.2353
35.150220005273056 24.1614
35.17357501786656 24.186
35.19693153931268 24.218000000000004
35.220289570874385 24.0631
35.24383161619786 24.1236
35.267192683604904 24.1775
35.290555264930376 24.017
35.314101899412165 24.0822
35.33746752422433 23.9501
35.36083466676374 23.8825
35.38420332829803 23.8104
35.407756095629054 23.8611
35.43112781085063 23.8753
35.45450104888391 23.7834
35.477875810999194 23.791
35.50143473172161 23.6909
35.52481255774625 23.8106
35.54819191167777 23.7973
35.57157279478914 23.7302
35.595137889488406 23.6794
35.61852184675279 23.6421
35.641907337029984 23.6386
35.665294361595684 23.5972
35.68886565090076 23.6062
35.7122557598848 23.6014
35.73564740699838 23.5914
35.759040593519934 23.5145
35.78261809810353 23.3485
35.80601437933051 23.3453
35.829412203814705 23.3731
35.85281157283719 23.1784
35.876395313415884 23.2626
35.8997977874528 23.1819
35.92320180988546 23.1086
35.946790244133936 23.103
35.97019737933222 23.0739
35.993606066789866 23.0475
36.01701630779276 22.9608
36.04061101440684 23.033
36.06402437852291 23.0108
36.08743930005611 22.9852
36.1108557802951 22.8359
36.13445678011326 22.8469
36.15787639383515 22.8286
36.18129757014299 22.813000000000002
36.20472031032821 22.7268
36.22832762423364 22.6964
36.25175350829375 22.6968
36.275180960119776 22.6592
36.298609981005924 22.6712
36.32222362992669 22.671
36.34565580510207 22.5954
36.36908955323448 22.4605
36.39252487562093 22.3749
36.416144880530226 22.4258
36.43958336764275 22.3892
36.463023432914625 22.3639
36.486465077645676 22.2836
36.51009145956204 22.4239
36.53353627947859 22.3212
36.55698268276811 22.2868
36.58043067073321 22.2853
36.60406345072071 22.1296
36.62751462435344 22.0813
36.65096738658405 22.0907
36.67460498210655 22.0958
36.69806093788647 22.1367
36.72151848619297 22.0698
36.744977628333636 21.994
36.76862165890998 22.0133
36.79208400512205 21.9759
36.81554794910557 22.0504
36.83901349217101 21.8872
36.862663978991606 21.8115
36.88613273667352 21.765
36.90960309738324 21.7803
36.933075062434064 21.7389
36.95673202673572 21.594
36.98020721697122 21.6807
37.003684015502365 21.6292
37.027162423645365 21.5459
37.050825886711465 21.5096
37.07430753063053 21.4763
37.09779078812467 21.4311
37.121275660513014 21.3698
37.144945643673694 21.3838
37.16843376245278 21.412
37.19192350009803 21.3931
37.215414857931435 21.2599
37.239091382563885 21.1853
37.262585997426164 21.1819
37.28608223645736 21.2455
37.309763684451696 21.1994
37.33326318851098 21.1058
37.356764320726555 21.1525
37.380267082425526 21.1276
37.40395510942588 21.1227
37.42746114683234 21.0348
37.45096881771841 21.0325
37.474478123414166 21.0704
37.49817275092816 20.8948
37.52168534303452 20.8967
37.54519957395567 20.8052
37.568715445024665 20.8394
37.592416694607714 20.8098
37.61593586281424 20.8106
37.63945667518264 20.759
37.66297913304891 20.6548
37.68668702630454 20.664
37.710212792059274 20.6389
37.733740207334854 20.5711
37.757269273470364 20.5564
37.780983832050374 20.5216
37.80451621684926 20.4932
37.82805025654007 20.4359
37.851585952464795 20.4179
37.8753071980695 20.3353
37.89884622345676 20.3061
37.92238690911902 20.2747
37.94611318753442 20.2101
37.969657210779765 20.2574
37.99320289834801 20.22
38.016750251586465 20.182000000000002
38.04048325513017 20.1218
38.06403395679343 20.1541
38.087586328183946 20.0566
38.11114037065203 19.9523
38.13488012115898 19.9998
38.1584375229181 19.9348
38.181996599821 19.9234
38.205557353221124 19.915
38.229303872575656 19.8608
38.2528679961576 19.8651
38.27643380031219 19.7921
38.30000128639589 19.7521
38.32375459653193 19.788
38.34732546371299 19.8009
38.37089801690786 19.6811
38.39447225747609 19.6101
38.418232380377425 19.5814
38.441810012983396 19.6031
38.46538933705673 19.5295
38.488970353960084 19.4998
38.51273731166058 19.5333
38.536321731567014 19.4775
38.55990784840681 19.4296
38.58367995004091 19.4358
38.60726947812959 19.3435
38.63086070726198 19.3957
38.654453638806274 19.3267
38.678232613930824 19.3042
38.70182896773327 19.2292
38.72542702806741 19.1594
38.7490267963045 19.1874
38.77281266709232 19.1329
38.79641586862214 19.1853
38.8200207821842 19.1304
38.843627409152944 19.158
38.86742019782782 19.076
38.891030269149255 19.0229
38.914642058016156 18.9993
38.938255565806124 18.9694
38.96205529464307 18.9145
38.98567225787121 18.9174
39.00929094417078 18.91
39.03291135492255 18.8538
39.05671804624804 18.8715
39.080341923549106 18.8237
39.103967529460334 18.8214
39.127594865365744 18.7328
39.15140854155791 18.6701
39.17503935514948 18.7155
39.19867190290282 18.647000000000002
39.22249083587951 18.5721
39.24612686969409 18.5742
39.269764641845306 18.5633
39.293404153722804 18.5454
39.317230110864074 18.4227
39.34087311998506 18.3964
39.36451787301696 18.4181
39.388164371352595 18.3224
39.41199737518003 18.3262
39.43564738196752 18.3661
39.45929913825317 18.3267
39.48295264543308 18.2707
39.506792718520884 18.1809
39.530449745387216 18.2018
39.55410852735203 18.188
39.57776906581474 18.1756
39.60161623079 18.1143
39.625280300200025 18.0875
39.64894613032202 17.975
39.67261372255866 18.0912
39.6964680021016 18.0633
39.72013913657293 18.008
39.74381203738292 18.05
39.76748670593756 17.9438
39.79134812278169 17.9281
39.81502634488497 17.925
39.83870633896685 17.8232
39.862388106436654 17.7783
39.88625668336918 17.7598
39.90994201572829 17.7836
39.933629125719285 17.7077
39.957503091207826 17.6565
39.9811937746168 17.7097
40.00488623990914 17.6858
40.02858048850006 17.6278
40.05246165409549 17.6179
40.076159487492085 17.5696
40.099859108448875 17.6039
40.123560518384345 17.5664
40.1474489070226 17.5339
40.171153913178564 17.4787
40.194860712584955 17.4392
40.2185693066637 17.4497
40.242464941335314 17.3162
40.26617714307655 17.2961
40.289891143772046 17.3745
40.3136069448471 17.327
40.33750984859743 17.3295
40.3612292688043 17.2909
40.3849504936829 17.2042
40.40867352466194 17.199
40.43258372059144 17.1645
40.45631038219906 17.1562
40.48003885420956 17.0879
40.503769138055105 17.0932
40.52768664931955 17.0938
40.55142057531802 17.0429
40.57515631746428 16.9991
40.599079334038514 16.9913
40.62281872700477 16.9469
40.64655994043941 16.871
40.67030297578061 16.9241
40.69423334835778 16.901
40.71798004609188 16.8492
40.74172857006355 16.8509
40.76547892171441 16.8358
40.7894166736039 16.8021
40.813170699248566 16.7205
40.83692655691388 16.7315
40.86068424804498 16.7066
40.884629402612525 16.7168
40.908390779366385 16.7009
40.932153993938 16.6384
40.95591904777605 16.579
40.979871628443995 16.6257
41.003640379561936 16.5891
41.02741097430883 16.5151
41.05118341413683 16.4354
41.075143444384416 16.4221
41.098919593177826 16.392
41.1226975914255 16.4036
41.14647744058318 16.4036
41.170444943946755 16.3339
41.19422851378379 16.307000000000002
41.218013938914645 16.2322
41.24198706625173 16.2695
41.26577622087193 16.2331
41.289567235177785 16.1942
41.31336011063129 16.1533
41.337340752422875 16.0763
41.361137369129835 16.1437
41.38493585138705 16.0746
41.40873620066004 16.0442
41.43272438060107 16.0878
41.45652848292052 16.0356
41.48033445666918 15.9761
41.50414230331616 15.9702
41.528138045159764 15.92
41.551949656675205 15.8121
41.575763145513235 15.8129
41.59957851314666 15.8102
41.62358184070442 15.7733
41.64740098505737 15.8173
41.6712220126409 15.785
41.69504492493139 15.7364
41.71905586207357 15.6691
41.74288256296395 15.6143
41.766711153007456 15.6046
41.79054163368412 15.6118
41.814560204340054 15.6343
41.838394485526365 15.6402
41.86223066180303 15.5812
41.88625497706819 15.5022
41.910094962812 15.4805
41.93393684811168 15.4882
41.95778063445365 15.4561
41.981812625263366 15.4367
42.00566023303407 15.4192
42.029509746323676 15.328
42.05336116662236 15.3204
42.077400857069705 15.3472
42.10125611078846 15.3292
42.12511327600405 15.2344
42.14897235421036 15.2315
42.173019768448455 15.2571
42.19688269209613 15.2189
42.22074753323349 15.228
42.24461429335818 15.1558
42.268669455600495 15.1405
42.292540073217886 15.1063
42.31641261433284 15.0365
42.34028708044675 14.972999999999999
42.36435001496739 14.9693
42.38822835065557 14.991
42.41210861586426 14.9593
42.4359908120986 14.9314
42.46006154323262 14.8969
42.48394762115317 14.845999999999998
42.507835634632315 14.9099
42.531912233047436 14.8529
42.55580413732265 14.7711
42.579697981698 14.7986
42.60359376768525 14.798
42.62767820545945 14.7266
42.65157789440821 14.7404
42.67547952952185 14.6738
42.699383112316 14.6571
42.72347541395347 14.6297
42.74738291190531 14.6104
42.771292362102166 14.5727
42.795203766063516 14.5558
42.819303956130405 14.5205
42.843219287476536 14.4509
42.86713657716324 14.5141
42.89105582671383 14.4631
42.91516392983864 14.4335
42.939087119032166 14.3927
42.963012272677304 14.3422
42.98693939230129 14.3542
43.01105543317513 14.2992
43.034986504731386 14.3578
43.05891954686589 14.317
43.08285456110972 14.3137
43.10697856448665 14.1916
43.130917542983475 14.1826
43.15485849820081 14.1982
43.17880143167367 14.1722
43.20293342237094 14.1221
43.226880332449 14.0657
43.25082922540554 14.0974
43.27496722682525 14.0778
43.29892010567796 14.02
43.32287497204102 14.0228
43.34683182745632 13.9788
43.370977859791836 13.9087
43.39493871351105 13.907
43.41890156092628 13.9109
43.44286640358341 13.9178
43.46702049182749 13.8965
43.49098934522816 13.8473
43.51496019852649 13.7866
43.5389330532723 13.8242
43.56309522248204 13.7403
43.58707210044314 13.7442
43.61105098451946 13.696
43.63503187626491 13.7226
43.659202151562134 13.7137
43.68318707902681 13.6241
43.70717401884041 13.6115
43.731162972560874 13.6113
43.75534137913236 13.5707
43.779334381108384 13.5671
43.803329401683186 13.5707
43.82732644241872 13.5781
43.8515130055166 13.5291
43.87551410707659 13.5134
43.89951723350145 13.4956
43.923709934595614 13.4341
43.94771713129917 13.3964
43.97172635758096 13.3744
43.99573761501002 13.3514
44.0199385169922 13.3328
44.04395385732619 13.2803
44.067971233533086 13.2941
44.09199064718605 13.2717
44.11619977548961 13.2554
44.14022328470671 13.2208
44.16424883610785 13.2316
44.18827643127035 13.2125
44.21249381139513 13.2056
44.236525514814076 13.1703
44.26055926674478 13.1709
44.28459506876863 13.1443
44.3088207262813 13.0658
44.33286064928722 13.0517
44.35690262714919 13.0183
44.38094666145278 12.975
44.4051806219871 12.9633
44.42922879003185 12.9745
44.45327901929361 12.8908
44.477331311362136 12.9023
44.501573600619416 12.8627
44.525630039221795 12.8231
44.54968854541895 12.8223
44.573937102200176 12.809000000000001
44.5979997645541 12.7909
44.622064499300315 12.7801
44.64613130803592 12.7462
44.67038823869318 12.7708
44.69445921643748 12.6465
44.718532272981385 12.6224
44.742607409926194 12.6566
44.76687274034801 12.6474
44.79095205918753 12.5855
44.81503346325094 12.5888
44.839116954143876 12.5861
44.86339071028742 12.538
44.88747839599524 12.4929
44.91156817336837 12.505
44.93566004401666 12.4772
44.959942251908146 12.4477
44.984038330325966 12.4443
45.00813650686762 12.3584
45.03223678314731 12.3526
45.05652746888232 12.3099
45.08063196592069 12.3512
45.104738567558705 12.309000000000001
45.128847275414856 12.2893
45.15314646515866 12.254000000000001
45.17725940679741 12.2396
45.20137445952892 12.1989
45.22568004865265 12.1707
45.24979934496396 12.1793
45.27392075725247 12.1736
45.29804428714431 12.1215
45.322358426247604 12.1078
45.346486212804315 12.0869
45.370616121861914 12.0876
45.39474815505086 12.052
45.41907087049246 12.0245
45.4432071734666 11.987
45.46734560548283 12.0086
45.49148616817604 12.0277
45.51581748638564 11.9757
45.5399623320197 11.9367
45.56410931325473 11.9208
45.58825843173002 11.9334
45.61259837920865 11.8476
45.636751793816 11.8377
45.66090735060093 11.8307
45.68506505120716 11.8117
45.7094136545275 11.751
45.73357566449271 11.7598
45.75773982322992 11.7382
45.78190613238733 11.722000000000001
45.806263418194064 11.6627
45.83043404997326 11.6714
45.85460683713677 11.6555
45.87897065658495 11.6424
45.90314777634752 11.6485
45.92732705646868 11.6181
45.9515084986045 11.5495
45.97588104735473 11.5655
46.00006683541565 11.4959
46.02425479047904 11.4879
46.04844491420549 11.4711
46.0728262191024 11.4741
46.09702070211635 11.4511
46.12121735879483 11.3987
46.14541619080294 11.4297
46.169806278764455 11.421
46.194009483459034 11.3634
46.21821486849841 11.3705
46.24242243555223 11.3323
46.266821333570014 11.2992
46.29103328674601 11.2817
46.31524742696538 11.3115
46.33946375590237 11.2516
46.36387149104216 11.2608
46.38809221957392 11.1886
46.41231514186606 11.189
46.436540259597464 11.1619
46.460956858999374 11.1478
46.48518638983522 11.0984
46.509418121166966 11.136
46.533652054678114 11.077
46.55807754555709 11.0433
46.58231590571962 11.0631
46.60655647313217 11.0233
46.630988654873654 10.9473
46.655233659129024 10.9893
46.67948087571551 10.9542
46.70373030632484 10.9333
46.72817142736393 10.9716
46.752425308428684 10.9272
46.77668140861147 10.9219
46.80093972960865 10.8379
46.82538981736788 10.8213
46.849652602470904 10.7926
46.87391761349769 10.7872
46.8981848521493 10.7866
46.9226439341274 10.7181
46.946915650573224 10.7474
46.97118959976749 10.7485
46.99546578341598 10.7183
47.019933887188216 10.7216
47.04421456235744 10.6694
47.06849747711879 10.6563
47.09278263318286 10.6092
47.11725978640143 10.5928
47.14154944775105 10.589
47.165841355555656 10.5435
47.1901355115306 10.5237
47.214621741924994 10.5163
47.23892041698887 10.4911
47.26322134538975 10.4762
47.28771440635075 10.4465
47.31201986422527 10.4587
47.33632758061436 10.4283
47.360637557241866 10.4236
47.38513974410611 10.4208
47.40945426407847 10.3506
47.43377104948137 10.3656
47.45809010204344 10.3149
47.48260144275502 10.297
47.506925052572285 10.2721
47.53125093475548 10.2647
47.55557909103813 10.2633
47.58009961361992 10.199
47.60443234110732 10.2237
47.62876734791564 10.2018
47.65310463578333 10.1901
47.6776343683373 10.157
47.7019762413987 10.1616
47.72632040075572 10.0906
47.75066684815169 10.0958
47.77520581885936 10.0777
47.799556865477655 10.0462
47.823910205386 10.0358
47.84826584033272 10.0287
47.87281407745551 10.005
47.89717432569297 9.99601
47.92153687423484 9.99501
47.94609208429692 9.94669
47.97045925671401 9.97746
47.99482873471275 9.89803
48.01920052005013 9.893189999999999
48.04376504619224 9.89857
48.068141469543484 9.9064
48.09252020552573 9.875860000000001
48.11690125590099 9.86401
48.1414751266064 9.816310000000001
48.16586082917454 9.7894
48.19024885144316 9.780339999999999
48.2146391951793 9.7132
48.239222439012764 9.76672
48.26361744916137 9.710989999999999
48.28801478610016 9.71964
48.31241445160131 9.722439999999999
48.337007097209366 9.69662
48.36141144338331 9.65729
48.38581812345755 9.65087
48.41022713920929 9.63941
48.434829215320704 9.58723
48.45924292604658 9.615089999999999
48.48365897780325 9.61609
48.50807737237308 9.58211
48.532688907799276 9.54842
48.55711201168574 9.53102
48.581537463754074 9.49882
48.60615611725119 9.53776
48.63058628942721 9.51047
48.65501881516546 9.48888
48.6794536962573 9.441460000000001
48.70408185970339 9.40272
48.72852147531801 9.34752
48.75296345168211 9.38008
48.77740779059232 9.38757
48.80204549302823 9.357619999999999
48.82649458091802 9.31433
48.85094603676547 9.32231
48.87539986237231 9.3281
48.90004713292306 9.28028
48.92450572200832 9.276530000000001
48.94896668628025 9.238539999999999
48.97343002754588 9.21214
48.99808689542115 9.2313
49.02255501470614 9.21982
49.04702551642794 9.211689999999999
49.0714984023988 9.18605
49.096164896893235 9.172839999999999
49.120642575466796 9.13142
49.145122643748394 9.11121
49.16960510355558 9.06899
49.19428125404938 9.08535
49.2187685210852 9.091289999999999
49.243258185121555 9.05755
49.26794160167084 9.02655
49.2924360839405 9.00572
49.31693296869764 8.99439
49.34143225776915 8.96388
49.36612538195438 8.93246
49.39062950396021 8.93316
49.41513603578346 8.93111
49.4396449792564 8.90414
49.46434784069503 8.88537
49.488861631846454 8.87246
49.513377840166804 8.87272
49.537896467493745 8.82475
49.56260909589029 8.800939999999999
49.587132585683285 8.83114
49.611658500018365 8.814810000000001
49.636186840738596 8.763110000000001
49.66090926588511 8.72975
49.685442483902584 8.71238
49.70997813385706 8.695739999999999
49.734516217597076 8.729569999999999
49.75924846937352 8.70228
49.7837914452858 8.67723
49.80833686055187 8.63055
49.83288471702571 8.60419
49.85762682540054 8.63579
49.882179588965734 8.60895
49.9067347993235 8.56887
49.93129245833333 8.586
49.95604445336378 8.58862
49.98060703442832 8.51154
50.005172069746266 8.5304
50.02993150438364 8.49189
50.05450147301533 8.485489999999999
50.07907390151433 8.45358
50.10364879174981 8.452869999999999
50.12841816587289 8.45196
50.1529980044635 8.45753
50.17758031042124 8.41456
50.20216508562089 8.3942
50.22694442953363 8.35281
50.25153416817468 8.36764
50.27612638170508 8.349219999999999
50.300721072005196 8.33084
50.325510416102105 8.30003
50.350110084975064 8.30459
50.37471223628208 8.28227
50.39931687190919 8.22443
50.424116246675766 8.25833
50.44872587605249 8.233139999999999
50.47333799543065 8.2424
50.49795260670191 8.22589
50.52276204271512 8.20106
50.54738166295838 8.13612
50.57200378079314 8.19389
50.596628398116835 8.16387
50.62144792604559 8.11008
50.646077567609396 8.11622
50.670709714377715 8.10091
50.69553683636198 8.076419999999999
50.72017401885922 8.038219999999999
50.7448137122895 8.04872
50.76945591856022 8.03445
50.79429318636823 8.016539999999999
50.818940443716784 8.03249
50.84359021965163 7.94936
50.868242516085964 7.9371
50.893089960641895 7.9793199999999995
50.917747323549435 7.937469999999999
50.94240721271973 7.93877
50.96706963007175 7.8826600000000004
50.99192728239342 7.899710000000001
51.01659478166073 7.924810000000001
51.04126481489051 7.86378
51.06593738400761 7.852180000000001
51.090805275207074 7.8434800000000005
51.11548294172845 7.8403
51.14016314993547 7.80587
51.164845901758845 7.79793
51.18972406304274 7.79345
51.21441192780656 7.74643
51.23910234200271 7.7569
51.2637953075678 7.7199100000000005
51.288683770237945 7.67449
51.31338186432707 7.6813199999999995
51.33808251561888 7.68295
51.362978729967345 7.698760000000001
51.387684521509755 7.646610000000001
51.41239287610203 7.640569999999999
51.437103795691165 7.57982
51.46201036644977 7.57826
51.486726441956634 7.564260000000001
51.51144508832545 7.55355
51.536166307509156 7.558110000000001
51.56108326624387 7.5043
51.58580965706056 7.52628
51.61053862657523 7.49845
51.635270176746864 7.45605
51.66019755512065 7.46897
51.68493429268881 7.462860000000001
51.70967361681515 7.46855
51.73441552946465 7.44188
51.759353359237934 7.42183
51.7841004750961 7.4054
51.80885018539685 7.37617
51.833602492111254 7.33345
51.8585508051424 7.328189999999999
51.883308330926425 7.3548100000000005
51.90806845906181 7.31302
51.932831191525715 7.27648
51.95779001977161 7.2843
51.98255798721516 7.283410000000001
52.00732856494335 7.237419999999999
52.03229530577543 7.223339999999999
52.057071130455945 7.26995
52.081849571391054 7.203760000000001
52.106630630568695 7.2302800000000005
52.13160794279417 7.18447
52.15639426492067 7.1953
52.18118321127822 7.13445
52.205974783860896 7.10307
52.23096269971011 7.10681
52.255759551287994 7.090260000000001
52.280559035098186 7.06779
52.30536115314103 7.06668
52.33035970494467 7.068569999999999
52.35516711807904 7.07349
52.37997717147198 7.0255399999999995
52.40478986713005 7.01584
52.42979908731974 6.99172
52.454617094216 6.9976199999999995
52.47943774942214 6.9676
52.50426105495102 6.94563
52.529280976059844 6.960489999999999
52.554109609024096 6.91443
52.57894089837482 6.9152
52.60377484613117 6.8846300000000005
52.62880550079408 6.8784600000000005
52.65364479223379 6.840110000000001
52.67848674816189 6.825239999999999
52.70352547971946 6.85773
52.72837279155837 6.808889999999999
52.753222773982785 6.805
52.778075429022984 6.81832
52.80312495150885 6.7934
52.827982978797436 6.78218
52.85284368481815 6.76404
52.87770707160767 6.73025
52.90276741793998 6.7182699999999995
52.92763619336701 6.699039999999999
52.952507655698504 6.68818
52.977381806977576 6.678160000000001
53.00245301017842 6.661460000000001
53.02733256653592 6.70586
53.052214817996074 6.65745
53.077099766608484 6.620589999999999
53.102181859804446 6.613230000000001
53.127072229988265 6.6188199999999995
53.15196530349892 6.584169999999999
53.17686108239249 6.58293
53.20195409881522 6.5276
53.22685531582556 6.52234
53.25175924441303 6.52384
53.27666588664027 6.52303
53.30176985962693 6.49866
53.3266819565689 6.50376
53.35159677336455 6.48442
53.376514312083096 6.4573599999999995
53.40162927507703 6.47011
53.42655228516116 6.41723
53.45147802340193 6.42037
53.47660125628886 6.37058
53.50153247842639 6.376930000000001
53.52646643496923 6.34359
53.55140312799818 6.35807
53.576537409691696 6.3482199999999995
53.60147960336152 6.35991
53.626424539786164 6.34583
53.65137222105307 6.28045
53.67651758529126 6.29776
53.70147078399681 6.29469
53.72642673383343 6.2706
53.75138543689533 6.26625
53.776541917524526 6.2521
53.801506154876755 6.22374
53.826473151763246 6.19258
53.851442910284916 6.19466
53.87661054126026 6.150580000000001
53.9015858509782 6.14191
53.92656392866066 6.1500900000000005
53.95154477641532 6.154719999999999
53.976723591801296 6.1173
54.00171000771266 6.131530000000001
54.02669920004598 6.1127400000000005
54.051691170915745 6.05132
54.076881204886796 6.0620400000000005
54.101878760928514 6.0633300000000006
54.12687910187696 6.08044
54.152077577768296 6.06039
54.1770835166946 5.9741599999999995
54.20209224691339 5.97887
54.22710377055121 5.98935
54.25231352511594 5.922540000000001
54.27733066384342 5.92076
54.30235060239643 5.91933
54.32737334290836 5.8838
54.35259441062629 5.8425199999999995
54.377622783395324 5.83103
54.40265396455061 5.87893
54.42768795623251 5.81805
54.45292037169559 5.74195
54.477960012857906 5.79213
54.50300247099511 5.75973
54.52804774825457 5.74883
54.55329154616743 5.70506
54.57834249018678 5.65373
54.6033962597977 5.64652
54.6284528571545 5.6147599999999995
54.653708072335164 5.62179
54.67877035378786 5.5903
54.70383546947698 5.55694
54.72890342156389 5.52803
54.7541700889442 5.54116
54.77924374251975 5.501530000000001
54.8043202390049 5.4919400000000005
54.82959552413022 5.46462
54.8546777351945 5.50173
54.87976279569621 5.41065
54.90485070780914 5.437
54.930137506558005 5.38004
54.95523115074295 5.4087
54.98032765308844 5.37084
55.005427015775496 5.344180000000001
55.03072536339621 5.32359
55.05583047570572 5.26549
55.080938454927676 5.27623
55.10604930325027 5.25836
55.131359235107396 5.23703
55.15647585066083 5.1764
55.181595341907496 5.17146
55.20671771104285 5.13783
55.232039262617704 5.12822
55.25716741665048 5.06643
55.28229845518636 5.1033599999999995
55.30743238042802 5.004659999999999
55.33276558731939 5.03373
55.357905315183636 5.0253
55.383047936390035 4.913869999999999
55.40819345314859 4.94656
55.433538351073295 4.9269
55.458689688238415 4.92657
55.483843927614096 4.85665
55.509197623043605 4.87036
55.53435769621134 4.79996
55.55952067826466 4.8293099999999995
55.5846865714265 4.79491
55.61005202069737 4.77391
55.63522376553902 4.8067
55.66039842818645 4.79666
55.68557601087004 4.76414
55.7109532500271 4.6898599999999995
55.73613670233794 4.70322
