TT I
1.2716486653135266 7.63492
1.2939594142134223 6.9981800000000005
1.3162702121660406 6.69964
1.3385810600174564 6.46804
1.3608919586137629 6.739510000000001
1.383202908801069 6.57717
1.405513911425503 6.64192
1.4278249673332093 6.48285
1.4501343378461518 5.54329
1.4724455028545926 6.05277
1.4947567236847858 5.77693
1.517068001182951 6.09197
1.5393793361953272 5.83633
1.5616907295681737 6.0526800000000005
1.5840021821477681 5.55112
1.60631369478041 5.65601
1.6286252683124185 5.04584
1.6509369035901333 4.69632
1.6732468618895553 5.1346099999999995
1.695558623192809 4.90865
1.7178704487808514 5.127999999999999
1.7401823395001077 5.03561
1.7625012545597203 4.71935
1.7848028405262486 4.92588
1.8071218901122095 4.96131
1.8294236121921872 4.5301
1.8517427996910911 4.43875
1.8740620574440425 4.74685
1.8963639900671978 4.80968
1.9186833908139995 5.0489
1.9409854680117449 4.916580000000001
1.9633050151394713 4.642869999999999
1.9856246367570705 4.66402
2.0079269371922672 4.5724599999999995
2.03024671027244 4.73918
2.0525491637446027 4.76031
2.074869091674931 4.6951
2.097171701569106 4.74189
2.1194917877373847 4.9442699999999995
2.141811954326636 4.47117
2.164114805233074 4.93659
2.186435135143035 6.676089999999999
2.208738150935709 15.2679
2.231058647554722 32.1671
2.2533792288321184 24.5725
2.275682498336085 11.3573
2.298003251406138 6.7206600000000005
2.3203066942619714 5.53027
2.3426276225136022 5.24641
2.3649486396617507 5.49944
2.387252348930071 6.36934
2.4095735463442893 6.2511
2.4318774374315884 6.62588
2.4541988185014043 7.10958
2.476502894794693 7.25743
2.498824462909887 7.764139999999999
2.521146125856138 7.5688699999999995
2.5434504863470337 7.49878
2.5657723414244717 7.969810000000001
2.588076895590662 7.86435
2.610398946189713 8.019630000000001
2.6327210958598384 7.8996
2.6550259469304716 8.40206
2.6773482972090137 8.13665
2.6996533504259 8.04594
2.7219759047039602 8.52357
2.744298562293959 7.97885
2.7666039251246595 8.61683
2.7889267918020164 8.55795
2.8112323652516555 8.58558
2.833555444408179 8.58955
2.8558786311183852 8.320730000000001
2.8781845268938557 8.59723
2.9005079311721484 9.320310000000001
2.9228140460410397 9.15952
2.9451376712799635 9.23555
2.967444008632326 9.6127
2.9897678582247247 10.515999999999998
3.0120918213106695 10.6033
3.0343984987899373 10.9376
3.0567226913198637 11.2528
3.079029599759726 11.5431
3.101354025127254 12.3308
3.123678568232338 12.6359
3.145985829517914 12.8747
3.16831061055229 13.7562
3.1906181112775593 14.6877
3.212943133635653 14.9292
3.2352682779763207 15.2566
3.2575761442691227 15.2608
3.2799015350264273 15.3921
3.302209649240067 16.1312
3.3245352898092655 16.8426
3.3468436553365257 17.6037
3.369169549113219 17.9414
3.3914955708171384 18.6497
3.413804319727358 19.1713
3.4361305997334863 19.4044
3.4584396084414553 19.6458
3.4807661501462652 20.4654
3.503092824025881 20.8693
3.5254022288463154 21.3943
3.5477291695206588 21.9651
3.5700388426251948 22.4868
3.5923660534916446 24.8051
3.6146934007816114 41.4671
3.637003482731501 98.1367
3.6593311053109985 110.654
3.681641464033634 62.4429
3.7039693653009733 31.8996
3.726297407241705 26.4827
3.7486081875460804 26.0177
3.7709365132734978 26.1844
3.793247578841633 26.6075
3.8155761917550093 26.5163
3.8378875459837216 27.0162
3.8602164494827234 27.6607
3.882545499606844 28.2746
3.9048572932539183 28.9367
3.9271866390645718 29.0467
3.9494987298666713 29.5261
3.971828374764527 30.4452
3.9941581705403255 31.3644
4.016470713506008 31.3244
4.038800813471445 32.0982
4.061113662089144 33.1356
4.0834440696459176 33.9076
4.105774632334751 34.3569
4.128087945865126 34.867
4.150418821249301 35.9639
4.172732448931298 37.3553
4.195063640413578 39.041
4.2173775856475215 43.4585
4.239709096631102 79.5919
4.262040768704612 268.237
4.284355196706267 365.06800000000004
4.306687193387355 234.46599999999998
4.329001947444346 88.1044
4.35133427213731 49.0681
4.373666762177566 44.6099
4.395982011761091 45.026
4.418314834921175 46.1464
4.44063041906622 55.0982
4.4629635787515625 67.4532
4.4852969080429785 66.9778
4.5076130004776225 54.8149
4.529946671403969 50.2363
4.552263106909177 49.9931
4.574597122877047 51.3633
4.596931312711224 51.974
4.619248269273446 53.1036
4.6415828092605835 53.9829
4.663900117405352 54.798
4.686235010953232 56.5769
4.708552674085913 57.6564
4.730887924602802 59.1162
4.753223354952695 60.5049
4.775541557023902 61.7818
4.797877349456786 63.4676
4.820195915032126 65.3542
4.842532072957498 66.6156
4.864868414979744 68.9308
4.88718753227192 71.2928
4.909524244902505 73.1118
4.931843734218147 74.1041
4.954180820867835 76.8326
4.976518095879839 79.9922
4.998838149695359 82.4375
5.021175803844231 85.792
5.043496238205739 88.939
5.065834274903528 93.1192
5.088172504230693 98.0445
5.1104935158799565 103.936
5.132832132875765 126.029
5.155153533596801 173.68
5.1774925416746225 204.954
5.199814334878411 315.23
5.2221537374521505 871.328
5.244493338631803 2598.87
5.266815727034316 7490.44
5.289155727832427 12736.4
5.311478517248165 9180.56
5.333818921080011 2944.75
5.356159527788849 557.433
5.3784829252032536 186.035
5.400823940070432 144.559
5.423147747031976 128.049
5.445489173474152 118.26899999999999
5.467830807066149 112.251
5.490155234831516 108.72200000000001
5.512497285125229 105.611
5.534822130975162 103.77799999999999
5.557164601388673 101.12700000000001
5.579489868738879 99.2328
5.601832762690846 98.3572
5.6241758697774475 97.3082
5.646501775867269 96.1432
5.668845311622074 94.2634
5.691171647754637 93.8185
5.713515615597765 92.4292
5.735859800852677 91.415
5.758186788542988 90.3511
5.780531411018185 90.3761
5.802858837297399 89.98200000000001
5.825203900414495 89.931
5.8475491852224 90.2799
5.869877275883075 90.376
5.892223006467101 91.9134
5.914551544266608 92.3526
5.936897724049891 94.5523
5.959244129804903 98.8871
5.981573344815301 112.655
6.0039202049061 184.955
6.026249875609095 398.986
6.04859719346037 869.934
6.070927323278297 2069.86
6.093275102315365 4349.8
6.115623113320588 5127.81
6.137953938319995 3182.37
6.160302415650845 980.303
6.182633708324452 235.122
6.2049826554078376 113.99600000000001
6.227331838745022 92.4099
6.249663839443684 85.1209
6.27201349767565 82.9898
6.294345974611799 90.3759
6.316696111167083 104.31
6.339046488263839 98.0351
6.361379686074702 81.2268
6.383730546639482 72.0896
6.406064229255215 68.7071
6.428415576718203 68.1288
6.450749747566656 67.2277
6.47310158535871 65.9064
6.495453669698332 65.2432
6.517788579421056 64.7109
6.540141159237969 63.5841
6.562476565766648 63.0609
6.5848296444934045 62.3897
6.607182974060425 61.7442
6.6295191323281015 62.7825
6.651872965955752 67.08
6.6742096296068985 96.8622
6.6965639707294615 150.509
6.71891856698715 151.266
6.741255995248479 100.319
6.763611104154477 69.4778
6.785949046381137 60.6066
6.808304671371482 58.6811
6.8306605557940046 57.8705
6.852999275508618 57.2052
6.875355681171544 56.8076
6.897694923437771 56.7992
6.92005185377892 56.4437
6.9423916220322655 56.0476
6.964749080490181 55.8361
6.987106804399774 56.1952
7.009447368180821 55.841
7.031805625367033 55.5226
7.054146723727803 55.1694
7.076505517631004 55.5793
7.098864581288365 55.5651
7.121206488070854 55.2477
7.143566093607822 54.9875
7.165908543567245 55.6146
7.188268694426048 55.4455
7.2106291193438095 55.5153
7.232972390625943 57.2215
7.255333366030969 71.7929
7.277677189091925 134.503
7.300038718428332 190.24400000000003
7.322400526130865 159.675
7.344745183422596 94.678
7.367107550224791 63.3677
7.389452767901992 56.8993
7.411815697249891 55.6303
7.434161478756298 54.5638
7.456524974096713 54.3675
7.478888753837185 54.4899
7.501235387657368 54.7357
7.523599738562711 55.0475
7.545946944825532 55.044
7.568311870344528 55.424
7.5906770845765665 55.769
7.613025156078678 56.8858
7.635390950099687 58.3892
7.657739602662809 57.6691
7.680105979923558 56.2515
7.702472650212829 56.0605
7.724822180948224 55.7596
7.747189439655568 55.7456
7.769539560075357 55.7664
7.791907410653562 56.4532
7.81425812420825 56.395
7.836626570110925 56.4665
7.858995315087906 57.7608
7.881346924933401 57.8814
7.903716270417482 58.187
7.926068482028405 58.4967
7.948438431475253 59.5511
7.9708086843180235 59.8792
7.993161805171116 60.2317
8.015532667162402 60.6247
8.037886398416653 61.3539
8.060257873014221 61.7961
8.082629655331942 62.7165
8.104984308787587 63.92100000000001
8.127356708900503 67.6407
8.149711981398308 73.9564
8.172085002766314 76.5507
8.194458336181368 72.8117
8.216814543847752 69.1468
8.23918850371002 69.527
8.26154533906492 70.0742
8.283919928836452 71.705
8.306277395339652 72.112
8.328652618483376 73.3657
8.351028159736202 75.2915
8.373386579575245 77.8016
8.395762759396959 79.1818
8.418121819038275 84.6418
8.440498640894003 99.1188
8.462875785192262 114.34899999999999
8.485235811156207 123.10799999999999
8.507613602688501 153.496
8.529974277114228 230.31799999999998
8.552352719347912 355.64099999999996
8.574731488360351 607.621
8.59709314210385 1146.08
8.619472567021075 1806.29
8.64183487789147 2204.77
8.664214962183097 1848.2
8.686577933647762 1021.55
8.708958680784317 377.471
8.731339760774953 162.997
8.753703729764451 111.285
8.77608547780821 98.8129
8.798450116065078 95.2346
8.820832535634787 91.9845
8.843215292401656 90.5293
8.865580941199045 89.3259
8.887964374703538 88.0494
8.910330701447199 89.5075
8.932714815164482 92.3525
8.955099270424924 91.8086
8.977466620733543 88.0861
8.999851761421976 84.9393
9.022219798361645 83.6067
9.04460562795561 83.32600000000001
9.066991803441677 82.7494
9.089360876979615 82.5163
9.111747746589993 82.4219
9.13411751544971 81.888
9.156505082664324 81.5613
9.178875550323522 81.4273
9.20126381862328 82.2026
9.223652438908596 82.4414
9.246023961427412 82.0861
9.26841328802173 81.8535
9.290785518039224 81.3621
9.313175554425882 81.9275
9.335565947154315 81.6913
9.357939245086508 82.0088
9.380330352834827 82.1554
9.40270436697103 82.4321
9.425096193225055 82.5344
9.447488380180165 83.1558
9.469863475295412 83.5512
9.492256385987508 83.4318
9.514632206018318 84.5028
9.537025843935714 84.7126
9.559402392368193 85.4884
9.581796761000229 86.9633
9.604191496441521 87.67299999999999
9.626569144158516 91.5911
9.648964615551032 96.9882
9.671343000390081 99.1277
9.693739211225699 96.2201
9.716135793237463 92.76799999999999
9.738515290448102 92.0784
9.760912617143402 93.3201
9.783292860202891 94.45100000000001
9.805690935076182 95.4277
9.828089385495742 96.7439
9.850470754023561 99.2953
9.872869957865444 107.41
9.89525208097539 124.71799999999999
9.917652041736662 138.814
9.940052382417589 136.174
9.962435644102392 136.244
9.984836746950979 162.667
10.007220771957746 220.419
10.029622640473708 316.09
10.052007432299963 487.223
10.074410069984072 782.336
10.096813093716005 1249.0
10.119199042482517 1761.58
10.141602840636468 2007.53
10.163989564971628 1620.68
10.186394141051062 904.352
10.208799107559706 401.885
10.231187001965623 190.02599999999998
10.253592751657669 126.535
10.275981430388155 113.225
10.298387966769793 113.209
10.320794897965431 115.98200000000001
10.343184759907361 114.84200000000001
10.36559248305461 108.54799999999999
10.387983138083852 103.73899999999999
10.410391656691655 104.89299999999999
10.432800574501677 113.81
10.455192425893369 129.28
10.47760214443012 152.69
10.499994797678786 196.75900000000001
10.522405320453982 273.47
10.54479877906917 392.004
10.567210109595656 507.87300000000005
10.5896218454736 579.975
10.612016518879773 505.208
10.634429067781074 353.965
10.656824555333241 206.655
10.679237920773568 127.821
10.701651695961992 96.5498
10.724048411481384 89.0095
10.746463008485165 86.0875
10.768860546937125 84.4091
10.791275969274796 82.7317
10.81369180576079 81.7754
10.836090585366925 80.4153
10.858507252467449 79.3376
10.88090686379991 78.7403
10.903324365036394 78.14699999999999
10.925724811614439 78.2545
10.948143150509463 79.4115
10.970561909719066 78.7964
10.992963615930844 76.8942
11.015383218085756 74.628
11.037785768347074 72.9694
11.06020621697282 72.4881
11.082627090322113 71.9989
11.105030913430326 71.6408
11.12745263854165 72.2787
11.149857314510728 76.6533
11.172279894912576 83.6375
11.194702904450653 84.6708
11.217108866490921 79.6405
11.239532736615194 75.1186
11.26193956033512 72.2134
11.284364294577085 70.3854
11.306789462371718 68.1019
11.329197585398376 67.0767
11.351623622610898 66.7327
11.37403261614354 65.7091
11.396459526308487 65.6851
11.418869393879497 64.991
11.441297180532617 64.9168
11.463725406927658 64.6436
11.486136592353875 64.4207
11.508565700543707 65.5662
11.530977768845315 67.4725
11.553407762368774 68.1778
11.575838200059769 67.6867
11.598251599479612 65.3742
11.620682927815501 63.7387
11.64309721895548 63.3609
11.665529441478206 62.7925
11.687962112597958 62.7353
11.710377748130886 62.6608
11.732811318753434 62.7354
11.755227854859067 62.8433
11.777662328529495 62.5293
11.800079768750786 62.3872
11.822515149015453 62.1759
11.844950984084935 62.1626
11.867369787303163 62.0746
11.889806534289491 62.1303
11.912226250487029 62.1286
11.934663912939751 62.4082
11.9571020346363 62.5452
11.979523127133968 62.395
12.001962169624331 62.9595
12.024384183972964 63.7432
12.046824150809913 66.3729
12.069264581333726 71.2389
12.091687985297767 76.788
12.11412934550045 85.6133
12.136553680195208 99.6259
12.158995973632788 122.111
12.181438735204349 150.077
12.20386447284199 181.972
12.226308172985636 203.38099999999997
12.24873485024193 202.68099999999998
12.271179492516982 168.993
12.293607112949127 128.377
12.316052700916226 99.8131
12.338498763250042 80.9903
12.360927805303868 70.9613
12.383374818673879 66.514
12.405804812803074 64.5181
12.428252780773262 63.9555
12.45070122756722 64.0502
12.473132656675375 63.9694
12.49558206341869 64.0945
12.518014453510101 64.1232
12.540464823770117 64.2077
12.562915677315177 64.5134
12.58534951575545 65.4807
12.607801338171472 67.8631
12.630236146511358 73.608
12.652688941369085 79.1332
12.675124723177234 79.5014
12.697578494048786 75.1948
12.720032754458185 69.9869
12.742470003354093 67.7547
12.764925245138771 67.5703
12.787363476431278 67.4752
12.809819703166806 67.6014
12.83227642391173 68.5843
12.854716135692716 69.3106
12.877173846755147 70.3562
12.899614549869717 70.5574
12.9220732548287 71.3556
12.94453245827299 71.5911
12.966974655289818 72.2471
12.989434858002571 73.2929
13.011878055298721 74.0498
13.034339260862497 75.13600000000001
13.056800969391883 76.4483
13.079245674017244 78.1209
13.101708390774869 79.6665
13.12415410463411 85.5406
13.146617833206086 95.7284
13.169064559883248 107.087
13.191529303857127 120.855
13.213994557076367 142.36700000000002
13.236442809902437 178.53799999999998
13.258909083908291 231.15599999999998
13.28135835851934 298.619
13.30382565690295 372.406
13.326293469022952 425.79900000000004
13.348744283242008 421.51
13.371213125129904 359.505
13.39366497011003 266.019
13.416134845360597 177.706
13.438605238843131 125.14
13.46105863690397 105.104
13.483530069144786 102.796
13.505984506951902 107.087
13.528456981549432 115.891
13.550929978879088 129.19299999999998
13.573385983253365 152.275
13.595860028340867 189.88
13.618317081455832 244.438
13.64079217790333 301.64
13.663250283359057 351.656
13.685726434770173 374.311
13.708203115221277 341.93199999999996
13.730662806148091 261.251
13.75314054697177 187.312
13.775601299246777 128.18200000000002
13.798080104050406 97.4598
13.820559442405358 85.3206
13.843021793671388 81.2696
13.865502201420897 79.5072
13.887965623051947 78.8021
13.910447103807167 77.8573
13.932929122629764 76.6723
13.955394156785959 76.2459
13.977877254034569 75.1179
14.000343367582113 74.4099
14.022827546871707 73.758
14.045294743423524 73.0626
14.06778000837062 72.3191
14.090265817715476 72.4323
14.112734645763819 72.1442
14.13522154619454 72.1508
14.157691466286913 71.9782
14.180179461423874 71.821
14.202668005486178 71.3398
14.22513957064374 70.4913
14.247629214846473 69.917
14.270101881097517 69.6564
14.29259262906496 70.2417
14.315083930490205 70.7447
14.337558255389705 71.4768
14.360050666019726 71.207
14.382526101071944 70.1166
14.405019624534942 69.0231
14.427513705993134 68.2401
14.449990813291825 68.0638
14.47248601302899 68.035
14.49496423954951 68.2383
14.517460561197822 68.2765
14.539939910570322 68.157
14.562437357763558 68.3448
14.58493536931253 69.68
14.607416409993311 71.0067
14.62991555254159 71.6218
14.652397725157423 71.3306
14.674898002342799 70.5164
14.697398848433282 69.9173
14.719882725991326 70.3473
14.74238471217934 70.8175
14.764869730765593 73.3728
14.787372860692983 76.564
14.809876564079925 80.8668
14.83236330125751 86.3532
14.854868153850365 94.4993
14.877356041159485 107.251
14.899862046604186 125.07
14.922351087688757 150.25
14.944858249632887 179.704
14.967365991421232 205.951
14.989856770231246 219.947
15.012365673994204 218.87400000000002
15.03485761569738 192.835
15.05736768508665 151.14600000000002
15.07987833888692 118.03299999999999
15.102372032001655 91.8006
15.124883856909658 77.1583
15.14737872204565 72.0967
15.169891721717274 70.2577
15.192405310371893 70.1436
15.214901940621196 70.7215
15.237416709527137 70.7581
15.259914520936249 70.99600000000001
15.282430473753607 70.238
15.304947020131227 68.984
15.327446610371178 67.7022
15.349964346154254 67.0128
15.372465126703139 66.5362
15.394984055556009 66.2268
15.417486030076159 65.8131
15.44000615566487 65.4522
15.462526881230803 65.7618
15.485030653812652 66.0447
15.507552581617434 65.8687
15.530057557334603 65.9269
15.55258069104857 65.8115
15.575104429329837 65.7607
15.597611216864632 65.0125
15.620136166564563 65.355
15.6426441664095 65.9962
15.665170331202765 67.7089
15.687697105158826 70.4839
15.710206930593545 73.7655
15.732734925158933 77.7003
15.755245972089478 83.5159
15.77777519094324 92.3044
15.800287463046663 104.58
15.822817909869592 123.51899999999999
15.84534897229804 145.45600000000002
15.867863089299354 169.362
15.890395385222186 186.47099999999998
15.912910736597423 193.815
15.935444269699861 183.36
15.957978423016485 155.882
15.980495633101265 124.488
16.003031029129367 98.65299999999999
16.02554948280019 77.8701
16.048086125229432 68.1892
16.070623392487107 65.3568
16.09314371869582 64.7661
16.11568223789321 63.5366
16.13820381691126 62.5889
16.160743591742527 61.2542
16.183283996022084 60.4537
16.205807461423195 59.3138
16.228349126881973 58.7505
16.25087385432698 58.6571
16.27341678466365 58.0146
16.29594277784926 58.1405
16.31848697676433 58.4454
16.341031811604868 58.9806
16.36355971058487 59.2438
16.3861058195587 58.9081
16.40863499352978 57.7239
16.431182380342005 56.787
16.453730407713202 55.8387
16.476261501364792 55.5486
16.498810812136167 55.2402
16.52134319004079 55.5044
16.54389378792203 55.0287
16.566445031001553 54.9635
16.588979342490088 54.8573
16.61153187824822 54.7987
16.634067483263312 54.623000000000005
16.656621315414416 54.4296
16.679175797408888 54.2311
16.701713349928728 54.2587
16.72426913389191 54.4395
16.74680798922351 54.5782
16.76936507887444 54.6698
16.791905240734874 54.6279
16.814463639794468 54.5248
16.837022695210294 54.5733
16.859564824093756 54.8087
16.882125194503903 55.7303
16.904668639217885 56.7105
16.927230328348003 56.7354
16.949792678493612 56.7738
16.972338104193863 56.0326
16.994901778652235 55.5588
17.017448529496576 55.3217
17.040013531998152 55.4634
17.06257920018044 55.7746
17.0851279459922 56.3896
17.107694947817667 57.1629
17.130245028099072 58.0575
17.15281336730298 59.2049
17.17536478578733 60.8434
17.19793446610687 63.0389
17.220504818648422 65.8002
17.243058251703697 69.1197
17.265629950971032 73.9246
17.288184731571736 78.9168
17.310757781306908 83.1047
17.33333150794385 84.4851
17.355888317140174 82.6622
17.37846339986244 77.5276
17.401021565958885 70.961
17.42359800851343 65.4566
17.44617513265564 61.9579
17.468735341390783 59.6939
17.491261035594565 58.7328
17.51396340099364 58.4273
17.536490463869136 58.7794
17.559018209820174 58.8266
17.58154663977963 58.8302
17.604251766089718 58.9374
17.626781572227713 59.101000000000006
17.64931206518155 59.5925
17.671843245885103 59.9866
17.69455114821572 60.0963
17.717083712612634 60.5424
17.739616967569667 60.5095
17.762150914021706 60.7978
17.78486160749854 60.6679
17.807396945166804 61.2627
17.829932977143503 61.8722
17.85246970436452 63.141000000000005
17.875183204129467 64.8169
17.897721330097664 66.8823
17.920260154126645 69.2666
17.942799677153296 72.179
17.9655159983646 75.9174
17.988056927677544 80.7183
18.010598558807683 88.1469
18.033140892692916 98.11
18.05586005052525 108.98100000000001
18.07840379824407 120.374
18.10094825154059 131.025
18.12366954819864 138.534
18.146215420998306 138.803
18.16876200220057 130.007
18.191309292745153 116.514
18.214033452627167 102.465
18.236582170236648 91.6289
18.259131600016456 85.7981
18.281681742907335 85.728
18.304408781233683 90.1046
18.32696035875955 95.1304
18.349512652227624 100.139
18.372065662579683 104.241
18.394795594587553 105.77799999999999
18.41735004715306 102.399
18.43990521943684 95.8954
18.46246111238171 86.7848
18.485193953325208 77.4534
18.507751296070428 70.0309
18.530309362314178 65.7361
18.552868153000343 63.1766
18.57560391815056 61.7621
18.59816416623245 61.3362
18.620725141597372 60.9573
18.643286845190268 60.5129
18.666025549835414 59.9925
18.688588718427933 59.4868
18.711152618092243 59.1243
18.73389353884365 58.8564
18.75645890921984 58.5233
18.77902501351406 58.2387
18.801591852673102 58.4479
18.824335739722738 57.6909
18.846904057212626 57.5513
18.8694731124168 57.2918
18.89204290628315 57.295
18.914789774966803 57.1335
18.937361054791623 56.9304
18.959933076131318 56.7934
18.982505839934877 56.7138
19.00525570560582 56.6989
19.027829963004184 56.5372
19.05040496572238 56.6431
19.072980714710468 56.4176
19.095733592739563 56.5674
19.11831084296757 57.0364
19.140888842324735 57.6083
19.16346759176222 57.8637
19.18622349753803 58.2461
19.208803755869358 58.9679
19.231384767143577 60.06399999999999
19.253966532312948 61.4938
19.276725481241822 63.5131
19.29930876296784 65.8375
19.3218928014549 69.0757
19.34465404436217 72.6916
19.36723960516257 75.1728
19.389825925592426 76.1849
19.412413006605938 75.4453
19.43517731967805 71.988
19.457765930683355 67.6829
19.48035530514408 63.2248
19.50294544401556 59.1421
19.525712842708348 56.3353
19.54830451925909 55.0579
19.570896963095727 53.9099
19.593490175174704 53.7263
19.616260674962184 53.5318
19.638855432416964 53.2828
19.661450960992624 53.4667
19.68404726164677 53.1773
19.706820878021247 53.0547
19.729418731756834 53.0864
19.752017360452857 52.7856
19.77461676506804 52.9497
19.797393513540218 53.0201
19.819994478951667 53.6103
19.84259622316767 53.8681
19.8651987471481 54.1974
19.887978643247177 54.5179
19.91058273574792 54.8856
19.933187610901943 55.6985
19.955969879466828 56.8592
19.97857632894404 58.2354
20.00118356396599 59.7821
20.023791585494575 61.6765
20.046577028914875 64.4756
20.069186632506966 66.7536
20.091797025500632 68.63
20.114408208858933 69.1824
20.137196842715273 68.8134
20.159809615886765 67.6043
20.18242318232135 64.9386
20.20503754298326 62.8789
20.227829382875154 61.7585
20.250445341109344 61.6889
20.27306209647285 62.3068
20.29567964993108 63.5996
20.31847471147704 64.9451
20.34109387027612 65.8431
20.363713830075454 65.3815
20.386334591841646 63.5929
20.409132890679302 61.2235
20.431755265564437 58.0959
20.454378445325528 55.4413
20.477002430930366 53.6851
20.499803982716553 52.3564
20.522429589228004 51.5039
20.54505600449589 50.8803
20.567683229489194 50.6603
20.590488049900088 50.4453
20.61311690359731 50.0216
20.63574656993626 49.729
20.658553853717297 49.2556
20.681185154618298 49.3671
20.703817271080066 49.3309
20.72645020407368 48.9265
20.749260783967177 48.9066
20.771895359337133 48.7075
20.794530754161617 48.7693
20.817166969412938 48.544
20.83998086114876 48.6609
20.86261872660049 48.4018
20.885257415405402 48.3161
20.90789692853701 48.367
20.930714147864748 48.2863
20.953355319030678 48.3869
20.97599731745334 48.4731
20.99864014410749 48.2771
21.021460706796564 48.1034
21.044105199328826 48.4009
21.06675052302631 48.7897
21.089396678865015 48.7672
21.112220600704806 49.2532
21.134868430275347 49.4239
21.15751709492456 49.528
21.180166595629693 49.9641
21.202993892429635 50.4357
21.22564507473034 50.7923
21.24829709602816 51.0593
21.27112693608965 51.036
21.293780644891275 51.0682
21.316435195634053 50.4919
21.339090589297417 49.784
21.361923832041875 49.2282
21.384580921090404 48.7455
21.407238856007325 48.1403
21.429897637773326 47.8809
21.45273429906592 48.0939
21.475394784108598 48.0307
21.498056118951983 47.8058
21.520718304578022 48.0663
21.543558400304388 48.0412
21.566222297108816 48.4155
21.58888704765135 48.4058
21.61155265291521 48.7208
21.63439619898156 49.181000000000004
21.657063523335786 49.4643
21.67973170537063 49.8826
21.7024007460706 50.3611
21.72524775840385 50.8956
21.747918526116475 52.0741
21.770590155457388 53.1499
21.79326264741238 54.6706
21.816113141960237 56.4602
21.838787368860547 58.3631
21.861462461341976 60.2141
21.884315579735777 62.0287
21.90699241312273 63.4276
21.92967011506078 64.2452
21.95234868653799 63.9929
21.9752053151131 62.7982
21.997885635446785 61.1931
22.020566828293532 59.1592
22.04324889464272 57.5131
22.066109049404666 56.1798
22.088792872571794 55.6838
22.111477572219204 55.7013
22.1341631493376 55.7196
22.157026846313123 55.6405
22.179714188221507 55.0515
22.202402410582668 54.077
22.22509151438863 52.4536
22.24795876962584 51.2112
22.270649646204486 50.2224
22.293341407213727 49.5832
22.316034053646906 49.1507
22.338904883215342 48.8499
22.36159931041458 48.7898
22.38429462602756 48.7881
22.40699083104897 48.6725
22.429865251039757 48.5852
22.452563244831367 48.6174
22.47526213102522 48.4639
22.49813925616515 48.5275
22.520839937143307 48.3624
22.543541513520587 48.3201
22.56624398629403 48.0801
22.589124730075895 48.0158
22.611829005656723 48.3088
22.63453418063466 48.3897
22.657240256008077 48.4217
22.680124634582935 48.4394
22.70283252079775 48.7659
22.725541310413075 49.1297
22.74825100442868 49.126000000000005
22.771139033969575 49.7002
22.79385054687155 49.86
22.81656296718292 50.5821
22.83927629590484 51.5548
22.862167992606945 52.413000000000004
22.88488314827121 53.6665
22.907599215359284 54.5326
22.93031619487366 55.717
22.953211574954405 56.6349
22.975930389478226 57.486000000000004
22.998650119445763 57.4571
23.02137076586092 56.8019
23.044269845560063 55.8342
23.06699233506288 54.2162
23.089715744034912 52.4435
23.112617610931565 50.8499
23.135342869061212 49.6159
23.158069049684816 48.7072
23.1807961538087 48.4668
23.20370174880544 48.3636
23.226430710184808 48.4748
23.249160598093425 48.4433
23.271891413539002 48.6138
23.294800752937697 48.5402
23.31753343374794 48.6375
23.340267045128353 48.6317
23.36300158808808 48.9281
23.38591468821339 49.2277
23.408651104658304 49.687
23.431388455719986 50.2196
23.454126742409 51.1841
23.4770436196085 52.1564
23.499783787914662 53.5251
23.522524894889884 54.3856
23.54526694154616 55.7054
23.56818761219047 56.7815
23.59093154860734 57.2007
23.613676427751283 57.5436
23.636422250635754 56.6491
23.659346731118656 55.3066
23.68209445191868 53.4137
23.704843119509587 51.4722
23.72759273490623 49.3759
23.750521041644767 47.9942
23.77327256312355 46.974
23.796025035462787 46.3591
23.818956224555475 45.8075
23.841710609113413 45.6237
23.86446594758979 45.4302
23.887222241002014 45.2363
23.910157285144578 44.9564
23.932915498962537 44.8917
23.955674670778713 44.8251
23.978434801611975 44.7189
24.001373717286125 44.4559
24.024135776723917 44.3279
24.046898798245582 44.1719
24.06966278287146 44.1328
24.092605586582614 43.8618
24.115371508023642 43.8683
24.1381383956401 43.7199
24.16090625045381 43.7343
24.183852958731244 43.7253
24.206622758582608 43.5149
24.229393528706886 43.3248
24.252165270127392 43.3962
24.27511589952438 43.3819
24.297889594216997 43.1622
24.32066426328598 43.1289
24.34343990775613 43.0278
24.36639447485003 42.9102
24.38917208083877 42.8227
24.41195066531332 42.8348
24.43490819850244 42.718999999999994
24.457688750692377 42.6628
24.48047028445616 42.7005
24.503252800821233 42.8785
24.526214300784112 42.8803
24.548998793132213 42.5526
24.57178427117417 42.6799
24.59457073593893 42.8449
24.617536219319863 42.7857
24.64032466834748 42.6008
24.663114107195035 42.5062
24.685904536893013 42.1581
24.708874020360852 42.2124
24.731666442613744 42.0191
24.754459858818787 42.1761
24.777254270007962 42.1746
24.80022777025625 41.7975
24.82302418230472 41.9281
24.845821592443674 42.0876
24.86862000170663 41.9548
24.891597535453727 41.7232
24.914397953892728 42.0149
24.93719937456671 41.8757
24.96000179851076 41.9773
24.98298338249997 42.2261
25.00578782394922 42.4423
25.028593271784167 42.5357
25.05157790644186 42.9314
25.07438537804115 42.8616
25.097193859145293 43.1383
25.120003350792075 43.4154
25.142992065061257 43.6916
25.165803588823465 43.9903
25.18861612625217 44.3105
25.211429678386736 44.3714
25.234422489079968 44.5197
25.257238081693636 44.4658
25.280054692141732 44.7397
25.3028723214652 44.6667
25.325869245420463 44.6329
25.348688923599397 44.6914
25.371509623787006 44.6053
25.394331347025812 44.424
25.41733240110666 43.9467
25.440156181590016 43.3051
25.46298098826268 42.7963
25.48580682216873 42.3294
25.50881202326435 41.8147
25.53163992281684 41.3015
25.55446885274561 40.9953
25.577298814096377 40.6618
25.600308179121807 40.566
25.623140214533745 40.6373
25.64597328451537 40.4452
25.66898578564376 40.2233
25.691820936010206 40.194
25.714657124097695 40.1539
25.737494350954734 40.1862
25.760511045684957 40.103
25.783350361364224 40.2354
25.806190718969255 40.2805
25.82903211955018 40.4311
25.852053024868923 40.3779
25.874896522722523 40.3234
25.897741066713106 40.2474
25.920586657892454 40.3487
25.943611790812668 40.4314
25.966459487728237 40.6537
25.989308234998564 40.711
26.01215803367705 41.1038
26.03518741123814 41.2138
26.05803932412957 41.2945
26.080892291600094 41.2045
26.10374631470478 41.2256
26.12677995397268 41.4317
26.14963609978026 41.4729
26.172493304397875 41.0991
26.19535156888223 40.9811
26.218389486949604 40.5528
26.241249882640123 40.2487
26.26411134137826 39.9892
26.28715248187403 40.029
26.31001607820869 39.8003
26.3328807407756 39.664
26.35574647063438 39.8176
26.37879191991473 39.8213
26.401659795896734 39.7991
26.424528742360263 40.036
26.447398760366614 40.0957
26.470448535598294 40.1866
26.49332070826805 40.4759
26.516193955675355 40.6791
26.53906827888316 40.9317
26.562122397260108 41.1071
26.584998883685063 41.2542
26.607876449110325 41.596000000000004
26.63075509460056 41.8559
26.65381357334404 41.9639
26.67669439061878 41.8829
26.699576291163382 41.8452
26.722459276044212 41.6401
26.745522132402975 41.2969
26.768407297649354 41.1438
26.791293550442003 40.7822
26.814180891848974 40.5923
26.837248143099337 40.2986
26.860137673466657 40.2919
26.88302829566349 39.9534
26.90592001075963 39.7956
26.92899167420566 39.6044
26.951885586870763 39.2925
26.974780595655517 38.9939
26.99785558178161 38.8354
27.020752794605112 38.8192
27.043651106772522 38.673
27.06655051935668 38.5563
27.089629948036183 38.4479
27.112531573292053 38.4716
27.135434302194138 38.5187
27.158338135817015 38.3486
27.181422024430987 38.2718
27.204328079372566 38.2468
27.22723524226965 38.3007
27.250143514198573 38.352
27.273231880156334 38.2871
27.296142382065014 38.0941
27.319053996245536 38.1116
27.341966723775965 38.207
27.365059584515222 38.1683
27.38797455070062 38.2789
27.410890633481237 38.0886
27.433807833936918 38.2025
27.456905206923906 38.166
27.47982465472398 38.1967
27.502745223449743 38.2106
27.525666914182825 38.3607
27.548768816912457 38.3433
27.571692763693633 38.2788
27.59461783573812 38.1435
27.617723149491244 38.0403
27.640650484125285 37.8831
27.66357894728264 37.8504
27.686508540048052 37.8491
27.709618414237887 37.7026
27.732550278321757 37.6121
27.755483275279115 37.5574
27.778417406196485 37.5338
27.801531858397514 37.5378
27.824468269376716 37.6808
27.847405817586786 37.569
27.870344504116094 37.6532
27.893463551932008 37.8578
27.916404527281053 38.1526
27.93934664422563 38.1857
27.962289903855886 38.1331
27.98541356491974 38.3946
28.00835912214229 38.5974
28.03130582533231 38.7369
28.054253675581805 38.9338
28.077381967556104 38.7758
28.100332124185126 38.7252
28.123283431160893 38.6991
28.146235889577238 38.4675
28.169368830154156 38.3825
28.192323603752033 38.2304
28.215279532083304 37.8815
28.238415973016764 37.7518
28.261374223145094 37.6714
28.284333631303806 37.516
28.307294198589954 37.2204
28.330435319167677 36.8648
28.353398217078915 36.6733
28.376362277420153 36.4548
28.39932750129032 36.4025
28.422473319286713 36.181
28.44544088262495 36.2252
28.468409612800283 36.0957
28.491379510913497 35.8877
28.51453004413313 35.7986
28.53750229057244 35.7138
28.56047570826344 35.5739
28.583450298308804 35.7642
28.606605564586562 35.5692
28.629582511831156 35.5266
28.65256063474956 35.3962
28.675539934446338 35.4038
28.698699951647605 35.5284
28.72168161743193 35.2933
28.74466446331978 35.2311
28.767648490417624 35.2564
28.790813276438353 35.1645
28.813799678527303 35.257
28.836787265157085 35.1853
28.859955641890075 35.2656
28.882945610203045 35.1732
28.905936766392035 35.1998
28.928929111566863 35.1598
28.952102288520145 35.1595
28.975097024308607 34.9346
28.998092952423807 34.8769
29.021090073977508 34.7514
29.04426806913204 34.6094
29.067267590245258 34.4575
29.090268308143695 34.3442
29.11327022394099 34.3434
29.13645305530891 34.2087
29.159457379627167 34.193000000000005
29.18246290519685 34.1104
29.20546963313352 34.1027
29.22865731875826 34.1626
29.25166646419296 34.21
29.27467681535305 34.023
29.29768837335608 34.1197
29.320880931312562 34.1361
29.34389491580634 34.0988
29.366910110507334 34.0661
29.38992651653503 33.9087
29.41312396492981 33.9852
29.436142806456754 33.9805
29.45916286268059 33.893
29.48236399319994 33.7939
29.50538649169417 33.6447
29.528410208259935 33.5858
29.55143514402014 33.2696
29.574641196749695 33.1984
29.597668583816574 33.1149
29.6206971934585 33.0085
29.64372702680042 33.0423
29.666938019934474 32.8225
29.689970313635285 32.7067
29.713003834422636 32.7876
29.73603858342347 32.705
29.759254535188578 32.6819
29.78229175361658 32.6599
29.80533020365064 32.6267
29.82836988641968 32.7121
29.85159081507472 32.611999999999995
29.874632976355343 32.4711
29.89767637376955 32.5829
29.920721008448314 32.4517
29.9439469322847 32.3906
29.96699405457564 32.3289
29.9900424175358 32.3294
30.013092022298157 32.2406
30.03632295963995 32.2636
30.059375061131373 32.286
30.08242840783577 32.3118
30.105483000888153 32.3073
30.128718970092244 32.3853
30.151776069006917 32.1629
30.17483441768648 32.2857
30.198074175317235 32.2669
30.221135036724256 32.1996
30.24419715131772 32.1543
30.267260520236203 32.1682
30.290505341942243 32.1084
30.313571232750228 32.1373
30.336638381310948 32.1535
30.35970678876503 32.0448
30.38295669299435 32.0319
30.40602763151657 32.0901
30.429099832366074 32.1159
30.452173296685572 31.888
30.47542830191959 31.8449
30.498504306502497 31.8897
30.521581577995562 31.9275
30.544660117543582 31.9489
30.56792024229725 31.9944
30.59100133132069 31.9797
30.614083691845494 31.9924
30.637167325018545 32.0456
30.660432587840603 32.152
30.683518779717886 32.0275
30.70660624769615 32.0181
30.729694992924372 31.9138
30.75296541239743 32.0543
30.77605672557558 31.8441
30.799149319462742 31.9701
30.8224236211637 31.7945
30.845518789950724 31.6786
30.868615242910597 31.6674
30.891712981195973 31.5937
30.91499247215866 31.5927
30.938092794619365 31.3625
30.96119440587579 31.3059
30.984297307082752 31.1778
31.00758200598383 31.1702
31.030687500658694 31.0461
31.053794288760695 31.0045
31.076902371446767 30.8857
31.100192296997445 30.9807
31.12330298246119 30.8003
31.14641496599209 30.741999999999997
31.169528248749216 30.8459
31.19282341969534 30.7456
31.215939314557186 30.7866
31.239056512134788 30.7796
31.262175013589378 30.7242
31.28547544871168 30.6144
31.30859657161541 30.5699
31.331719001892175 30.5768
31.35484274070538 30.7011
31.378148458819545 30.7365
31.401274828443725 30.6898
31.424402510106933 30.6653
31.447712205419993 30.7475
31.470842524931633 30.7277
31.493974159989783 30.6804
31.51710711176168 30.6197
31.54042212308802 30.5892
31.563557722100917 30.5932
31.586694641341655 30.429000000000002
31.609832881979628 30.2348
31.63315322823208 30.3126
31.656294125521327 30.2272
31.679436347728515 30.1488
31.70257989602529 30.0397
31.725905596152327 29.9578
31.74905181052835 29.9201
31.772199354521323 30.0605
31.79534822930507 30.0128
31.818679302290967 29.9873
31.84183085259981 29.9615
31.864983737233473 29.9963
31.88813795736804 29.9513
31.911474422233013 29.8827
31.934631327356435 29.9646
31.9577895715215 29.8425
31.980949155906522 29.8435
32.004291031706956 29.8419
32.027453310562606 29.6851
32.05061693318573 29.6704
32.07396288236386 29.6295
32.09712920658542 29.471999999999998
32.12029687812702 29.4184
32.14346589817093 29.3169
32.166817291729984 29.3515
32.18998902288583 29.2483
32.21316210610336 29.1968
32.23633654256711 29.0529
32.259693399663725 29.1073
32.282870556771144 28.9803
32.30604907069099 28.9447
32.329228942610065 28.8895
32.35259128243769 28.8512
32.375773884550505 28.7519
32.398957848235646 28.7882
32.422143174682176 28.7132
32.445511016471215 28.666999999999998
32.468699082679954 28.4927
32.49188851523011 28.4654
32.51507931531304 28.5704
32.538452678331 28.5086
32.56164622776311 28.4795
32.58484114831493 28.3877
32.60803744118015 28.3608
32.631416344731896 28.3473
32.654615396551876 28.3692
32.67781582427913 28.1578
32.701198898634416 28.2489
32.72440209253756 28.1722
32.747606665947124 28.0724
32.77081262006088 27.8926
32.79420126883317 27.9723
32.81740999876112 28.0644
32.840620112999424 27.9455
32.86383161274818 27.8972
32.88722585534586 27.9102
32.91044014056596 28.006
32.933655814909734 27.8545
32.95687287957963 27.8476
32.98027273544904 27.7424
33.00349259526636 27.6737
33.026713849030116 27.6673
33.04993649794511 27.6969
33.073341986570746 27.7291
33.09656744032826 27.6518
33.11979429286444 27.6747
33.14302254538647 27.5554
33.166433686291185 27.5561
33.18966475336992 27.5767
33.212897224069096 27.5014
33.23613109959831 27.4746
33.259547912343415 27.3877
33.2827846121627 27.4194
33.306022720453775 27.3212
33.32926223842861 27.2455
33.352684742614166 27.2669
33.37592709463173 27.2195
33.399170859982064 27.1794
33.422597648419426 27.0188
33.44584425514446 26.9546
33.46909227885668 26.9201
33.4923417207723 26.7563
33.51577423505344 26.9224
33.539026528130385 26.7597
33.56228024307245 26.7731
33.585535381098246 26.6811
33.60897364093058 26.526
33.63223163992385 26.5992
33.6554910656699 26.5308
33.678751919389796 26.6056
33.702195944520106 26.3065
33.72545966903325 26.4421
33.74872482519663 26.365
33.771991414233746 26.3403
33.79544122444841 26.4068
33.81871069412428 26.2721
33.84198160035767 26.2195
33.86525394437455 26.2394
33.88870955949969 26.1623
33.911984794020626 26.1564
33.93526147001624 26.0486
33.958539588715006 26.0315
33.98200102861669 25.9893
34.0052820477047 25.9644
34.02856451319451 25.9854
34.05203033759056 25.8162
34.07531571090147 25.8462
34.09860253431845 25.7554
34.121890809074316 25.7729
34.145362493118924 25.7139
34.16865368561615 25.7058
34.191946333164054 25.6934
34.21524043699793 25.6969
34.23871800066799 25.6196
34.26201503218366 25.5295
34.28531352370466 25.4601
34.30861347646881 25.429000000000002
34.33209693978188 25.430999999999997
34.3553998301885 25.3909
34.378704185565205 25.2594
34.402010007152356 25.2364
34.42549939016683 25.2858
34.44880815937748 25.1898
34.472118398533134 25.1488
34.49543010887669 25.1372
34.51892543169198 24.9899
34.54224009966052 25.0276
34.56555624255917 25.0331
34.58887386163339 25.0294
34.61237514439016 24.8694
34.6356957311114 24.8357
34.65901779775809 24.851
34.68252356662995 24.7565
34.705848608458616 24.7956
34.72917513396849 24.7314
34.75250314440949 24.636
34.77601490857862 24.6125
34.799345904259795 24.5611
34.82267838863559 24.5554
34.846012362958525 24.5144
34.869530142679984 24.5114
34.89286711232212 24.4572
34.91620557568269 24.4136
34.93954553401677 24.4136
34.9630693495876 24.3283
34.986412313340814 24.3403
35.00975677584668 24.3857
35.033102738362956 24.1886
35.05663261012228 24.1773
35.0799815881786 24.1813
35.10333207003229 24.1696
35.12668405694369 24.1455
35.150220005273056 24.1233
35.17357501786656 24.0636
35.19693153931268 24.0238
35.220289570874385 24.0346
35.24383161619786 24.0018
35.267192683604904 23.9927
35.290555264930376 23.948
35.314101899412165 23.9441
35.33746752422433 23.9817
35.36083466676374 23.899
35.38420332829803 23.8599
35.407756095629054 23.866
35.43112781085063 23.7758
35.45450104888391 23.7298
35.477875810999194 23.7867
35.50143473172161 23.7567
35.52481255774625 23.7646
35.54819191167777 23.7234
35.57157279478914 23.644000000000002
35.595137889488406 23.6188
35.61852184675279 23.5945
35.641907337029984 23.5537
35.665294361595684 23.5245
35.68886565090076 23.416
35.7122557598848 23.3713
35.73564740699838 23.3922
35.759040593519934 23.2472
35.78261809810353 23.2401
35.80601437933051 23.2245
35.829412203814705 23.2332
35.85281157283719 23.1341
35.876395313415884 23.1656
35.8997977874528 23.1067
35.92320180988546 23.0555
35.946790244133936 23.0459
35.97019737933222 23.0594
35.993606066789866 22.9398
36.01701630779276 22.8915
36.04061101440684 22.8228
36.06402437852291 22.8874
36.08743930005611 22.8488
36.1108557802951 22.7304
36.13445678011326 22.7403
36.15787639383515 22.6862
36.18129757014299 22.7392
36.20472031032821 22.6805
36.22832762423364 22.5511
36.25175350829375 22.5535
36.275180960119776 22.5278
36.298609981005924 22.5386
36.32222362992669 22.5943
36.34565580510207 22.587
36.36908955323448 22.4773
36.39252487562093 22.2964
36.416144880530226 22.3423
36.43958336764275 22.3091
36.463023432914625 22.3232
36.486465077645676 22.2825
36.51009145956204 22.3381
36.53353627947859 22.2705
36.55698268276811 22.1481
36.58043067073321 22.1958
36.60406345072071 22.06
36.62751462435344 22.0369
36.65096738658405 22.0529
36.67460498210655 21.9593
36.69806093788647 21.9628
36.72151848619297 21.8835
36.744977628333636 21.8779
36.76862165890998 21.8668
36.79208400512205 21.8772
36.81554794910557 21.9196
36.83901349217101 21.7488
36.862663978991606 21.736
36.88613273667352 21.6379
36.90960309738324 21.7149
36.933075062434064 21.6008
36.95673202673572 21.6062
36.98020721697122 21.5465
37.003684015502365 21.4685
37.027162423645365 21.4484
37.050825886711465 21.4607
37.07430753063053 21.3442
37.09779078812467 21.3108
37.121275660513014 21.2646
37.144945643673694 21.2585
37.16843376245278 21.3201
37.19192350009803 21.2903
37.215414857931435 21.2258
37.239091382563885 21.2109
37.262585997426164 21.2242
37.28608223645736 21.1693
37.309763684451696 21.1076
37.33326318851098 21.1443
37.356764320726555 20.9894
37.380267082425526 21.0189
37.40395510942588 20.9485
37.42746114683234 20.9248
37.45096881771841 20.8735
37.474478123414166 20.8196
37.49817275092816 20.7746
37.52168534303452 20.8794
37.54519957395567 20.7036
37.568715445024665 20.6553
37.592416694607714 20.6497
37.61593586281424 20.7665
37.63945667518264 20.7552
37.66297913304891 20.5873
37.68668702630454 20.6069
37.710212792059274 20.4668
37.733740207334854 20.5193
37.757269273470364 20.4799
37.780983832050374 20.4088
37.80451621684926 20.4142
37.82805025654007 20.3678
37.851585952464795 20.3038
37.8753071980695 20.314
37.89884622345676 20.2532
37.92238690911902 20.234
37.94611318753442 20.1777
37.969657210779765 20.1664
37.99320289834801 20.1298
38.016750251586465 20.067
38.04048325513017 20.0248
38.06403395679343 20.0797
38.087586328183946 20.0588
38.11114037065203 20.0278
38.13488012115898 19.9847
38.1584375229181 19.8724
38.181996599821 19.8452
38.205557353221124 19.8784
38.229303872575656 19.8269
38.2528679961576 19.8574
38.27643380031219 19.7511
38.30000128639589 19.6935
38.32375459653193 19.7175
38.34732546371299 19.7479
38.37089801690786 19.6301
38.39447225747609 19.5856
38.418232380377425 19.6194
38.441810012983396 19.5701
38.46538933705673 19.4905
38.488970353960084 19.4968
38.51273731166058 19.4616
38.536321731567014 19.4359
38.55990784840681 19.3836
38.58367995004091 19.2849
38.60726947812959 19.2622
38.63086070726198 19.2406
38.654453638806274 19.2821
38.678232613930824 19.2354
38.70182896773327 19.1772
38.72542702806741 19.1528
38.7490267963045 19.158
38.77281266709232 19.1463
38.79641586862214 19.0659
38.8200207821842 19.0067
38.843627409152944 19.0824
38.86742019782782 18.9913
38.891030269149255 18.9299
38.914642058016156 18.9589
38.938255565806124 18.8719
38.96205529464307 18.8664
38.98567225787121 18.7875
39.00929094417078 18.7373
39.03291135492255 18.7963
39.05671804624804 18.7931
39.080341923549106 18.7088
39.103967529460334 18.6855
39.127594865365744 18.5971
39.15140854155791 18.6072
39.17503935514948 18.6256
39.19867190290282 18.604
39.22249083587951 18.555999999999997
39.24612686969409 18.4597
39.269764641845306 18.5146
39.293404153722804 18.5132
39.317230110864074 18.4411
39.34087311998506 18.3667
39.36451787301696 18.3501
39.388164371352595 18.2627
39.41199737518003 18.2989
39.43564738196752 18.2964
39.45929913825317 18.2705
39.48295264543308 18.2095
39.506792718520884 18.1408
39.530449745387216 18.1104
39.55410852735203 18.125
39.57776906581474 18.0768
39.60161623079 18.0848
39.625280300200025 18.0061
39.64894613032202 18.0413
39.67261372255866 18.0551
39.6964680021016 17.9984
39.72013913657293 17.9852
39.74381203738292 17.921
39.76748670593756 17.8894
39.79134812278169 17.8637
39.81502634488497 17.8873
39.83870633896685 17.8152
39.862388106436654 17.8352
39.88625668336918 17.7848
39.90994201572829 17.7527
39.933629125719285 17.6535
39.957503091207826 17.6006
39.9811937746168 17.6247
40.00488623990914 17.59
40.02858048850006 17.5727
40.05246165409549 17.4914
40.076159487492085 17.4241
40.099859108448875 17.5094
40.123560518384345 17.4125
40.1474489070226 17.425
40.171153913178564 17.3404
40.194860712584955 17.3794
40.2185693066637 17.3506
40.242464941335314 17.3457
40.26617714307655 17.3206
40.289891143772046 17.2846
40.3136069448471 17.2397
40.33750984859743 17.2199
40.3612292688043 17.2078
40.3849504936829 17.1073
40.40867352466194 17.1426
40.43258372059144 17.0739
40.45631038219906 17.105999999999998
40.48003885420956 17.1086
40.503769138055105 17.0536
40.52768664931955 17.034000000000002
40.55142057531802 16.9827
40.57515631746428 16.9325
40.599079334038514 16.9431
40.62281872700477 16.8684
40.64655994043941 16.8571
40.67030297578061 16.8398
40.69423334835778 16.7992
40.71798004609188 16.8147
40.74172857006355 16.7226
40.76547892171441 16.7332
40.7894166736039 16.7481
40.813170699248566 16.667
40.83692655691388 16.6628
40.86068424804498 16.6281
40.884629402612525 16.5686
40.908390779366385 16.5619
40.932153993938 16.5612
40.95591904777605 16.5617
40.979871628443995 16.5223
41.003640379561936 16.5054
41.02741097430883 16.4246
41.05118341413683 16.3696
41.075143444384416 16.3957
41.098919593177826 16.3751
41.1226975914255 16.3341
41.14647744058318 16.3019
41.170444943946755 16.3361
41.19422851378379 16.3002
41.218013938914645 16.2481
41.24198706625173 16.1903
41.26577622087193 16.1457
41.289567235177785 16.105
41.31336011063129 16.1357
41.337340752422875 16.1585
41.361137369129835 16.0659
41.38493585138705 16.0048
41.40873620066004 16.0354
41.43272438060107 15.9623
41.45652848292052 15.8791
41.48033445666918 15.8374
41.50414230331616 15.8489
41.528138045159764 15.8682
41.551949656675205 15.8487
41.575763145513235 15.8379
41.59957851314666 15.7963
41.62358184070442 15.7664
41.64740098505737 15.6896
41.6712220126409 15.6851
41.69504492493139 15.6871
41.71905586207357 15.6846
41.74288256296395 15.6308
41.766711153007456 15.6
41.79054163368412 15.5339
41.814560204340054 15.5733
41.838394485526365 15.5679
41.86223066180303 15.5013
41.88625497706819 15.4272
41.910094962812 15.4425
41.93393684811168 15.4669
41.95778063445365 15.3218
41.981812625263366 15.3424
42.00566023303407 15.3078
42.029509746323676 15.3323
42.05336116662236 15.3328
42.077400857069705 15.2556
42.10125611078846 15.2502
42.12511327600405 15.1777
42.14897235421036 15.1722
42.173019768448455 15.1667
42.19688269209613 15.1628
42.22074753323349 15.1472
42.24461429335818 15.0765
42.268669455600495 15.1381
42.292540073217886 15.0616
42.31641261433284 15.015999999999998
42.34028708044675 14.9789
42.36435001496739 14.982999999999999
42.38822835065557 14.9963
42.41210861586426 14.9722
42.4359908120986 14.9286
42.46006154323262 14.8508
42.48394762115317 14.8163
42.507835634632315 14.8902
42.531912233047436 14.8465
42.55580413732265 14.7868
42.579697981698 14.7224
42.60359376768525 14.6821
42.62767820545945 14.7277
42.65157789440821 14.7011
42.67547952952185 14.6556
42.699383112316 14.6331
42.72347541395347 14.5958
42.74738291190531 14.5617
42.771292362102166 14.5662
42.795203766063516 14.5186
42.819303956130405 14.5052
42.843219287476536 14.4776
42.86713657716324 14.4817
42.89105582671383 14.482000000000001
42.91516392983864 14.4183
42.939087119032166 14.3659
42.963012272677304 14.3284
42.98693939230129 14.3204
43.01105543317513 14.2542
43.034986504731386 14.2833
43.05891954686589 14.2179
43.08285456110972 14.2209
43.10697856448665 14.2343
43.130917542983475 14.203
43.15485849820081 14.1592
43.17880143167367 14.1067
43.20293342237094 14.1248
43.226880332449 14.0885
43.25082922540554 14.1282
43.27496722682525 14.0683
43.29892010567796 14.0464
43.32287497204102 13.9844
43.34683182745632 13.9743
43.370977859791836 13.9385
43.39493871351105 13.8942
43.41890156092628 13.89
43.44286640358341 13.8448
43.46702049182749 13.8392
43.49098934522816 13.8167
43.51496019852649 13.7518
43.5389330532723 13.7158
43.56309522248204 13.7226
43.58707210044314 13.7214
43.61105098451946 13.6512
43.63503187626491 13.7209
43.659202151562134 13.6714
43.68318707902681 13.6474
43.70717401884041 13.5553
43.731162972560874 13.5534
43.75534137913236 13.532
43.779334381108384 13.4937
43.803329401683186 13.4857
43.82732644241872 13.4817
43.8515130055166 13.4374
43.87551410707659 13.3968
43.89951723350145 13.3977
43.923709934595614 13.3946
43.94771713129917 13.3913
43.97172635758096 13.3531
43.99573761501002 13.2844
44.0199385169922 13.2553
44.04395385732619 13.2995
44.067971233533086 13.2828
44.09199064718605 13.2259
44.11619977548961 13.210999999999999
44.14022328470671 13.1656
44.16424883610785 13.1921
44.18827643127035 13.1743
44.21249381139513 13.1526
44.236525514814076 13.0488
44.26055926674478 13.0607
44.28459506876863 13.0488
44.3088207262813 13.0053
44.33286064928722 12.9871
44.35690262714919 12.9409
44.38094666145278 12.98
44.4051806219871 12.969000000000001
44.42922879003185 12.8991
44.45327901929361 12.8641
44.477331311362136 12.8678
44.501573600619416 12.8476
44.525630039221795 12.7531
44.54968854541895 12.8021
44.573937102200176 12.757
44.5979997645541 12.7932
44.622064499300315 12.7144
44.64613130803592 12.7326
44.67038823869318 12.7022
44.69445921643748 12.6374
44.718532272981385 12.6179
44.742607409926194 12.6077
44.76687274034801 12.6484
44.79095205918753 12.5515
44.81503346325094 12.5499
44.839116954143876 12.5705
44.86339071028742 12.4834
44.88747839599524 12.5047
44.91156817336837 12.4582
44.93566004401666 12.4525
44.959942251908146 12.4065
44.984038330325966 12.4002
45.00813650686762 12.3525
45.03223678314731 12.3217
45.05652746888232 12.3299
45.08063196592069 12.3136
45.104738567558705 12.264000000000001
45.128847275414856 12.2494
45.15314646515866 12.2117
45.17725940679741 12.1901
45.20137445952892 12.1852
45.22568004865265 12.2132
45.24979934496396 12.158
45.27392075725247 12.1548
45.29804428714431 12.1408
45.322358426247604 12.1215
45.346486212804315 12.0716
45.370616121861914 12.0359
45.39474815505086 12.0515
45.41907087049246 12.024000000000001
45.4432071734666 11.9731
45.46734560548283 11.9945
45.49148616817604 11.9582
45.51581748638564 11.9775
45.5399623320197 11.9453
45.56410931325473 11.8852
45.58825843173002 11.8702
45.61259837920865 11.7893
45.636751793816 11.8225
45.66090735060093 11.7719
45.68506505120716 11.7679
45.7094136545275 11.7556
45.73357566449271 11.7542
45.75773982322992 11.7506
45.78190613238733 11.712
45.806263418194064 11.6514
45.83043404997326 11.6621
45.85460683713677 11.6312
45.87897065658495 11.5991
45.90314777634752 11.6058
45.92732705646868 11.546
45.9515084986045 11.5405
45.97588104735473 11.5352
46.00006683541565 11.5417
46.02425479047904 11.4818
46.04844491420549 11.4755
46.0728262191024 11.4935
46.09702070211635 11.4339
46.12121735879483 11.4088
46.14541619080294 11.4049
46.169806278764455 11.3697
46.194009483459034 11.332
46.21821486849841 11.3525
46.24242243555223 11.3057
46.266821333570014 11.3218
46.29103328674601 11.2874
46.31524742696538 11.259
46.33946375590237 11.1856
46.36387149104216 11.1801
46.38809221957392 11.1946
46.41231514186606 11.1713
46.436540259597464 11.1659
46.460956858999374 11.1365
46.48518638983522 11.1039
46.509418121166966 11.0867
46.533652054678114 11.0789
46.55807754555709 11.048
46.58231590571962 11.027999999999999
46.60655647313217 10.9892
46.630988654873654 10.9845
46.655233659129024 10.9835
46.67948087571551 10.9622
46.70373030632484 10.935
46.72817142736393 10.9326
46.752425308428684 10.9116
46.77668140861147 10.8784
46.80093972960865 10.8473
46.82538981736788 10.8146
46.849652602470904 10.8489
46.87391761349769 10.7772
46.8981848521493 10.7538
46.9226439341274 10.747
46.946915650573224 10.7321
46.97118959976749 10.6854
46.99546578341598 10.6632
47.019933887188216 10.6438
47.04421456235744 10.6733
47.06849747711879 10.614
47.09278263318286 10.6167
47.11725978640143 10.5855
47.14154944775105 10.5781
47.165841355555656 10.5417
47.1901355115306 10.4573
47.214621741924994 10.4889
47.23892041698887 10.4709
47.26322134538975 10.4675
47.28771440635075 10.437000000000001
47.31201986422527 10.4356
47.33632758061436 10.4236
47.360637557241866 10.3638
47.38513974410611 10.3409
47.40945426407847 10.3523
47.43377104948137 10.3509
47.45809010204344 10.3152
47.48260144275502 10.2736
47.506925052572285 10.26
47.53125093475548 10.2251
47.55557909103813 10.2525
47.58009961361992 10.2153
47.60443234110732 10.2092
47.62876734791564 10.1725
47.65310463578333 10.2021
47.6776343683373 10.1691
47.7019762413987 10.1292
47.72632040075572 10.0998
47.75066684815169 10.0777
47.77520581885936 10.0862
47.799556865477655 10.0238
47.823910205386 10.0392
47.84826584033272 10.0327
47.87281407745551 9.96978
47.89717432569297 9.96745
47.92153687423484 9.97135
47.94609208429692 9.93719
47.97045925671401 9.92455
47.99482873471275 9.868039999999999
48.01920052005013 9.88381
48.04376504619224 9.86524
48.068141469543484 9.87395
48.09252020552573 9.82605
48.11690125590099 9.81328
48.1414751266064 9.78495
48.16586082917454 9.751339999999999
48.19024885144316 9.74889
48.2146391951793 9.76212
48.239222439012764 9.75029
48.26361744916137 9.6976
48.28801478610016 9.67595
48.31241445160131 9.67854
48.337007097209366 9.648430000000001
48.36141144338331 9.62993
48.38581812345755 9.60308
48.41022713920929 9.61256
48.434829215320704 9.563139999999999
48.45924292604658 9.57714
48.48365897780325 9.57161
48.50807737237308 9.53704
48.532688907799276 9.56589
48.55711201168574 9.53074
48.581537463754074 9.47873
48.60615611725119 9.49649
48.63058628942721 9.504489999999999
48.65501881516546 9.452110000000001
48.6794536962573 9.42251
48.70408185970339 9.43276
48.72852147531801 9.36559
48.75296345168211 9.33531
48.77740779059232 9.32734
48.80204549302823 9.34055
48.82649458091802 9.33765
48.85094603676547 9.26956
48.87539986237231 9.28185
48.90004713292306 9.27713
48.92450572200832 9.23667
48.94896668628025 9.2237
48.97343002754588 9.20572
48.99808689542115 9.219710000000001
49.02255501470614 9.19772
49.04702551642794 9.1863
49.0714984023988 9.17298
49.096164896893235 9.134780000000001
49.120642575466796 9.096860000000001
49.145122643748394 9.09642
49.16960510355558 9.06207
49.19428125404938 9.03802
49.2187685210852 9.024189999999999
49.243258185121555 8.996360000000001
49.26794160167084 8.99205
49.2924360839405 8.98881
49.31693296869764 8.96888
49.34143225776915 8.90094
49.36612538195438 8.8954
49.39062950396021 8.93341
49.41513603578346 8.85668
49.4396449792564 8.86133
49.46434784069503 8.86788
49.488861631846454 8.854239999999999
49.513377840166804 8.842030000000001
49.537896467493745 8.74195
49.56260909589029 8.756219999999999
49.587132585683285 8.76102
49.611658500018365 8.73811
49.636186840738596 8.74405
49.66090926588511 8.76063
49.685442483902584 8.689169999999999
49.70997813385706 8.662230000000001
49.734516217597076 8.6299
49.75924846937352 8.625580000000001
49.7837914452858 8.59929
49.80833686055187 8.595
49.83288471702571 8.602210000000001
49.85762682540054 8.61144
49.882179588965734 8.56638
49.9067347993235 8.58412
49.93129245833333 8.53839
49.95604445336378 8.54682
49.98060703442832 8.50537
50.005172069746266 8.469389999999999
50.02993150438364 8.464830000000001
50.05450147301533 8.50757
50.07907390151433 8.42516
50.10364879174981 8.39263
50.12841816587289 8.44322
50.1529980044635 8.449760000000001
50.17758031042124 8.3802
50.20216508562089 8.36738
50.22694442953363 8.33655
50.25153416817468 8.303139999999999
50.27612638170508 8.3113
50.300721072005196 8.2728
50.325510416102105 8.27232
50.350110084975064 8.23886
50.37471223628208 8.25194
50.39931687190919 8.22583
50.424116246675766 8.22487
50.44872587605249 8.1666
50.47333799543065 8.181339999999999
50.49795260670191 8.18014
50.52276204271512 8.14526
50.54738166295838 8.127180000000001
50.57200378079314 8.12205
50.596628398116835 8.09934
50.62144792604559 8.13101
50.646077567609396 8.08095
50.670709714377715 8.07157
50.69553683636198 8.07208
50.72017401885922 8.01485
50.7448137122895 8.00303
50.76945591856022 8.00272
50.79429318636823 7.974810000000001
50.818940443716784 7.952710000000001
50.84359021965163 7.95262
50.868242516085964 7.94441
50.893089960641895 7.92195
50.917747323549435 7.90309
50.94240721271973 7.8693
50.96706963007175 7.863519999999999
50.99192728239342 7.87865
51.01659478166073 7.85898
51.04126481489051 7.817069999999999
51.06593738400761 7.8197600000000005
51.090805275207074 7.79755
51.11548294172845 7.80463
51.14016314993547 7.75271
51.164845901758845 7.73642
51.18972406304274 7.7321800000000005
51.21441192780656 7.71595
51.23910234200271 7.6976
51.2637953075678 7.66293
51.288683770237945 7.65215
51.31338186432707 7.65813
51.33808251561888 7.62149
51.362978729967345 7.6286
51.387684521509755 7.60485
51.41239287610203 7.61065
51.437103795691165 7.573110000000001
51.46201036644977 7.538589999999999
51.486726441956634 7.520460000000001
51.51144508832545 7.5087
51.536166307509156 7.53718
51.56108326624387 7.4872
51.58580965706056 7.471030000000001
51.61053862657523 7.4771399999999995
51.635270176746864 7.429310000000001
51.66019755512065 7.43152
51.68493429268881 7.4301699999999995
51.70967361681515 7.44468
51.73441552946465 7.390910000000001
51.759353359237934 7.40295
51.7841004750961 7.37259
51.80885018539685 7.3513399999999995
51.833602492111254 7.31756
51.8585508051424 7.32947
51.883308330926425 7.290039999999999
51.90806845906181 7.296239999999999
51.932831191525715 7.2728399999999995
51.95779001977161 7.268110000000001
51.98255798721516 7.20366
52.00732856494335 7.19566
52.03229530577543 7.20675
52.057071130455945 7.2014
52.081849571391054 7.16904
52.106630630568695 7.152010000000001
52.13160794279417 7.14186
52.15639426492067 7.128710000000001
52.18118321127822 7.12257
52.205974783860896 7.142460000000001
52.23096269971011 7.1093
52.255759551287994 7.090789999999999
52.280559035098186 7.078989999999999
52.30536115314103 7.0577
52.33035970494467 7.0575600000000005
52.35516711807904 7.01558
52.37997717147198 6.94763
52.40478986713005 6.974530000000001
52.42979908731974 6.95515
52.454617094216 7.0042
52.47943774942214 6.94038
52.50426105495102 6.9268
52.529280976059844 6.9185
52.554109609024096 6.881810000000001
52.57894089837482 6.8952
52.60377484613117 6.93106
52.62880550079408 6.876869999999999
52.65364479223379 6.83058
52.67848674816189 6.80537
52.70352547971946 6.83162
52.72837279155837 6.79033
52.753222773982785 6.7939300000000005
52.778075429022984 6.75493
52.80312495150885 6.755330000000001
52.827982978797436 6.766589999999999
52.85284368481815 6.74487
52.87770707160767 6.718960000000001
52.90276741793998 6.69176
52.92763619336701 6.696219999999999
52.952507655698504 6.67033
52.977381806977576 6.66028
53.00245301017842 6.67922
53.02733256653592 6.63201
53.052214817996074 6.637810000000001
53.077099766608484 6.60959
53.102181859804446 6.6237699999999995
53.127072229988265 6.59278
53.15196530349892 6.54934
53.17686108239249 6.51199
53.20195409881522 6.558730000000001
53.22685531582556 6.56181
53.25175924441303 6.49607
53.27666588664027 6.52637
53.30176985962693 6.471419999999999
53.3266819565689 6.4915199999999995
53.35159677336455 6.4673099999999994
53.376514312083096 6.43041
53.40162927507703 6.41635
53.42655228516116 6.44016
53.45147802340193 6.37896
53.47660125628886 6.41421
53.50153247842639 6.39076
53.52646643496923 6.34014
53.55140312799818 6.32335
53.576537409691696 6.3158
53.60147960336152 6.30259
53.626424539786164 6.30502
53.65137222105307 6.26716
53.67651758529126 6.27065
53.70147078399681 6.26532
53.72642673383343 6.2721800000000005
53.75138543689533 6.25701
53.776541917524526 6.21205
53.801506154876755 6.20541
53.826473151763246 6.173830000000001
53.851442910284916 6.17494
53.87661054126026 6.213769999999999
53.9015858509782 6.18086
53.92656392866066 6.15759
53.95154477641532 6.15322
53.976723591801296 6.12336
54.00171000771266 6.08287
54.02669920004598 6.12294
54.051691170915745 6.0816300000000005
54.076881204886796 6.05395
54.101878760928514 6.0625800000000005
54.12687910187696 6.03505
54.152077577768296 6.05219
54.1770835166946 5.99244
54.20209224691339 6.00669
54.22710377055121 5.96269
54.25231352511594 5.94969
54.27733066384342 5.88834
54.30235060239643 5.95653
54.32737334290836 5.9178
54.35259441062629 5.88823
54.377622783395324 5.90185
54.40265396455061 5.90721
54.42768795623251 5.86944
54.45292037169559 5.84135
54.477960012857906 5.791580000000001
54.50300247099511 5.80243
54.52804774825457 5.78667
54.55329154616743 5.74569
54.57834249018678 5.72821
54.6033962597977 5.685
54.6284528571545 5.68239
54.653708072335164 5.67134
54.67877035378786 5.658440000000001
54.70383546947698 5.6731300000000005
54.72890342156389 5.62708
54.7541700889442 5.60414
54.77924374251975 5.59791
54.8043202390049 5.56055
54.82959552413022 5.51393
54.8546777351945 5.515
54.87976279569621 5.44236
54.90485070780914 5.49683
54.930137506558005 5.48843
54.95523115074295 5.44966
54.98032765308844 5.43047
55.005427015775496 5.41542
55.03072536339621 5.42619
55.05583047570572 5.37104
55.080938454927676 5.32429
55.10604930325027 5.33395
55.131359235107396 5.39153
55.15647585066083 5.2772
55.181595341907496 5.2279800000000005
55.20671771104285 5.25042
55.232039262617704 5.24489
55.25716741665048 5.202780000000001
55.28229845518636 5.18354
55.30743238042802 5.1304300000000005
55.33276558731939 5.1113599999999995
55.357905315183636 5.094069999999999
55.383047936390035 5.11149
55.40819345314859 5.06058
55.433538351073295 5.01061
55.458689688238415 5.02951
55.483843927614096 4.95695
55.509197623043605 4.91765
55.53435769621134 4.91402
55.55952067826466 4.91863
55.5846865714265 4.94088
55.61005202069737 4.88898
55.63522376553902 4.8814
55.66039842818645 4.80186
55.68557601087004 4.81016
55.7109532500271 4.802309999999999
55.73613670233794 4.79089
