TT I
1.2716486653135266 7.68115
1.2939594142134223 7.74418
1.3162702121660406 7.2493
1.3385810600174564 7.42209
1.3608919586137629 7.26037
1.383202908801069 6.614439999999999
1.405513911425503 6.591080000000001
1.4278249673332093 6.65492
1.4501343378461518 6.67115
1.4724455028545926 6.746339999999999
1.4947567236847858 6.03397
1.517068001182951 6.888510000000001
1.5393793361953272 6.0721
1.5616907295681737 6.4048
1.5840021821477681 5.943169999999999
1.60631369478041 5.4168
1.6286252683124185 5.7126
1.6509369035901333 5.0329
1.6732468618895553 5.21884
1.695558623192809 5.11281
1.7178704487808514 5.0955699999999995
1.7401823395001077 5.3387199999999995
1.7625012545597203 4.80504
1.7848028405262486 4.66996
1.8071218901122095 4.77954
1.8294236121921872 4.70895
1.8517427996910911 4.86843
1.8740620574440425 4.82421
1.8963639900671978 4.849130000000001
1.9186833908139995 5.24985
1.9409854680117449 5.026619999999999
1.9633050151394713 4.72999
1.9856246367570705 5.07528
2.0079269371922672 4.73506
2.03024671027244 5.11995
2.0525491637446027 4.8952599999999995
2.074869091674931 5.06683
2.097171701569106 4.52616
2.1194917877373847 5.03851
2.141811954326636 4.95606
2.164114805233074 4.56009
2.186435135143035 5.89055
2.208738150935709 12.0491
2.231058647554722 23.1837
2.2533792288321184 18.4097
2.275682498336085 8.52037
2.298003251406138 5.40298
2.3203066942619714 5.32099
2.3426276225136022 5.30288
2.3649486396617507 4.83931
2.387252348930071 5.10195
2.4095735463442893 4.79829
2.4318774374315884 4.93734
2.4541988185014043 5.26406
2.476502894794693 5.71161
2.498824462909887 5.4117
2.521146125856138 5.29384
2.5434504863470337 5.70472
2.5657723414244717 6.0333
2.588076895590662 6.2316
2.610398946189713 6.71599
2.6327210958598384 6.07634
2.6550259469304716 5.7746900000000005
2.6773482972090137 6.35343
2.6996533504259 6.8999
2.7219759047039602 6.82521
2.744298562293959 6.9082
2.7666039251246595 7.0889999999999995
2.7889267918020164 7.102589999999999
2.8112323652516555 7.13639
2.833555444408179 7.85526
2.8558786311183852 7.3566899999999995
2.8781845268938557 8.08002
2.9005079311721484 8.68701
2.9228140460410397 8.78589
2.9451376712799635 9.78691
2.967444008632326 9.30648
2.9897678582247247 9.51383
3.0120918213106695 10.0017
3.0343984987899373 10.9029
3.0567226913198637 11.1533
3.079029599759726 11.4157
3.101354025127254 12.0504
3.123678568232338 12.636
3.145985829517914 13.144
3.16831061055229 13.77
3.1906181112775593 13.7972
3.212943133635653 14.7308
3.2352682779763207 15.3243
3.2575761442691227 15.7964
3.2799015350264273 15.6919
3.302209649240067 16.4328
3.3245352898092655 17.2393
3.3468436553365257 17.5823
3.369169549113219 17.9349
3.3914955708171384 18.2741
3.413804319727358 18.7907
3.4361305997334863 19.4775
3.4584396084414553 20.2887
3.4807661501462652 20.3162
3.503092824025881 21.366
3.5254022288463154 21.2864
3.5477291695206588 22.1822
3.5700388426251948 22.706999999999997
3.5923660534916446 24.3417
3.6146934007816114 35.7238
3.637003482731501 75.8288
3.6593311053109985 83.9675
3.681641464033634 51.2525
3.7039693653009733 29.9767
3.726297407241705 26.3379
3.7486081875460804 25.9875
3.7709365132734978 26.738000000000003
3.793247578841633 26.9618
3.8155761917550093 27.0622
3.8378875459837216 27.5602
3.8602164494827234 27.8748
3.882545499606844 29.0809
3.9048572932539183 29.5754
3.9271866390645718 29.761999999999997
3.9494987298666713 30.1249
3.971828374764527 30.891
3.9941581705403255 31.9095
4.016470713506008 31.9162
4.038800813471445 33.2832
4.061113662089144 34.2673
4.0834440696459176 34.6491
4.105774632334751 34.8064
4.128087945865126 35.8111
4.150418821249301 36.6322
4.172732448931298 38.2312
4.195063640413578 39.9792
4.2173775856475215 43.1488
4.239709096631102 69.567
4.262040768704612 198.745
4.284355196706267 262.597
4.306687193387355 174.90200000000002
4.329001947444346 75.8058
4.35133427213731 48.8494
4.373666762177566 45.6181
4.395982011761091 45.8109
4.418314834921175 47.1758
4.44063041906622 53.3453
4.4629635787515625 62.7165
4.4852969080429785 62.7849
4.5076130004776225 55.6492
4.529946671403969 53.565
4.552263106909177 53.8731
4.574597122877047 53.7016
4.596931312711224 54.9392
4.619248269273446 55.8237
4.6415828092605835 56.7646
4.663900117405352 57.4253
4.686235010953232 59.0682
4.708552674085913 60.4631
4.730887924602802 62.031000000000006
4.753223354952695 63.6017
4.775541557023902 65.5623
4.797877349456786 67.6236
4.820195915032126 69.3517
4.842532072957498 70.6654
4.864868414979744 72.6344
4.88718753227192 75.442
4.909524244902505 77.3854
4.931843734218147 79.3599
4.954180820867835 81.9252
4.976518095879839 85.5696
4.998838149695359 88.9439
5.021175803844231 93.7539
5.043496238205739 97.5165
5.065834274903528 102.68799999999999
5.088172504230693 109.242
5.1104935158799565 118.295
5.132832132875765 143.577
5.155153533596801 189.085
5.1774925416746225 244.458
5.199814334878411 546.261
5.2221537374521505 1562.42
5.244493338631803 3528.0
5.266815727034316 6926.71
5.289155727832427 10636.0
5.311478517248165 9655.37
5.333818921080011 4269.21
5.356159527788849 979.316
5.3784829252032536 266.689
5.400823940070432 178.955
5.423147747031976 150.24200000000002
5.445489173474152 134.68200000000002
5.467830807066149 127.43799999999999
5.490155234831516 121.758
5.512497285125229 116.05799999999999
5.534822130975162 112.729
5.557164601388673 109.978
5.579489868738879 106.454
5.601832762690846 104.97
5.6241758697774475 103.882
5.646501775867269 102.771
5.668845311622074 101.708
5.691171647754637 100.175
5.713515615597765 99.2957
5.735859800852677 98.4301
5.758186788542988 98.6246
5.780531411018185 99.6217
5.802858837297399 98.7513
5.825203900414495 99.3725
5.8475491852224 100.434
5.869877275883075 100.514
5.892223006467101 102.046
5.914551544266608 104.027
5.936897724049891 108.289
5.959244129804903 117.40299999999999
5.981573344815301 147.607
6.0039202049061 282.089
6.026249875609095 639.052
6.04859719346037 1224.39
6.070927323278297 2171.49
6.093275102315365 3718.29
6.115623113320588 4638.35
6.137953938319995 3602.89
6.160302415650845 1426.7
6.182633708324452 366.389
6.2049826554078376 147.07
6.227331838745022 108.039
6.249663839443684 95.4864
6.27201349767565 90.0615
6.294345974611799 92.8473
6.316696111167083 101.396
6.339046488263839 96.0023
6.361379686074702 82.4666
6.383730546639482 75.9978
6.406064229255215 73.4595
6.428415576718203 72.707
6.450749747566656 71.0668
6.47310158535871 69.2225
6.495453669698332 68.343
6.517788579421056 67.747
6.540141159237969 66.6216
6.562476565766648 66.1476
6.5848296444934045 65.7159
6.607182974060425 65.3327
6.6295191323281015 65.8683
6.651872965955752 68.19800000000001
6.6742096296068985 87.9694
6.6965639707294615 125.023
6.71891856698715 126.167
6.741255995248479 90.6899
6.763611104154477 68.7748
6.785949046381137 62.7128
6.808304671371482 61.2054
6.8306605557940046 60.9125
6.852999275508618 59.8709
6.875355681171544 59.5716
6.897694923437771 59.0626
6.92005185377892 58.7726
6.9423916220322655 58.6387
6.964749080490181 58.2944
6.987106804399774 57.8308
7.009447368180821 58.4538
7.031805625367033 57.7847
7.054146723727803 57.9642
7.076505517631004 57.1454
7.098864581288365 57.3783
7.121206488070854 57.4
7.143566093607822 57.1407
7.165908543567245 57.5968
7.188268694426048 57.6444
7.2106291193438095 57.6618
7.232972390625943 58.6269
7.255333366030969 68.6023
7.277677189091925 111.26
7.300038718428332 150.863
7.322400526130865 130.60299999999998
7.344745183422596 85.2886
7.367107550224791 62.7505
7.389452767901992 57.9521
7.411815697249891 57.0072
7.434161478756298 56.326
7.456524974096713 56.4785
7.478888753837185 56.135
7.501235387657368 56.6699
7.523599738562711 56.8875
7.545946944825532 56.9359
7.568311870344528 57.49100000000001
7.5906770845765665 57.794
7.613025156078678 58.7392
7.635390950099687 59.6723
7.657739602662809 59.0208
7.680105979923558 58.2086
7.702472650212829 58.4806
7.724822180948224 58.3475
7.747189439655568 58.5322
7.769539560075357 58.4819
7.791907410653562 58.9047
7.81425812420825 58.8243
7.836626570110925 59.3779
7.858995315087906 60.1737
7.881346924933401 59.9496
7.903716270417482 60.7399
7.926068482028405 61.4231
7.948438431475253 61.8007
7.9708086843180235 61.9828
7.993161805171116 62.8651
8.015532667162402 63.8067
8.037886398416653 65.0073
8.060257873014221 65.0749
8.082629655331942 65.6592
8.104984308787587 66.7015
8.127356708900503 69.5461
8.149711981398308 74.7032
8.172085002766314 77.2621
8.194458336181368 74.4123
8.216814543847752 72.3741
8.23918850371002 72.6086
8.26154533906492 73.7772
8.283919928836452 75.4236
8.306277395339652 76.5515
8.328652618483376 77.8206
8.351028159736202 80.2272
8.373386579575245 82.5503
8.395762759396959 84.6586
8.418121819038275 90.1614
8.440498640894003 102.084
8.462875785192262 116.833
8.485235811156207 136.32299999999998
8.507613602688501 199.335
8.529974277114228 329.865
8.552352719347912 495.664
8.574731488360351 721.2589999999999
8.59709314210385 1097.45
8.619472567021075 1589.55
8.64183487789147 2001.19
8.664214962183097 1942.56
8.686577933647762 1239.68
8.708958680784317 563.998
8.731339760774953 230.892
8.753703729764451 132.02200000000002
8.77608547780821 110.281
8.798450116065078 103.904
8.820832535634787 99.2456
8.843215292401656 97.3345
8.865580941199045 95.6552
8.887964374703538 94.0933
8.910330701447199 94.6348
8.932714815164482 96.3229
8.955099270424924 95.1105
8.977466620733543 91.6079
8.999851761421976 89.1361
9.022219798361645 88.0845
9.04460562795561 87.73200000000001
9.066991803441677 87.1733
9.089360876979615 87.1412
9.111747746589993 86.9622
9.13411751544971 86.1387
9.156505082664324 85.8181
9.178875550323522 85.85600000000001
9.20126381862328 85.9202
9.223652438908596 86.4279
9.246023961427412 86.4108
9.26841328802173 85.8864
9.290785518039224 86.0014
9.313175554425882 87.3909
9.335565947154315 87.2839
9.357939245086508 87.5819
9.380330352834827 87.1017
9.40270436697103 87.5205
9.425096193225055 87.1321
9.447488380180165 87.8239
9.469863475295412 88.096
9.492256385987508 88.5603
9.514632206018318 89.4268
9.537025843935714 89.8535
9.559402392368193 90.4393
9.581796761000229 91.6689
9.604191496441521 93.2908
9.626569144158516 96.1598
9.648964615551032 99.9152
9.671343000390081 101.175
9.693739211225699 99.8083
9.716135793237463 97.6983
9.738515290448102 97.5565
9.760912617143402 98.9683
9.783292860202891 100.329
9.805690935076182 101.82
9.828089385495742 102.98899999999999
9.850470754023561 105.353
9.872869957865444 112.05799999999999
9.89525208097539 125.18700000000001
9.917652041736662 136.66
9.940052382417589 139.398
9.962435644102392 155.575
9.984836746950979 208.705
10.007220771957746 308.672
10.029622640473708 439.38
10.052007432299963 595.158
10.074410069984072 800.7769999999999
10.096813093716005 1106.8
10.119199042482517 1482.55
10.141602840636468 1789.37
10.163989564971628 1729.83
10.186394141051062 1186.22
10.208799107559706 598.564
10.231187001965623 274.557
10.253592751657669 153.691
10.275981430388155 125.073
10.298387966769793 120.897
10.320794897965431 120.97200000000001
10.343184759907361 119.134
10.36559248305461 114.012
10.387983138083852 111.176
10.410391656691655 115.62899999999999
10.432800574501677 130.936
10.455192425893369 156.655
10.47760214443012 188.68400000000003
10.499994797678786 224.703
10.522405320453982 279.762
10.54479877906917 362.733
10.567210109595656 461.07199999999995
10.5896218454736 534.2819999999999
10.612016518879773 546.393
10.634429067781074 428.47900000000004
10.656824555333241 265.094
10.679237920773568 158.537
10.701651695961992 109.48899999999999
10.724048411481384 95.8844
10.746463008485165 91.7219
10.768860546937125 89.8382
10.791275969274796 87.723
10.81369180576079 86.2187
10.836090585366925 85.0311
10.858507252467449 83.8771
10.88090686379991 82.6877
10.903324365036394 82.3387
10.925724811614439 81.6477
10.948143150509463 82.8752
10.970561909719066 81.9718
10.992963615930844 80.1292
11.015383218085756 78.002
11.037785768347074 76.6598
11.06020621697282 76.1712
11.082627090322113 75.5502
11.105030913430326 75.0779
11.12745263854165 75.0799
11.149857314510728 77.7341
11.172279894912576 82.6454
11.194702904450653 83.2681
11.217108866490921 79.6192
11.239532736615194 76.3761
11.26193956033512 74.1979
11.284364294577085 72.6397
11.306789462371718 70.8447
11.329197585398376 70.0003
11.351623622610898 69.9552
11.37403261614354 69.1078
11.396459526308487 68.9408
11.418869393879497 68.5692
11.441297180532617 67.9816
11.463725406927658 67.7416
11.486136592353875 67.6464
11.508565700543707 68.0449
11.530977768845315 69.5613
11.553407762368774 70.248
11.575838200059769 69.5854
11.598251599479612 67.7865
11.620682927815501 66.817
11.64309721895548 66.4276
11.665529441478206 65.7639
11.687962112597958 65.4877
11.710377748130886 65.646
11.732811318753434 65.4024
11.755227854859067 65.4969
11.777662328529495 65.3961
11.800079768750786 65.3724
11.822515149015453 65.1633
11.844950984084935 65.1966
11.867369787303163 65.2314
11.889806534289491 65.1779
11.912226250487029 65.5471
11.934663912939751 65.512
11.9571020346363 66.0008
11.979523127133968 66.0488
12.001962169624331 66.8577
12.024384183972964 68.2193
12.046824150809913 72.3047
12.069264581333726 79.3957
12.091687985297767 88.0652
12.11412934550045 96.8792
12.136553680195208 108.23700000000001
12.158995973632788 124.463
12.181438735204349 144.14600000000002
12.20386447284199 167.933
12.226308172985636 193.41
12.24873485024193 205.46200000000002
12.271179492516982 187.71900000000002
12.293607112949127 151.624
12.316052700916226 113.595
12.338498763250042 87.4457
12.360927805303868 74.6959
12.383374818673879 69.7894
12.405804812803074 67.5819
12.428252780773262 67.2812
12.45070122756722 67.2562
12.473132656675375 67.1859
12.49558206341869 67.3807
12.518014453510101 67.376
12.540464823770117 67.5177
12.562915677315177 67.7437
12.58534951575545 68.2791
12.607801338171472 69.7553
12.630236146511358 74.1216
12.652688941369085 78.1933
12.675124723177234 78.9517
12.697578494048786 75.9654
12.720032754458185 72.3373
12.742470003354093 70.8943
12.764925245138771 70.8397
12.787363476431278 71.1414
12.809819703166806 71.419
12.83227642391173 71.941
12.854716135692716 72.8912
12.877173846755147 74.0536
12.899614549869717 74.2583
12.9220732548287 75.1443
12.94453245827299 75.7085
12.966974655289818 76.6179
12.989434858002571 77.2511
13.011878055298721 78.2787
13.034339260862497 79.3371
13.056800969391883 80.7814
13.079245674017244 82.9692
13.101708390774869 85.9804
13.12415410463411 94.8731
13.146617833206086 110.101
13.169064559883248 128.135
13.191529303857127 146.998
13.213994557076367 167.09900000000002
13.236442809902437 191.638
13.258909083908291 229.53
13.28135835851934 275.851
13.30382565690295 331.034
13.326293469022952 387.33
13.348744283242008 424.917
13.371213125129904 394.31199999999995
13.39366497011003 321.252
13.416134845360597 221.801
13.438605238843131 151.84
13.46105863690397 121.18299999999999
13.483530069144786 117.402
13.505984506951902 125.40100000000001
13.528456981549432 138.82
13.550929978879088 153.07399999999998
13.573385983253365 169.768
13.595860028340867 194.18200000000002
13.618317081455832 229.95
13.64079217790333 270.726
13.663250283359057 316.98400000000004
13.685726434770173 353.35900000000004
13.708203115221277 357.68199999999996
13.730662806148091 308.724
13.75314054697177 233.237
13.775601299246777 159.44899999999998
13.798080104050406 113.50399999999999
13.820559442405358 93.3243
13.843021793671388 87.0889
13.865502201420897 84.5104
13.887965623051947 83.7365
13.910447103807167 82.4134
13.932929122629764 80.9135
13.955394156785959 80.4177
13.977877254034569 79.4204
14.000343367582113 78.3582
14.022827546871707 78.0423
14.045294743423524 77.0873
14.06778000837062 76.4122
14.090265817715476 76.4313
14.112734645763819 75.6923
14.13522154619454 75.5391
14.157691466286913 75.5301
14.180179461423874 75.3102
14.202668005486178 74.5919
14.22513957064374 74.113
14.247629214846473 73.5958
14.270101881097517 73.5204
14.29259262906496 73.6692
14.315083930490205 74.1721
14.337558255389705 74.41
14.360050666019726 73.9512
14.382526101071944 73.2593
14.405019624534942 72.572
14.427513705993134 71.939
14.449990813291825 71.9228
14.47248601302899 71.8545
14.49496423954951 71.5718
14.517460561197822 71.9118
14.539939910570322 71.7069
14.562437357763558 72.2101
14.58493536931253 72.8944
14.607416409993311 73.7527
14.62991555254159 74.4028
14.652397725157423 74.4879
14.674898002342799 74.0635
14.697398848433282 73.6286
14.719882725991326 74.3507
14.74238471217934 75.7786
14.764869730765593 80.096
14.787372860692983 85.2285
14.809876564079925 92.0705
14.83236330125751 99.4698
14.854868153850365 107.194
14.877356041159485 116.416
14.899862046604186 128.763
14.922351087688757 146.423
14.944858249632887 166.87599999999998
14.967365991421232 189.967
14.989856770231246 209.2
15.012365673994204 218.821
15.03485761569738 207.769
15.05736768508665 176.52900000000002
15.07987833888692 138.119
15.102372032001655 106.322
15.124883856909658 86.0576
15.14737872204565 77.5468
15.169891721717274 74.4948
15.192405310371893 74.0316
15.214901940621196 73.8875
15.237416709527137 73.8539
15.259914520936249 73.926
15.282430473753607 72.9449
15.304947020131227 71.8296
15.327446610371178 71.1444
15.349964346154254 70.4273
15.372465126703139 69.8058
15.394984055556009 69.7059
15.417486030076159 69.3524
15.44000615566487 68.865
15.462526881230803 68.9266
15.485030653812652 69.1761
15.507552581617434 68.943
15.530057557334603 69.1737
15.55258069104857 69.0458
15.575104429329837 69.3476
15.597611216864632 68.8188
15.620136166564563 68.9797
15.6426441664095 70.1953
15.665170331202765 73.3745
15.687697105158826 77.7811
15.710206930593545 83.3075
15.732734925158933 88.9376
15.755245972089478 94.9192
15.77777519094324 100.772
15.800287463046663 109.535
15.822817909869592 122.307
15.84534897229804 137.98
15.867863089299354 155.491
15.890395385222186 172.766
15.912910736597423 187.93900000000002
15.935444269699861 190.43900000000002
15.957978423016485 174.356
15.980495633101265 145.475
16.003031029129367 115.54700000000001
16.02554948280019 88.8177
16.048086125229432 74.2872
16.070623392487107 69.2817
16.09314371869582 67.637
16.11568223789321 66.3237
16.13820381691126 65.2463
16.160743591742527 64.1975
16.183283996022084 63.2939
16.205807461423195 62.1737
16.228349126881973 61.7368
16.25087385432698 61.7616
16.27341678466365 60.9206
16.29594277784926 60.9398
16.31848697676433 60.913999999999994
16.341031811604868 60.9655
16.36355971058487 61.3933
16.3861058195587 61.1417
16.40863499352978 60.0754
16.431182380342005 59.3058
16.453730407713202 58.7446
16.476261501364792 58.2927
16.498810812136167 58.0317
16.52134319004079 58.0373
16.54389378792203 58.0443
16.566445031001553 57.6828
16.588979342490088 57.6626
16.61153187824822 57.4244
16.634067483263312 57.2195
16.656621315414416 57.1352
16.679175797408888 56.7237
16.701713349928728 56.9741
16.72426913389191 57.1902
16.74680798922351 57.3469
16.76936507887444 57.2666
16.791905240734874 57.1183
16.814463639794468 57.0404
16.837022695210294 57.3337
16.859564824093756 57.6202
16.882125194503903 58.196999999999996
16.904668639217885 58.7002
16.927230328348003 58.8294
16.949792678493612 58.9522
16.972338104193863 58.5454
16.994901778652235 58.0027
17.017448529496576 58.118
17.040013531998152 58.3999
17.06257920018044 58.8854
17.0851279459922 60.089
17.107694947817667 61.338
17.130245028099072 62.1734
17.15281336730298 63.6141
17.17536478578733 64.8619
17.19793446610687 66.6633
17.220504818648422 68.7166
17.243058251703697 70.8201
17.265629950971032 74.2704
17.288184731571736 77.859
17.310757781306908 82.2802
17.33333150794385 84.7763
17.355888317140174 85.4123
17.37846339986244 83.0065
17.401021565958885 77.4667
17.42359800851343 71.9165
17.44617513265564 67.3675
17.468735341390783 63.9567
17.491261035594565 62.2951
17.51396340099364 61.7697
17.536490463869136 61.7412
17.559018209820174 61.7531
17.58154663977963 61.8817
17.604251766089718 62.0034
17.626781572227713 62.2661
17.64931206518155 62.486999999999995
17.671843245885103 62.9876
17.69455114821572 63.086999999999996
17.717083712612634 63.5855
17.739616967569667 63.6883
17.762150914021706 64.0042
17.78486160749854 64.0767
17.807396945166804 64.76899999999999
17.829932977143503 65.6981
17.85246970436452 67.6869
17.875183204129467 70.0627
17.897721330097664 73.2478
17.920260154126645 76.5806
17.942799677153296 80.0551
17.9655159983646 83.0864
17.988056927677544 86.57700000000001
18.010598558807683 91.8198
18.033140892692916 98.6301
18.05586005052525 106.39200000000001
18.07840379824407 115.581
18.10094825154059 125.744
18.12366954819864 136.12
18.146215420998306 142.024
18.16876200220057 141.733
18.191309292745153 132.40200000000002
18.214033452627167 119.036
18.236582170236648 104.522
18.259131600016456 94.4909
18.281681742907335 90.1066
18.304408781233683 91.0505
18.32696035875955 93.9639
18.349512652227624 97.8543
18.372065662579683 103.13799999999999
18.394795594587553 106.65700000000001
18.41735004715306 106.92299999999999
18.43990521943684 103.223
18.46246111238171 95.5028
18.485193953325208 85.8563
18.507751296070428 76.9937
18.530309362314178 70.9872
18.552868153000343 67.5693
18.57560391815056 65.6053
18.59816416623245 64.8176
18.620725141597372 64.3541
18.643286845190268 63.8818
18.666025549835414 63.2515
18.688588718427933 62.5612
18.711152618092243 62.3811
18.73389353884365 62.1388
18.75645890921984 61.7327
18.77902501351406 61.285
18.801591852673102 61.3678
18.824335739722738 60.6311
18.846904057212626 60.5812
18.8694731124168 60.4094
18.89204290628315 60.3967
18.914789774966803 60.248999999999995
18.937361054791623 59.9147
18.959933076131318 59.6077
18.982505839934877 59.3902
19.00525570560582 59.6418
19.027829963004184 59.4848
19.05040496572238 59.4962
19.072980714710468 59.4843
19.095733592739563 59.7778
19.11831084296757 60.2587
19.140888842324735 60.9585
19.16346759176222 61.415
19.18622349753803 62.0153
19.208803755869358 62.5951
19.231384767143577 63.4508
19.253966532312948 64.4436
19.276725481241822 65.6848
19.29930876296784 67.3548
19.3218928014549 69.6193
19.34465404436217 72.3666
19.36723960516257 75.0713
19.389825925592426 77.0797
19.412413006605938 77.9648
19.43517731967805 76.4079
19.457765930683355 73.4644
19.48035530514408 68.9705
19.50294544401556 64.2994
19.525712842708348 60.8365
19.54830451925909 58.6687
19.570896963095727 57.0531
19.593490175174704 56.33
19.616260674962184 56.3089
19.638855432416964 55.9516
19.661450960992624 56.2824
19.68404726164677 55.751999999999995
19.706820878021247 55.6222
19.729418731756834 55.8444
19.752017360452857 55.5922
19.77461676506804 55.7625
19.797393513540218 55.9202
19.819994478951667 56.3061
19.84259622316767 56.9684
19.8651987471481 57.7597
19.887978643247177 58.1195
19.91058273574792 58.4005
19.933187610901943 59.2369
19.955969879466828 59.8629
19.97857632894404 60.7581
20.00118356396599 61.8746
20.023791585494575 63.5038
20.046577028914875 65.8772
20.069186632506966 67.9379
20.091797025500632 69.9949
20.114408208858933 71.8057
20.137196842715273 72.5474
20.159809615886765 72.452
20.18242318232135 70.4215
20.20503754298326 68.0826
20.227829382875154 65.9908
20.250445341109344 64.6247
20.27306209647285 64.2953
20.29567964993108 64.7491
20.31847471147704 65.6332
20.34109387027612 66.458
20.363713830075454 67.2692
20.386334591841646 66.9596
20.409132890679302 65.3981
20.431755265564437 62.3955
20.454378445325528 59.5491
20.477002430930366 57.3236
20.499803982716553 55.5182
20.522429589228004 54.0121
20.54505600449589 53.4787
20.567683229489194 53.2403
20.590488049900088 52.7246
20.61311690359731 52.5083
20.63574656993626 52.3579
20.658553853717297 51.8132
20.681185154618298 51.8712
20.703817271080066 51.6773
20.72645020407368 51.3125
20.749260783967177 51.2324
20.771895359337133 51.1116
20.794530754161617 51.1089
20.817166969412938 51.1125
20.83998086114876 50.9199
20.86261872660049 50.8733
20.885257415405402 50.933
20.90789692853701 50.7328
20.930714147864748 50.7244
20.953355319030678 50.9393
20.97599731745334 51.1394
20.99864014410749 50.7818
21.021460706796564 50.9304
21.044105199328826 51.0597
21.06675052302631 51.1316
21.089396678865015 51.4316
21.112220600704806 51.5516
21.134868430275347 51.9363
21.15751709492456 52.0438
21.180166595629693 52.0589
21.202993892429635 52.5229
21.22564507473034 52.9612
21.24829709602816 53.4036
21.27112693608965 53.43600000000001
21.293780644891275 53.6536
21.316435195634053 53.0922
21.339090589297417 52.7241
21.361923832041875 52.3606
21.384580921090404 51.5558
21.407238856007325 50.6729
21.429897637773326 50.7592
21.45273429906592 50.7183
21.475394784108598 50.6161
21.498056118951983 50.5105
21.520718304578022 50.6309
21.543558400304388 50.8524
21.566222297108816 51.0104
21.58888704765135 51.0338
21.61155265291521 51.3743
21.63439619898156 52.1492
21.657063523335786 52.4811
21.67973170537063 53.0695
21.7024007460706 53.7018
21.72524775840385 54.3301
21.747918526116475 54.9941
21.770590155457388 55.9519
21.79326264741238 56.9445
21.816113141960237 58.4058
21.838787368860547 59.9105
21.861462461341976 61.4005
21.884315579735777 63.1842
21.90699241312273 64.8644
21.92967011506078 66.2982
21.95234868653799 67.1005
21.9752053151131 66.8754
21.997885635446785 65.6378
22.020566828293532 63.5786
22.04324889464272 61.3589
22.066109049404666 59.3753
22.088792872571794 58.1151
22.111477572219204 57.8182
22.1341631493376 57.8118
22.157026846313123 58.1092
22.179714188221507 58.0279
22.202402410582668 57.2772
22.22509151438863 56.0079
22.24795876962584 54.745
22.270649646204486 53.5699
22.293341407213727 52.7833
22.316034053646906 52.0439
22.338904883215342 51.3289
22.36159931041458 51.1503
22.38429462602756 51.2561
22.40699083104897 50.9732
22.429865251039757 51.1147
22.452563244831367 51.1266
22.47526213102522 50.9984
22.49813925616515 50.9537
22.520839937143307 50.7785
22.543541513520587 50.757
22.56624398629403 50.6609
22.589124730075895 50.713
22.611829005656723 50.7428
22.63453418063466 50.7718
22.657240256008077 51.1033
22.680124634582935 51.3079
22.70283252079775 51.5667
22.725541310413075 52.1227
22.74825100442868 52.148999999999994
22.771139033969575 52.7623
22.79385054687155 52.7091
22.81656296718292 53.244
22.83927629590484 53.9838
22.862167992606945 54.4784
22.88488314827121 55.351000000000006
22.907599215359284 56.0798
22.93031619487366 57.1534
22.953211574954405 58.0535
22.975930389478226 59.0813
22.998650119445763 59.7456
23.02137076586092 59.5786
23.044269845560063 59.1898
23.06699233506288 57.9549
23.089715744034912 56.2339
23.112617610931565 54.5055
23.135342869061212 53.0885
23.158069049684816 51.9234
23.1807961538087 51.3427
23.20370174880544 51.1697
23.226430710184808 51.1415
23.249160598093425 51.2423
23.271891413539002 51.0581
23.294800752937697 51.1532
23.31753343374794 51.4547
23.340267045128353 51.5816
23.36300158808808 52.0541
23.38591468821339 52.4638
23.408651104658304 52.7137
23.431388455719986 52.8599
23.454126742409 53.3007
23.4770436196085 54.1045
23.499783787914662 54.8738
23.522524894889884 55.7165
23.54526694154616 56.602
23.56818761219047 57.6234
23.59093154860734 58.5822
23.613676427751283 59.4667
23.636422250635754 59.4223
23.659346731118656 58.5386
23.68209445191868 57.2517
23.704843119509587 55.2043
23.72759273490623 53.2299
23.750521041644767 51.5211
23.77327256312355 50.0928
23.796025035462787 49.0876
23.818956224555475 48.3548
23.841710609113413 48.2172
23.86446594758979 47.9642
23.887222241002014 47.6276
23.910157285144578 47.2851
23.932915498962537 47.1287
23.955674670778713 47.1174
23.978434801611975 46.9154
24.001373717286125 46.659
24.024135776723917 46.7482
24.046898798245582 46.6243
24.06966278287146 46.4608
24.092605586582614 46.2079
24.115371508023642 46.0464
24.1381383956401 45.9853
24.16090625045381 46.0608
24.183852958731244 45.8472
24.206622758582608 45.7348
24.229393528706886 45.4855
24.252165270127392 45.5782
24.27511589952438 45.6089
24.297889594216997 45.3345
24.32066426328598 45.1958
24.34343990775613 45.1458
24.36639447485003 45.1444
24.38917208083877 45.0667
24.41195066531332 44.8828
24.43490819850244 44.9531
24.457688750692377 44.6989
24.48047028445616 44.7976
24.503252800821233 44.948
24.526214300784112 44.8358
24.548998793132213 44.7735
24.57178427117417 44.729
24.59457073593893 44.8361
24.617536219319863 44.8124
24.64032466834748 44.7803
24.663114107195035 44.7374
24.685904536893013 44.433
24.708874020360852 44.4671
24.731666442613744 44.4535
24.754459858818787 44.3543
24.777254270007962 44.2118
24.80022777025625 44.1016
24.82302418230472 44.1162
24.845821592443674 44.026
24.86862000170663 44.0881
24.891597535453727 43.9907
24.914397953892728 44.2064
24.93719937456671 43.9361
24.96000179851076 44.1245
24.98298338249997 44.3553
25.00578782394922 44.6371
25.028593271784167 44.6076
25.05157790644186 44.9697
25.07438537804115 45.2134
25.097193859145293 45.2372
25.120003350792075 45.4604
25.142992065061257 45.7871
25.165803588823465 46.1298
25.18861612625217 46.3371
25.211429678386736 46.2699
25.234422489079968 46.4884
25.257238081693636 46.4913
25.280054692141732 46.5277
25.3028723214652 46.4609
25.325869245420463 46.3249
25.348688923599397 46.4258
25.371509623787006 46.5112
25.394331347025812 46.3839
25.41733240110666 46.1597
25.440156181590016 45.748000000000005
25.46298098826268 45.3495
25.48580682216873 44.7774
25.50881202326435 44.227
25.53163992281684 43.6426
25.55446885274561 43.2435
25.577298814096377 42.7616
25.600308179121807 42.6405
25.623140214533745 42.7133
25.64597328451537 42.5616
25.66898578564376 42.1567
25.691820936010206 42.3552
25.714657124097695 42.291000000000004
25.737494350954734 42.3452
25.760511045684957 42.2895
25.783350361364224 42.3842
25.806190718969255 42.3703
25.82903211955018 42.4427
25.852053024868923 42.3324
25.874896522722523 42.4356
25.897741066713106 42.328
25.920586657892454 42.4273
25.943611790812668 42.4619
25.966459487728237 42.6165
25.989308234998564 42.5946
26.01215803367705 42.7834
26.03518741123814 42.8737
26.05803932412957 43.0584
26.080892291600094 43.125
26.10374631470478 43.1716
26.12677995397268 43.4075
26.14963609978026 43.4917
26.172493304397875 43.2767
26.19535156888223 43.1825
26.218389486949604 42.7956
26.241249882640123 42.4868
26.26411134137826 42.1717
26.28715248187403 42.18600000000001
26.31001607820869 41.9503
26.3328807407756 41.8393
26.35574647063438 41.989
26.37879191991473 41.9866
26.401659795896734 41.9008
26.424528742360263 42.049
26.447398760366614 42.0636
26.470448535598294 42.1319
26.49332070826805 42.3538
26.516193955675355 42.5838
26.53906827888316 42.7847
26.562122397260108 42.9034
26.584998883685063 43.0762
26.607876449110325 43.3488
26.63075509460056 43.5374
26.65381357334404 43.7468
26.67669439061878 43.7888
26.699576291163382 43.7409
26.722459276044212 43.6532
26.745522132402975 43.6157
26.768407297649354 43.4287
26.791293550442003 42.928999999999995
26.814180891848974 42.7756
26.837248143099337 42.4357
26.860137673466657 42.2608
26.88302829566349 42.0285
26.90592001075963 41.863
26.92899167420566 41.7243
26.951885586870763 41.3109
26.974780595655517 41.1282
26.99785558178161 41.0601
27.020752794605112 40.8056
27.043651106772522 40.5999
27.06655051935668 40.6714
27.089629948036183 40.5398
27.112531573292053 40.4818
27.135434302194138 40.3705
27.158338135817015 40.1463
27.181422024430987 40.2896
27.204328079372566 40.2275
27.22723524226965 40.1844
27.250143514198573 40.2803
27.273231880156334 40.0933
27.296142382065014 40.0543
27.319053996245536 40.0001
27.341966723775965 39.9928
27.365059584515222 40.1268
27.38797455070062 40.141
27.410890633481237 40.0707
27.433807833936918 39.8112
27.456905206923906 39.9775
27.47982465472398 39.8747
27.502745223449743 40.0333
27.525666914182825 40.2733
27.548768816912457 40.1215
27.571692763693633 40.1067
27.59461783573812 40.0472
27.617723149491244 39.9105
27.640650484125285 39.9171
27.66357894728264 39.7665
27.686508540048052 39.8145
27.709618414237887 39.7612
27.732550278321757 39.5928
27.755483275279115 39.5491
27.778417406196485 39.5689
27.801531858397514 39.5537
27.824468269376716 39.3516
27.847405817586786 39.3561
27.870344504116094 39.5654
27.893463551932008 39.6973
27.916404527281053 39.897
27.93934664422563 39.9274
27.962289903855886 39.8086
27.98541356491974 40.0867
28.00835912214229 40.1657
28.03130582533231 40.4205
28.054253675581805 40.4847
28.077381967556104 40.4368
28.100332124185126 40.3798
28.123283431160893 40.4547
28.146235889577238 40.4293
28.169368830154156 40.288000000000004
28.192323603752033 40.1766
28.215279532083304 39.8575
28.238415973016764 39.6819
28.261374223145094 39.5834
28.284333631303806 39.2307
28.307294198589954 39.1292
28.330435319167677 38.9275
28.353398217078915 38.6752
28.376362277420153 38.5063
28.39932750129032 38.283
28.422473319286713 38.0764
28.44544088262495 38.07
28.468409612800283 37.8498
28.491379510913497 37.5789
28.51453004413313 37.4454
28.53750229057244 37.4596
28.56047570826344 37.4612
28.583450298308804 37.4122
28.606605564586562 37.3432
28.629582511831156 37.3136
28.65256063474956 37.1667
28.675539934446338 37.2762
28.698699951647605 37.209
28.72168161743193 36.9607
28.74466446331978 37.0868
28.767648490417624 37.0476
28.790813276438353 36.8705
28.813799678527303 36.9561
28.836787265157085 36.7987
28.859955641890075 36.8793
28.882945610203045 36.8141
28.905936766392035 36.7522
28.928929111566863 36.7245
28.952102288520145 36.6946
28.975097024308607 36.6019
28.998092952423807 36.4976
29.021090073977508 36.5156
29.04426806913204 36.4346
29.067267590245258 36.2589
29.090268308143695 36.1186
29.11327022394099 36.0205
29.13645305530891 36.0691
29.159457379627167 35.9936
29.18246290519685 35.9107
29.20546963313352 35.8165
29.22865731875826 35.7005
29.25166646419296 35.6307
29.27467681535305 35.6097
29.29768837335608 35.6899
29.320880931312562 35.8254
29.34389491580634 35.7127
29.366910110507334 35.5926
29.38992651653503 35.6577
29.41312396492981 35.6488
29.436142806456754 35.5111
29.45916286268059 35.5031
29.48236399319994 35.4142
29.50538649169417 35.2931
29.528410208259935 35.2641
29.55143514402014 35.0417
29.574641196749695 34.7954
29.597668583816574 34.6591
29.6206971934585 34.5955
29.64372702680042 34.6901
29.666938019934474 34.4442
29.689970313635285 34.4805
29.713003834422636 34.3704
29.73603858342347 34.311
29.759254535188578 34.2957
29.78229175361658 34.2155
29.80533020365064 34.3505
29.82836988641968 34.2894
29.85159081507472 34.1897
29.874632976355343 34.1051
29.89767637376955 34.2472
29.920721008448314 33.9838
29.9439469322847 33.9539
29.96699405457564 34.0222
29.9900424175358 34.0048
30.013092022298157 33.9623
30.03632295963995 33.9334
30.059375061131373 33.9323
30.08242840783577 33.9399
30.105483000888153 33.8653
30.128718970092244 33.8044
30.151776069006917 33.7148
30.17483441768648 33.7637
30.198074175317235 33.7555
30.221135036724256 33.7962
30.24419715131772 33.7548
30.267260520236203 33.7272
30.290505341942243 33.6817
30.313571232750228 33.7774
30.336638381310948 33.7535
30.35970678876503 33.7127
30.38295669299435 33.5865
30.40602763151657 33.6045
30.429099832366074 33.6096
30.452173296685572 33.4198
30.47542830191959 33.4256
30.498504306502497 33.4588
30.521581577995562 33.4559
30.544660117543582 33.5442
30.56792024229725 33.5878
30.59100133132069 33.5323
30.614083691845494 33.4859
30.637167325018545 33.4674
30.660432587840603 33.5064
30.683518779717886 33.5292
30.70660624769615 33.5911
30.729694992924372 33.4836
30.75296541239743 33.5472
30.77605672557558 33.4378
30.799149319462742 33.4982
30.8224236211637 33.4189
30.845518789950724 33.3131
30.868615242910597 33.2656
30.891712981195973 33.078
30.91499247215866 33.0083
30.938092794619365 32.9966
30.96119440587579 32.937
30.984297307082752 32.7414
31.00758200598383 32.6447
31.030687500658694 32.5978
31.053794288760695 32.5258
31.076902371446767 32.4479
31.100192296997445 32.4598
31.12330298246119 32.4877
31.14641496599209 32.3073
31.169528248749216 32.4261
31.19282341969534 32.2862
31.215939314557186 32.3154
31.239056512134788 32.2279
31.262175013589378 32.2422
31.28547544871168 32.1759
31.30859657161541 32.1089
31.331719001892175 32.0595
31.35484274070538 32.2387
31.378148458819545 32.1709
31.401274828443725 32.17
31.424402510106933 32.1551
31.447712205419993 32.2431
31.470842524931633 31.9969
31.493974159989783 32.0978
31.51710711176168 32.0703
31.54042212308802 32.0844
31.563557722100917 32.0401
31.586694641341655 31.9054
31.609832881979628 31.8079
31.63315322823208 31.7224
31.656294125521327 31.6785
31.679436347728515 31.7317
31.70257989602529 31.6061
31.725905596152327 31.5365
31.74905181052835 31.4548
31.772199354521323 31.4054
31.79534822930507 31.4587
31.818679302290967 31.4557
31.84183085259981 31.3817
31.864983737233473 31.4064
31.88813795736804 31.496
31.911474422233013 31.293000000000003
31.934631327356435 31.3303
31.9577895715215 31.3638
31.980949155906522 31.2654
32.004291031706956 31.2794
32.027453310562606 31.2627
32.05061693318573 31.1689
32.07396288236386 31.2244
32.09712920658542 31.0182
32.12029687812702 30.8613
32.14346589817093 30.8955
32.166817291729984 30.8325
32.18998902288583 30.7186
32.21316210610336 30.5875
32.23633654256711 30.5891
32.259693399663725 30.4703
32.282870556771144 30.4623
32.30604907069099 30.5547
32.329228942610065 30.2596
32.35259128243769 30.2457
32.375773884550505 30.2253
32.398957848235646 30.151999999999997
32.422143174682176 30.096
32.445511016471215 30.0025
32.468699082679954 30.0079
32.49188851523011 30.0174
32.51507931531304 29.9135
32.538452678331 29.9098
32.56164622776311 29.8163
32.58484114831493 29.6941
32.60803744118015 29.8506
32.631416344731896 29.7112
32.654615396551876 29.6999
32.67781582427913 29.6532
32.701198898634416 29.5502
32.72440209253756 29.4845
32.747606665947124 29.4736
32.77081262006088 29.371
32.79420126883317 29.3334
32.81740999876112 29.3846
32.840620112999424 29.2287
32.86383161274818 29.2917
32.88722585534586 29.2727
32.91044014056596 29.2694
32.933655814909734 29.1852
32.95687287957963 29.2336
32.98027273544904 29.1674
33.00349259526636 29.0451
33.026713849030116 29.0923
33.04993649794511 29.0817
33.073341986570746 29.0
33.09656744032826 28.965
33.11979429286444 28.9462
33.14302254538647 28.9501
33.166433686291185 28.9681
33.18966475336992 28.8767
33.212897224069096 28.7271
33.23613109959831 28.8295
33.259547912343415 28.6494
33.2827846121627 28.8203
33.306022720453775 28.6746
33.32926223842861 28.5269
33.352684742614166 28.5865
33.37592709463173 28.6304
33.399170859982064 28.4985
33.422597648419426 28.4522
33.44584425514446 28.3641
33.46909227885668 28.3126
33.4923417207723 28.1488
33.51577423505344 28.2193
33.539026528130385 28.0765
33.56228024307245 28.1557
33.585535381098246 27.9061
33.60897364093058 27.9045
33.63223163992385 27.8955
33.6554910656699 27.7998
33.678751919389796 27.6839
33.702195944520106 27.6604
33.72545966903325 27.8116
33.74872482519663 27.6497
33.771991414233746 27.7006
33.79544122444841 27.5797
33.81871069412428 27.5336
33.84198160035767 27.5353
33.86525394437455 27.5737
33.88870955949969 27.4402
33.911984794020626 27.3471
33.93526147001624 27.2835
33.958539588715006 27.426
33.98200102861669 27.2456
34.0052820477047 27.1858
34.02856451319451 27.2187
34.05203033759056 27.1044
34.07531571090147 27.0842
34.09860253431845 27.0249
34.121890809074316 27.0179
34.145362493118924 26.909000000000002
34.16865368561615 26.8962
34.191946333164054 26.9032
34.21524043699793 26.8333
34.23871800066799 26.8541
34.26201503218366 26.7598
34.28531352370466 26.7563
34.30861347646881 26.6699
34.33209693978188 26.6104
34.3553998301885 26.639
34.378704185565205 26.4803
34.402010007152356 26.4495
34.42549939016683 26.4584
34.44880815937748 26.3851
34.472118398533134 26.4133
34.49543010887669 26.3752
34.51892543169198 26.1969
34.54224009966052 26.2255
34.56555624255917 26.2007
34.58887386163339 26.0814
34.61237514439016 26.0903
34.6356957311114 26.0456
34.65901779775809 26.008000000000003
34.68252356662995 26.035
34.705848608458616 26.0597
34.72917513396849 25.9163
34.75250314440949 25.8833
34.77601490857862 25.8418
34.799345904259795 25.6503
34.82267838863559 25.7525
34.846012362958525 25.7444
34.869530142679984 25.6835
34.89286711232212 25.6481
34.91620557568269 25.6053
34.93954553401677 25.5873
34.9630693495876 25.5137
34.986412313340814 25.555999999999997
35.00975677584668 25.5741
35.033102738362956 25.4925
35.05663261012228 25.359
35.0799815881786 25.3565
35.10333207003229 25.3817
35.12668405694369 25.3667
35.150220005273056 25.2925
35.17357501786656 25.3686
35.19693153931268 25.2734
35.220289570874385 25.2261
35.24383161619786 25.1354
35.267192683604904 25.13
35.290555264930376 25.0437
35.314101899412165 25.0526
35.33746752422433 25.0663
35.36083466676374 25.0765
35.38420332829803 25.0516
35.407756095629054 24.9613
35.43112781085063 24.9432
35.45450104888391 24.9548
35.477875810999194 24.9455
35.50143473172161 24.8805
35.52481255774625 24.8939
35.54819191167777 24.8431
35.57157279478914 24.7082
35.595137889488406 24.7904
35.61852184675279 24.7199
35.641907337029984 24.5641
35.665294361595684 24.5911
35.68886565090076 24.5815
35.7122557598848 24.471999999999998
35.73564740699838 24.5088
35.759040593519934 24.4859
35.78261809810353 24.4636
35.80601437933051 24.3885
35.829412203814705 24.3833
35.85281157283719 24.226999999999997
35.876395313415884 24.344
35.8997977874528 24.2164
35.92320180988546 24.1094
35.946790244133936 24.0733
35.97019737933222 24.0894
35.993606066789866 24.0301
36.01701630779276 24.0588
36.04061101440684 23.9418
36.06402437852291 23.9381
36.08743930005611 23.9972
36.1108557802951 23.8535
36.13445678011326 23.8376
36.15787639383515 23.816999999999997
36.18129757014299 23.8665
36.20472031032821 23.7902
36.22832762423364 23.6548
36.25175350829375 23.6696
36.275180960119776 23.6343
36.298609981005924 23.7156
36.32222362992669 23.6968
36.34565580510207 23.5414
36.36908955323448 23.5448
36.39252487562093 23.4638
36.416144880530226 23.3558
36.43958336764275 23.3177
36.463023432914625 23.3407
36.486465077645676 23.1909
36.51009145956204 23.349
36.53353627947859 23.3222
36.55698268276811 23.229
36.58043067073321 23.1573
36.60406345072071 23.144000000000002
36.62751462435344 23.1187
36.65096738658405 23.0985
36.67460498210655 23.0735
36.69806093788647 23.0872
36.72151848619297 22.9611
36.744977628333636 23.0361
36.76862165890998 22.8778
36.79208400512205 22.9192
36.81554794910557 22.918000000000003
36.83901349217101 22.7976
36.862663978991606 22.7785
36.88613273667352 22.8036
36.90960309738324 22.7182
36.933075062434064 22.6424
36.95673202673572 22.5733
36.98020721697122 22.5981
37.003684015502365 22.5157
37.027162423645365 22.5136
37.050825886711465 22.4818
37.07430753063053 22.4389
37.09779078812467 22.3542
37.121275660513014 22.4139
37.144945643673694 22.3889
37.16843376245278 22.4037
37.19192350009803 22.3033
37.215414857931435 22.2587
37.239091382563885 22.2452
37.262585997426164 22.1774
37.28608223645736 22.1293
37.309763684451696 22.1481
37.33326318851098 22.1948
37.356764320726555 22.0724
37.380267082425526 22.0905
37.40395510942588 21.9809
37.42746114683234 21.8824
37.45096881771841 21.9137
37.474478123414166 21.9697
37.49817275092816 21.8226
37.52168534303452 21.8138
37.54519957395567 21.7759
37.568715445024665 21.8032
37.592416694607714 21.7389
37.61593586281424 21.7472
37.63945667518264 21.7326
37.66297913304891 21.6388
37.68668702630454 21.6025
37.710212792059274 21.5229
37.733740207334854 21.4487
37.757269273470364 21.4492
37.780983832050374 21.4859
37.80451621684926 21.4349
37.82805025654007 21.4373
37.851585952464795 21.3904
37.8753071980695 21.2333
37.89884622345676 21.2021
37.92238690911902 21.1632
37.94611318753442 21.1702
37.969657210779765 21.1688
37.99320289834801 21.168000000000003
38.016750251586465 21.0637
38.04048325513017 21.0355
38.06403395679343 21.0364
38.087586328183946 20.9251
38.11114037065203 20.9487
38.13488012115898 20.9387
38.1584375229181 20.8765
38.181996599821 20.8142
38.205557353221124 20.8257
38.229303872575656 20.816
38.2528679961576 20.7919
38.27643380031219 20.7819
38.30000128639589 20.644000000000002
38.32375459653193 20.6343
38.34732546371299 20.6845
38.37089801690786 20.5906
38.39447225747609 20.5143
38.418232380377425 20.4523
38.441810012983396 20.4506
38.46538933705673 20.4557
38.488970353960084 20.4647
38.51273731166058 20.4045
38.536321731567014 20.3174
38.55990784840681 20.3112
38.58367995004091 20.2305
38.60726947812959 20.2537
38.63086070726198 20.3201
38.654453638806274 20.2805
38.678232613930824 20.189
38.70182896773327 20.1404
38.72542702806741 20.083
38.7490267963045 20.1075
38.77281266709232 20.0208
38.79641586862214 20.0059
38.8200207821842 19.9387
38.843627409152944 19.9546
38.86742019782782 19.9578
38.891030269149255 19.8698
38.914642058016156 19.879
38.938255565806124 19.8221
38.96205529464307 19.7182
38.98567225787121 19.7769
39.00929094417078 19.7722
39.03291135492255 19.7306
39.05671804624804 19.6825
39.080341923549106 19.6036
39.103967529460334 19.5916
39.127594865365744 19.5111
39.15140854155791 19.5181
39.17503935514948 19.5174
39.19867190290282 19.4805
39.22249083587951 19.5139
39.24612686969409 19.4333
39.269764641845306 19.4414
39.293404153722804 19.4097
39.317230110864074 19.3151
39.34087311998506 19.2874
39.36451787301696 19.301
39.388164371352595 19.2321
39.41199737518003 19.2236
39.43564738196752 19.1789
39.45929913825317 19.1331
39.48295264543308 19.0908
39.506792718520884 18.9976
39.530449745387216 19.0997
39.55410852735203 19.0195
39.57776906581474 18.9995
39.60161623079 18.9465
39.625280300200025 18.9395
39.64894613032202 18.8227
39.67261372255866 18.8394
39.6964680021016 18.8255
39.72013913657293 18.8509
39.74381203738292 18.7545
39.76748670593756 18.7931
39.79134812278169 18.7165
39.81502634488497 18.6615
39.83870633896685 18.668
39.862388106436654 18.6007
39.88625668336918 18.6047
39.90994201572829 18.6197
39.933629125719285 18.5381
39.957503091207826 18.5116
39.9811937746168 18.5345
40.00488623990914 18.452
40.02858048850006 18.4106
40.05246165409549 18.3729
40.076159487492085 18.349
40.099859108448875 18.3457
40.123560518384345 18.3287
40.1474489070226 18.3135
40.171153913178564 18.2857
40.194860712584955 18.2404
40.2185693066637 18.1686
40.242464941335314 18.1251
40.26617714307655 18.1171
40.289891143772046 18.0905
40.3136069448471 18.0422
40.33750984859743 18.0496
40.3612292688043 18.0203
40.3849504936829 17.9833
40.40867352466194 18.0188
40.43258372059144 17.9408
40.45631038219906 17.9355
40.48003885420956 17.7886
40.503769138055105 17.8403
40.52768664931955 17.8334
40.55142057531802 17.8268
40.57515631746428 17.7773
40.599079334038514 17.734
40.62281872700477 17.7092
40.64655994043941 17.6583
40.67030297578061 17.6316
40.69423334835778 17.6126
40.71798004609188 17.6216
40.74172857006355 17.5494
40.76547892171441 17.5788
40.7894166736039 17.5919
40.813170699248566 17.4796
40.83692655691388 17.4732
40.86068424804498 17.4493
40.884629402612525 17.4551
40.908390779366385 17.4719
40.932153993938 17.333
40.95591904777605 17.3683
40.979871628443995 17.3348
41.003640379561936 17.2368
41.02741097430883 17.247
41.05118341413683 17.2256
41.075143444384416 17.2044
41.098919593177826 17.1712
41.1226975914255 17.1547
41.14647744058318 17.1121
41.170444943946755 17.0372
41.19422851378379 17.0495
41.218013938914645 16.9905
41.24198706625173 16.9704
41.26577622087193 16.8863
41.289567235177785 16.9171
41.31336011063129 16.9377
41.337340752422875 16.8634
41.361137369129835 16.8297
41.38493585138705 16.803
41.40873620066004 16.820999999999998
41.43272438060107 16.711
41.45652848292052 16.684
41.48033445666918 16.6599
41.50414230331616 16.6847
41.528138045159764 16.6949
41.551949656675205 16.5799
41.575763145513235 16.611
41.59957851314666 16.5819
41.62358184070442 16.5291
41.64740098505737 16.5115
41.6712220126409 16.4377
41.69504492493139 16.4474
41.71905586207357 16.4507
41.74288256296395 16.3591
41.766711153007456 16.3317
41.79054163368412 16.3551
41.814560204340054 16.3539
41.838394485526365 16.2991
41.86223066180303 16.2348
41.88625497706819 16.2029
41.910094962812 16.2777
41.93393684811168 16.2678
41.95778063445365 16.1393
41.981812625263366 16.0555
42.00566023303407 16.1199
42.029509746323676 16.074
42.05336116662236 16.0043
42.077400857069705 16.0212
42.10125611078846 15.9958
42.12511327600405 15.9893
42.14897235421036 15.9574
42.173019768448455 15.8636
42.19688269209613 15.8641
42.22074753323349 15.8784
42.24461429335818 15.8297
42.268669455600495 15.7582
42.292540073217886 15.784
42.31641261433284 15.7181
42.34028708044675 15.7186
42.36435001496739 15.7027
42.38822835065557 15.6722
42.41210861586426 15.6556
42.4359908120986 15.6356
42.46006154323262 15.6369
42.48394762115317 15.51
42.507835634632315 15.5404
42.531912233047436 15.5268
42.55580413732265 15.4589
42.579697981698 15.5019
42.60359376768525 15.4915
42.62767820545945 15.3897
42.65157789440821 15.3439
42.67547952952185 15.4088
42.699383112316 15.3971
42.72347541395347 15.315
42.74738291190531 15.2669
42.771292362102166 15.2559
42.795203766063516 15.1978
42.819303956130405 15.1947
42.843219287476536 15.2167
42.86713657716324 15.1565
42.89105582671383 15.0875
42.91516392983864 15.0965
42.939087119032166 15.065999999999999
42.963012272677304 15.0797
42.98693939230129 15.0215
43.01105543317513 14.9887
43.034986504731386 14.9502
43.05891954686589 14.9535
43.08285456110972 14.8595
43.10697856448665 14.8305
43.130917542983475 14.8484
43.15485849820081 14.8057
43.17880143167367 14.8034
43.20293342237094 14.7731
43.226880332449 14.7623
43.25082922540554 14.7227
43.27496722682525 14.7268
43.29892010567796 14.6968
43.32287497204102 14.6956
43.34683182745632 14.6078
43.370977859791836 14.618
43.39493871351105 14.6446
43.41890156092628 14.5612
43.44286640358341 14.5264
43.46702049182749 14.5588
43.49098934522816 14.4582
43.51496019852649 14.4198
43.5389330532723 14.3813
43.56309522248204 14.4119
43.58707210044314 14.4276
43.61105098451946 14.3714
43.63503187626491 14.4049
43.659202151562134 14.31
43.68318707902681 14.317
43.70717401884041 14.2287
43.731162972560874 14.2083
43.75534137913236 14.1775
43.779334381108384 14.1429
43.803329401683186 14.1608
43.82732644241872 14.107999999999999
43.8515130055166 14.1197
43.87551410707659 14.042
43.89951723350145 14.0348
43.923709934595614 13.9909
43.94771713129917 14.0401
43.97172635758096 14.0138
43.99573761501002 13.9759
44.0199385169922 13.9324
44.04395385732619 13.9379
44.067971233533086 13.8802
44.09199064718605 13.8551
44.11619977548961 13.8408
44.14022328470671 13.7997
44.16424883610785 13.8352
44.18827643127035 13.7995
44.21249381139513 13.7531
44.236525514814076 13.739
44.26055926674478 13.7122
44.28459506876863 13.6817
44.3088207262813 13.6363
44.33286064928722 13.6316
44.35690262714919 13.609000000000002
44.38094666145278 13.5612
44.4051806219871 13.5695
44.42922879003185 13.5032
44.45327901929361 13.5167
44.477331311362136 13.4484
44.501573600619416 13.4216
44.525630039221795 13.4176
44.54968854541895 13.4015
44.573937102200176 13.3918
44.5979997645541 13.3987
44.622064499300315 13.3575
44.64613130803592 13.3152
44.67038823869318 13.341
44.69445921643748 13.2973
44.718532272981385 13.2562
44.742607409926194 13.2586
44.76687274034801 13.1963
44.79095205918753 13.1414
44.81503346325094 13.1493
44.839116954143876 13.1584
44.86339071028742 13.1166
44.88747839599524 13.095
44.91156817336837 13.040999999999999
44.93566004401666 13.1026
44.959942251908146 12.9814
44.984038330325966 13.0074
45.00813650686762 12.9542
45.03223678314731 12.9667
45.05652746888232 12.899000000000001
45.08063196592069 12.8654
45.104738567558705 12.8169
45.128847275414856 12.8557
45.15314646515866 12.8108
45.17725940679741 12.815999999999999
45.20137445952892 12.8178
45.22568004865265 12.7963
45.24979934496396 12.74
45.27392075725247 12.7107
45.29804428714431 12.7248
45.322358426247604 12.6932
45.346486212804315 12.6301
45.370616121861914 12.6013
45.39474815505086 12.5931
45.41907087049246 12.5665
45.4432071734666 12.5348
45.46734560548283 12.5398
45.49148616817604 12.5672
45.51581748638564 12.4796
45.5399623320197 12.4457
45.56410931325473 12.4324
45.58825843173002 12.4911
45.61259837920865 12.431
45.636751793816 12.4009
45.66090735060093 12.3588
45.68506505120716 12.3442
45.7094136545275 12.3021
45.73357566449271 12.2364
45.75773982322992 12.2469
45.78190613238733 12.2214
45.806263418194064 12.1744
45.83043404997326 12.1626
45.85460683713677 12.2262
45.87897065658495 12.1731
45.90314777634752 12.0982
45.92732705646868 12.1522
45.9515084986045 12.1632
45.97588104735473 12.0847
46.00006683541565 12.0499
46.02425479047904 12.0258
46.04844491420549 12.0376
46.0728262191024 12.0014
46.09702070211635 11.9851
46.12121735879483 12.0046
46.14541619080294 11.9278
46.169806278764455 11.8847
46.194009483459034 11.8327
46.21821486849841 11.8368
46.24242243555223 11.8546
46.266821333570014 11.7968
46.29103328674601 11.7527
46.31524742696538 11.8035
46.33946375590237 11.7409
46.36387149104216 11.7074
46.38809221957392 11.6644
46.41231514186606 11.6603
46.436540259597464 11.6684
46.460956858999374 11.673
46.48518638983522 11.593
46.509418121166966 11.6127
46.533652054678114 11.5519
46.55807754555709 11.5325
46.58231590571962 11.557
46.60655647313217 11.4965
46.630988654873654 11.4648
46.655233659129024 11.4749
46.67948087571551 11.453
46.70373030632484 11.4158
46.72817142736393 11.4148
46.752425308428684 11.3999
46.77668140861147 11.3858
46.80093972960865 11.3351
46.82538981736788 11.3211
46.849652602470904 11.3201
46.87391761349769 11.2616
46.8981848521493 11.2692
46.9226439341274 11.219000000000001
46.946915650573224 11.1923
46.97118959976749 11.1735
46.99546578341598 11.1375
47.019933887188216 11.1487
47.04421456235744 11.1515
47.06849747711879 11.0913
47.09278263318286 11.0614
47.11725978640143 11.0744
47.14154944775105 11.0089
47.165841355555656 11.0141
47.1901355115306 10.9973
47.214621741924994 11.0243
47.23892041698887 10.9794
47.26322134538975 10.9517
47.28771440635075 10.9327
47.31201986422527 10.9189
47.33632758061436 10.8929
47.360637557241866 10.8542
47.38513974410611 10.8378
47.40945426407847 10.8013
47.43377104948137 10.8065
47.45809010204344 10.8381
47.48260144275502 10.7553
47.506925052572285 10.7273
47.53125093475548 10.7135
47.55557909103813 10.7236
47.58009961361992 10.6488
47.60443234110732 10.6748
47.62876734791564 10.6652
47.65310463578333 10.5857
47.6776343683373 10.6325
47.7019762413987 10.5756
47.72632040075572 10.567
47.75066684815169 10.5687
47.77520581885936 10.5735
47.799556865477655 10.5032
47.823910205386 10.5125
47.84826584033272 10.4629
47.87281407745551 10.445
47.89717432569297 10.4656
47.92153687423484 10.4301
47.94609208429692 10.4385
47.97045925671401 10.3639
47.99482873471275 10.3179
48.01920052005013 10.3066
48.04376504619224 10.3216
48.068141469543484 10.2936
48.09252020552573 10.2737
48.11690125590099 10.2806
48.1414751266064 10.2785
48.16586082917454 10.2301
48.19024885144316 10.2111
48.2146391951793 10.2424
48.239222439012764 10.1624
48.26361744916137 10.1459
48.28801478610016 10.1374
48.31241445160131 10.1416
48.337007097209366 10.1098
48.36141144338331 10.1105
48.38581812345755 10.0481
48.41022713920929 10.08
48.434829215320704 10.0352
48.45924292604658 10.0022
48.48365897780325 10.0096
48.50807737237308 9.97982
48.532688907799276 9.99033
48.55711201168574 9.93765
48.581537463754074 9.919
48.60615611725119 9.92327
48.63058628942721 9.903839999999999
48.65501881516546 9.86321
48.6794536962573 9.84933
48.70408185970339 9.83367
48.72852147531801 9.79318
48.75296345168211 9.76497
48.77740779059232 9.83057
48.80204549302823 9.84493
48.82649458091802 9.774189999999999
48.85094603676547 9.746089999999999
48.87539986237231 9.69825
48.90004713292306 9.72545
48.92450572200832 9.70307
48.94896668628025 9.679030000000001
48.97343002754588 9.635580000000001
48.99808689542115 9.61764
49.02255501470614 9.63325
49.04702551642794 9.60577
49.0714984023988 9.5923
49.096164896893235 9.52798
49.120642575466796 9.49182
49.145122643748394 9.48751
49.16960510355558 9.50385
49.19428125404938 9.46785
49.2187685210852 9.45423
49.243258185121555 9.44046
49.26794160167084 9.4195
49.2924360839405 9.367569999999999
49.31693296869764 9.35603
49.34143225776915 9.322989999999999
49.36612538195438 9.337069999999999
49.39062950396021 9.32633
49.41513603578346 9.31241
49.4396449792564 9.3169
49.46434784069503 9.31697
49.488861631846454 9.27092
49.513377840166804 9.23462
49.537896467493745 9.20382
49.56260909589029 9.17174
49.587132585683285 9.18432
49.611658500018365 9.13522
49.636186840738596 9.13685
49.66090926588511 9.17485
49.685442483902584 9.11918
49.70997813385706 9.077210000000001
49.734516217597076 9.09891
49.75924846937352 9.05423
49.7837914452858 9.06232
49.80833686055187 9.018289999999999
49.83288471702571 9.00814
49.85762682540054 8.97898
49.882179588965734 8.97671
49.9067347993235 8.92882
49.93129245833333 8.93181
49.95604445336378 8.89944
49.98060703442832 8.8667
50.005172069746266 8.87602
50.02993150438364 8.85839
50.05450147301533 8.85143
50.07907390151433 8.85372
50.10364879174981 8.8276
50.12841816587289 8.83066
50.1529980044635 8.79689
50.17758031042124 8.77851
50.20216508562089 8.792019999999999
50.22694442953363 8.720189999999999
50.25153416817468 8.66974
50.27612638170508 8.68706
50.300721072005196 8.6724
50.325510416102105 8.658389999999999
50.350110084975064 8.65868
50.37471223628208 8.63525
50.39931687190919 8.63897
50.424116246675766 8.60944
50.44872587605249 8.57723
50.47333799543065 8.55142
50.49795260670191 8.53578
50.52276204271512 8.5593
50.54738166295838 8.50718
50.57200378079314 8.52577
50.596628398116835 8.47211
50.62144792604559 8.50889
50.646077567609396 8.442730000000001
50.670709714377715 8.439
50.69553683636198 8.4366
50.72017401885922 8.40846
50.7448137122895 8.432319999999999
50.76945591856022 8.3815
50.79429318636823 8.34334
50.818940443716784 8.352260000000001
50.84359021965163 8.34812
50.868242516085964 8.321810000000001
50.893089960641895 8.3
50.917747323549435 8.25104
50.94240721271973 8.25223
50.96706963007175 8.22517
50.99192728239342 8.23151
51.01659478166073 8.2421
51.04126481489051 8.19047
51.06593738400761 8.207
51.090805275207074 8.17218
51.11548294172845 8.15461
51.14016314993547 8.17221
51.164845901758845 8.14398
51.18972406304274 8.08264
51.21441192780656 8.0515
51.23910234200271 8.02496
51.2637953075678 8.01215
51.288683770237945 8.03919
51.31338186432707 7.99149
51.33808251561888 7.98492
51.362978729967345 7.9888699999999995
51.387684521509755 7.97187
51.41239287610203 7.93125
51.437103795691165 7.9229899999999995
51.46201036644977 7.91355
51.486726441956634 7.89102
51.51144508832545 7.90367
51.536166307509156 7.87127
51.56108326624387 7.826960000000001
51.58580965706056 7.81133
51.61053862657523 7.801589999999999
51.635270176746864 7.759189999999999
51.66019755512065 7.768610000000001
51.68493429268881 7.76248
51.70967361681515 7.7582
51.73441552946465 7.715
51.759353359237934 7.70092
51.7841004750961 7.727239999999999
51.80885018539685 7.68653
51.833602492111254 7.65603
51.8585508051424 7.63082
51.883308330926425 7.6085899999999995
51.90806845906181 7.607410000000001
51.932831191525715 7.5856
51.95779001977161 7.56642
51.98255798721516 7.583239999999999
52.00732856494335 7.56602
52.03229530577543 7.504
52.057071130455945 7.545380000000001
52.081849571391054 7.5088
52.106630630568695 7.50212
52.13160794279417 7.472460000000001
52.15639426492067 7.47916
52.18118321127822 7.45222
52.205974783860896 7.426419999999999
52.23096269971011 7.407539999999999
52.255759551287994 7.3987300000000005
52.280559035098186 7.377260000000001
52.30536115314103 7.33805
52.33035970494467 7.35571
52.35516711807904 7.32955
52.37997717147198 7.299910000000001
52.40478986713005 7.32965
52.42979908731974 7.27913
52.454617094216 7.25577
52.47943774942214 7.20245
52.50426105495102 7.2184800000000005
52.529280976059844 7.2168600000000005
52.554109609024096 7.2062800000000005
52.57894089837482 7.21041
52.60377484613117 7.216489999999999
52.62880550079408 7.1778
52.65364479223379 7.1839699999999995
52.67848674816189 7.118130000000001
52.70352547971946 7.086689999999999
52.72837279155837 7.1396
52.753222773982785 7.078930000000001
52.778075429022984 7.0637
52.80312495150885 7.07768
52.827982978797436 7.07175
52.85284368481815 7.057
52.87770707160767 7.05502
52.90276741793998 7.03211
52.92763619336701 6.97915
52.952507655698504 6.99833
52.977381806977576 7.01053
53.00245301017842 6.96518
53.02733256653592 6.9215800000000005
53.052214817996074 6.91915
53.077099766608484 6.93518
53.102181859804446 6.908919999999999
53.127072229988265 6.895910000000001
53.15196530349892 6.84842
53.17686108239249 6.857489999999999
53.20195409881522 6.85169
53.22685531582556 6.804060000000001
53.25175924441303 6.767710000000001
53.27666588664027 6.76445
53.30176985962693 6.729030000000001
53.3266819565689 6.772639999999999
53.35159677336455 6.77619
53.376514312083096 6.755839999999999
53.40162927507703 6.71887
53.42655228516116 6.72475
53.45147802340193 6.703469999999999
53.47660125628886 6.71984
53.50153247842639 6.67985
53.52646643496923 6.63865
53.55140312799818 6.62224
53.576537409691696 6.6104
53.60147960336152 6.610939999999999
53.626424539786164 6.60545
53.65137222105307 6.5851
53.67651758529126 6.54544
53.70147078399681 6.55605
53.72642673383343 6.553780000000001
53.75138543689533 6.49719
53.776541917524526 6.50671
53.801506154876755 6.50608
53.826473151763246 6.46698
53.851442910284916 6.4270000000000005
53.87661054126026 6.43067
53.9015858509782 6.43611
53.92656392866066 6.4237400000000004
53.95154477641532 6.44439
53.976723591801296 6.35764
54.00171000771266 6.3760699999999995
54.02669920004598 6.36841
54.051691170915745 6.32943
54.076881204886796 6.3184
54.101878760928514 6.32327
54.12687910187696 6.24961
54.152077577768296 6.2576
54.1770835166946 6.2514400000000006
54.20209224691339 6.28191
54.22710377055121 6.2586699999999995
54.25231352511594 6.222
54.27733066384342 6.18736
54.30235060239643 6.2017
54.32737334290836 6.18585
54.35259441062629 6.1078
54.377622783395324 6.09425
54.40265396455061 6.1161900000000005
54.42768795623251 6.10461
54.45292037169559 6.11327
54.477960012857906 6.08195
54.50300247099511 6.01775
54.52804774825457 6.005780000000001
54.55329154616743 5.98308
54.57834249018678 5.98422
54.6033962597977 5.96115
54.6284528571545 5.93296
54.653708072335164 5.91625
54.67877035378786 5.9227099999999995
54.70383546947698 5.89429
54.72890342156389 5.82268
54.7541700889442 5.83206
54.77924374251975 5.8307
54.8043202390049 5.80232
54.82959552413022 5.7664800000000005
54.8546777351945 5.74261
54.87976279569621 5.734369999999999
54.90485070780914 5.72229
54.930137506558005 5.65963
54.95523115074295 5.71278
54.98032765308844 5.675680000000001
55.005427015775496 5.65415
55.03072536339621 5.608169999999999
55.05583047570572 5.60366
55.080938454927676 5.55564
55.10604930325027 5.54157
55.131359235107396 5.5888800000000005
55.15647585066083 5.53099
55.181595341907496 5.51072
55.20671771104285 5.44189
55.232039262617704 5.43882
55.25716741665048 5.42472
55.28229845518636 5.42713
55.30743238042802 5.34812
55.33276558731939 5.32241
55.357905315183636 5.33101
55.383047936390035 5.287640000000001
55.40819345314859 5.18729
55.433538351073295 5.2192
55.458689688238415 5.23963
55.483843927614096 5.25478
55.509197623043605 5.16361
55.53435769621134 5.11758
55.55952067826466 5.11158
55.5846865714265 5.08898
55.61005202069737 5.04168
55.63522376553902 5.0917699999999995
55.66039842818645 5.0544400000000005
55.68557601087004 5.02755
55.7109532500271 4.95902
55.73613670233794 4.96755
