TT I
1.2716486653135266 7.99953
1.2939594142134223 7.785760000000001
1.3162702121660406 7.457560000000001
1.3385810600174564 7.4343699999999995
1.3608919586137629 6.95325
1.383202908801069 6.4705
1.405513911425503 5.67451
1.4278249673332093 6.6852
1.4501343378461518 6.90263
1.4724455028545926 6.70357
1.4947567236847858 7.5266
1.517068001182951 6.2903400000000005
1.5393793361953272 6.5098400000000005
1.5616907295681737 6.39331
1.5840021821477681 5.65538
1.60631369478041 5.3106
1.6286252683124185 5.744219999999999
1.6509369035901333 5.33343
1.6732468618895553 5.4916
1.695558623192809 5.14816
1.7178704487808514 5.363090000000001
1.7401823395001077 5.0252
1.7625012545597203 4.89155
1.7848028405262486 4.9360800000000005
1.8071218901122095 5.5433
1.8294236121921872 5.28918
1.8517427996910911 4.67315
1.8740620574440425 5.27383
1.8963639900671978 5.53518
1.9186833908139995 5.35286
1.9409854680117449 5.79081
1.9633050151394713 5.2561
1.9856246367570705 4.92017
2.0079269371922672 4.86316
2.03024671027244 5.158119999999999
2.0525491637446027 4.80599
2.074869091674931 4.7115599999999995
2.097171701569106 4.44115
2.1194917877373847 5.06583
2.141811954326636 4.86132
2.164114805233074 4.59866
2.186435135143035 4.49397
2.208738150935709 5.08571
2.231058647554722 4.80229
2.2533792288321184 4.33375
2.275682498336085 4.52231
2.298003251406138 4.73261
2.3203066942619714 4.87969
2.3426276225136022 4.27496
2.3649486396617507 4.53747
2.387252348930071 4.83421
2.4095735463442893 4.75076
2.4318774374315884 4.17088
2.4541988185014043 4.63906
2.476502894794693 5.11425
2.498824462909887 4.61346
2.521146125856138 4.406000000000001
2.5434504863470337 4.68766
2.5657723414244717 5.20064
2.588076895590662 5.59791
2.610398946189713 5.7657099999999994
2.6327210958598384 5.45662
2.6550259469304716 5.0742400000000005
2.6773482972090137 4.98654
2.6996533504259 5.66266
2.7219759047039602 5.92809
2.744298562293959 6.39605
2.7666039251246595 6.34649
2.7889267918020164 7.134110000000001
2.8112323652516555 7.1081
2.833555444408179 7.40142
2.8558786311183852 7.9739
2.8781845268938557 8.62757
2.9005079311721484 8.34934
2.9228140460410397 8.94178
2.9451376712799635 9.12385
2.967444008632326 9.494480000000001
2.9897678582247247 9.942789999999999
3.0120918213106695 10.4107
3.0343984987899373 11.11
3.0567226913198637 11.3561
3.079029599759726 11.5394
3.101354025127254 12.4535
3.123678568232338 12.8446
3.145985829517914 13.4659
3.16831061055229 13.4394
3.1906181112775593 13.895999999999999
3.212943133635653 14.8072
3.2352682779763207 15.1481
3.2575761442691227 15.9371
3.2799015350264273 16.3192
3.302209649240067 16.4328
3.3245352898092655 17.1571
3.3468436553365257 16.9779
3.369169549113219 17.83
3.3914955708171384 18.4284
3.413804319727358 18.9176
3.4361305997334863 19.1233
3.4584396084414553 19.2917
3.4807661501462652 19.9916
3.503092824025881 20.2673
3.5254022288463154 21.0282
3.5477291695206588 21.4715
3.5700388426251948 21.7164
3.5923660534916446 22.0585
3.6146934007816114 21.9899
3.637003482731501 22.3598
3.6593311053109985 22.8738
3.681641464033634 23.3025
3.7039693653009733 23.6704
3.726297407241705 24.5552
3.7486081875460804 24.5059
3.7709365132734978 25.3292
3.793247578841633 25.8178
3.8155761917550093 25.9374
3.8378875459837216 26.7112
3.8602164494827234 26.7215
3.882545499606844 27.6941
3.9048572932539183 28.133000000000003
3.9271866390645718 28.1616
3.9494987298666713 28.7351
3.971828374764527 29.315
3.9941581705403255 29.6399
4.016470713506008 29.8801
4.038800813471445 30.7005
4.061113662089144 31.1431
4.0834440696459176 32.1986
4.105774632334751 32.4314
4.128087945865126 32.8803
4.150418821249301 33.4357
4.172732448931298 34.0509
4.195063640413578 35.0801
4.2173775856475215 35.9032
4.239709096631102 36.8628
4.262040768704612 37.1235
4.284355196706267 37.3421
4.306687193387355 38.2573
4.329001947444346 39.3292
4.35133427213731 40.2098
4.373666762177566 40.7984
4.395982011761091 41.5521
4.418314834921175 42.4097
4.44063041906622 43.5347
4.4629635787515625 44.3445
4.4852969080429785 45.2158
4.5076130004776225 46.8004
4.529946671403969 47.3058
4.552263106909177 48.6082
4.574597122877047 49.7067
4.596931312711224 50.739
4.619248269273446 52.4449
4.6415828092605835 53.5493
4.663900117405352 54.5418
4.686235010953232 56.0837
4.708552674085913 57.5086
4.730887924602802 58.8067
4.753223354952695 60.2056
4.775541557023902 61.4078
4.797877349456786 62.8271
4.820195915032126 65.6802
4.842532072957498 67.3212
4.864868414979744 69.2897
4.88718753227192 71.1551
4.909524244902505 73.4295
4.931843734218147 75.9869
4.954180820867835 79.4302
4.976518095879839 83.2117
4.998838149695359 86.84
5.021175803844231 91.5099
5.043496238205739 96.1309
5.065834274903528 101.75399999999999
5.088172504230693 108.95700000000001
5.1104935158799565 117.08200000000001
5.132832132875765 130.737
5.155153533596801 153.77200000000002
5.1774925416746225 207.09
5.199814334878411 539.7919999999999
5.2221537374521505 1908.86
5.244493338631803 3775.84
5.266815727034316 5604.68
5.289155727832427 8563.82
5.311478517248165 9649.09
5.333818921080011 6054.43
5.356159527788849 1775.11
5.3784829252032536 409.048
5.400823940070432 205.645
5.423147747031976 160.053
5.445489173474152 139.07299999999998
5.467830807066149 127.117
5.490155234831516 119.93299999999999
5.512497285125229 114.30799999999999
5.534822130975162 111.287
5.557164601388673 108.046
5.579489868738879 103.82
5.601832762690846 101.884
5.6241758697774475 100.169
5.646501775867269 99.1252
5.668845311622074 98.3965
5.691171647754637 98.3388
5.713515615597765 97.06200000000001
5.735859800852677 96.5672
5.758186788542988 94.9203
5.780531411018185 95.49
5.802858837297399 95.6929
5.825203900414495 96.1552
5.8475491852224 97.1152
5.869877275883075 98.6437
5.892223006467101 101.74600000000001
5.914551544266608 105.536
5.936897724049891 111.93799999999999
5.959244129804903 123.994
5.981573344815301 154.227
6.0039202049061 286.589
6.026249875609095 747.066
6.04859719346037 1384.52
6.070927323278297 1975.66
6.093275102315365 2872.68
6.115623113320588 3951.95
6.137953938319995 3972.8
6.160302415650845 2113.81
6.182633708324452 633.885
6.2049826554078376 200.821
6.227331838745022 119.056
6.249663839443684 98.6971
6.27201349767565 88.9621
6.294345974611799 83.0732
6.316696111167083 78.5595
6.339046488263839 75.7475
6.361379686074702 72.9675
6.383730546639482 71.1251
6.406064229255215 69.0327
6.428415576718203 67.9906
6.450749747566656 66.6808
6.47310158535871 65.5727
6.495453669698332 65.2642
6.517788579421056 64.42399999999999
6.540141159237969 62.5515
6.562476565766648 62.1798
6.5848296444934045 61.4287
6.607182974060425 60.5948
6.6295191323281015 60.0785
6.651872965955752 59.6527
6.6742096296068985 59.0455
6.6965639707294615 58.5122
6.71891856698715 58.1361
6.741255995248479 57.6604
6.763611104154477 56.6958
6.785949046381137 56.622
6.808304671371482 56.1864
6.8306605557940046 56.3773
6.852999275508618 55.4405
6.875355681171544 55.3588
6.897694923437771 55.1917
6.92005185377892 55.2137
6.9423916220322655 54.7593
6.964749080490181 53.9787
6.987106804399774 53.7003
7.009447368180821 53.9005
7.031805625367033 53.8442
7.054146723727803 53.5689
7.076505517631004 53.3785
7.098864581288365 53.5155
7.121206488070854 53.3834
7.143566093607822 52.8573
7.165908543567245 52.9077
7.188268694426048 52.9887
7.2106291193438095 52.2426
7.232972390625943 52.3107
7.255333366030969 52.3873
7.277677189091925 52.2045
7.300038718428332 52.1744
7.322400526130865 52.1766
7.344745183422596 52.6776
7.367107550224791 52.8697
7.389452767901992 52.9855
7.411815697249891 53.0378
7.434161478756298 52.3697
7.456524974096713 52.4915
7.478888753837185 52.1844
7.501235387657368 53.1635
7.523599738562711 56.1988
7.545946944825532 60.9804
7.568311870344528 62.0423
7.5906770845765665 58.3941
7.613025156078678 55.3589
7.635390950099687 54.4255
7.657739602662809 53.8907
7.680105979923558 53.9302
7.702472650212829 54.5443
7.724822180948224 54.6227
7.747189439655568 54.6161
7.769539560075357 54.7874
7.791907410653562 55.2416
7.81425812420825 55.31399999999999
7.836626570110925 55.6823
7.858995315087906 56.4906
7.881346924933401 56.7989
7.903716270417482 57.5191
7.926068482028405 57.7368
7.948438431475253 58.2069
7.9708086843180235 58.7172
7.993161805171116 59.5151
8.015532667162402 59.6231
8.037886398416653 61.0754
8.060257873014221 61.1916
8.082629655331942 61.7224
8.104984308787587 62.6679
8.127356708900503 63.4021
8.149711981398308 64.5134
8.172085002766314 64.9952
8.194458336181368 65.9014
8.216814543847752 67.3342
8.23918850371002 68.7857
8.26154533906492 69.8022
8.283919928836452 71.422
8.306277395339652 72.4942
8.328652618483376 74.1641
8.351028159736202 75.8969
8.373386579575245 78.5882
8.395762759396959 81.1993
8.418121819038275 84.491
8.440498640894003 89.0119
8.462875785192262 96.0319
8.485235811156207 111.12299999999999
8.507613602688501 174.731
8.529974277114228 367.564
8.552352719347912 597.626
8.574731488360351 773.9739999999999
8.59709314210385 911.3639999999999
8.619472567021075 1161.02
8.64183487789147 1566.33
8.664214962183097 1876.15
8.686577933647762 1611.13
8.708958680784317 916.4960000000001
8.731339760774953 382.384
8.753703729764451 168.563
8.77608547780821 115.38
8.798450116065078 103.448
8.820832535634787 97.6746
8.843215292401656 94.415
8.865580941199045 91.5074
8.887964374703538 89.7845
8.910330701447199 88.5557
8.932714815164482 87.4752
8.955099270424924 86.0577
8.977466620733543 85.5122
8.999851761421976 84.8089
9.022219798361645 83.8946
9.04460562795561 83.8564
9.066991803441677 83.0786
9.089360876979615 82.7258
9.111747746589993 82.8111
9.13411751544971 81.8123
9.156505082664324 81.8046
9.178875550323522 81.9522
9.20126381862328 82.6189
9.223652438908596 87.3383
9.246023961427412 94.8336
9.26841328802173 95.6845
9.290785518039224 90.6892
9.313175554425882 86.4478
9.335565947154315 83.1765
9.357939245086508 83.1283
9.380330352834827 82.8807
9.40270436697103 82.736
9.425096193225055 82.9032
9.447488380180165 83.686
9.469863475295412 83.9796
9.492256385987508 84.2477
9.514632206018318 84.8852
9.537025843935714 85.4998
9.559402392368193 85.9125
9.581796761000229 86.9517
9.604191496441521 86.9363
9.626569144158516 87.8085
9.648964615551032 88.5293
9.671343000390081 89.1303
9.693739211225699 90.4285
9.716135793237463 91.6859
9.738515290448102 92.3988
9.760912617143402 93.7633
9.783292860202891 94.9134
9.805690935076182 96.2888
9.828089385495742 97.3825
9.850470754023561 99.7907
9.872869957865444 102.00200000000001
9.89525208097539 104.807
9.917652041736662 108.625
9.940052382417589 114.852
9.962435644102392 131.657
9.984836746950979 187.18099999999998
10.007220771957746 343.25800000000004
10.029622640473708 542.3
10.052007432299963 677.1210000000001
10.074410069984072 750.324
10.096813093716005 860.6039999999999
10.119199042482517 1083.16
10.141602840636468 1431.21
10.163989564971628 1691.72
10.186394141051062 1519.91
10.208799107559706 934.445
10.231187001965623 453.32599999999996
10.253592751657669 205.543
10.275981430388155 132.248
10.298387966769793 116.236
10.320794897965431 111.45299999999999
10.343184759907361 108.443
10.36559248305461 106.09100000000001
10.387983138083852 104.915
10.410391656691655 107.428
10.432800574501677 122.51700000000001
10.455192425893369 164.56599999999997
10.47760214443012 214.53
10.499994797678786 248.22799999999998
10.522405320453982 265.405
10.54479877906917 292.416
10.567210109595656 346.298
10.5896218454736 421.38599999999997
10.612016518879773 502.965
10.634429067781074 490.49699999999996
10.656824555333241 360.962
10.679237920773568 219.90099999999998
10.701651695961992 132.404
10.724048411481384 100.197
10.746463008485165 90.73899999999999
10.768860546937125 86.8465
10.791275969274796 84.339
10.81369180576079 82.7794
10.836090585366925 81.0535
10.858507252467449 79.8112
10.88090686379991 78.7453
10.903324365036394 77.8396
10.925724811614439 76.17699999999999
10.948143150509463 76.15
10.970561909719066 75.0507
10.992963615930844 74.0893
11.015383218085756 73.2685
11.037785768347074 72.3405
11.06020621697282 71.9204
11.082627090322113 71.76899999999999
11.105030913430326 70.9508
11.12745263854165 70.0061
11.149857314510728 69.1746
11.172279894912576 69.183
11.194702904450653 68.4312
11.217108866490921 67.5642
11.239532736615194 67.2575
11.26193956033512 66.92
11.284364294577085 66.9537
11.306789462371718 66.3953
11.329197585398376 66.0767
11.351623622610898 66.0875
11.37403261614354 65.3151
11.396459526308487 65.0482
11.418869393879497 64.6451
11.441297180532617 64.6769
11.463725406927658 63.9849
11.486136592353875 63.5504
11.508565700543707 63.4736
11.530977768845315 63.2071
11.553407762368774 62.7885
11.575838200059769 63.0456
11.598251599479612 62.6894
11.620682927815501 62.5466
11.64309721895548 62.7528
11.665529441478206 62.4162
11.687962112597958 62.0618
11.710377748130886 62.2125
11.732811318753434 62.2866
11.755227854859067 62.0726
11.777662328529495 61.6623
11.800079768750786 61.6661
11.822515149015453 61.4536
11.844950984084935 62.0635
11.867369787303163 61.7253
11.889806534289491 62.1241
11.912226250487029 63.0238
11.934663912939751 64.5265
11.9571020346363 65.9028
11.979523127133968 65.6975
12.001962169624331 65.5624
12.024384183972964 65.245
12.046824150809913 68.1166
12.069264581333726 77.9183
12.091687985297767 90.7584
12.11412934550045 101.581
12.136553680195208 108.35700000000001
12.158995973632788 113.588
12.181438735204349 120.994
12.20386447284199 134.667
12.226308172985636 156.724
12.24873485024193 180.715
12.271179492516982 194.79
12.293607112949127 176.085
12.316052700916226 134.923
12.338498763250042 97.0405
12.360927805303868 74.5095
12.383374818673879 66.9898
12.405804812803074 64.7083
12.428252780773262 64.1021
12.45070122756722 63.8857
12.473132656675375 63.4511
12.49558206341869 63.5851
12.518014453510101 63.4903
12.540464823770117 63.4809
12.562915677315177 63.5639
12.58534951575545 64.1667
12.607801338171472 64.0262
12.630236146511358 64.3146
12.652688941369085 64.809
12.675124723177234 65.1635
12.697578494048786 65.8629
12.720032754458185 65.8516
12.742470003354093 66.217
12.764925245138771 66.7955
12.787363476431278 67.4871
12.809819703166806 67.6662
12.83227642391173 68.3663
12.854716135692716 69.0871
12.877173846755147 70.0175
12.899614549869717 70.3911
12.9220732548287 71.1918
12.94453245827299 71.7932
12.966974655289818 73.0304
12.989434858002571 73.9472
13.011878055298721 74.8574
13.034339260862497 75.9496
13.056800969391883 77.3741
13.079245674017244 79.4807
13.101708390774869 81.8556
13.12415410463411 87.2207
13.146617833206086 103.846
13.169064559883248 133.86700000000002
13.191529303857127 163.93099999999998
13.213994557076367 186.80200000000002
13.236442809902437 198.40599999999998
13.258909083908291 209.424
13.28135835851934 225.65599999999998
13.30382565690295 256.678
13.326293469022952 304.999
13.348744283242008 362.038
13.371213125129904 396.655
13.39366497011003 377.49800000000005
13.416134845360597 294.61400000000003
13.438605238843131 201.505
13.46105863690397 139.327
13.483530069144786 118.711
13.505984506951902 130.444
13.528456981549432 154.357
13.550929978879088 171.83900000000003
13.573385983253365 182.40900000000002
13.595860028340867 188.362
13.618317081455832 198.27700000000002
13.64079217790333 217.274
13.663250283359057 247.935
13.685726434770173 292.0
13.708203115221277 338.60900000000004
13.730662806148091 342.392
13.75314054697177 299.724
13.775601299246777 222.549
13.798080104050406 147.134
13.820559442405358 103.447
13.843021793671388 87.8382
13.865502201420897 82.5313
13.887965623051947 80.9672
13.910447103807167 79.7308
13.932929122629764 78.2747
13.955394156785959 77.7679
13.977877254034569 76.3224
14.000343367582113 75.6478
14.022827546871707 75.0503
14.045294743423524 73.997
14.06778000837062 73.3352
14.090265817715476 73.1709
14.112734645763819 73.2253
14.13522154619454 74.0942
14.157691466286913 74.5336
14.180179461423874 73.9623
14.202668005486178 73.0059
14.22513957064374 71.6111
14.247629214846473 71.1685
14.270101881097517 70.5084
14.29259262906496 69.6723
14.315083930490205 69.76100000000001
14.337558255389705 69.378
14.360050666019726 69.3157
14.382526101071944 69.0087
14.405019624534942 69.0594
14.427513705993134 68.6241
14.449990813291825 68.76
14.47248601302899 68.7352
14.49496423954951 68.9902
14.517460561197822 68.905
14.539939910570322 68.5889
14.562437357763558 68.7443
14.58493536931253 69.3153
14.607416409993311 69.2169
14.62991555254159 69.5203
14.652397725157423 69.6898
14.674898002342799 69.832
14.697398848433282 70.3953
14.719882725991326 71.3894
14.74238471217934 71.9132
14.764869730765593 74.8168
14.787372860692983 81.4219
14.809876564079925 94.2824
14.83236330125751 106.86399999999999
14.854868153850365 116.53
14.877356041159485 121.695
14.899862046604186 124.492
14.922351087688757 129.86
14.944858249632887 139.059
14.967365991421232 153.49
14.989856770231246 172.425
15.012365673994204 197.638
15.03485761569738 212.894
15.05736768508665 203.80700000000002
15.07987833888692 172.511
15.102372032001655 133.283
15.124883856909658 99.2552
15.14737872204565 81.1751
15.169891721717274 73.96300000000001
15.192405310371893 71.5763
15.214901940621196 70.6171
15.237416709527137 69.7079
15.259914520936249 69.1791
15.282430473753607 68.3957
15.304947020131227 67.6001
15.327446610371178 67.4923
15.349964346154254 67.051
15.372465126703139 66.8662
15.394984055556009 66.6878
15.417486030076159 66.6302
15.44000615566487 66.0726
15.462526881230803 66.3049
15.485030653812652 66.1401
15.507552581617434 65.9044
15.530057557334603 65.9034
15.55258069104857 65.961
15.575104429329837 66.307
15.597611216864632 65.9589
15.620136166564563 66.3681
15.6426441664095 66.9954
15.665170331202765 68.8532
15.687697105158826 74.2553
15.710206930593545 84.5342
15.732734925158933 95.0272
15.755245972089478 102.666
15.77777519094324 107.444
15.800287463046663 109.712
15.822817909869592 112.96600000000001
15.84534897229804 118.198
15.867863089299354 128.46
15.890395385222186 141.711
15.912910736597423 159.749
15.935444269699861 178.21900000000002
15.957978423016485 186.12900000000002
15.980495633101265 173.30599999999998
16.003031029129367 147.59
16.02554948280019 112.738
16.048086125229432 86.6958
16.070623392487107 72.5647
16.09314371869582 66.3029
16.11568223789321 63.297
16.13820381691126 62.0499
16.160743591742527 61.5307
16.183283996022084 60.6299
16.205807461423195 59.708999999999996
16.228349126881973 59.3548
16.25087385432698 59.1291
16.27341678466365 58.5215
16.29594277784926 58.2697
16.31848697676433 57.6747
16.341031811604868 57.1859
16.36355971058487 57.0932
16.3861058195587 56.8905
16.40863499352978 56.3261
16.431182380342005 56.188
16.453730407713202 56.1124
16.476261501364792 55.8898
16.498810812136167 55.4798
16.52134319004079 55.5685
16.54389378792203 55.3998
16.566445031001553 55.2976
16.588979342490088 55.1154
16.61153187824822 55.1741
16.634067483263312 54.8055
16.656621315414416 54.8113
16.679175797408888 54.4292
16.701713349928728 54.5838
16.72426913389191 54.7402
16.74680798922351 54.5269
16.76936507887444 54.4493
16.791905240734874 54.6078
16.814463639794468 54.3752
16.837022695210294 54.663000000000004
16.859564824093756 54.7902
16.882125194503903 54.6619
16.904668639217885 55.0999
16.927230328348003 55.0995
16.949792678493612 55.3962
16.972338104193863 55.4186
16.994901778652235 55.3616
17.017448529496576 55.5048
17.040013531998152 55.7314
17.06257920018044 55.9795
17.0851279459922 57.2183
17.107694947817667 59.4082
17.130245028099072 61.2814
17.15281336730298 63.1233
17.17536478578733 64.5996
17.19793446610687 65.4506
17.220504818648422 65.941
17.243058251703697 66.4926
17.265629950971032 68.3351
17.288184731571736 70.4245
17.310757781306908 73.8159
17.33333150794385 77.3429
17.355888317140174 80.8538
17.37846339986244 82.9567
17.401021565958885 81.001
17.42359800851343 76.2449
17.44617513265564 70.9559
17.468735341390783 65.2987
17.491261035594565 61.7412
17.51396340099364 59.8784
17.536490463869136 59.6545
17.559018209820174 59.4151
17.58154663977963 59.6358
17.604251766089718 59.6855
17.626781572227713 59.8432
17.64931206518155 60.0236
17.671843245885103 60.2306
17.69455114821572 60.3223
17.717083712612634 60.7593
17.739616967569667 61.3437
17.762150914021706 61.757
17.78486160749854 61.9429
17.807396945166804 62.5004
17.829932977143503 63.218999999999994
17.85246970436452 64.5358
17.875183204129467 67.3744
17.897721330097664 72.82
17.920260154126645 78.9963
17.942799677153296 84.0487
17.9655159983646 87.2475
17.988056927677544 88.8566
18.010598558807683 90.2077
18.033140892692916 92.2886
18.05586005052525 95.4956
18.07840379824407 100.454
18.10094825154059 107.863
18.12366954819864 117.81
18.146215420998306 131.118
18.16876200220057 142.813
18.191309292745153 145.378
18.214033452627167 140.48
18.236582170236648 125.902
18.259131600016456 108.98200000000001
18.281681742907335 95.1459
18.304408781233683 88.5047
18.32696035875955 86.9577
18.349512652227624 88.0734
18.372065662579683 92.1721
18.394795594587553 96.8598
18.41735004715306 102.104
18.43990521943684 103.87100000000001
18.46246111238171 101.711
18.485193953325208 94.4674
18.507751296070428 84.3324
18.530309362314178 75.4199
18.552868153000343 69.1082
18.57560391815056 65.1395
18.59816416623245 63.476000000000006
18.620725141597372 62.5107
18.643286845190268 61.7956
18.666025549835414 61.2277
18.688588718427933 60.6648
18.711152618092243 60.3691
18.73389353884365 60.0794
18.75645890921984 59.7715
18.77902501351406 59.1548
18.801591852673102 59.2456
18.824335739722738 58.7998
18.846904057212626 58.646
18.8694731124168 58.3557
18.89204290628315 58.263999999999996
18.914789774966803 58.0659
18.937361054791623 57.7076
18.959933076131318 57.3819
18.982505839934877 57.3111
19.00525570560582 57.3419
19.027829963004184 57.1668
19.05040496572238 57.2292
19.072980714710468 57.1754
19.095733592739563 57.0601
19.11831084296757 57.5478
19.140888842324735 58.8824
19.16346759176222 59.9248
19.18622349753803 61.148999999999994
19.208803755869358 62.0953
19.231384767143577 62.6401
19.253966532312948 62.9483
19.276725481241822 63.2352
19.29930876296784 63.9859
19.3218928014549 64.9929
19.34465404436217 66.2625
19.36723960516257 67.9641
19.389825925592426 70.0614
19.412413006605938 72.4746
19.43517731967805 74.5139
19.457765930683355 74.4785
19.48035530514408 72.0043
19.50294544401556 67.9917
19.525712842708348 63.2533
19.54830451925909 59.4595
19.570896963095727 56.4129
19.593490175174704 55.0695
19.616260674962184 54.6856
19.638855432416964 54.1789
19.661450960992624 54.04
19.68404726164677 53.9938
19.706820878021247 53.9632
19.729418731756834 54.1329
19.752017360452857 53.6117
19.77461676506804 53.8278
19.797393513540218 53.8923
19.819994478951667 54.2108
19.84259622316767 54.9507
19.8651987471481 56.2778
19.887978643247177 57.081
19.91058273574792 57.912
19.933187610901943 58.5694
19.955969879466828 58.8005
19.97857632894404 59.1608
20.00118356396599 59.2055
20.023791585494575 59.8863
20.046577028914875 61.1968
20.069186632506966 62.8606
20.091797025500632 65.5633
20.114408208858933 67.9307
20.137196842715273 70.8838
20.159809615886765 73.0697
20.18242318232135 72.4746
20.20503754298326 71.0479
20.227829382875154 68.2011
20.250445341109344 65.4652
20.27306209647285 63.0017
20.29567964993108 61.839
20.31847471147704 61.4707
20.34109387027612 62.5995
20.363713830075454 63.9677
20.386334591841646 65.2958
20.409132890679302 65.4631
20.431755265564437 64.3655
20.454378445325528 62.0472
20.477002430930366 58.8675
20.499803982716553 55.7393
20.522429589228004 53.1833
20.54505600449589 51.9805
20.567683229489194 51.2343
20.590488049900088 51.0646
20.61311690359731 50.6093
20.63574656993626 50.5282
20.658553853717297 50.2452
20.681185154618298 50.2923
20.703817271080066 50.1109
20.72645020407368 49.6731
20.749260783967177 49.7207
20.771895359337133 49.6271
20.794530754161617 49.6326
20.817166969412938 49.4683
20.83998086114876 49.1895
20.86261872660049 49.1781
20.885257415405402 49.1293
20.90789692853701 49.0478
20.930714147864748 49.0712
20.953355319030678 49.1874
20.97599731745334 49.3191
20.99864014410749 49.2585
21.021460706796564 49.3616
21.044105199328826 49.7521
21.06675052302631 49.7634
21.089396678865015 49.8075
21.112220600704806 49.8627
21.134868430275347 49.9673
21.15751709492456 49.9864
21.180166595629693 50.0958
21.202993892429635 50.2384
21.22564507473034 50.4097
21.24829709602816 50.7459
21.27112693608965 51.2667
21.293780644891275 51.7769
21.316435195634053 51.8635
21.339090589297417 51.8377
21.361923832041875 51.437
21.384580921090404 50.7859
21.407238856007325 49.8382
21.429897637773326 49.4816
21.45273429906592 49.187
21.475394784108598 49.0179
21.498056118951983 48.9552
21.520718304578022 49.1995
21.543558400304388 49.0716
21.566222297108816 49.3912
21.58888704765135 49.4105
21.61155265291521 49.9076
21.63439619898156 50.7593
21.657063523335786 51.7186
21.67973170537063 52.5706
21.7024007460706 53.2928
21.72524775840385 53.9943
21.747918526116475 54.4389
21.770590155457388 54.6516
21.79326264741238 54.8493
21.816113141960237 55.5574
21.838787368860547 56.5095
21.861462461341976 57.794
21.884315579735777 59.5221
21.90699241312273 60.8736
21.92967011506078 62.8565
21.95234868653799 64.9112
21.9752053151131 66.5758
21.997885635446785 66.6717
22.020566828293532 65.6791
22.04324889464272 63.4302
22.066109049404666 60.61
22.088792872571794 58.1421
22.111477572219204 56.6682
22.1341631493376 55.9558
22.157026846313123 56.1704
22.179714188221507 56.5594
22.202402410582668 56.8621
22.22509151438863 56.2925
22.24795876962584 55.4133
22.270649646204486 53.8907
22.293341407213727 52.6048
22.316034053646906 51.2629
22.338904883215342 50.3523
22.36159931041458 49.8211
22.38429462602756 49.4428
22.40699083104897 49.338
22.429865251039757 49.2512
22.452563244831367 49.1881
22.47526213102522 49.1932
22.49813925616515 49.1723
22.520839937143307 49.1598
22.543541513520587 49.4296
22.56624398629403 49.3098
22.589124730075895 49.1054
22.611829005656723 49.2404
22.63453418063466 49.2554
22.657240256008077 49.5537
22.680124634582935 50.028
22.70283252079775 50.8061
22.725541310413075 51.2192
22.74825100442868 51.6194
22.771139033969575 52.2723
22.79385054687155 52.183
22.81656296718292 52.3525
22.83927629590484 52.3727
22.862167992606945 52.7089
22.88488314827121 53.1238
22.907599215359284 53.4141
22.93031619487366 53.9475
22.953211574954405 54.5627
22.975930389478226 55.6912
22.998650119445763 56.8456
23.02137076586092 57.6379
23.044269845560063 58.4802
23.06699233506288 58.4202
23.089715744034912 57.5836
23.112617610931565 55.994
23.135342869061212 54.2764
23.158069049684816 52.4805
23.1807961538087 50.9062
23.20370174880544 50.2268
23.226430710184808 49.6477
23.249160598093425 49.6965
23.271891413539002 49.5408
23.294800752937697 50.1631
23.31753343374794 50.9066
23.340267045128353 51.3336
23.36300158808808 51.8184
23.38591468821339 52.051
23.408651104658304 52.2398
23.431388455719986 52.1053
23.454126742409 52.0907
23.4770436196085 52.4126
23.499783787914662 52.8674
23.522524894889884 52.9801
23.54526694154616 53.461999999999996
23.56818761219047 54.3226
23.59093154860734 55.2031
23.613676427751283 56.536
23.636422250635754 57.5064
23.659346731118656 58.2993
23.68209445191868 58.2323
23.704843119509587 57.1756
23.72759273490623 55.2501
23.750521041644767 53.0344
23.77327256312355 50.9058
23.796025035462787 49.2975
23.818956224555475 47.8154
23.841710609113413 47.3047
23.86446594758979 46.6626
23.887222241002014 46.4404
23.910157285144578 46.0774
23.932915498962537 45.9539
23.955674670778713 45.8318
23.978434801611975 45.5244
24.001373717286125 45.3757
24.024135776723917 45.3435
24.046898798245582 45.2115
24.06966278287146 45.0137
24.092605586582614 44.8973
24.115371508023642 44.8168
24.1381383956401 44.5999
24.16090625045381 44.5552
24.183852958731244 44.4926
24.206622758582608 44.3453
24.229393528706886 44.0891
24.252165270127392 44.2244
24.27511589952438 44.2078
24.297889594216997 43.9818
24.32066426328598 43.7996
24.34343990775613 43.8413
24.36639447485003 43.7471
24.38917208083877 43.6259
24.41195066531332 43.5213
24.43490819850244 43.6864
24.457688750692377 43.6346
24.48047028445616 43.5221
24.503252800821233 43.6061
24.526214300784112 43.3993
24.548998793132213 43.3291
24.57178427117417 43.2746
24.59457073593893 43.4011
24.617536219319863 43.3913
24.64032466834748 43.4902
24.663114107195035 43.4374
24.685904536893013 43.2533
24.708874020360852 43.1662
24.731666442613744 43.2402
24.754459858818787 42.9797
24.777254270007962 42.8133
24.80022777025625 42.8052
24.82302418230472 42.6624
24.845821592443674 42.7808
24.86862000170663 42.7346
24.891597535453727 42.7499
24.914397953892728 43.2022
24.93719937456671 42.995
24.96000179851076 43.0445
24.98298338249997 43.1886
25.00578782394922 43.4361
25.028593271784167 43.4772
25.05157790644186 43.8577
25.07438537804115 43.7373
25.097193859145293 44.1112
25.120003350792075 44.3123
25.142992065061257 44.5008
25.165803588823465 44.6385
25.18861612625217 44.9369
25.211429678386736 45.1512
25.234422489079968 45.3378
25.257238081693636 45.4123
25.280054692141732 45.461000000000006
25.3028723214652 45.2224
25.325869245420463 45.2176
25.348688923599397 45.2365
25.371509623787006 45.1433
25.394331347025812 45.1871
25.41733240110666 45.4261
25.440156181590016 45.4342
25.46298098826268 45.2714
25.48580682216873 44.7252
25.50881202326435 43.9711
25.53163992281684 43.1471
25.55446885274561 42.7003
25.577298814096377 42.0135
25.600308179121807 41.7693
25.623140214533745 41.5918
25.64597328451537 41.5057
25.66898578564376 41.1627
25.691820936010206 41.1229
25.714657124097695 40.9355
25.737494350954734 41.0769
25.760511045684957 41.1178
25.783350361364224 41.1865
25.806190718969255 41.1639
25.82903211955018 41.2501
25.852053024868923 41.3193
25.874896522722523 41.3911
25.897741066713106 41.2794
25.920586657892454 41.2433
25.943611790812668 41.4535
25.966459487728237 41.3862
25.989308234998564 41.2507
26.01215803367705 41.5248
26.03518741123814 41.5433
26.05803932412957 41.6404
26.080892291600094 41.515
26.10374631470478 41.6252
26.12677995397268 41.9247
26.14963609978026 42.2918
26.172493304397875 42.4046
26.19535156888223 42.4209
26.218389486949604 42.1259
26.241249882640123 41.9352
26.26411134137826 41.6004
26.28715248187403 41.525
26.31001607820869 41.1865
26.3328807407756 41.1129
26.35574647063438 41.1787
26.37879191991473 41.103
26.401659795896734 41.0317
26.424528742360263 41.0278
26.447398760366614 41.1566
26.470448535598294 41.1939
26.49332070826805 41.1794
26.516193955675355 41.5313
26.53906827888316 41.5462
26.562122397260108 41.6745
26.584998883685063 41.8541
26.607876449110325 42.0898
26.63075509460056 42.0816
26.65381357334404 42.2565
26.67669439061878 42.4039
26.699576291163382 42.6571
26.722459276044212 43.0301
26.745522132402975 43.0532
26.768407297649354 42.9235
26.791293550442003 42.5142
26.814180891848974 42.178000000000004
26.837248143099337 41.8284
26.860137673466657 41.4741
26.88302829566349 41.2277
26.90592001075963 41.0599
26.92899167420566 41.003
26.951885586870763 40.7325
26.974780595655517 40.5295
26.99785558178161 40.227
27.020752794605112 40.0425
27.043651106772522 39.7716
27.06655051935668 39.7121
27.089629948036183 39.5758
27.112531573292053 39.3362
27.135434302194138 39.3904
27.158338135817015 39.2513
27.181422024430987 39.1974
27.204328079372566 39.1089
27.22723524226965 39.2592
27.250143514198573 39.287
27.273231880156334 39.2568
27.296142382065014 38.9635
27.319053996245536 39.0413
27.341966723775965 39.033
27.365059584515222 38.99
27.38797455070062 39.1251
27.410890633481237 38.9159
27.433807833936918 39.0093
27.456905206923906 38.9488
27.47982465472398 39.0176
27.502745223449743 39.0624
27.525666914182825 39.0508
27.548768816912457 39.0837
27.571692763693633 39.0124
27.59461783573812 39.0889
27.617723149491244 38.9513
27.640650484125285 38.9884
27.66357894728264 39.0329
27.686508540048052 38.9868
27.709618414237887 38.9382
27.732550278321757 38.8971
27.755483275279115 38.7673
27.778417406196485 38.7974
27.801531858397514 38.8114
27.824468269376716 38.6471
27.847405817586786 38.5266
27.870344504116094 38.5172
27.893463551932008 38.7107
27.916404527281053 38.821999999999996
27.93934664422563 39.0216
27.962289903855886 38.7362
27.98541356491974 39.0231
28.00835912214229 39.0038
28.03130582533231 39.175
28.054253675581805 39.2616
28.077381967556104 39.3771
28.100332124185126 39.4713
28.123283431160893 39.5876
28.146235889577238 39.7717
28.169368830154156 39.7475
28.192323603752033 39.5518
28.215279532083304 39.2113
28.238415973016764 39.0495
28.261374223145094 38.8625
28.284333631303806 38.6943
28.307294198589954 38.5776
28.330435319167677 38.409
28.353398217078915 38.115
28.376362277420153 37.766999999999996
28.39932750129032 37.5948
28.422473319286713 37.3907
28.44544088262495 37.263000000000005
28.468409612800283 37.0231
28.491379510913497 36.6103
28.51453004413313 36.5554
28.53750229057244 36.5911
28.56047570826344 36.5786
28.583450298308804 36.6167
28.606605564586562 36.2772
28.629582511831156 36.4285
28.65256063474956 36.3369
28.675539934446338 36.3062
28.698699951647605 36.2355
28.72168161743193 36.0346
28.74466446331978 36.0212
28.767648490417624 35.9976
28.790813276438353 35.9395
28.813799678527303 35.8117
28.836787265157085 35.8745
28.859955641890075 35.8929
28.882945610203045 35.8043
28.905936766392035 35.7422
28.928929111566863 35.7776
28.952102288520145 35.7065
28.975097024308607 35.7067
28.998092952423807 35.5949
29.021090073977508 35.6332
29.04426806913204 35.6567
29.067267590245258 35.4589
29.090268308143695 35.3699
29.11327022394099 35.3074
29.13645305530891 35.0264
29.159457379627167 35.0447
29.18246290519685 34.9526
29.20546963313352 34.9408
29.22865731875826 34.856
29.25166646419296 34.7683
29.27467681535305 34.5825
29.29768837335608 34.6075
29.320880931312562 34.746
29.34389491580634 34.5925
29.366910110507334 34.6577
29.38992651653503 34.6311
29.41312396492981 34.6497
29.436142806456754 34.4896
29.45916286268059 34.5652
29.48236399319994 34.5523
29.50538649169417 34.4601
29.528410208259935 34.3805
29.55143514402014 34.2664
29.574641196749695 34.1205
29.597668583816574 34.1379
29.6206971934585 33.8664
29.64372702680042 33.7331
29.666938019934474 33.5165
29.689970313635285 33.4873
29.713003834422636 33.5108
29.73603858342347 33.4082
29.759254535188578 33.2984
29.78229175361658 33.2574
29.80533020365064 33.3456
29.82836988641968 33.3457
29.85159081507472 33.2661
29.874632976355343 33.1148
29.89767637376955 33.2621
29.920721008448314 33.1354
29.9439469322847 33.0611
29.96699405457564 32.9657
29.9900424175358 33.0072
30.013092022298157 33.0395
30.03632295963995 32.8815
30.059375061131373 32.9796
30.08242840783577 33.0414
30.105483000888153 32.857
30.128718970092244 32.8369
30.151776069006917 32.8413
30.17483441768648 32.9054
30.198074175317235 32.8457
30.221135036724256 32.8135
30.24419715131772 32.7145
30.267260520236203 32.7193
30.290505341942243 32.7602
30.313571232750228 32.806
30.336638381310948 32.8133
30.35970678876503 32.8932
30.38295669299435 32.7876
30.40602763151657 32.8651
30.429099832366074 32.7734
30.452173296685572 32.7127
30.47542830191959 32.6979
30.498504306502497 32.6256
30.521581577995562 32.6006
30.544660117543582 32.6529
30.56792024229725 32.7146
30.59100133132069 32.5371
30.614083691845494 32.47
30.637167325018545 32.5288
30.660432587840603 32.5408
30.683518779717886 32.4743
30.70660624769615 32.7113
30.729694992924372 32.7043
30.75296541239743 32.6816
30.77605672557558 32.6048
30.799149319462742 32.6985
30.8224236211637 32.671
30.845518789950724 32.6173
30.868615242910597 32.5536
30.891712981195973 32.4111
30.91499247215866 32.2329
30.938092794619365 32.2969
30.96119440587579 32.2042
30.984297307082752 32.0666
31.00758200598383 31.9538
31.030687500658694 31.881999999999998
31.053794288760695 31.8516
31.076902371446767 31.6957
31.100192296997445 31.7525
31.12330298246119 31.5784
31.14641496599209 31.4973
31.169528248749216 31.5482
31.19282341969534 31.4927
31.215939314557186 31.5133
31.239056512134788 31.5519
31.262175013589378 31.619
31.28547544871168 31.4517
31.30859657161541 31.2982
31.331719001892175 31.2949
31.35484274070538 31.4099
31.378148458819545 31.28
31.401274828443725 31.146
31.424402510106933 31.2759
31.447712205419993 31.4312
31.470842524931633 31.1697
31.493974159989783 31.2412
31.51710711176168 31.2525
31.54042212308802 31.3579
31.563557722100917 31.3183
31.586694641341655 31.2805
31.609832881979628 31.1957
31.63315322823208 31.1812
31.656294125521327 31.2101
31.679436347728515 31.0188
31.70257989602529 30.9385
31.725905596152327 30.7973
31.74905181052835 30.7049
31.772199354521323 30.7036
31.79534822930507 30.6733
31.818679302290967 30.5807
31.84183085259981 30.5951
31.864983737233473 30.5727
31.88813795736804 30.5738
31.911474422233013 30.4495
31.934631327356435 30.5355
31.9577895715215 30.4878
31.980949155906522 30.473000000000003
32.004291031706956 30.4642
32.027453310562606 30.4553
32.05061693318573 30.3013
32.07396288236386 30.4553
32.09712920658542 30.2571
32.12029687812702 30.191
32.14346589817093 30.191999999999997
32.166817291729984 30.2103
32.18998902288583 30.0878
32.21316210610336 29.9137
32.23633654256711 29.7409
32.259693399663725 29.8099
32.282870556771144 29.6396
32.30604907069099 29.6758
32.329228942610065 29.6484
32.35259128243769 29.4874
32.375773884550505 29.4468
32.398957848235646 29.4602
32.422143174682176 29.3685
32.445511016471215 29.2283
32.468699082679954 29.2043
32.49188851523011 29.1972
32.51507931531304 29.0099
32.538452678331 29.0106
32.56164622776311 28.9499
32.58484114831493 28.8357
32.60803744118015 28.9009
32.631416344731896 28.9104
32.654615396551876 28.8559
32.67781582427913 28.8066
32.701198898634416 28.768
32.72440209253756 28.7334
32.747606665947124 28.7404
32.77081262006088 28.660999999999998
32.79420126883317 28.5512
32.81740999876112 28.5782
32.840620112999424 28.4981
32.86383161274818 28.4024
32.88722585534586 28.56
32.91044014056596 28.5816
32.933655814909734 28.5108
32.95687287957963 28.4998
32.98027273544904 28.3576
33.00349259526636 28.316
33.026713849030116 28.3318
33.04993649794511 28.276
33.073341986570746 28.2218
33.09656744032826 28.1975
33.11979429286444 28.1683
33.14302254538647 28.2263
33.166433686291185 28.1263
33.18966475336992 27.9976
33.212897224069096 28.0031
33.23613109959831 28.0257
33.259547912343415 28.0031
33.2827846121627 28.009
33.306022720453775 27.9399
33.32926223842861 27.8055
33.352684742614166 27.8319
33.37592709463173 27.8718
33.399170859982064 27.8322
33.422597648419426 27.8333
33.44584425514446 27.6429
33.46909227885668 27.6265
33.4923417207723 27.4849
33.51577423505344 27.5873
33.539026528130385 27.4593
33.56228024307245 27.3467
33.585535381098246 27.1122
33.60897364093058 27.1643
33.63223163992385 27.1516
33.6554910656699 27.1248
33.678751919389796 27.1488
33.702195944520106 27.0617
33.72545966903325 27.0657
33.74872482519663 26.9515
33.771991414233746 27.0235
33.79544122444841 26.8707
33.81871069412428 26.7876
33.84198160035767 26.726
33.86525394437455 26.7439
33.88870955949969 26.65
33.911984794020626 26.6657
33.93526147001624 26.6304
33.958539588715006 26.5856
33.98200102861669 26.5959
34.0052820477047 26.5409
34.02856451319451 26.5078
34.05203033759056 26.4049
34.07531571090147 26.3635
34.09860253431845 26.3718
34.121890809074316 26.221999999999998
34.145362493118924 26.2975
34.16865368561615 26.2468
34.191946333164054 26.1477
34.21524043699793 26.1535
34.23871800066799 26.0798
34.26201503218366 25.9967
34.28531352370466 25.9611
34.30861347646881 25.9076
34.33209693978188 25.9705
34.3553998301885 25.9027
34.378704185565205 25.8322
34.402010007152356 25.7621
34.42549939016683 25.7748
34.44880815937748 25.7188
34.472118398533134 25.6403
34.49543010887669 25.6586
34.51892543169198 25.6383
34.54224009966052 25.6057
34.56555624255917 25.6175
34.58887386163339 25.4178
34.61237514439016 25.351999999999997
34.6356957311114 25.2905
34.65901779775809 25.3504
34.68252356662995 25.3536
34.705848608458616 25.304000000000002
34.72917513396849 25.1772
34.75250314440949 25.1805
34.77601490857862 25.1679
34.799345904259795 24.9612
34.82267838863559 25.0498
34.846012362958525 25.0666
34.869530142679984 24.9518
34.89286711232212 24.9084
34.91620557568269 24.8786
34.93954553401677 24.8608
34.9630693495876 24.7477
34.986412313340814 24.9485
35.00975677584668 24.905
35.033102738362956 24.7392
35.05663261012228 24.7464
35.0799815881786 24.748
35.10333207003229 24.6331
35.12668405694369 24.695
35.150220005273056 24.6898
35.17357501786656 24.6571
35.19693153931268 24.5195
35.220289570874385 24.561999999999998
35.24383161619786 24.5292
35.267192683604904 24.5415
35.290555264930376 24.5247
35.314101899412165 24.4101
35.33746752422433 24.3978
35.36083466676374 24.3774
35.38420332829803 24.3374
35.407756095629054 24.3342
35.43112781085063 24.3253
35.45450104888391 24.2797
35.477875810999194 24.2596
35.50143473172161 24.1982
35.52481255774625 24.2707
35.54819191167777 24.1236
35.57157279478914 24.1318
35.595137889488406 24.1563
35.61852184675279 24.171
35.641907337029984 24.0737
35.665294361595684 24.0018
35.68886565090076 24.0047
35.7122557598848 23.9825
35.73564740699838 23.8886
35.759040593519934 23.835
35.78261809810353 23.7644
35.80601437933051 23.7442
35.829412203814705 23.635
35.85281157283719 23.6274
35.876395313415884 23.7417
35.8997977874528 23.584
35.92320180988546 23.5033
35.946790244133936 23.4638
35.97019737933222 23.449
35.993606066789866 23.4415
36.01701630779276 23.4059
36.04061101440684 23.3562
36.06402437852291 23.3402
36.08743930005611 23.3474
36.1108557802951 23.2078
36.13445678011326 23.1642
36.15787639383515 23.1373
36.18129757014299 23.1991
36.20472031032821 23.1028
36.22832762423364 23.1093
36.25175350829375 23.1116
36.275180960119776 23.1038
36.298609981005924 23.0495
36.32222362992669 23.0042
36.34565580510207 22.9797
36.36908955323448 22.8874
36.39252487562093 22.8168
36.416144880530226 22.8219
36.43958336764275 22.8064
36.463023432914625 22.7868
36.486465077645676 22.7064
36.51009145956204 22.7683
36.53353627947859 22.7742
36.55698268276811 22.7015
36.58043067073321 22.5376
36.60406345072071 22.5555
36.62751462435344 22.4954
36.65096738658405 22.5322
36.67460498210655 22.5287
36.69806093788647 22.4768
36.72151848619297 22.3804
36.744977628333636 22.4129
36.76862165890998 22.2984
36.79208400512205 22.3676
36.81554794910557 22.31
36.83901349217101 22.2031
36.862663978991606 22.209
36.88613273667352 22.1409
36.90960309738324 22.127
36.933075062434064 22.0584
36.95673202673572 22.0537
36.98020721697122 22.061999999999998
37.003684015502365 21.927
37.027162423645365 21.9226
37.050825886711465 21.8928
37.07430753063053 21.7936
37.09779078812467 21.7872
37.121275660513014 21.8367
37.144945643673694 21.72
37.16843376245278 21.7563
37.19192350009803 21.749000000000002
37.215414857931435 21.7068
37.239091382563885 21.5747
37.262585997426164 21.5632
37.28608223645736 21.6296
37.309763684451696 21.5507
37.33326318851098 21.5307
37.356764320726555 21.5026
37.380267082425526 21.5262
37.40395510942588 21.4973
37.42746114683234 21.4012
37.45096881771841 21.2653
37.474478123414166 21.3011
37.49817275092816 21.3016
37.52168534303452 21.3055
37.54519957395567 21.2194
37.568715445024665 21.2055
37.592416694607714 21.1198
37.61593586281424 21.1526
37.63945667518264 21.1845
37.66297913304891 21.0505
37.68668702630454 21.0331
37.710212792059274 20.9762
37.733740207334854 20.991
37.757269273470364 20.8825
37.780983832050374 20.8763
37.80451621684926 20.8824
37.82805025654007 20.7681
37.851585952464795 20.7666
37.8753071980695 20.7059
37.89884622345676 20.6663
37.92238690911902 20.6507
37.94611318753442 20.6209
37.969657210779765 20.6027
37.99320289834801 20.6472
38.016750251586465 20.5334
38.04048325513017 20.4806
38.06403395679343 20.4331
38.087586328183946 20.4468
38.11114037065203 20.393
38.13488012115898 20.3657
38.1584375229181 20.3172
38.181996599821 20.2786
38.205557353221124 20.2512
38.229303872575656 20.1739
38.2528679961576 20.1925
38.27643380031219 20.141
38.30000128639589 20.156
38.32375459653193 20.158
38.34732546371299 20.1184
38.37089801690786 19.9815
38.39447225747609 19.9488
38.418232380377425 19.9115
38.441810012983396 19.9727
38.46538933705673 19.9442
38.488970353960084 19.939
38.51273731166058 19.8711
38.536321731567014 19.8172
38.55990784840681 19.7923
38.58367995004091 19.7434
38.60726947812959 19.667
38.63086070726198 19.7515
38.654453638806274 19.7231
38.678232613930824 19.6272
38.70182896773327 19.6091
38.72542702806741 19.5288
38.7490267963045 19.5527
38.77281266709232 19.4963
38.79641586862214 19.4826
38.8200207821842 19.3931
38.843627409152944 19.4399
38.86742019782782 19.3512
38.891030269149255 19.2979
38.914642058016156 19.3643
38.938255565806124 19.3464
38.96205529464307 19.3276
38.98567225787121 19.2402
39.00929094417078 19.2067
39.03291135492255 19.1852
39.05671804624804 19.1186
39.080341923549106 19.154
39.103967529460334 19.0789
39.127594865365744 18.9875
39.15140854155791 18.9541
39.17503935514948 19.0256
39.19867190290282 19.034000000000002
39.22249083587951 18.9051
39.24612686969409 18.9065
39.269764641845306 18.8602
39.293404153722804 18.8219
39.317230110864074 18.7788
39.34087311998506 18.7422
39.36451787301696 18.7428
39.388164371352595 18.6721
39.41199737518003 18.7043
39.43564738196752 18.6951
39.45929913825317 18.578
39.48295264543308 18.6305
39.506792718520884 18.56
39.530449745387216 18.5582
39.55410852735203 18.4927
39.57776906581474 18.5237
39.60161623079 18.4355
39.625280300200025 18.4199
39.64894613032202 18.3321
39.67261372255866 18.3577
39.6964680021016 18.3132
39.72013913657293 18.2767
39.74381203738292 18.3013
39.76748670593756 18.2982
39.79134812278169 18.2096
39.81502634488497 18.1658
39.83870633896685 18.1814
39.862388106436654 18.1271
39.88625668336918 18.1067
39.90994201572829 18.1505
39.933629125719285 18.1089
39.957503091207826 18.0335
39.9811937746168 17.9844
40.00488623990914 17.9361
40.02858048850006 17.8735
40.05246165409549 17.9104
40.076159487492085 17.8225
40.099859108448875 17.8977
40.123560518384345 17.8178
40.1474489070226 17.7915
40.171153913178564 17.7333
40.194860712584955 17.7269
40.2185693066637 17.7039
40.242464941335314 17.649
40.26617714307655 17.666
40.289891143772046 17.6194
40.3136069448471 17.65
40.33750984859743 17.6538
40.3612292688043 17.5124
40.3849504936829 17.494
40.40867352466194 17.5121
40.43258372059144 17.4605
40.45631038219906 17.4692
40.48003885420956 17.3515
40.503769138055105 17.3481
40.52768664931955 17.3506
40.55142057531802 17.3404
40.57515631746428 17.2105
40.599079334038514 17.2345
40.62281872700477 17.2185
40.64655994043941 17.2271
40.67030297578061 17.1843
40.69423334835778 17.1704
40.71798004609188 17.1608
40.74172857006355 17.053
40.76547892171441 17.1413
40.7894166736039 17.0779
40.813170699248566 17.0227
40.83692655691388 16.979
40.86068424804498 16.9894
40.884629402612525 16.9631
40.908390779366385 16.9082
40.932153993938 16.8426
40.95591904777605 16.9227
40.979871628443995 16.9087
41.003640379561936 16.8247
41.02741097430883 16.829
41.05118341413683 16.7358
41.075143444384416 16.7199
41.098919593177826 16.7172
41.1226975914255 16.6526
41.14647744058318 16.6702
41.170444943946755 16.6236
41.19422851378379 16.6347
41.218013938914645 16.5064
41.24198706625173 16.5065
41.26577622087193 16.4924
41.289567235177785 16.4793
41.31336011063129 16.4829
41.337340752422875 16.4133
41.361137369129835 16.4276
41.38493585138705 16.3877
41.40873620066004 16.3566
41.43272438060107 16.3393
41.45652848292052 16.2277
41.48033445666918 16.2031
41.50414230331616 16.1981
41.528138045159764 16.2084
41.551949656675205 16.1582
41.575763145513235 16.1529
41.59957851314666 16.1721
41.62358184070442 16.0754
41.64740098505737 16.0479
41.6712220126409 15.9975
41.69504492493139 15.9603
41.71905586207357 15.9348
41.74288256296395 15.9682
41.766711153007456 15.9338
41.79054163368412 15.8441
41.814560204340054 15.8925
41.838394485526365 15.9191
41.86223066180303 15.8788
41.88625497706819 15.8312
41.910094962812 15.757
41.93393684811168 15.7218
41.95778063445365 15.6371
41.981812625263366 15.7109
42.00566023303407 15.6692
42.029509746323676 15.6406
42.05336116662236 15.5374
42.077400857069705 15.5548
42.10125611078846 15.5571
42.12511327600405 15.5854
42.14897235421036 15.5184
42.173019768448455 15.4598
42.19688269209613 15.4214
42.22074753323349 15.4318
42.24461429335818 15.4058
42.268669455600495 15.3513
42.292540073217886 15.3585
42.31641261433284 15.3228
42.34028708044675 15.2995
42.36435001496739 15.275
42.38822835065557 15.2429
42.41210861586426 15.2497
42.4359908120986 15.2768
42.46006154323262 15.2157
42.48394762115317 15.1192
42.507835634632315 15.0998
42.531912233047436 15.100999999999999
42.55580413732265 15.0536
42.579697981698 15.0767
42.60359376768525 15.0273
42.62767820545945 14.9889
42.65157789440821 14.9636
42.67547952952185 14.9655
42.699383112316 14.9441
42.72347541395347 14.8641
42.74738291190531 14.8847
42.771292362102166 14.8414
42.795203766063516 14.8643
42.819303956130405 14.8354
42.843219287476536 14.7529
42.86713657716324 14.7496
42.89105582671383 14.7014
42.91516392983864 14.7076
42.939087119032166 14.6692
42.963012272677304 14.6729
42.98693939230129 14.6166
43.01105543317513 14.5851
43.034986504731386 14.5975
43.05891954686589 14.4993
43.08285456110972 14.4629
43.10697856448665 14.458
43.130917542983475 14.3933
43.15485849820081 14.4095
43.17880143167367 14.3881
43.20293342237094 14.4047
43.226880332449 14.4033
43.25082922540554 14.3423
43.27496722682525 14.2955
43.29892010567796 14.2846
43.32287497204102 14.2831
43.34683182745632 14.263
43.370977859791836 14.2234
43.39493871351105 14.1992
43.41890156092628 14.2043
43.44286640358341 14.1452
43.46702049182749 14.1167
43.49098934522816 14.0874
43.51496019852649 14.0627
43.5389330532723 14.0858
43.56309522248204 13.9912
43.58707210044314 14.0082
43.61105098451946 13.9256
43.63503187626491 13.9351
43.659202151562134 13.9202
43.68318707902681 13.8898
43.70717401884041 13.8721
43.731162972560874 13.8624
43.75534137913236 13.8487
43.779334381108384 13.797
43.803329401683186 13.7915
43.82732644241872 13.7697
43.8515130055166 13.7564
43.87551410707659 13.673
43.89951723350145 13.6907
43.923709934595614 13.6679
43.94771713129917 13.697000000000001
43.97172635758096 13.6356
43.99573761501002 13.6337
44.0199385169922 13.5622
44.04395385732619 13.5271
44.067971233533086 13.5569
44.09199064718605 13.5099
44.11619977548961 13.489
44.14022328470671 13.4335
44.16424883610785 13.4548
44.18827643127035 13.4252
44.21249381139513 13.3693
44.236525514814076 13.315999999999999
44.26055926674478 13.3223
44.28459506876863 13.3825
44.3088207262813 13.2743
44.33286064928722 13.2743
44.35690262714919 13.2041
44.38094666145278 13.209000000000001
44.4051806219871 13.2566
44.42922879003185 13.1603
44.45327901929361 13.115
44.477331311362136 13.1099
44.501573600619416 13.0691
44.525630039221795 13.0604
44.54968854541895 13.0547
44.573937102200176 13.0645
44.5979997645541 13.0388
44.622064499300315 12.9825
44.64613130803592 12.9479
44.67038823869318 12.9531
44.69445921643748 12.9165
44.718532272981385 12.8973
44.742607409926194 12.8273
44.76687274034801 12.8471
44.79095205918753 12.814
44.81503346325094 12.8392
44.839116954143876 12.8021
44.86339071028742 12.7444
44.88747839599524 12.718
44.91156817336837 12.7156
44.93566004401666 12.702
44.959942251908146 12.6756
44.984038330325966 12.6315
45.00813650686762 12.6028
45.03223678314731 12.615
45.05652746888232 12.5811
45.08063196592069 12.5402
45.104738567558705 12.5059
45.128847275414856 12.5201
45.15314646515866 12.4591
45.17725940679741 12.4563
45.20137445952892 12.3945
45.22568004865265 12.4296
45.24979934496396 12.4189
45.27392075725247 12.3955
45.29804428714431 12.377
45.322358426247604 12.3264
45.346486212804315 12.269
45.370616121861914 12.2981
45.39474815505086 12.2348
45.41907087049246 12.2305
45.4432071734666 12.1885
45.46734560548283 12.2242
45.49148616817604 12.1802
45.51581748638564 12.1124
45.5399623320197 12.1156
45.56410931325473 12.1482
45.58825843173002 12.1473
45.61259837920865 12.0885
45.636751793816 12.0872
45.66090735060093 12.0396
45.68506505120716 11.9781
45.7094136545275 11.9811
45.73357566449271 11.9426
45.75773982322992 11.902000000000001
45.78190613238733 11.9496
45.806263418194064 11.8748
45.83043404997326 11.8641
45.85460683713677 11.8857
45.87897065658495 11.866
45.90314777634752 11.7904
45.92732705646868 11.8296
45.9515084986045 11.7477
45.97588104735473 11.7284
46.00006683541565 11.7227
46.02425479047904 11.7054
46.04844491420549 11.7155
46.0728262191024 11.7173
46.09702070211635 11.6688
46.12121735879483 11.6573
46.14541619080294 11.6279
46.169806278764455 11.6007
46.194009483459034 11.6188
46.21821486849841 11.5592
46.24242243555223 11.5434
46.266821333570014 11.5509
46.29103328674601 11.4983
46.31524742696538 11.4823
46.33946375590237 11.4331
46.36387149104216 11.4201
46.38809221957392 11.357999999999999
46.41231514186606 11.3298
46.436540259597464 11.3631
46.460956858999374 11.328
46.48518638983522 11.2713
46.509418121166966 11.3275
46.533652054678114 11.2652
46.55807754555709 11.2775
46.58231590571962 11.2863
46.60655647313217 11.245
46.630988654873654 11.1494
46.655233659129024 11.1416
46.67948087571551 11.1331
46.70373030632484 11.1669
46.72817142736393 11.1558
46.752425308428684 11.11
46.77668140861147 11.0551
46.80093972960865 11.0242
46.82538981736788 11.0012
46.849652602470904 11.0318
46.87391761349769 10.9705
46.8981848521493 10.9404
46.9226439341274 10.9144
46.946915650573224 10.8867
46.97118959976749 10.9148
46.99546578341598 10.9149
47.019933887188216 10.8829
47.04421456235744 10.8784
47.06849747711879 10.8419
47.09278263318286 10.786
47.11725978640143 10.7786
47.14154944775105 10.7675
47.165841355555656 10.7431
47.1901355115306 10.7103
47.214621741924994 10.6915
47.23892041698887 10.7023
47.26322134538975 10.6221
47.28771440635075 10.6207
47.31201986422527 10.6667
47.33632758061436 10.5877
47.360637557241866 10.5853
47.38513974410611 10.5638
47.40945426407847 10.5077
47.43377104948137 10.4968
47.45809010204344 10.4905
47.48260144275502 10.4621
47.506925052572285 10.4694
47.53125093475548 10.4387
47.55557909103813 10.4119
47.58009961361992 10.4218
47.60443234110732 10.3806
47.62876734791564 10.3618
47.65310463578333 10.3472
47.6776343683373 10.366
47.7019762413987 10.3032
47.72632040075572 10.2855
47.75066684815169 10.2804
47.77520581885936 10.234
47.799556865477655 10.2527
47.823910205386 10.265
47.84826584033272 10.2112
47.87281407745551 10.1565
47.89717432569297 10.1935
47.92153687423484 10.1572
47.94609208429692 10.1088
47.97045925671401 10.1018
47.99482873471275 10.0759
48.01920052005013 10.0503
48.04376504619224 10.0344
48.068141469543484 10.0609
48.09252020552573 10.0335
48.11690125590099 10.0339
48.1414751266064 10.0014
48.16586082917454 9.94162
48.19024885144316 9.939
48.2146391951793 9.9638
48.239222439012764 9.92532
48.26361744916137 9.85133
48.28801478610016 9.9147
48.31241445160131 9.89663
48.337007097209366 9.86776
48.36141144338331 9.82395
48.38581812345755 9.80823
48.41022713920929 9.80199
48.434829215320704 9.78539
48.45924292604658 9.78765
48.48365897780325 9.761330000000001
48.50807737237308 9.72076
48.532688907799276 9.720880000000001
48.55711201168574 9.64688
48.581537463754074 9.668389999999999
48.60615611725119 9.669789999999999
48.63058628942721 9.64375
48.65501881516546 9.60677
48.6794536962573 9.57051
48.70408185970339 9.573960000000001
48.72852147531801 9.55851
48.75296345168211 9.54429
48.77740779059232 9.55527
48.80204549302823 9.53507
48.82649458091802 9.486310000000001
48.85094603676547 9.46016
48.87539986237231 9.45307
48.90004713292306 9.42537
48.92450572200832 9.41812
48.94896668628025 9.38627
48.97343002754588 9.37572
48.99808689542115 9.39602
49.02255501470614 9.35075
49.04702551642794 9.33812
49.0714984023988 9.2916
49.096164896893235 9.31151
49.120642575466796 9.30782
49.145122643748394 9.29533
49.16960510355558 9.263069999999999
49.19428125404938 9.231530000000001
49.2187685210852 9.21475
49.243258185121555 9.214030000000001
49.26794160167084 9.176
49.2924360839405 9.190669999999999
49.31693296869764 9.14739
49.34143225776915 9.1421
49.36612538195438 9.0823
49.39062950396021 9.09448
49.41513603578346 9.039060000000001
49.4396449792564 9.050180000000001
49.46434784069503 9.02082
49.488861631846454 8.97363
49.513377840166804 8.98316
49.537896467493745 8.96322
49.56260909589029 8.95765
49.587132585683285 8.94036
49.611658500018365 8.9686
49.636186840738596 8.89609
49.66090926588511 8.927760000000001
49.685442483902584 8.89043
49.70997813385706 8.81206
49.734516217597076 8.81042
49.75924846937352 8.83332
49.7837914452858 8.82819
49.80833686055187 8.81177
49.83288471702571 8.79095
49.85762682540054 8.78101
49.882179588965734 8.73348
49.9067347993235 8.720469999999999
49.93129245833333 8.75742
49.95604445336378 8.73663
49.98060703442832 8.67811
50.005172069746266 8.64082
50.02993150438364 8.6371
50.05450147301533 8.62466
50.07907390151433 8.613539999999999
50.10364879174981 8.606589999999999
50.12841816587289 8.56317
50.1529980044635 8.55954
50.17758031042124 8.5448
50.20216508562089 8.49697
50.22694442953363 8.5334
50.25153416817468 8.511569999999999
50.27612638170508 8.5148
50.300721072005196 8.46285
50.325510416102105 8.41404
50.350110084975064 8.38132
50.37471223628208 8.42245
50.39931687190919 8.42848
50.424116246675766 8.37606
50.44872587605249 8.33542
50.47333799543065 8.353769999999999
50.49795260670191 8.346210000000001
50.52276204271512 8.2989
50.54738166295838 8.29062
50.57200378079314 8.27595
50.596628398116835 8.264560000000001
50.62144792604559 8.28037
50.646077567609396 8.26937
50.670709714377715 8.2507
50.69553683636198 8.22874
50.72017401885922 8.172889999999999
50.7448137122895 8.16945
50.76945591856022 8.18727
50.79429318636823 8.17184
50.818940443716784 8.153210000000001
50.84359021965163 8.11087
50.868242516085964 8.105889999999999
50.893089960641895 8.08482
50.917747323549435 8.046339999999999
50.94240721271973 8.04074
50.96706963007175 8.01538
50.99192728239342 8.012030000000001
51.01659478166073 8.0457
51.04126481489051 7.99269
51.06593738400761 7.974819999999999
51.090805275207074 7.972689999999999
51.11548294172845 7.95136
51.14016314993547 7.908989999999999
51.164845901758845 7.910660000000001
51.18972406304274 7.86148
51.21441192780656 7.88258
51.23910234200271 7.87707
51.2637953075678 7.82327
51.288683770237945 7.79672
51.31338186432707 7.79477
51.33808251561888 7.77048
51.362978729967345 7.7633600000000005
51.387684521509755 7.799239999999999
51.41239287610203 7.7364
51.437103795691165 7.73908
51.46201036644977 7.7287
51.486726441956634 7.69285
51.51144508832545 7.6841
51.536166307509156 7.6668
51.56108326624387 7.63744
51.58580965706056 7.6611899999999995
51.61053862657523 7.61145
51.635270176746864 7.5834600000000005
51.66019755512065 7.5519
51.68493429268881 7.57305
51.70967361681515 7.55341
51.73441552946465 7.54325
51.759353359237934 7.53959
51.7841004750961 7.49679
51.80885018539685 7.504110000000001
51.833602492111254 7.467110000000001
51.8585508051424 7.50628
51.883308330926425 7.43785
51.90806845906181 7.3933100000000005
51.932831191525715 7.4073199999999995
51.95779001977161 7.38686
51.98255798721516 7.39019
52.00732856494335 7.340310000000001
52.03229530577543 7.33787
52.057071130455945 7.3425899999999995
52.081849571391054 7.32026
52.106630630568695 7.27717
52.13160794279417 7.253439999999999
52.15639426492067 7.272130000000001
52.18118321127822 7.237189999999999
52.205974783860896 7.20903
52.23096269971011 7.221210000000001
52.255759551287994 7.204110000000001
52.280559035098186 7.193910000000001
52.30536115314103 7.149
52.33035970494467 7.19775
52.35516711807904 7.18233
52.37997717147198 7.1653199999999995
52.40478986713005 7.12772
52.42979908731974 7.094130000000001
52.454617094216 7.09158
52.47943774942214 7.08638
52.50426105495102 7.10647
52.529280976059844 7.06067
52.554109609024096 7.033519999999999
52.57894089837482 7.04782
52.60377484613117 7.01112
52.62880550079408 6.96563
52.65364479223379 6.962969999999999
52.67848674816189 6.94198
52.70352547971946 6.9544
52.72837279155837 6.94717
52.753222773982785 6.917680000000001
52.778075429022984 6.90827
52.80312495150885 6.90683
52.827982978797436 6.918880000000001
52.85284368481815 6.883489999999999
52.87770707160767 6.863339999999999
52.90276741793998 6.82183
52.92763619336701 6.807360000000001
52.952507655698504 6.82265
52.977381806977576 6.799980000000001
53.00245301017842 6.80077
53.02733256653592 6.725560000000001
53.052214817996074 6.74022
53.077099766608484 6.72353
53.102181859804446 6.71255
53.127072229988265 6.74176
53.15196530349892 6.695310000000001
53.17686108239249 6.6649199999999995
53.20195409881522 6.667389999999999
53.22685531582556 6.69085
53.25175924441303 6.632689999999999
53.27666588664027 6.6548
53.30176985962693 6.6151800000000005
53.3266819565689 6.60725
53.35159677336455 6.572189999999999
53.376514312083096 6.6264899999999995
53.40162927507703 6.607069999999999
53.42655228516116 6.55333
53.45147802340193 6.53145
53.47660125628886 6.54894
53.50153247842639 6.5319400000000005
53.52646643496923 6.46734
53.55140312799818 6.4974099999999995
53.576537409691696 6.47307
53.60147960336152 6.43426
53.626424539786164 6.41421
53.65137222105307 6.40869
53.67651758529126 6.41144
53.70147078399681 6.38
53.72642673383343 6.42141
53.75138543689533 6.38605
53.776541917524526 6.33994
53.801506154876755 6.3293099999999995
53.826473151763246 6.32011
53.851442910284916 6.27022
53.87661054126026 6.22314
53.9015858509782 6.25035
53.92656392866066 6.26011
53.95154477641532 6.2791
53.976723591801296 6.22461
54.00171000771266 6.24546
54.02669920004598 6.19939
54.051691170915745 6.15185
54.076881204886796 6.173430000000001
54.101878760928514 6.10101
54.12687910187696 6.09149
54.152077577768296 6.109319999999999
54.1770835166946 6.06456
54.20209224691339 6.0774
54.22710377055121 6.0807400000000005
54.25231352511594 6.05832
54.27733066384342 6.01399
54.30235060239643 6.03831
54.32737334290836 6.036490000000001
54.35259441062629 5.895569999999999
54.377622783395324 5.91787
54.40265396455061 5.951919999999999
54.42768795623251 5.93739
54.45292037169559 5.90569
54.477960012857906 5.87942
54.50300247099511 5.82371
54.52804774825457 5.84295
54.55329154616743 5.82522
54.57834249018678 5.78555
54.6033962597977 5.74852
54.6284528571545 5.68829
54.653708072335164 5.6771
54.67877035378786 5.69562
54.70383546947698 5.69602
54.72890342156389 5.70555
54.7541700889442 5.6412
54.77924374251975 5.60671
54.8043202390049 5.62665
54.82959552413022 5.58978
54.8546777351945 5.52251
54.87976279569621 5.48302
54.90485070780914 5.545780000000001
54.930137506558005 5.52619
54.95523115074295 5.5616
54.98032765308844 5.5546
55.005427015775496 5.4749
55.03072536339621 5.50469
55.05583047570572 5.39689
55.080938454927676 5.396319999999999
55.10604930325027 5.36026
55.131359235107396 5.37435
55.15647585066083 5.26495
55.181595341907496 5.27236
55.20671771104285 5.219519999999999
55.232039262617704 5.21314
55.25716741665048 5.21369
55.28229845518636 5.2149
55.30743238042802 5.09334
55.33276558731939 5.13654
55.357905315183636 5.1125
55.383047936390035 5.09737
55.40819345314859 5.01789
55.433538351073295 5.042730000000001
55.458689688238415 5.03377
55.483843927614096 4.99326
55.509197623043605 4.9890300000000005
55.53435769621134 4.95185
55.55952067826466 4.87571
55.5846865714265 4.88249
55.61005202069737 4.87708
55.63522376553902 4.80777
55.66039842818645 4.85896
55.68557601087004 4.88718
55.7109532500271 4.75822
55.73613670233794 4.74713
