TT I
1.2716486653135266 6.878769999999999
1.2939594142134223 6.897480000000001
1.3162702121660406 6.57367
1.3385810600174564 6.31684
1.3608919586137629 6.881460000000001
1.383202908801069 6.196680000000001
1.405513911425503 5.65829
1.4278249673332093 5.546209999999999
1.4501343378461518 5.96017
1.4724455028545926 5.62081
1.4947567236847858 5.6114
1.517068001182951 5.80463
1.5393793361953272 5.96774
1.5616907295681737 5.71031
1.5840021821477681 5.01032
1.60631369478041 5.098
1.6286252683124185 5.15679
1.6509369035901333 4.72835
1.6732468618895553 5.1441300000000005
1.695558623192809 4.839930000000001
1.7178704487808514 5.13879
1.7401823395001077 4.74285
1.7625012545597203 4.3332
1.7848028405262486 4.66916
1.8071218901122095 4.92594
1.8294236121921872 4.23407
1.8517427996910911 3.98659
1.8740620574440425 3.9899
1.8963639900671978 4.31631
1.9186833908139995 3.9560699999999995
1.9409854680117449 4.44377
1.9633050151394713 4.45444
1.9856246367570705 4.45561
2.0079269371922672 4.38795
2.03024671027244 4.16844
2.0525491637446027 4.20996
2.074869091674931 3.9396
2.097171701569106 4.7268099999999995
2.1194917877373847 4.96143
2.141811954326636 4.75091
2.164114805233074 4.24027
2.186435135143035 4.6531199999999995
2.208738150935709 5.51887
2.231058647554722 7.2405
2.2533792288321184 6.54439
2.275682498336085 5.2576
2.298003251406138 4.695880000000001
2.3203066942619714 5.28659
2.3426276225136022 5.6011
2.3649486396617507 5.76048
2.387252348930071 6.05362
2.4095735463442893 6.031619999999999
2.4318774374315884 6.14461
2.4541988185014043 6.435230000000001
2.476502894794693 6.9939
2.498824462909887 6.69698
2.521146125856138 7.08882
2.5434504863470337 7.59059
2.5657723414244717 7.93635
2.588076895590662 8.75897
2.610398946189713 8.8954
2.6327210958598384 8.24938
2.6550259469304716 8.15606
2.6773482972090137 8.27405
2.6996533504259 8.60546
2.7219759047039602 8.47073
2.744298562293959 8.53999
2.7666039251246595 8.48879
2.7889267918020164 8.300089999999999
2.8112323652516555 8.77764
2.833555444408179 8.56447
2.8558786311183852 8.46808
2.8781845268938557 8.32194
2.9005079311721484 9.39527
2.9228140460410397 9.034880000000001
2.9451376712799635 8.80984
2.967444008632326 9.5469
2.9897678582247247 10.0642
3.0120918213106695 10.1004
3.0343984987899373 10.6266
3.0567226913198637 11.2182
3.079029599759726 11.8065
3.101354025127254 12.3314
3.123678568232338 12.9976
3.145985829517914 13.1102
3.16831061055229 13.2722
3.1906181112775593 13.9967
3.212943133635653 14.5317
3.2352682779763207 14.9791
3.2575761442691227 15.1151
3.2799015350264273 15.1456
3.302209649240067 15.7884
3.3245352898092655 16.3652
3.3468436553365257 16.7634
3.369169549113219 17.3084
3.3914955708171384 18.0492
3.413804319727358 18.2072
3.4361305997334863 18.1781
3.4584396084414553 18.8123
3.4807661501462652 19.5379
3.503092824025881 19.7988
3.5254022288463154 20.0273
3.5477291695206588 20.143
3.5700388426251948 20.7104
3.5923660534916446 21.316
3.6146934007816114 22.9604
3.637003482731501 28.0123
3.6593311053109985 30.5017
3.681641464033634 27.0756
3.7039693653009733 24.0957
3.726297407241705 24.2557
3.7486081875460804 24.2594
3.7709365132734978 24.7776
3.793247578841633 25.2136
3.8155761917550093 25.0584
3.8378875459837216 25.5764
3.8602164494827234 25.7492
3.882545499606844 27.1439
3.9048572932539183 27.6208
3.9271866390645718 27.7532
3.9494987298666713 27.7746
3.971828374764527 28.7575
3.9941581705403255 29.2553
4.016470713506008 29.3783
4.038800813471445 30.5128
4.061113662089144 30.6048
4.0834440696459176 31.3915
4.105774632334751 31.6817
4.128087945865126 32.586999999999996
4.150418821249301 33.1709
4.172732448931298 33.7876
4.195063640413578 34.3463
4.2173775856475215 35.1515
4.239709096631102 37.3178
4.262040768704612 52.727
4.284355196706267 65.0749
4.306687193387355 57.4261
4.329001947444346 44.3346
4.35133427213731 40.845
4.373666762177566 40.4415
4.395982011761091 40.8056
4.418314834921175 41.5702
4.44063041906622 42.8678
4.4629635787515625 44.5355
4.4852969080429785 46.2014
4.5076130004776225 46.1693
4.529946671403969 46.4922
4.552263106909177 46.9972
4.574597122877047 48.0084
4.596931312711224 49.5362
4.619248269273446 50.5178
4.6415828092605835 51.553000000000004
4.663900117405352 52.5906
4.686235010953232 53.7237
4.708552674085913 55.1493
4.730887924602802 56.9615
4.753223354952695 58.19
4.775541557023902 59.3631
4.797877349456786 60.8735
4.820195915032126 62.4929
4.842532072957498 63.9351
4.864868414979744 65.7731
4.88718753227192 67.4796
4.909524244902505 69.4935
4.931843734218147 70.9899
4.954180820867835 73.499
4.976518095879839 76.7691
4.998838149695359 79.2718
5.021175803844231 82.4833
5.043496238205739 85.4446
5.065834274903528 88.8429
5.088172504230693 92.7887
5.1104935158799565 97.4071
5.132832132875765 105.141
5.155153533596801 117.54299999999999
5.1774925416746225 136.643
5.199814334878411 228.78599999999997
5.2221537374521505 773.842
5.244493338631803 2411.59
5.266815727034316 7086.55
5.289155727832427 13349.1
5.311478517248165 9575.15
5.333818921080011 3355.19
5.356159527788849 720.0360000000001
5.3784829252032536 223.60299999999998
5.400823940070432 148.231
5.423147747031976 124.764
5.445489173474152 114.243
5.467830807066149 108.36
5.490155234831516 104.5
5.512497285125229 100.912
5.534822130975162 98.9026
5.557164601388673 96.8208
5.579489868738879 94.3938
5.601832762690846 92.7159
5.6241758697774475 91.6572
5.646501775867269 90.7564
5.668845311622074 89.6691
5.691171647754637 89.4201
5.713515615597765 88.3168
5.735859800852677 87.387
5.758186788542988 86.9972
5.780531411018185 86.7272
5.802858837297399 85.7933
5.825203900414495 86.0885
5.8475491852224 86.2741
5.869877275883075 86.6873
5.892223006467101 87.4473
5.914551544266608 88.3868
5.936897724049891 90.3134
5.959244129804903 94.3565
5.981573344815301 106.12700000000001
6.0039202049061 160.34799999999998
6.026249875609095 380.093
6.04859719346037 861.2739999999999
6.070927323278297 2019.23
6.093275102315365 4481.14
6.115623113320588 5730.63
6.137953938319995 3526.6
6.160302415650845 1063.62
6.182633708324452 247.29
6.2049826554078376 110.919
6.227331838745022 87.3983
6.249663839443684 80.1029
6.27201349767565 75.5036
6.294345974611799 73.6722
6.316696111167083 72.7715
6.339046488263839 71.3769
6.361379686074702 68.5802
6.383730546639482 66.0874
6.406064229255215 64.5298
6.428415576718203 64.4108
6.450749747566656 63.3716
6.47310158535871 62.251000000000005
6.495453669698332 61.6568
6.517788579421056 60.707
6.540141159237969 59.648
6.562476565766648 59.4089
6.5848296444934045 58.8621
6.607182974060425 58.1294
6.6295191323281015 57.8345
6.651872965955752 57.1903
6.6742096296068985 58.1611
6.6965639707294615 63.218999999999994
6.71891856698715 63.8356
6.741255995248479 60.1496
6.763611104154477 56.4956
6.785949046381137 55.0934
6.808304671371482 54.2985
6.8306605557940046 54.1288
6.852999275508618 53.7437
6.875355681171544 53.4881
6.897694923437771 53.4803
6.92005185377892 52.7052
6.9423916220322655 52.858000000000004
6.964749080490181 52.3811
6.987106804399774 52.2407
7.009447368180821 51.9295
7.031805625367033 51.9813
7.054146723727803 52.1004
7.076505517631004 52.0293
7.098864581288365 51.9174
7.121206488070854 51.7155
7.143566093607822 51.2951
7.165908543567245 51.3791
7.188268694426048 51.1593
7.2106291193438095 51.0612
7.232972390625943 51.1155
7.255333366030969 51.5563
7.277677189091925 55.7051
7.300038718428332 62.4834
7.322400526130865 61.8343
7.344745183422596 55.9466
7.367107550224791 52.0218
7.389452767901992 51.4484
7.411815697249891 51.5159
7.434161478756298 50.9459
7.456524974096713 51.0298
7.478888753837185 51.6799
7.501235387657368 53.2225
7.523599738562711 60.8044
7.545946944825532 73.266
7.568311870344528 78.7531
7.5906770845765665 68.5679
7.613025156078678 57.6727
7.635390950099687 53.7618
7.657739602662809 52.4266
7.680105979923558 52.3629
7.702472650212829 52.9125
7.724822180948224 52.6537
7.747189439655568 53.3491
7.769539560075357 53.0479
7.791907410653562 53.5803
7.81425812420825 53.9037
7.836626570110925 53.5413
7.858995315087906 54.5446
7.881346924933401 54.5395
7.903716270417482 55.1594
7.926068482028405 55.4777
7.948438431475253 55.9228
7.9708086843180235 56.3905
7.993161805171116 57.17100000000001
8.015532667162402 57.37
8.037886398416653 58.2399
8.060257873014221 58.5505
8.082629655331942 59.148999999999994
8.104984308787587 59.8747
8.127356708900503 60.6443
8.149711981398308 61.8566
8.172085002766314 63.2021
8.194458336181368 63.6648
8.216814543847752 64.1837
8.23918850371002 65.2907
8.26154533906492 66.0417
8.283919928836452 67.8146
8.306277395339652 68.7351
8.328652618483376 69.9299
8.351028159736202 71.4873
8.373386579575245 73.514
8.395762759396959 74.587
8.418121819038275 76.8161
8.440498640894003 80.5955
8.462875785192262 85.682
8.485235811156207 93.3199
8.507613602688501 125.96700000000001
8.529974277114228 222.905
8.552352719347912 356.885
8.574731488360351 594.868
8.59709314210385 1063.79
8.619472567021075 1821.68
8.64183487789147 2253.54
8.664214962183097 1969.51
8.686577933647762 1084.12
8.708958680784317 420.915
8.731339760774953 177.697
8.753703729764451 109.90299999999999
8.77608547780821 94.7696
8.798450116065078 90.8928
8.820832535634787 87.9088
8.843215292401656 86.6289
8.865580941199045 85.2707
8.887964374703538 83.6862
8.910330701447199 82.8977
8.932714815164482 82.6819
8.955099270424924 81.9464
8.977466620733543 81.247
8.999851761421976 80.7544
9.022219798361645 80.0341
9.04460562795561 79.8151
9.066991803441677 79.4399
9.089360876979615 79.48
9.111747746589993 79.5434
9.13411751544971 78.8813
9.156505082664324 79.0138
9.178875550323522 79.6445
9.20126381862328 82.4874
9.223652438908596 94.3473
9.246023961427412 114.177
9.26841328802173 121.962
9.290785518039224 109.072
9.313175554425882 91.7633
9.335565947154315 82.2773
9.357939245086508 80.0659
9.380330352834827 79.5197
9.40270436697103 79.5391
9.425096193225055 79.2499
9.447488380180165 80.2577
9.469863475295412 80.2893
9.492256385987508 80.6388
9.514632206018318 81.0638
9.537025843935714 81.3589
9.559402392368193 82.10600000000001
9.581796761000229 82.8736
9.604191496441521 83.3398
9.626569144158516 83.9228
9.648964615551032 85.4604
9.671343000390081 86.1403
9.693739211225699 86.4322
9.716135793237463 86.8837
9.738515290448102 87.4159
9.760912617143402 88.9078
9.783292860202891 89.7272
9.805690935076182 91.2682
9.828089385495742 91.9041
9.850470754023561 93.5122
9.872869957865444 95.3376
9.89525208097539 98.2175
9.917652041736662 102.414
9.940052382417589 105.564
9.962435644102392 114.137
9.984836746950979 144.71
10.007220771957746 220.799
10.029622640473708 335.56800000000004
10.052007432299963 497.32300000000004
10.074410069984072 748.9060000000001
10.096813093716005 1179.08
10.119199042482517 1739.27
10.141602840636468 2092.73
10.163989564971628 1672.96
10.186394141051062 1011.29
10.208799107559706 449.60400000000004
10.231187001965623 204.202
10.253592751657669 125.647
10.275981430388155 107.258
10.298387966769793 102.87100000000001
10.320794897965431 101.545
10.343184759907361 100.17
10.36559248305461 98.1317
10.387983138083852 97.1972
10.410391656691655 98.2594
10.432800574501677 106.72200000000001
10.455192425893369 127.272
10.47760214443012 156.287
10.499994797678786 196.81400000000002
10.522405320453982 262.08
10.54479877906917 372.99
10.567210109595656 502.029
10.5896218454736 587.602
10.612016518879773 536.497
10.634429067781074 377.25300000000004
10.656824555333241 224.157
10.679237920773568 142.047
10.701651695961992 106.43799999999999
10.724048411481384 93.9624
10.746463008485165 87.0163
10.768860546937125 82.3461
10.791275969274796 79.5075
10.81369180576079 78.3691
10.836090585366925 77.5898
10.858507252467449 76.0421
10.88090686379991 74.8832
10.903324365036394 74.1427
10.925724811614439 73.1175
10.948143150509463 73.1403
10.970561909719066 72.0011
10.992963615930844 71.2089
11.015383218085756 70.1008
11.037785768347074 69.4108
11.06020621697282 68.8213
11.082627090322113 68.5132
11.105030913430326 67.7925
11.12745263854165 67.1805
11.149857314510728 66.5647
11.172279894912576 67.3592
11.194702904450653 67.056
11.217108866490921 65.9151
11.239532736615194 65.2436
11.26193956033512 64.8421
11.284364294577085 64.3283
11.306789462371718 63.8321
11.329197585398376 63.3196
11.351623622610898 63.4385
11.37403261614354 62.6387
11.396459526308487 62.5558
11.418869393879497 62.17
11.441297180532617 61.8919
11.463725406927658 61.5591
11.486136592353875 61.3317
11.508565700543707 60.8566
11.530977768845315 60.9586
11.553407762368774 60.6544
11.575838200059769 60.9329
11.598251599479612 60.6579
11.620682927815501 60.3649
11.64309721895548 60.3671
11.665529441478206 60.0363
11.687962112597958 59.6689
11.710377748130886 59.7182
11.732811318753434 59.733000000000004
11.755227854859067 59.5818
11.777662328529495 59.2076
11.800079768750786 59.1929
11.822515149015453 59.1099
11.844950984084935 59.6089
11.867369787303163 59.7496
11.889806534289491 60.2284
11.912226250487029 62.0796
11.934663912939751 66.1281
11.9571020346363 69.8531
11.979523127133968 70.2389
12.001962169624331 67.8136
12.024384183972964 64.2782
12.046824150809913 64.0608
12.069264581333726 68.9097
12.091687985297767 75.9306
12.11412934550045 84.4685
12.136553680195208 97.0147
12.158995973632788 117.074
12.181438735204349 145.627
12.20386447284199 177.21099999999998
12.226308172985636 204.862
12.24873485024193 208.69799999999998
12.271179492516982 174.12599999999998
12.293607112949127 133.053
12.316052700916226 95.0137
12.338498763250042 72.8401
12.360927805303868 64.0886
12.383374818673879 61.6539
12.405804812803074 60.7704
12.428252780773262 60.8237
12.45070122756722 60.836000000000006
12.473132656675375 60.7217
12.49558206341869 60.8538
12.518014453510101 60.6872
12.540464823770117 61.0896
12.562915677315177 61.2157
12.58534951575545 61.4694
12.607801338171472 61.4325
12.630236146511358 62.3068
12.652688941369085 63.3766
12.675124723177234 64.0075
12.697578494048786 64.0491
12.720032754458185 63.6853
12.742470003354093 63.7978
12.764925245138771 64.2917
12.787363476431278 64.4426
12.809819703166806 64.7714
12.83227642391173 65.6619
12.854716135692716 65.9279
12.877173846755147 67.0459
12.899614549869717 67.3448
12.9220732548287 68.1344
12.94453245827299 68.7106
12.966974655289818 69.6703
12.989434858002571 70.396
13.011878055298721 71.009
13.034339260862497 72.2832
13.056800969391883 73.8757
13.079245674017244 76.6261
13.101708390774869 78.1585
13.12415410463411 82.0447
13.146617833206086 91.9907
13.169064559883248 105.81700000000001
13.191529303857127 122.734
13.213994557076367 143.791
13.236442809902437 175.22099999999998
13.258909083908291 223.24200000000002
13.28135835851934 287.66
13.30382565690295 361.444
13.326293469022952 425.404
13.348744283242008 440.95099999999996
13.371213125129904 375.755
13.39366497011003 280.814
13.416134845360597 185.63400000000001
13.438605238843131 126.964
13.46105863690397 102.00200000000001
13.483530069144786 98.1725
13.505984506951902 105.66799999999999
13.528456981549432 117.95299999999999
13.550929978879088 132.311
13.573385983253365 152.778
13.595860028340867 184.68099999999998
13.618317081455832 233.326
13.64079217790333 290.816
13.663250283359057 351.57199999999995
13.685726434770173 389.336
13.708203115221277 363.04699999999997
13.730662806148091 290.403
13.75314054697177 206.468
13.775601299246777 138.764
13.798080104050406 100.27
13.820559442405358 84.259
13.843021793671388 79.2791
13.865502201420897 77.2347
13.887965623051947 76.4636
13.910447103807167 75.4927
13.932929122629764 74.3395
13.955394156785959 73.7488
13.977877254034569 73.028
14.000343367582113 72.1517
14.022827546871707 71.7686
14.045294743423524 70.9643
14.06778000837062 70.6161
14.090265817715476 70.9237
14.112734645763819 72.0212
14.13522154619454 74.3075
14.157691466286913 76.4658
14.180179461423874 77.1043
14.202668005486178 74.6713
14.22513957064374 71.2772
14.247629214846473 69.1305
14.270101881097517 67.5929
14.29259262906496 67.0225
14.315083930490205 67.2484
14.337558255389705 67.1742
14.360050666019726 66.7586
14.382526101071944 66.2728
14.405019624534942 66.3315
14.427513705993134 65.9469
14.449990813291825 66.0632
14.47248601302899 66.0805
14.49496423954951 65.8963
14.517460561197822 65.9791
14.539939910570322 65.9025
14.562437357763558 65.8732
14.58493536931253 66.3621
14.607416409993311 66.2572
14.62991555254159 66.4935
14.652397725157423 66.6876
14.674898002342799 67.0978
14.697398848433282 67.2803
14.719882725991326 67.7495
14.74238471217934 68.0402
14.764869730765593 69.891
14.787372860692983 73.7195
14.809876564079925 80.1201
14.83236330125751 87.3021
14.854868153850365 95.6935
14.877356041159485 107.47399999999999
14.899862046604186 122.96700000000001
14.922351087688757 145.467
14.944858249632887 176.93400000000003
14.967365991421232 207.35
14.989856770231246 226.65400000000002
15.012365673994204 227.856
15.03485761569738 200.583
15.05736768508665 160.309
15.07987833888692 122.432
15.102372032001655 93.624
15.124883856909658 77.3595
15.14737872204565 70.8877
15.169891721717274 68.5012
15.192405310371893 67.5146
15.214901940621196 66.958
15.237416709527137 66.2478
15.259914520936249 66.1218
15.282430473753607 65.3965
15.304947020131227 64.9111
15.327446610371178 64.3808
15.349964346154254 63.9785
15.372465126703139 63.9513
15.394984055556009 63.8817
15.417486030076159 63.9465
15.44000615566487 63.6975
15.462526881230803 63.2343
15.485030653812652 63.34
15.507552581617434 63.244
15.530057557334603 63.0695
15.55258069104857 62.8359
15.575104429329837 63.2159
15.597611216864632 63.0392
15.620136166564563 63.0852
15.6426441664095 63.685
15.665170331202765 64.8215
15.687697105158826 67.9918
15.710206930593545 73.0426
15.732734925158933 78.5269
15.755245972089478 84.8985
15.77777519094324 92.4702
15.800287463046663 103.542
15.822817909869592 120.545
15.84534897229804 141.632
15.867863089299354 167.018
15.890395385222186 188.60299999999998
15.912910736597423 200.05900000000003
15.935444269699861 191.17
15.957978423016485 167.46099999999998
15.980495633101265 133.17600000000002
16.003031029129367 103.226
16.02554948280019 81.0227
16.048086125229432 69.6522
16.070623392487107 65.0685
16.09314371869582 63.0359
16.11568223789321 61.1105
16.13820381691126 59.8641
16.160743591742527 58.9872
16.183283996022084 58.0973
16.205807461423195 57.1034
16.228349126881973 56.6814
16.25087385432698 56.5694
16.27341678466365 56.0925
16.29594277784926 55.7227
16.31848697676433 55.29
16.341031811604868 54.8166
16.36355971058487 54.8211
16.3861058195587 54.7876
16.40863499352978 54.1843
16.431182380342005 53.7893
16.453730407713202 53.376999999999995
16.476261501364792 53.5129
16.498810812136167 53.3809
16.52134319004079 53.1047
16.54389378792203 53.0669
16.566445031001553 52.9916
16.588979342490088 52.9097
16.61153187824822 52.7623
16.634067483263312 52.7135
16.656621315414416 52.5891
16.679175797408888 52.3326
16.701713349928728 52.3178
16.72426913389191 52.6488
16.74680798922351 52.534
16.76936507887444 52.5577
16.791905240734874 52.7715
16.814463639794468 52.4401
16.837022695210294 52.5515
16.859564824093756 52.5702
16.882125194503903 52.861000000000004
16.904668639217885 53.4077
16.927230328348003 53.6867
16.949792678493612 54.1687
16.972338104193863 54.0308
16.994901778652235 53.7936
17.017448529496576 53.7333
17.040013531998152 53.5734
17.06257920018044 53.8227
17.0851279459922 54.3865
17.107694947817667 55.64
17.130245028099072 56.6502
17.15281336730298 57.8027
17.17536478578733 59.5502
17.19793446610687 61.4627
17.220504818648422 64.2001
17.243058251703697 67.3146
17.265629950971032 71.9577
17.288184731571736 76.9336
17.310757781306908 81.4501
17.33333150794385 82.854
17.355888317140174 82.2752
17.37846339986244 78.1722
17.401021565958885 71.5273
17.42359800851343 65.5678
17.44617513265564 61.1764
17.468735341390783 58.7411
17.491261035594565 57.4075
17.51396340099364 56.6686
17.536490463869136 56.864
17.559018209820174 56.5834
17.58154663977963 56.673
17.604251766089718 56.9638
17.626781572227713 57.3403
17.64931206518155 57.4143
17.671843245885103 57.7513
17.69455114821572 57.9652
17.717083712612634 58.5784
17.739616967569667 59.1284
17.762150914021706 59.7511
17.78486160749854 60.0274
17.807396945166804 60.7182
17.829932977143503 60.9145
17.85246970436452 61.3658
17.875183204129467 63.1647
17.897721330097664 66.1394
17.920260154126645 68.9538
17.942799677153296 72.1412
17.9655159983646 75.4759
17.988056927677544 80.2855
18.010598558807683 87.1728
18.033140892692916 96.0796
18.05586005052525 107.648
18.07840379824407 120.021
18.10094825154059 131.907
18.12366954819864 141.506
18.146215420998306 143.07
18.16876200220057 137.121
18.191309292745153 123.354
18.214033452627167 108.652
18.236582170236648 95.4935
18.259131600016456 87.3765
18.281681742907335 85.3615
18.304408781233683 87.975
18.32696035875955 93.3503
18.349512652227624 98.6423
18.372065662579683 104.29299999999999
18.394795594587553 106.446
18.41735004715306 104.32600000000001
18.43990521943684 97.3949
18.46246111238171 88.5383
18.485193953325208 78.9311
18.507751296070428 70.9123
18.530309362314178 65.6145
18.552868153000343 62.5606
18.57560391815056 61.0777
18.59816416623245 60.4824
18.620725141597372 59.8661
18.643286845190268 59.1415
18.666025549835414 58.6145
18.688588718427933 57.9284
18.711152618092243 57.7013
18.73389353884365 57.2466
18.75645890921984 57.2089
18.77902501351406 56.8965
18.801591852673102 56.8023
18.824335739722738 56.2057
18.846904057212626 56.2224
18.8694731124168 55.9282
18.89204290628315 55.9031
18.914789774966803 55.5223
18.937361054791623 55.2799
18.959933076131318 55.0246
18.982505839934877 55.0196
19.00525570560582 55.1505
19.027829963004184 54.7708
19.05040496572238 54.9399
19.072980714710468 54.8128
19.095733592739563 54.7258
19.11831084296757 54.879
19.140888842324735 55.535
19.16346759176222 55.9307
19.18622349753803 56.6358
19.208803755869358 57.6723
19.231384767143577 58.9001
19.253966532312948 60.0678
19.276725481241822 62.3314
19.29930876296784 65.07300000000001
19.3218928014549 68.5446
19.34465404436217 72.2149
19.36723960516257 74.7295
19.389825925592426 75.71600000000001
19.412413006605938 75.2697
19.43517731967805 72.09100000000001
19.457765930683355 67.7698
19.48035530514408 63.1994
19.50294544401556 59.1574
19.525712842708348 55.7097
19.54830451925909 54.0227
19.570896963095727 52.5533
19.593490175174704 52.1531
19.616260674962184 52.1426
19.638855432416964 51.8672
19.661450960992624 51.9827
19.68404726164677 51.8474
19.706820878021247 51.5341
19.729418731756834 51.6974
19.752017360452857 51.7164
19.77461676506804 51.6105
19.797393513540218 51.7541
19.819994478951667 51.7736
19.84259622316767 52.418
19.8651987471481 52.8941
19.887978643247177 53.3179
19.91058273574792 53.8153
19.933187610901943 54.7815
19.955969879466828 55.7225
19.97857632894404 56.8045
20.00118356396599 58.4189
20.023791585494575 60.5516
20.046577028914875 63.4327
20.069186632506966 66.1489
20.091797025500632 68.5727
20.114408208858933 69.8612
20.137196842715273 70.2506
20.159809615886765 68.7601
20.18242318232135 66.0854
20.20503754298326 63.6692
20.227829382875154 61.8735
20.250445341109344 61.3065
20.27306209647285 61.6547
20.29567964993108 63.0084
20.31847471147704 63.9819
20.34109387027612 65.2393
20.363713830075454 65.191
20.386334591841646 63.9815
20.409132890679302 61.2717
20.431755265564437 57.9894
20.454378445325528 55.1986
20.477002430930366 52.693000000000005
20.499803982716553 50.8787
20.522429589228004 49.7707
20.54505600449589 49.2581
20.567683229489194 48.9735
20.590488049900088 48.7895
20.61311690359731 48.7228
20.63574656993626 48.6863
20.658553853717297 48.1834
20.681185154618298 48.0619
20.703817271080066 48.0449
20.72645020407368 47.7223
20.749260783967177 47.7717
20.771895359337133 47.8963
20.794530754161617 47.8101
20.817166969412938 47.7211
20.83998086114876 47.7538
20.86261872660049 47.4291
20.885257415405402 47.1266
20.90789692853701 47.1317
20.930714147864748 47.0921
20.953355319030678 46.9297
20.97599731745334 47.0867
20.99864014410749 46.8921
21.021460706796564 47.0306
21.044105199328826 47.278
21.06675052302631 47.3205
21.089396678865015 47.5705
21.112220600704806 47.8671
21.134868430275347 48.1896
21.15751709492456 48.361000000000004
21.180166595629693 48.7399
21.202993892429635 49.3474
21.22564507473034 49.9349
21.24829709602816 50.2737
21.27112693608965 50.4589
21.293780644891275 50.2556
21.316435195634053 49.7639
21.339090589297417 48.8412
21.361923832041875 48.375
21.384580921090404 47.6838
21.407238856007325 47.0791
21.429897637773326 47.1587
21.45273429906592 47.0568
21.475394784108598 47.1809
21.498056118951983 46.9065
21.520718304578022 47.1862
21.543558400304388 47.1898
21.566222297108816 47.3524
21.58888704765135 47.247
21.61155265291521 47.4652
21.63439619898156 48.1097
21.657063523335786 48.4149
21.67973170537063 48.9999
21.7024007460706 49.5309
21.72524775840385 50.3034
21.747918526116475 51.2651
21.770590155457388 52.3629
21.79326264741238 53.6341
21.816113141960237 55.4665
21.838787368860547 57.5447
21.861462461341976 59.8455
21.884315579735777 62.1518
21.90699241312273 64.0618
21.92967011506078 65.0398
21.95234868653799 64.8609
21.9752053151131 63.631
21.997885635446785 61.6598
22.020566828293532 59.5147
22.04324889464272 57.5398
22.066109049404666 55.9906
22.088792872571794 55.7097
22.111477572219204 55.8028
22.1341631493376 55.9705
22.157026846313123 55.6504
22.179714188221507 55.257
22.202402410582668 54.108999999999995
22.22509151438863 52.4113
22.24795876962584 50.8942
22.270649646204486 49.7252
22.293341407213727 48.923
22.316034053646906 48.2725
22.338904883215342 47.6389
22.36159931041458 47.5789
22.38429462602756 47.4641
22.40699083104897 47.1819
22.429865251039757 47.3969
22.452563244831367 47.1649
22.47526213102522 47.1628
22.49813925616515 47.3154
22.520839937143307 47.0231
22.543541513520587 47.1893
22.56624398629403 47.2005
22.589124730075895 46.9742
22.611829005656723 47.2712
22.63453418063466 47.2257
22.657240256008077 47.3828
22.680124634582935 47.6118
22.70283252079775 47.8539
22.725541310413075 48.3844
22.74825100442868 48.6291
22.771139033969575 49.3006
22.79385054687155 49.4372
22.81656296718292 49.9725
22.83927629590484 50.7522
22.862167992606945 51.8411
22.88488314827121 52.9091
22.907599215359284 54.0735
22.93031619487366 55.4762
22.953211574954405 56.4775
22.975930389478226 57.2998
22.998650119445763 57.7592
23.02137076586092 57.0657
23.044269845560063 56.0493
23.06699233506288 54.5964
23.089715744034912 52.6092
23.112617610931565 50.8275
23.135342869061212 49.2555
23.158069049684816 48.3623
23.1807961538087 47.69
23.20370174880544 47.4817
23.226430710184808 47.4443
23.249160598093425 47.4808
23.271891413539002 47.4488
23.294800752937697 47.4649
23.31753343374794 47.8275
23.340267045128353 48.1085
23.36300158808808 48.623999999999995
23.38591468821339 49.093
23.408651104658304 49.3266
23.431388455719986 50.0703
23.454126742409 50.641999999999996
23.4770436196085 51.7684
23.499783787914662 53.0997
23.522524894889884 54.3856
23.54526694154616 55.5393
23.56818761219047 56.818999999999996
23.59093154860734 57.7589
23.613676427751283 58.2596
23.636422250635754 57.6606
23.659346731118656 56.0754
23.68209445191868 54.1795
23.704843119509587 51.665
23.72759273490623 49.6885
23.750521041644767 47.9621
23.77327256312355 46.6487
23.796025035462787 45.7907
23.818956224555475 45.0984
23.841710609113413 44.868
23.86446594758979 44.6514
23.887222241002014 44.4292
23.910157285144578 44.0279
23.932915498962537 44.0879
23.955674670778713 43.8934
23.978434801611975 43.7355
24.001373717286125 43.6462
24.024135776723917 43.4449
24.046898798245582 43.3961
24.06966278287146 43.262
24.092605586582614 43.0828
24.115371508023642 42.9205
24.1381383956401 42.6399
24.16090625045381 42.6176
24.183852958731244 42.5689
24.206622758582608 42.5641
24.229393528706886 42.3965
24.252165270127392 42.478
24.27511589952438 42.4354
24.297889594216997 42.1606
24.32066426328598 41.9944
24.34343990775613 42.0945
24.36639447485003 41.9748
24.38917208083877 41.8192
24.41195066531332 41.7876
24.43490819850244 41.9466
24.457688750692377 41.735
24.48047028445616 41.9084
24.503252800821233 41.8513
24.526214300784112 41.8858
24.548998793132213 42.0129
24.57178427117417 41.8492
24.59457073593893 41.9633
24.617536219319863 41.8565
24.64032466834748 41.9491
24.663114107195035 41.6918
24.685904536893013 41.5558
24.708874020360852 41.3594
24.731666442613744 41.3034
24.754459858818787 41.1346
24.777254270007962 41.055
24.80022777025625 40.9692
24.82302418230472 41.0258
24.845821592443674 41.0062
24.86862000170663 41.0387
24.891597535453727 41.0097
24.914397953892728 41.1372
24.93719937456671 40.9971
24.96000179851076 41.3029
24.98298338249997 41.3298
25.00578782394922 41.6043
25.028593271784167 41.7362
25.05157790644186 42.1434
25.07438537804115 42.2136
25.097193859145293 42.5432
25.120003350792075 42.8599
25.142992065061257 43.2867
25.165803588823465 43.5039
25.18861612625217 43.8212
25.211429678386736 43.8516
25.234422489079968 44.0217
25.257238081693636 44.015
25.280054692141732 44.2853
25.3028723214652 44.2564
25.325869245420463 44.4087
25.348688923599397 44.3307
25.371509623787006 44.3332
25.394331347025812 44.1161
25.41733240110666 43.656000000000006
25.440156181590016 43.0241
25.46298098826268 42.391000000000005
25.48580682216873 41.6381
25.50881202326435 41.0772
25.53163992281684 40.5756
25.55446885274561 40.391
25.577298814096377 40.0053
25.600308179121807 39.7076
25.623140214533745 39.74
25.64597328451537 39.6712
25.66898578564376 39.3659
25.691820936010206 39.5317
25.714657124097695 39.4741
25.737494350954734 39.4631
25.760511045684957 39.4407
25.783350361364224 39.4605
25.806190718969255 39.3931
25.82903211955018 39.6412
25.852053024868923 39.5463
25.874896522722523 39.5528
25.897741066713106 39.6608
25.920586657892454 39.7351
25.943611790812668 39.8684
25.966459487728237 39.7844
25.989308234998564 39.9283
26.01215803367705 40.3808
26.03518741123814 40.5382
26.05803932412957 40.7452
26.080892291600094 40.8461
26.10374631470478 40.9198
26.12677995397268 41.1458
26.14963609978026 41.2344
26.172493304397875 40.7748
26.19535156888223 40.5426
26.218389486949604 40.0248
26.241249882640123 39.7203
26.26411134137826 39.4233
26.28715248187403 39.3447
26.31001607820869 39.061
26.3328807407756 39.0559
26.35574647063438 39.2679
26.37879191991473 39.2756
26.401659795896734 39.2621
26.424528742360263 39.2051
26.447398760366614 39.4723
26.470448535598294 39.6044
26.49332070826805 39.7351
26.516193955675355 40.1197
26.53906827888316 40.4243
26.562122397260108 40.5397
26.584998883685063 40.9111
26.607876449110325 41.2145
26.63075509460056 41.4517
26.65381357334404 41.7358
26.67669439061878 41.7354
26.699576291163382 41.6698
26.722459276044212 41.6288
26.745522132402975 41.1344
26.768407297649354 40.9587
26.791293550442003 40.6689
26.814180891848974 40.3957
26.837248143099337 39.9354
26.860137673466657 39.9102
26.88302829566349 39.5861
26.90592001075963 39.3197
26.92899167420566 39.152
26.951885586870763 38.7971
26.974780595655517 38.5702
26.99785558178161 38.4558
27.020752794605112 38.2945
27.043651106772522 38.1355
27.06655051935668 37.9572
27.089629948036183 37.8299
27.112531573292053 37.8389
27.135434302194138 37.7881
27.158338135817015 37.6369
27.181422024430987 37.6969
27.204328079372566 37.5295
27.22723524226965 37.6172
27.250143514198573 37.6896
27.273231880156334 37.5161
27.296142382065014 37.4665
27.319053996245536 37.402
27.341966723775965 37.5166
27.365059584515222 37.571999999999996
27.38797455070062 37.6618
27.410890633481237 37.571
27.433807833936918 37.6093
27.456905206923906 37.634
27.47982465472398 37.5626
27.502745223449743 37.7305
27.525666914182825 37.8687
27.548768816912457 37.8171
27.571692763693633 37.7994
27.59461783573812 37.7154
27.617723149491244 37.5477
27.640650484125285 37.4258
27.66357894728264 37.4521
27.686508540048052 37.3544
27.709618414237887 37.1805
27.732550278321757 36.9652
27.755483275279115 37.0074
27.778417406196485 37.1145
27.801531858397514 37.077
27.824468269376716 36.939
27.847405817586786 36.977
27.870344504116094 37.2137
27.893463551932008 37.3074
27.916404527281053 37.4845
27.93934664422563 37.6297
27.962289903855886 37.6809
27.98541356491974 38.0348
28.00835912214229 38.1424
28.03130582533231 38.5897
28.054253675581805 38.6605
28.077381967556104 38.7084
28.100332124185126 38.6325
28.123283431160893 38.5649
28.146235889577238 38.4981
28.169368830154156 38.282
28.192323603752033 38.1906
28.215279532083304 37.7609
28.238415973016764 37.51
28.261374223145094 37.4406
28.284333631303806 37.1765
28.307294198589954 37.0196
28.330435319167677 36.5688
28.353398217078915 36.2547
28.376362277420153 36.0435
28.39932750129032 35.8424
28.422473319286713 35.5762
28.44544088262495 35.7556
28.468409612800283 35.5231
28.491379510913497 35.1698
28.51453004413313 35.046
28.53750229057244 35.1908
28.56047570826344 35.0284
28.583450298308804 35.1023
28.606605564586562 34.9397
28.629582511831156 34.945
28.65256063474956 34.8524
28.675539934446338 34.8431
28.698699951647605 34.9241
28.72168161743193 34.7523
28.74466446331978 34.7481
28.767648490417624 34.6272
28.790813276438353 34.5485
28.813799678527303 34.6169
28.836787265157085 34.6622
28.859955641890075 34.7433
28.882945610203045 34.6892
28.905936766392035 34.4944
28.928929111566863 34.7299
28.952102288520145 34.5592
28.975097024308607 34.4852
28.998092952423807 34.2732
29.021090073977508 34.0596
29.04426806913204 34.0702
29.067267590245258 33.8676
29.090268308143695 33.9008
29.11327022394099 33.7802
29.13645305530891 33.7831
29.159457379627167 33.6381
29.18246290519685 33.5643
29.20546963313352 33.5059
29.22865731875826 33.523
29.25166646419296 33.4769
29.27467681535305 33.4128
29.29768837335608 33.4841
29.320880931312562 33.5333
29.34389491580634 33.5697
29.366910110507334 33.515
29.38992651653503 33.5142
29.41312396492981 33.5341
29.436142806456754 33.4132
29.45916286268059 33.346
29.48236399319994 33.2378
29.50538649169417 33.1173
29.528410208259935 33.1084
29.55143514402014 32.8011
29.574641196749695 32.6628
29.597668583816574 32.5313
29.6206971934585 32.4036
29.64372702680042 32.4635
29.666938019934474 32.2624
29.689970313635285 32.2349
29.713003834422636 32.2236
29.73603858342347 32.1201
29.759254535188578 32.1205
29.78229175361658 32.0657
29.80533020365064 32.0239
29.82836988641968 32.0654
29.85159081507472 32.0133
29.874632976355343 31.9247
29.89767637376955 31.9553
29.920721008448314 31.7952
29.9439469322847 31.9333
29.96699405457564 31.8163
29.9900424175358 31.7796
30.013092022298157 31.7472
30.03632295963995 31.7697
30.059375061131373 31.8218
30.08242840783577 31.8006
30.105483000888153 31.768
30.128718970092244 31.6747
30.151776069006917 31.6969
30.17483441768648 31.74
30.198074175317235 31.7731
30.221135036724256 31.7327
30.24419715131772 31.6214
30.267260520236203 31.5453
30.290505341942243 31.581
30.313571232750228 31.7037
30.336638381310948 31.6381
30.35970678876503 31.6237
30.38295669299435 31.4511
30.40602763151657 31.4273
30.429099832366074 31.4349
30.452173296685572 31.4016
30.47542830191959 31.3376
30.498504306502497 31.2855
30.521581577995562 31.429000000000002
30.544660117543582 31.5465
30.56792024229725 31.5088
30.59100133132069 31.4497
30.614083691845494 31.4933
30.637167325018545 31.6492
30.660432587840603 31.61
30.683518779717886 31.6216
30.70660624769615 31.7461
30.729694992924372 31.674
30.75296541239743 31.6585
30.77605672557558 31.6065
30.799149319462742 31.6098
30.8224236211637 31.4619
30.845518789950724 31.3366
30.868615242910597 31.2612
30.891712981195973 31.0852
30.91499247215866 31.0289
30.938092794619365 30.9634
30.96119440587579 30.8953
30.984297307082752 30.8184
31.00758200598383 30.7635
31.030687500658694 30.5999
31.053794288760695 30.5698
31.076902371446767 30.4203
31.100192296997445 30.5062
31.12330298246119 30.4515
31.14641496599209 30.3506
31.169528248749216 30.3306
31.19282341969534 30.3962
31.215939314557186 30.2971
31.239056512134788 30.253
31.262175013589378 30.2335
31.28547544871168 30.1187
31.30859657161541 30.154
31.331719001892175 30.2169
31.35484274070538 30.3944
31.378148458819545 30.2683
31.401274828443725 30.26
31.424402510106933 30.2639
31.447712205419993 30.4015
31.470842524931633 30.3191
31.493974159989783 30.2805
31.51710711176168 30.2423
31.54042212308802 30.2522
31.563557722100917 30.2813
31.586694641341655 30.1123
31.609832881979628 29.9573
31.63315322823208 29.9746
31.656294125521327 29.7859
31.679436347728515 29.773000000000003
31.70257989602529 29.6594
31.725905596152327 29.7058
31.74905181052835 29.578000000000003
31.772199354521323 29.6627
31.79534822930507 29.5565
31.818679302290967 29.4896
31.84183085259981 29.4921
31.864983737233473 29.499000000000002
31.88813795736804 29.6021
31.911474422233013 29.5021
31.934631327356435 29.5075
31.9577895715215 29.5446
31.980949155906522 29.461
32.004291031706956 29.4789
32.027453310562606 29.381
32.05061693318573 29.3648
32.07396288236386 29.3636
32.09712920658542 29.263
32.12029687812702 29.0074
32.14346589817093 28.8979
32.166817291729984 28.8936
32.18998902288583 28.9919
32.21316210610336 28.8429
32.23633654256711 28.6801
32.259693399663725 28.614
32.282870556771144 28.6479
32.30604907069099 28.5613
32.329228942610065 28.5963
32.35259128243769 28.3631
32.375773884550505 28.2963
32.398957848235646 28.2518
32.422143174682176 28.2465
32.445511016471215 28.1298
32.468699082679954 28.0822
32.49188851523011 28.0059
32.51507931531304 28.0464
32.538452678331 28.0841
32.56164622776311 27.9493
32.58484114831493 27.9361
32.60803744118015 27.8856
32.631416344731896 27.9614
32.654615396551876 27.9023
32.67781582427913 27.7983
32.701198898634416 27.7706
32.72440209253756 27.7262
32.747606665947124 27.6835
32.77081262006088 27.514
32.79420126883317 27.4786
32.81740999876112 27.5511
32.840620112999424 27.5172
32.86383161274818 27.4556
32.88722585534586 27.4349
32.91044014056596 27.4145
32.933655814909734 27.3783
32.95687287957963 27.412
32.98027273544904 27.3422
33.00349259526636 27.3025
33.026713849030116 27.3119
33.04993649794511 27.2481
33.073341986570746 27.2205
33.09656744032826 27.186999999999998
33.11979429286444 27.2355
33.14302254538647 27.2909
33.166433686291185 27.1767
33.18966475336992 27.1218
33.212897224069096 27.1656
33.23613109959831 27.0694
33.259547912343415 27.0511
33.2827846121627 27.0321
33.306022720453775 26.9449
33.32926223842861 26.8929
33.352684742614166 26.9606
33.37592709463173 26.8754
33.399170859982064 26.7102
33.422597648419426 26.616
33.44584425514446 26.54
33.46909227885668 26.6009
33.4923417207723 26.4348
33.51577423505344 26.479
33.539026528130385 26.3869
33.56228024307245 26.3442
33.585535381098246 26.1898
33.60897364093058 26.1693
33.63223163992385 26.2099
33.6554910656699 26.0693
33.678751919389796 26.0139
33.702195944520106 25.9586
33.72545966903325 26.0341
33.74872482519663 25.936999999999998
33.771991414233746 25.9784
33.79544122444841 25.945
33.81871069412428 25.865
33.84198160035767 25.8769
33.86525394437455 25.8374
33.88870955949969 25.7288
33.911984794020626 25.7018
33.93526147001624 25.774
33.958539588715006 25.6673
33.98200102861669 25.6165
34.0052820477047 25.6084
34.02856451319451 25.5252
34.05203033759056 25.4318
34.07531571090147 25.4241
34.09860253431845 25.3993
34.121890809074316 25.4079
34.145362493118924 25.3781
34.16865368561615 25.2974
34.191946333164054 25.1526
34.21524043699793 25.2721
34.23871800066799 25.25
34.26201503218366 25.0911
34.28531352370466 25.0502
34.30861347646881 25.0436
34.33209693978188 24.9809
34.3553998301885 24.9881
34.378704185565205 24.8714
34.402010007152356 24.8951
34.42549939016683 24.8808
34.44880815937748 24.7658
34.472118398533134 24.6918
34.49543010887669 24.6859
34.51892543169198 24.5576
34.54224009966052 24.7085
34.56555624255917 24.605
34.58887386163339 24.4748
34.61237514439016 24.4743
34.6356957311114 24.3792
34.65901779775809 24.3865
34.68252356662995 24.3272
34.705848608458616 24.3842
34.72917513396849 24.2929
34.75250314440949 24.2289
34.77601490857862 24.1457
34.799345904259795 24.194000000000003
34.82267838863559 24.1018
34.846012362958525 24.1805
34.869530142679984 24.0966
34.89286711232212 24.0984
34.91620557568269 24.0951
34.93954553401677 23.9813
34.9630693495876 23.9396
34.986412313340814 23.9845
35.00975677584668 23.8467
35.033102738362956 23.9137
35.05663261012228 23.8717
35.0799815881786 23.8512
35.10333207003229 23.7362
35.12668405694369 23.7098
35.150220005273056 23.7821
35.17357501786656 23.732
35.19693153931268 23.6902
35.220289570874385 23.5684
35.24383161619786 23.5972
35.267192683604904 23.6403
35.290555264930376 23.6221
35.314101899412165 23.6404
35.33746752422433 23.4654
35.36083466676374 23.4971
35.38420332829803 23.491999999999997
35.407756095629054 23.5177
35.43112781085063 23.5658
35.45450104888391 23.4159
35.477875810999194 23.4436
35.50143473172161 23.326
35.52481255774625 23.3529
35.54819191167777 23.3082
35.57157279478914 23.3296
35.595137889488406 23.266
35.61852184675279 23.2918
35.641907337029984 23.1986
35.665294361595684 23.2124
35.68886565090076 23.1631
35.7122557598848 23.0542
35.73564740699838 22.9829
35.759040593519934 23.0219
35.78261809810353 23.0337
35.80601437933051 22.8616
35.829412203814705 22.8925
35.85281157283719 22.7896
35.876395313415884 22.7809
35.8997977874528 22.7437
35.92320180988546 22.7204
35.946790244133936 22.6361
35.97019737933222 22.649
35.993606066789866 22.5725
36.01701630779276 22.5703
36.04061101440684 22.518
36.06402437852291 22.4819
36.08743930005611 22.5562
36.1108557802951 22.3245
36.13445678011326 22.4101
36.15787639383515 22.4496
36.18129757014299 22.3687
36.20472031032821 22.2542
36.22832762423364 22.2843
36.25175350829375 22.2902
36.275180960119776 22.1129
36.298609981005924 22.2437
36.32222362992669 22.264
36.34565580510207 22.1929
36.36908955323448 22.1521
36.39252487562093 22.025
36.416144880530226 22.0087
36.43958336764275 21.9733
36.463023432914625 21.978
36.486465077645676 21.8607
36.51009145956204 22.0025
36.53353627947859 21.9222
36.55698268276811 21.8975
36.58043067073321 21.8935
36.60406345072071 21.7913
36.62751462435344 21.708000000000002
36.65096738658405 21.7367
36.67460498210655 21.7398
36.69806093788647 21.7038
36.72151848619297 21.6501
36.744977628333636 21.6086
36.76862165890998 21.5566
36.79208400512205 21.5247
36.81554794910557 21.5165
36.83901349217101 21.4751
36.862663978991606 21.4337
36.88613273667352 21.3335
36.90960309738324 21.2576
36.933075062434064 21.2608
36.95673202673572 21.2402
36.98020721697122 21.2142
37.003684015502365 21.0885
37.027162423645365 21.108
37.050825886711465 21.121
37.07430753063053 21.0656
37.09779078812467 21.052
37.121275660513014 21.1181
37.144945643673694 20.9675
37.16843376245278 20.9816
37.19192350009803 20.975
37.215414857931435 20.9226
37.239091382563885 20.7704
37.262585997426164 20.7767
37.28608223645736 20.8227
37.309763684451696 20.813000000000002
37.33326318851098 20.7385
37.356764320726555 20.7539
37.380267082425526 20.7475
37.40395510942588 20.6984
37.42746114683234 20.6182
37.45096881771841 20.5011
37.474478123414166 20.5528
37.49817275092816 20.5526
37.52168534303452 20.5686
37.54519957395567 20.4417
37.568715445024665 20.4033
37.592416694607714 20.3286
37.61593586281424 20.3152
37.63945667518264 20.4334
37.66297913304891 20.274
37.68668702630454 20.2345
37.710212792059274 20.157
37.733740207334854 20.1958
37.757269273470364 20.1549
37.780983832050374 20.1175
37.80451621684926 20.1364
37.82805025654007 20.0539
37.851585952464795 20.0313
37.8753071980695 19.9883
37.89884622345676 19.9269
37.92238690911902 19.8995
37.94611318753442 19.8882
37.969657210779765 19.7703
37.99320289834801 19.8049
38.016750251586465 19.7146
38.04048325513017 19.7566
38.06403395679343 19.7186
38.087586328183946 19.6113
38.11114037065203 19.6412
38.13488012115898 19.7036
38.1584375229181 19.6245
38.181996599821 19.5294
38.205557353221124 19.5705
38.229303872575656 19.5281
38.2528679961576 19.4884
38.27643380031219 19.4768
38.30000128639589 19.4366
38.32375459653193 19.386
38.34732546371299 19.4183
38.37089801690786 19.3618
38.39447225747609 19.2567
38.418232380377425 19.250999999999998
38.441810012983396 19.236
38.46538933705673 19.2266
38.488970353960084 19.2362
38.51273731166058 19.1704
38.536321731567014 19.0852
38.55990784840681 19.0705
38.58367995004091 19.1144
38.60726947812959 18.9684
38.63086070726198 18.9994
38.654453638806274 19.0406
38.678232613930824 18.8999
38.70182896773327 18.8328
38.72542702806741 18.7998
38.7490267963045 18.8267
38.77281266709232 18.8216
38.79641586862214 18.7923
38.8200207821842 18.7807
38.843627409152944 18.7575
38.86742019782782 18.7245
38.891030269149255 18.6701
38.914642058016156 18.6507
38.938255565806124 18.6658
38.96205529464307 18.535
38.98567225787121 18.5466
39.00929094417078 18.5456
39.03291135492255 18.5272
39.05671804624804 18.4932
39.080341923549106 18.4632
39.103967529460334 18.3731
39.127594865365744 18.3195
39.15140854155791 18.2487
39.17503935514948 18.285
39.19867190290282 18.2765
39.22249083587951 18.3217
39.24612686969409 18.2364
39.269764641845306 18.2255
39.293404153722804 18.1706
39.317230110864074 18.1165
39.34087311998506 18.0497
39.36451787301696 18.0136
39.388164371352595 18.0813
39.41199737518003 18.0375
39.43564738196752 18.0158
39.45929913825317 17.9663
39.48295264543308 17.8935
39.506792718520884 17.905
39.530449745387216 17.8713
39.55410852735203 17.8084
39.57776906581474 17.8393
39.60161623079 17.7911
39.625280300200025 17.7724
39.64894613032202 17.7241
39.67261372255866 17.688
39.6964680021016 17.6777
39.72013913657293 17.6881
39.74381203738292 17.6269
39.76748670593756 17.5811
39.79134812278169 17.5717
39.81502634488497 17.5291
39.83870633896685 17.5417
39.862388106436654 17.5029
39.88625668336918 17.4602
39.90994201572829 17.5137
39.933629125719285 17.383
39.957503091207826 17.3926
39.9811937746168 17.4051
40.00488623990914 17.3044
40.02858048850006 17.2763
40.05246165409549 17.2528
40.076159487492085 17.1354
40.099859108448875 17.2294
40.123560518384345 17.1734
40.1474489070226 17.1545
40.171153913178564 17.0781
40.194860712584955 17.0449
40.2185693066637 17.0591
40.242464941335314 17.0054
40.26617714307655 17.01
40.289891143772046 17.0263
40.3136069448471 17.0189
40.33750984859743 16.9529
40.3612292688043 16.8953
40.3849504936829 16.9124
40.40867352466194 16.897000000000002
40.43258372059144 16.807000000000002
40.45631038219906 16.8243
40.48003885420956 16.7541
40.503769138055105 16.7888
40.52768664931955 16.7819
40.55142057531802 16.749000000000002
40.57515631746428 16.7301
40.599079334038514 16.6367
40.62281872700477 16.5532
40.64655994043941 16.5668
40.67030297578061 16.5455
40.69423334835778 16.5451
40.71798004609188 16.5502
40.74172857006355 16.4928
40.76547892171441 16.491
40.7894166736039 16.4386
40.813170699248566 16.4576
40.83692655691388 16.3804
40.86068424804498 16.3645
40.884629402612525 16.3006
40.908390779366385 16.3748
40.932153993938 16.3056
40.95591904777605 16.2866
40.979871628443995 16.2846
41.003640379561936 16.2264
41.02741097430883 16.2171
41.05118341413683 16.1636
41.075143444384416 16.1171
41.098919593177826 16.1675
41.1226975914255 16.1566
41.14647744058318 16.1089
41.170444943946755 16.0859
41.19422851378379 16.0651
41.218013938914645 15.9381
41.24198706625173 15.9094
41.26577622087193 15.9325
41.289567235177785 15.8691
41.31336011063129 15.8484
41.337340752422875 15.818
41.361137369129835 15.8358
41.38493585138705 15.8016
41.40873620066004 15.7444
41.43272438060107 15.7446
41.45652848292052 15.6509
41.48033445666918 15.6454
41.50414230331616 15.6547
41.528138045159764 15.6674
41.551949656675205 15.617
41.575763145513235 15.561
41.59957851314666 15.5512
41.62358184070442 15.5542
41.64740098505737 15.4885
41.6712220126409 15.3938
41.69504492493139 15.3806
41.71905586207357 15.3532
41.74288256296395 15.4057
41.766711153007456 15.4032
41.79054163368412 15.3397
41.814560204340054 15.3367
41.838394485526365 15.2727
41.86223066180303 15.2643
41.88625497706819 15.2386
41.910094962812 15.2381
41.93393684811168 15.1738
41.95778063445365 15.1374
41.981812625263366 15.1327
42.00566023303407 15.1422
42.029509746323676 15.109000000000002
42.05336116662236 15.0841
42.077400857069705 15.0571
42.10125611078846 15.0319
42.12511327600405 14.9705
42.14897235421036 14.9236
42.173019768448455 14.9395
42.19688269209613 14.867
42.22074753323349 14.8958
42.24461429335818 14.8825
42.268669455600495 14.8225
42.292540073217886 14.8007
42.31641261433284 14.7475
42.34028708044675 14.745999999999999
42.36435001496739 14.8
42.38822835065557 14.7857
42.41210861586426 14.6606
42.4359908120986 14.6622
42.46006154323262 14.6401
42.48394762115317 14.6298
42.507835634632315 14.6043
42.531912233047436 14.534
42.55580413732265 14.5248
42.579697981698 14.4747
42.60359376768525 14.4702
42.62767820545945 14.4989
42.65157789440821 14.4836
42.67547952952185 14.4245
42.699383112316 14.3692
42.72347541395347 14.3131
42.74738291190531 14.3531
42.771292362102166 14.3532
42.795203766063516 14.2943
42.819303956130405 14.255999999999998
42.843219287476536 14.1818
42.86713657716324 14.1823
42.89105582671383 14.175
42.91516392983864 14.1831
42.939087119032166 14.165
42.963012272677304 14.1346
42.98693939230129 14.0785
43.01105543317513 14.1536
43.034986504731386 14.0647
43.05891954686589 14.0461
43.08285456110972 14.0254
43.10697856448665 13.9553
43.130917542983475 13.9321
43.15485849820081 13.9207
43.17880143167367 13.9107
43.20293342237094 13.9125
43.226880332449 13.8523
43.25082922540554 13.7846
43.27496722682525 13.7779
43.29892010567796 13.7084
43.32287497204102 13.7771
43.34683182745632 13.7515
43.370977859791836 13.7326
43.39493871351105 13.7161
43.41890156092628 13.6853
43.44286640358341 13.6178
43.46702049182749 13.6218
43.49098934522816 13.6605
43.51496019852649 13.5648
43.5389330532723 13.5546
43.56309522248204 13.5073
43.58707210044314 13.5037
43.61105098451946 13.4503
43.63503187626491 13.4291
43.659202151562134 13.3818
43.68318707902681 13.4286
43.70717401884041 13.3928
43.731162972560874 13.3509
43.75534137913236 13.3061
43.779334381108384 13.2966
43.803329401683186 13.3006
43.82732644241872 13.280999999999999
43.8515130055166 13.2568
43.87551410707659 13.2351
43.89951723350145 13.1681
43.923709934595614 13.1799
43.94771713129917 13.1892
43.97172635758096 13.147
43.99573761501002 13.1204
44.0199385169922 13.0598
44.04395385732619 13.1048
44.067971233533086 13.0347
44.09199064718605 13.0084
44.11619977548961 12.9982
44.14022328470671 12.9645
44.16424883610785 13.0069
44.18827643127035 12.9445
44.21249381139513 12.9139
44.236525514814076 12.8991
44.26055926674478 12.8691
44.28459506876863 12.9232
44.3088207262813 12.84
44.33286064928722 12.8324
44.35690262714919 12.8161
44.38094666145278 12.7522
44.4051806219871 12.7102
44.42922879003185 12.7119
44.45327901929361 12.6623
44.477331311362136 12.6849
44.501573600619416 12.634
44.525630039221795 12.5539
44.54968854541895 12.5971
44.573937102200176 12.5802
44.5979997645541 12.5139
44.622064499300315 12.5473
44.64613130803592 12.4934
44.67038823869318 12.5204
44.69445921643748 12.4599
44.718532272981385 12.4259
44.742607409926194 12.4456
44.76687274034801 12.3861
44.79095205918753 12.337
44.81503346325094 12.3407
44.839116954143876 12.372
44.86339071028742 12.3232
44.88747839599524 12.2537
44.91156817336837 12.2514
44.93566004401666 12.2239
44.959942251908146 12.245
44.984038330325966 12.1703
45.00813650686762 12.1416
45.03223678314731 12.1899
45.05652746888232 12.0954
45.08063196592069 12.1035
45.104738567558705 12.0439
45.128847275414856 12.0684
45.15314646515866 12.0549
45.17725940679741 12.0278
45.20137445952892 12.0387
45.22568004865265 12.001
45.24979934496396 11.9591
45.27392075725247 11.9277
45.29804428714431 11.9087
45.322358426247604 11.8927
45.346486212804315 11.8736
45.370616121861914 11.8589
45.39474815505086 11.8668
45.41907087049246 11.8382
45.4432071734666 11.8041
45.46734560548283 11.8241
45.49148616817604 11.8227
45.51581748638564 11.7653
45.5399623320197 11.7079
45.56410931325473 11.6661
45.58825843173002 11.6734
45.61259837920865 11.7026
45.636751793816 11.6852
45.66090735060093 11.6201
45.68506505120716 11.5887
45.7094136545275 11.535
45.73357566449271 11.539000000000001
45.75773982322992 11.5444
45.78190613238733 11.5146
45.806263418194064 11.4486
45.83043404997326 11.4512
45.85460683713677 11.4277
45.87897065658495 11.4225
45.90314777634752 11.3804
45.92732705646868 11.3892
45.9515084986045 11.3834
45.97588104735473 11.3492
46.00006683541565 11.3209
46.02425479047904 11.2852
46.04844491420549 11.2897
46.0728262191024 11.273
46.09702070211635 11.2933
46.12121735879483 11.239
46.14541619080294 11.2343
46.169806278764455 11.2009
46.194009483459034 11.1817
46.21821486849841 11.140999999999998
46.24242243555223 11.1214
46.266821333570014 11.0942
46.29103328674601 11.0785
46.31524742696538 11.1052
46.33946375590237 11.0851
46.36387149104216 11.022
46.38809221957392 10.9359
46.41231514186606 11.027000000000001
46.436540259597464 10.9743
46.460956858999374 10.9617
46.48518638983522 10.912
46.509418121166966 10.9079
46.533652054678114 10.9036
46.55807754555709 10.8464
46.58231590571962 10.8514
46.60655647313217 10.8448
46.630988654873654 10.8058
46.655233659129024 10.7645
46.67948087571551 10.7702
46.70373030632484 10.7501
46.72817142736393 10.7021
46.752425308428684 10.6996
46.77668140861147 10.6845
46.80093972960865 10.6711
46.82538981736788 10.6772
46.849652602470904 10.6328
46.87391761349769 10.5927
46.8981848521493 10.6088
46.9226439341274 10.5693
46.946915650573224 10.5507
46.97118959976749 10.5373
46.99546578341598 10.5232
47.019933887188216 10.460999999999999
47.04421456235744 10.4873
47.06849747711879 10.4776
47.09278263318286 10.4253
47.11725978640143 10.3715
47.14154944775105 10.3986
47.165841355555656 10.387
47.1901355115306 10.3628
47.214621741924994 10.3706
47.23892041698887 10.3395
47.26322134538975 10.2912
47.28771440635075 10.289000000000001
47.31201986422527 10.2609
47.33632758061436 10.2555
47.360637557241866 10.222000000000001
47.38513974410611 10.2071
47.40945426407847 10.197000000000001
47.43377104948137 10.1729
47.45809010204344 10.1449
47.48260144275502 10.1137
47.506925052572285 10.0673
47.53125093475548 10.0871
47.55557909103813 10.0805
47.58009961361992 10.01
47.60443234110732 10.0062
47.62876734791564 10.0115
47.65310463578333 10.0019
47.6776343683373 9.994110000000001
47.7019762413987 9.920630000000001
47.72632040075572 9.92858
47.75066684815169 9.92148
47.77520581885936 9.90746
47.799556865477655 9.86346
47.823910205386 9.8996
47.84826584033272 9.87895
47.87281407745551 9.782639999999999
47.89717432569297 9.76389
47.92153687423484 9.814219999999999
47.94609208429692 9.78103
47.97045925671401 9.743319999999999
47.99482873471275 9.7481
48.01920052005013 9.7041
48.04376504619224 9.70015
48.068141469543484 9.70022
48.09252020552573 9.65564
48.11690125590099 9.68415
48.1414751266064 9.64564
48.16586082917454 9.58677
48.19024885144316 9.60416
48.2146391951793 9.61726
48.239222439012764 9.59078
48.26361744916137 9.569980000000001
48.28801478610016 9.54423
48.31241445160131 9.53817
48.337007097209366 9.510539999999999
48.36141144338331 9.47048
48.38581812345755 9.46472
48.41022713920929 9.479619999999999
48.434829215320704 9.45841
48.45924292604658 9.422310000000001
48.48365897780325 9.4102
48.50807737237308 9.37777
48.532688907799276 9.36743
48.55711201168574 9.34566
48.581537463754074 9.2853
48.60615611725119 9.323080000000001
48.63058628942721 9.2926
48.65501881516546 9.30057
48.6794536962573 9.26811
48.70408185970339 9.21992
48.72852147531801 9.22251
48.75296345168211 9.19155
48.77740779059232 9.20471
48.80204549302823 9.1979
48.82649458091802 9.16279
48.85094603676547 9.14521
48.87539986237231 9.097560000000001
48.90004713292306 9.09192
48.92450572200832 9.09496
48.94896668628025 9.09107
48.97343002754588 9.05364
48.99808689542115 9.06022
49.02255501470614 9.048060000000001
49.04702551642794 9.02882
49.0714984023988 9.00567
49.096164896893235 8.985389999999999
49.120642575466796 8.9576
49.145122643748394 8.907160000000001
49.16960510355558 8.91215
49.19428125404938 8.89229
49.2187685210852 8.89051
49.243258185121555 8.90746
49.26794160167084 8.87097
49.2924360839405 8.82161
49.31693296869764 8.817
49.34143225776915 8.80268
49.36612538195438 8.78283
49.39062950396021 8.76632
49.41513603578346 8.72746
49.4396449792564 8.71707
49.46434784069503 8.7073
49.488861631846454 8.6874
49.513377840166804 8.69865
49.537896467493745 8.68797
49.56260909589029 8.6114
49.587132585683285 8.61472
49.611658500018365 8.64184
49.636186840738596 8.58693
49.66090926588511 8.59566
49.685442483902584 8.5709
49.70997813385706 8.52685
49.734516217597076 8.486469999999999
49.75924846937352 8.49514
49.7837914452858 8.47144
49.80833686055187 8.4763
49.83288471702571 8.43827
49.85762682540054 8.43822
49.882179588965734 8.45373
49.9067347993235 8.45111
49.93129245833333 8.40512
49.95604445336378 8.37013
49.98060703442832 8.3589
50.005172069746266 8.33329
50.02993150438364 8.333639999999999
50.05450147301533 8.33037
50.07907390151433 8.29777
50.10364879174981 8.26628
50.12841816587289 8.266169999999999
50.1529980044635 8.276689999999999
50.17758031042124 8.26833
50.20216508562089 8.23804
50.22694442953363 8.25261
50.25153416817468 8.210939999999999
50.27612638170508 8.180719999999999
50.300721072005196 8.14763
50.325510416102105 8.14683
50.350110084975064 8.134789999999999
50.37471223628208 8.11308
50.39931687190919 8.12421
50.424116246675766 8.09368
50.44872587605249 8.04472
50.47333799543065 8.05743
50.49795260670191 8.03645
50.52276204271512 8.01056
50.54738166295838 7.97515
50.57200378079314 7.9813
50.596628398116835 7.99655
50.62144792604559 7.97355
50.646077567609396 7.9364300000000005
50.670709714377715 7.94354
50.69553683636198 7.910760000000001
50.72017401885922 7.88973
50.7448137122895 7.90307
50.76945591856022 7.86627
50.79429318636823 7.84426
50.818940443716784 7.8343
50.84359021965163 7.81492
50.868242516085964 7.779210000000001
50.893089960641895 7.77583
50.917747323549435 7.75565
50.94240721271973 7.7755
50.96706963007175 7.73791
50.99192728239342 7.746910000000001
51.01659478166073 7.69574
51.04126481489051 7.7058100000000005
51.06593738400761 7.66092
51.090805275207074 7.67617
51.11548294172845 7.63635
51.14016314993547 7.6492
51.164845901758845 7.63813
51.18972406304274 7.62052
51.21441192780656 7.575939999999999
51.23910234200271 7.5530100000000004
51.2637953075678 7.55858
51.288683770237945 7.53545
51.31338186432707 7.54542
51.33808251561888 7.521960000000001
51.362978729967345 7.52268
51.387684521509755 7.527660000000001
51.41239287610203 7.455239999999999
51.437103795691165 7.4610199999999995
51.46201036644977 7.43145
51.486726441956634 7.42127
51.51144508832545 7.348210000000001
51.536166307509156 7.36145
51.56108326624387 7.36269
51.58580965706056 7.39507
51.61053862657523 7.37188
51.635270176746864 7.34877
51.66019755512065 7.344119999999999
51.68493429268881 7.288989999999999
51.70967361681515 7.27721
51.73441552946465 7.2687800000000005
51.759353359237934 7.23958
51.7841004750961 7.2795
51.80885018539685 7.267580000000001
51.833602492111254 7.22116
51.8585508051424 7.2024
51.883308330926425 7.171760000000001
51.90806845906181 7.1980699999999995
51.932831191525715 7.1555100000000005
51.95779001977161 7.1529
51.98255798721516 7.15232
52.00732856494335 7.10467
52.03229530577543 7.06438
52.057071130455945 7.07228
52.081849571391054 7.05945
52.106630630568695 7.05911
52.13160794279417 7.033410000000001
52.15639426492067 7.04787
52.18118321127822 7.002330000000001
52.205974783860896 7.0056
52.23096269971011 6.96318
52.255759551287994 6.91268
52.280559035098186 6.94773
52.30536115314103 6.9371
52.33035970494467 6.9184399999999995
52.35516711807904 6.915089999999999
52.37997717147198 6.87247
52.40478986713005 6.8639600000000005
52.42979908731974 6.83765
52.454617094216 6.87202
52.47943774942214 6.84523
52.50426105495102 6.84987
52.529280976059844 6.81203
52.554109609024096 6.80157
52.57894089837482 6.78242
52.60377484613117 6.774539999999999
52.62880550079408 6.76245
52.65364479223379 6.74965
52.67848674816189 6.72435
52.70352547971946 6.70655
52.72837279155837 6.7190199999999995
52.753222773982785 6.68727
52.778075429022984 6.65125
52.80312495150885 6.65229
52.827982978797436 6.6380300000000005
52.85284368481815 6.5815399999999995
52.87770707160767 6.578180000000001
52.90276741793998 6.59743
52.92763619336701 6.6017399999999995
52.952507655698504 6.55987
52.977381806977576 6.54991
53.00245301017842 6.52689
53.02733256653592 6.5042
53.052214817996074 6.57193
53.077099766608484 6.51627
53.102181859804446 6.45769
53.127072229988265 6.49067
53.15196530349892 6.482880000000001
53.17686108239249 6.40477
53.20195409881522 6.45095
53.22685531582556 6.4078599999999994
53.25175924441303 6.40388
53.27666588664027 6.38397
53.30176985962693 6.4290199999999995
53.3266819565689 6.38774
53.35159677336455 6.36644
53.376514312083096 6.36832
53.40162927507703 6.33438
53.42655228516116 6.342890000000001
53.45147802340193 6.28659
53.47660125628886 6.25373
53.50153247842639 6.26655
53.52646643496923 6.2485
53.55140312799818 6.29355
53.576537409691696 6.23869
53.60147960336152 6.2036
53.626424539786164 6.23073
53.65137222105307 6.17741
53.67651758529126 6.18989
53.70147078399681 6.16212
53.72642673383343 6.1596400000000004
53.75138543689533 6.16427
53.776541917524526 6.14386
53.801506154876755 6.1186
53.826473151763246 6.06324
53.851442910284916 6.00729
53.87661054126026 6.01122
53.9015858509782 6.03383
53.92656392866066 6.0197400000000005
53.95154477641532 6.06959
53.976723591801296 5.99529
54.00171000771266 6.01852
54.02669920004598 6.01644
54.051691170915745 5.96673
54.076881204886796 5.96195
54.101878760928514 5.97318
54.12687910187696 5.92663
54.152077577768296 5.91996
54.1770835166946 5.90836
54.20209224691339 5.88734
54.22710377055121 5.86639
54.25231352511594 5.8834599999999995
54.27733066384342 5.864
54.30235060239643 5.84826
54.32737334290836 5.8156
54.35259441062629 5.76888
54.377622783395324 5.7895
54.40265396455061 5.7769
54.42768795623251 5.75294
54.45292037169559 5.73259
54.477960012857906 5.7335400000000005
54.50300247099511 5.70349
54.52804774825457 5.699330000000001
54.55329154616743 5.6432400000000005
54.57834249018678 5.660159999999999
54.6033962597977 5.58831
54.6284528571545 5.63166
54.653708072335164 5.58919
54.67877035378786 5.542619999999999
54.70383546947698 5.580080000000001
54.72890342156389 5.57456
54.7541700889442 5.5096300000000005
54.77924374251975 5.46317
54.8043202390049 5.46073
54.82959552413022 5.43957
54.8546777351945 5.44661
54.87976279569621 5.387630000000001
54.90485070780914 5.39197
54.930137506558005 5.35891
54.95523115074295 5.37225
54.98032765308844 5.36273
55.005427015775496 5.31735
55.03072536339621 5.32182
55.05583047570572 5.26306
55.080938454927676 5.295640000000001
55.10604930325027 5.26713
55.131359235107396 5.26005
55.15647585066083 5.21465
55.181595341907496 5.1354
55.20671771104285 5.14466
55.232039262617704 5.15447
55.25716741665048 5.1428400000000005
55.28229845518636 5.11142
55.30743238042802 5.0693
55.33276558731939 5.08018
55.357905315183636 5.045
55.383047936390035 4.9896400000000005
55.40819345314859 4.98042
55.433538351073295 4.99271
55.458689688238415 4.974
55.483843927614096 4.9389199999999995
55.509197623043605 4.9173599999999995
55.53435769621134 4.87625
55.55952067826466 4.86724
55.5846865714265 4.84964
55.61005202069737 4.86806
55.63522376553902 4.79971
55.66039842818645 4.7317599999999995
55.68557601087004 4.75057
55.7109532500271 4.6950400000000005
55.73613670233794 4.7573
