TT I
1.2716486653135266 7.2753
1.2939594142134223 7.10991
1.3162702121660406 6.085369999999999
1.3385810600174564 5.8695699999999995
1.3608919586137629 6.239380000000001
1.383202908801069 5.97009
1.405513911425503 5.6117
1.4278249673332093 5.75902
1.4501343378461518 5.463830000000001
1.4724455028545926 5.5906
1.4947567236847858 5.9656
1.517068001182951 5.91207
1.5393793361953272 5.51379
1.5616907295681737 4.08073
1.5840021821477681 4.51359
1.60631369478041 5.1646
1.6286252683124185 5.22072
1.6509369035901333 4.39649
1.6732468618895553 4.28024
1.695558623192809 4.1662300000000005
1.7178704487808514 4.72168
1.7401823395001077 4.11254
1.7625012545597203 4.2807
1.7848028405262486 4.25065
1.8071218901122095 4.08121
1.8294236121921872 4.2363800000000005
1.8517427996910911 4.40729
1.8740620574440425 3.90596
1.8963639900671978 3.91155
1.9186833908139995 4.29553
1.9409854680117449 4.91175
1.9633050151394713 4.4181
1.9856246367570705 3.88595
2.0079269371922672 3.9558199999999997
2.03024671027244 3.95488
2.0525491637446027 3.97436
2.074869091674931 4.182930000000001
2.097171701569106 4.4989
2.1194917877373847 4.25102
2.141811954326636 3.94259
2.164114805233074 4.35389
2.186435135143035 4.599069999999999
2.208738150935709 4.83522
2.231058647554722 6.3503300000000005
2.2533792288321184 6.2640199999999995
2.275682498336085 4.92456
2.298003251406138 5.11383
2.3203066942619714 5.00402
2.3426276225136022 4.73003
2.3649486396617507 5.166930000000001
2.387252348930071 5.9259699999999995
2.4095735463442893 5.60272
2.4318774374315884 5.90486
2.4541988185014043 5.88889
2.476502894794693 7.0114600000000005
2.498824462909887 7.10279
2.521146125856138 6.70217
2.5434504863470337 7.128480000000001
2.5657723414244717 7.805219999999999
2.588076895590662 8.35722
2.610398946189713 7.79219
2.6327210958598384 8.58005
2.6550259469304716 7.90877
2.6773482972090137 7.7229
2.6996533504259 8.36559
2.7219759047039602 8.79827
2.744298562293959 8.30006
2.7666039251246595 7.84698
2.7889267918020164 7.95452
2.8112323652516555 8.16902
2.833555444408179 8.31197
2.8558786311183852 8.26424
2.8781845268938557 8.98245
2.9005079311721484 8.57565
2.9228140460410397 9.05925
2.9451376712799635 9.74237
2.967444008632326 9.77175
2.9897678582247247 9.803339999999999
3.0120918213106695 10.3786
3.0343984987899373 10.5437
3.0567226913198637 10.9741
3.079029599759726 11.3705
3.101354025127254 12.0678
3.123678568232338 12.2847
3.145985829517914 12.535
3.16831061055229 13.243
3.1906181112775593 13.6349
3.212943133635653 14.3178
3.2352682779763207 14.523
3.2575761442691227 14.7046
3.2799015350264273 14.9101
3.302209649240067 15.6568
3.3245352898092655 16.1754
3.3468436553365257 16.4527
3.369169549113219 16.8837
3.3914955708171384 17.5371
3.413804319727358 17.9143
3.4361305997334863 18.1429
3.4584396084414553 18.3686
3.4807661501462652 19.3514
3.503092824025881 19.9834
3.5254022288463154 19.9588
3.5477291695206588 20.2577
3.5700388426251948 20.8519
3.5923660534916446 21.243000000000002
3.6146934007816114 22.5176
3.637003482731501 27.3908
3.6593311053109985 29.8494
3.681641464033634 26.6684
3.7039693653009733 24.1698
3.726297407241705 23.8198
3.7486081875460804 24.1082
3.7709365132734978 24.4453
3.793247578841633 25.1506
3.8155761917550093 24.9608
3.8378875459837216 25.5395
3.8602164494827234 26.2863
3.882545499606844 27.0343
3.9048572932539183 27.3637
3.9271866390645718 27.2377
3.9494987298666713 28.0191
3.971828374764527 28.8797
3.9941581705403255 28.9737
4.016470713506008 29.5594
4.038800813471445 30.3015
4.061113662089144 30.9284
4.0834440696459176 31.4515
4.105774632334751 31.9197
4.128087945865126 32.5735
4.150418821249301 33.3667
4.172732448931298 33.9853
4.195063640413578 34.3129
4.2173775856475215 35.3483
4.239709096631102 37.3353
4.262040768704612 51.8497
4.284355196706267 63.8535
4.306687193387355 56.5435
4.329001947444346 44.4399
4.35133427213731 40.7904
4.373666762177566 40.6232
4.395982011761091 41.0318
4.418314834921175 41.5622
4.44063041906622 43.0831
4.4629635787515625 44.8078
4.4852969080429785 46.5123
4.5076130004776225 46.2132
4.529946671403969 46.3747
4.552263106909177 47.5174
4.574597122877047 48.8258
4.596931312711224 49.983000000000004
4.619248269273446 50.6138
4.6415828092605835 51.387
4.663900117405352 52.6565
4.686235010953232 53.9398
4.708552674085913 55.0567
4.730887924602802 56.5982
4.753223354952695 58.3351
4.775541557023902 59.5468
4.797877349456786 60.6661
4.820195915032126 62.8025
4.842532072957498 64.38
4.864868414979744 65.9645
4.88718753227192 67.7419
4.909524244902505 69.8863
4.931843734218147 71.6805
4.954180820867835 74.2686
4.976518095879839 77.0589
4.998838149695359 79.3572
5.021175803844231 83.089
5.043496238205739 85.5418
5.065834274903528 89.325
5.088172504230693 93.5283
5.1104935158799565 97.7967
5.132832132875765 105.251
5.155153533596801 117.978
5.1774925416746225 137.842
5.199814334878411 230.248
5.2221537374521505 799.475
5.244493338631803 2488.99
5.266815727034316 7159.2
5.289155727832427 13619.9
5.311478517248165 9602.06
5.333818921080011 3338.27
5.356159527788849 687.63
5.3784829252032536 210.328
5.400823940070432 145.66899999999998
5.423147747031976 123.811
5.445489173474152 113.804
5.467830807066149 107.943
5.490155234831516 104.45
5.512497285125229 101.296
5.534822130975162 99.8179
5.557164601388673 97.3689
5.579489868738879 94.4381
5.601832762690846 93.4113
5.6241758697774475 92.1961
5.646501775867269 91.5114
5.668845311622074 90.0712
5.691171647754637 89.3395
5.713515615597765 89.1281
5.735859800852677 88.2709
5.758186788542988 87.1752
5.780531411018185 86.9519
5.802858837297399 86.546
5.825203900414495 86.215
5.8475491852224 86.1359
5.869877275883075 86.986
5.892223006467101 88.0367
5.914551544266608 88.8422
5.936897724049891 91.0254
5.959244129804903 95.3232
5.981573344815301 106.745
6.0039202049061 162.985
6.026249875609095 394.04900000000004
6.04859719346037 888.0189999999999
6.070927323278297 2059.29
6.093275102315365 4576.39
6.115623113320588 5599.43
6.137953938319995 3633.92
6.160302415650845 1086.61
6.182633708324452 241.255
6.2049826554078376 109.37100000000001
6.227331838745022 87.3966
6.249663839443684 79.9227
6.27201349767565 76.0075
6.294345974611799 74.1613
6.316696111167083 73.6375
6.339046488263839 72.1265
6.361379686074702 69.0258
6.383730546639482 66.5677
6.406064229255215 64.8009
6.428415576718203 64.8336
6.450749747566656 63.6071
6.47310158535871 62.4873
6.495453669698332 61.861999999999995
6.517788579421056 61.5852
6.540141159237969 60.3104
6.562476565766648 59.6945
6.5848296444934045 59.0587
6.607182974060425 58.2659
6.6295191323281015 57.8028
6.651872965955752 57.3762
6.6742096296068985 58.5401
6.6965639707294615 62.6912
6.71891856698715 64.1563
6.741255995248479 60.1467
6.763611104154477 56.531000000000006
6.785949046381137 55.2448
6.808304671371482 54.761
6.8306605557940046 54.4563
6.852999275508618 53.6614
6.875355681171544 53.816
6.897694923437771 53.6128
6.92005185377892 53.4405
6.9423916220322655 52.995
6.964749080490181 52.6776
6.987106804399774 52.5313
7.009447368180821 52.3464
7.031805625367033 52.2566
7.054146723727803 51.7422
7.076505517631004 52.0066
7.098864581288365 52.2191
7.121206488070854 51.8298
7.143566093607822 51.457
7.165908543567245 51.4618
7.188268694426048 51.52
7.2106291193438095 51.3237
7.232972390625943 51.2608
7.255333366030969 51.9463
7.277677189091925 55.766999999999996
7.300038718428332 61.6307
7.322400526130865 61.6618
7.344745183422596 55.8312
7.367107550224791 51.9855
7.389452767901992 51.7323
7.411815697249891 51.8211
7.434161478756298 51.4196
7.456524974096713 51.0948
7.478888753837185 51.4489
7.501235387657368 53.0044
7.523599738562711 58.0643
7.545946944825532 68.501
7.568311870344528 72.5902
7.5906770845765665 65.257
7.613025156078678 56.4551
7.635390950099687 53.7573
7.657739602662809 52.7862
7.680105979923558 52.818999999999996
7.702472650212829 53.1412
7.724822180948224 53.2512
7.747189439655568 53.0956
7.769539560075357 53.0551
7.791907410653562 53.6809
7.81425812420825 53.3449
7.836626570110925 53.8257
7.858995315087906 54.5978
7.881346924933401 54.6563
7.903716270417482 55.3231
7.926068482028405 55.766000000000005
7.948438431475253 56.0373
7.9708086843180235 56.6681
7.993161805171116 57.3108
8.015532667162402 57.8723
8.037886398416653 58.7943
8.060257873014221 58.8282
8.082629655331942 59.3899
8.104984308787587 60.3804
8.127356708900503 61.0819
8.149711981398308 62.3142
8.172085002766314 63.3064
8.194458336181368 64.0853
8.216814543847752 64.7031
8.23918850371002 65.8233
8.26154533906492 66.8375
8.283919928836452 68.3579
8.306277395339652 69.2303
8.328652618483376 70.4457
8.351028159736202 72.3205
8.373386579575245 74.3295
8.395762759396959 75.4287
8.418121819038275 77.6685
8.440498640894003 81.4843
8.462875785192262 86.50299999999999
8.485235811156207 94.3766
8.507613602688501 128.025
8.529974277114228 227.55200000000002
8.552352719347912 374.881
8.574731488360351 615.531
8.59709314210385 1098.41
8.619472567021075 1838.65
8.64183487789147 2286.74
8.664214962183097 1974.86
8.686577933647762 1118.46
8.708958680784317 415.653
8.731339760774953 171.25799999999998
8.753703729764451 109.18299999999999
8.77608547780821 95.12
8.798450116065078 91.1446
8.820832535634787 88.8403
8.843215292401656 87.1481
8.865580941199045 85.6343
8.887964374703538 84.4314
8.910330701447199 83.9768
8.932714815164482 83.5206
8.955099270424924 82.5676
8.977466620733543 81.8675
8.999851761421976 81.3612
9.022219798361645 80.4792
9.04460562795561 80.2822
9.066991803441677 79.6769
9.089360876979615 79.3463
9.111747746589993 79.54899999999999
9.13411751544971 79.0532
9.156505082664324 79.142
9.178875550323522 79.8044
9.20126381862328 81.6891
9.223652438908596 90.9397
9.246023961427412 105.905
9.26841328802173 112.661
9.290785518039224 102.469
9.313175554425882 89.0878
9.335565947154315 81.8792
9.357939245086508 80.1953
9.380330352834827 79.7336
9.40270436697103 80.0506
9.425096193225055 80.0511
9.447488380180165 80.63600000000001
9.469863475295412 80.6615
9.492256385987508 81.1546
9.514632206018318 81.3986
9.537025843935714 81.8423
9.559402392368193 82.3532
9.581796761000229 83.5995
9.604191496441521 83.8946
9.626569144158516 84.2167
9.648964615551032 85.6785
9.671343000390081 86.439
9.693739211225699 87.0907
9.716135793237463 87.76100000000001
9.738515290448102 88.6762
9.760912617143402 89.65100000000001
9.783292860202891 90.6158
9.805690935076182 91.9567
9.828089385495742 92.5835
9.850470754023561 94.1222
9.872869957865444 96.0838
9.89525208097539 99.0866
9.917652041736662 102.82
9.940052382417589 106.065
9.962435644102392 115.12200000000001
9.984836746950979 147.11700000000002
10.007220771957746 227.697
10.029622640473708 349.316
10.052007432299963 518.154
10.074410069984072 775.168
10.096813093716005 1201.42
10.119199042482517 1782.4
10.141602840636468 2102.86
10.163989564971628 1708.67
10.186394141051062 1022.63
10.208799107559706 449.022
10.231187001965623 201.382
10.253592751657669 125.13
10.275981430388155 107.919
10.298387966769793 103.286
10.320794897965431 102.059
10.343184759907361 100.749
10.36559248305461 99.1752
10.387983138083852 98.2765
10.410391656691655 98.7987
10.432800574501677 107.744
10.455192425893369 129.621
10.47760214443012 162.357
10.499994797678786 203.487
10.522405320453982 272.395
10.54479877906917 384.86699999999996
10.567210109595656 509.602
10.5896218454736 590.128
10.612016518879773 564.496
10.634429067781074 399.63300000000004
10.656824555333241 229.232
10.679237920773568 140.685
10.701651695961992 103.499
10.724048411481384 92.5917
10.746463008485165 86.5534
10.768860546937125 82.4092
10.791275969274796 79.8027
10.81369180576079 78.8835
10.836090585366925 78.0731
10.858507252467449 76.8621
10.88090686379991 75.795
10.903324365036394 75.1257
10.925724811614439 73.671
10.948143150509463 73.3853
10.970561909719066 72.8255
10.992963615930844 71.7077
11.015383218085756 70.777
11.037785768347074 69.9985
11.06020621697282 69.6715
11.082627090322113 68.8119
11.105030913430326 68.2323
11.12745263854165 67.6895
11.149857314510728 67.3114
11.172279894912576 67.9047
11.194702904450653 67.2805
11.217108866490921 66.4414
11.239532736615194 65.8265
11.26193956033512 65.4736
11.284364294577085 65.0609
11.306789462371718 64.416
11.329197585398376 64.0074
11.351623622610898 63.8415
11.37403261614354 63.0897
11.396459526308487 63.2157
11.418869393879497 62.7594
11.441297180532617 62.4737
11.463725406927658 62.0387
11.486136592353875 61.6395
11.508565700543707 61.4191
11.530977768845315 61.5041
11.553407762368774 61.4987
11.575838200059769 61.3545
11.598251599479612 60.8757
11.620682927815501 60.6813
11.64309721895548 60.5246
11.665529441478206 60.2867
11.687962112597958 60.2331
11.710377748130886 60.163000000000004
11.732811318753434 60.2023
11.755227854859067 60.1831
11.777662328529495 60.1872
11.800079768750786 59.8686
11.822515149015453 59.8611
11.844950984084935 60.1536
11.867369787303163 59.8921
11.889806534289491 60.3424
11.912226250487029 61.9693
11.934663912939751 64.9625
11.9571020346363 67.9767
11.979523127133968 68.4162
12.001962169624331 66.467
12.024384183972964 63.8104
12.046824150809913 64.304
12.069264581333726 69.4279
12.091687985297767 76.8679
12.11412934550045 86.5674
12.136553680195208 99.19200000000001
12.158995973632788 120.51899999999999
12.181438735204349 146.79
12.20386447284199 179.378
12.226308172985636 203.765
12.24873485024193 212.362
12.271179492516982 176.862
12.293607112949127 136.886
12.316052700916226 97.7251
12.338498763250042 74.2711
12.360927805303868 64.8978
12.383374818673879 62.3763
12.405804812803074 61.4579
12.428252780773262 61.3224
12.45070122756722 61.4036
12.473132656675375 61.3024
12.49558206341869 61.6377
12.518014453510101 61.4088
12.540464823770117 61.3656
12.562915677315177 61.6705
12.58534951575545 61.8929
12.607801338171472 62.0001
12.630236146511358 62.7251
12.652688941369085 63.6256
12.675124723177234 64.1267
12.697578494048786 64.3413
12.720032754458185 64.0879
12.742470003354093 64.42399999999999
12.764925245138771 64.6624
12.787363476431278 65.0926
12.809819703166806 65.3275
12.83227642391173 66.0158
12.854716135692716 66.2594
12.877173846755147 67.7844
12.899614549869717 67.8638
12.9220732548287 69.0348
12.94453245827299 69.226
12.966974655289818 70.3965
12.989434858002571 71.074
13.011878055298721 71.6476
13.034339260862497 72.6784
13.056800969391883 74.2507
13.079245674017244 76.7133
13.101708390774869 78.2796
13.12415410463411 82.2121
13.146617833206086 92.4108
13.169064559883248 107.848
13.191529303857127 126.096
13.213994557076367 148.524
13.236442809902437 181.429
13.258909083908291 229.294
13.28135835851934 292.94599999999997
13.30382565690295 369.457
13.326293469022952 435.93
13.348744283242008 451.603
13.371213125129904 383.31300000000005
13.39366497011003 282.149
13.416134845360597 185.34799999999998
13.438605238843131 128.063
13.46105863690397 102.431
13.483530069144786 99.1816
13.505984506951902 107.182
13.528456981549432 120.354
13.550929978879088 135.734
13.573385983253365 157.0
13.595860028340867 189.826
13.618317081455832 237.535
13.64079217790333 297.746
13.663250283359057 356.38699999999994
13.685726434770173 391.72
13.708203115221277 363.55699999999996
13.730662806148091 289.014
13.75314054697177 206.28799999999998
13.775601299246777 138.164
13.798080104050406 100.79
13.820559442405358 84.8656
13.843021793671388 79.5267
13.865502201420897 77.6345
13.887965623051947 77.1877
13.910447103807167 76.1153
13.932929122629764 74.7024
13.955394156785959 74.5417
13.977877254034569 73.5365
14.000343367582113 72.6611
14.022827546871707 72.0692
14.045294743423524 71.5817
14.06778000837062 70.8296
14.090265817715476 71.071
14.112734645763819 71.8722
14.13522154619454 73.2702
14.157691466286913 75.0329
14.180179461423874 75.2669
14.202668005486178 73.3379
14.22513957064374 70.7436
14.247629214846473 68.9904
14.270101881097517 67.8423
14.29259262906496 67.6563
14.315083930490205 67.6874
14.337558255389705 67.3436
14.360050666019726 67.2844
14.382526101071944 66.7477
14.405019624534942 66.5033
14.427513705993134 66.2664
14.449990813291825 66.5406
14.47248601302899 66.3112
14.49496423954951 66.6675
14.517460561197822 66.6007
14.539939910570322 66.1822
14.562437357763558 66.4211
14.58493536931253 66.6467
14.607416409993311 66.9309
14.62991555254159 67.0575
14.652397725157423 67.3752
14.674898002342799 67.3568
14.697398848433282 67.5463
14.719882725991326 68.2394
14.74238471217934 68.4693
14.764869730765593 70.4523
14.787372860692983 74.4404
14.809876564079925 81.1893
14.83236330125751 89.0304
14.854868153850365 97.8674
14.877356041159485 110.387
14.899862046604186 126.265
14.922351087688757 148.855
14.944858249632887 178.872
14.967365991421232 208.852
14.989856770231246 229.718
15.012365673994204 229.648
15.03485761569738 202.27700000000002
15.05736768508665 161.037
15.07987833888692 122.266
15.102372032001655 94.1779
15.124883856909658 77.7228
15.14737872204565 71.196
15.169891721717274 68.8717
15.192405310371893 68.2397
15.214901940621196 67.6035
15.237416709527137 66.7015
15.259914520936249 66.4997
15.282430473753607 65.8522
15.304947020131227 65.1867
15.327446610371178 64.9993
15.349964346154254 64.7272
15.372465126703139 64.5458
15.394984055556009 64.3747
15.417486030076159 64.2337
15.44000615566487 63.8952
15.462526881230803 63.8441
15.485030653812652 63.6195
15.507552581617434 63.5405
15.530057557334603 63.5314
15.55258069104857 63.5139
15.575104429329837 63.6575
15.597611216864632 63.6348
15.620136166564563 63.5943
15.6426441664095 64.018
15.665170331202765 65.0644
15.687697105158826 68.3268
15.710206930593545 73.9791
15.732734925158933 79.5452
15.755245972089478 86.7215
15.77777519094324 95.0003
15.800287463046663 105.978
15.822817909869592 122.68799999999999
15.84534897229804 143.947
15.867863089299354 169.614
15.890395385222186 191.43099999999998
15.912910736597423 203.31099999999998
15.935444269699861 194.748
15.957978423016485 169.96
15.980495633101265 134.665
16.003031029129367 105.154
16.02554948280019 81.798
16.048086125229432 69.737
16.070623392487107 65.0415
16.09314371869582 62.8542
16.11568223789321 61.2231
16.13820381691126 60.1132
16.160743591742527 59.1326
16.183283996022084 58.5038
16.205807461423195 57.5546
16.228349126881973 57.0064
16.25087385432698 56.9104
16.27341678466365 56.2976
16.29594277784926 56.0888
16.31848697676433 55.8006
16.341031811604868 55.3009
16.36355971058487 55.1181
16.3861058195587 55.1241
16.40863499352978 54.633
16.431182380342005 54.425
16.453730407713202 53.9875
16.476261501364792 53.6982
16.498810812136167 53.6141
16.52134319004079 53.7454
16.54389378792203 53.4045
16.566445031001553 53.42100000000001
16.588979342490088 53.266000000000005
16.61153187824822 53.1559
16.634067483263312 52.9422
16.656621315414416 52.7982
16.679175797408888 52.6987
16.701713349928728 52.6972
16.72426913389191 52.806999999999995
16.74680798922351 52.9258
16.76936507887444 52.7884
16.791905240734874 52.6993
16.814463639794468 52.7185
16.837022695210294 52.7992
16.859564824093756 52.9915
16.882125194503903 53.16
16.904668639217885 53.6523
16.927230328348003 53.818000000000005
16.949792678493612 54.163000000000004
16.972338104193863 54.0912
16.994901778652235 53.9469
17.017448529496576 53.871
17.040013531998152 53.8027
17.06257920018044 54.0571
17.0851279459922 54.9
17.107694947817667 56.0639
17.130245028099072 57.2618
17.15281336730298 58.6449
17.17536478578733 60.1288
17.19793446610687 62.1391
17.220504818648422 64.8285
17.243058251703697 67.8487
17.265629950971032 72.4922
17.288184731571736 77.1523
17.310757781306908 82.2679
17.33333150794385 83.3542
17.355888317140174 82.8651
17.37846339986244 78.9129
17.401021565958885 72.5116
17.42359800851343 66.1897
17.44617513265564 61.4547
17.468735341390783 58.9512
17.491261035594565 57.5285
17.51396340099364 57.1462
17.536490463869136 57.1683
17.559018209820174 57.0897
17.58154663977963 57.3927
17.604251766089718 57.4221
17.626781572227713 57.8779
17.64931206518155 57.8663
17.671843245885103 58.2883
17.69455114821572 58.3723
17.717083712612634 58.8231
17.739616967569667 59.4728
17.762150914021706 59.9449
17.78486160749854 60.2981
17.807396945166804 60.9183
17.829932977143503 61.333
17.85246970436452 61.8286
17.875183204129467 63.5711
17.897721330097664 66.5358
17.920260154126645 69.818
17.942799677153296 73.5698
17.9655159983646 77.4437
17.988056927677544 82.3241
18.010598558807683 88.8161
18.033140892692916 97.9693
18.05586005052525 109.556
18.07840379824407 121.40899999999999
18.10094825154059 133.56799999999998
18.12366954819864 142.839
18.146215420998306 144.751
18.16876200220057 138.292
18.191309292745153 124.05799999999999
18.214033452627167 109.132
18.236582170236648 96.0294
18.259131600016456 88.5114
18.281681742907335 86.1796
18.304408781233683 89.3645
18.32696035875955 94.3088
18.349512652227624 99.69
18.372065662579683 105.492
18.394795594587553 107.723
18.41735004715306 104.913
18.43990521943684 99.1855
18.46246111238171 89.4514
18.485193953325208 79.2121
18.507751296070428 71.0419
18.530309362314178 65.8865
18.552868153000343 63.0281
18.57560391815056 61.2266
18.59816416623245 60.8313
18.620725141597372 60.208
18.643286845190268 59.4664
18.666025549835414 59.053000000000004
18.688588718427933 58.2078
18.711152618092243 58.1413
18.73389353884365 57.7561
18.75645890921984 57.3942
18.77902501351406 57.1973
18.801591852673102 57.2493
18.824335739722738 56.6916
18.846904057212626 56.5881
18.8694731124168 56.3078
18.89204290628315 56.3214
18.914789774966803 56.2314
18.937361054791623 55.7797
18.959933076131318 55.4964
18.982505839934877 55.5587
19.00525570560582 55.303000000000004
19.027829963004184 54.9687
19.05040496572238 55.22
19.072980714710468 55.1139
19.095733592739563 55.2417
19.11831084296757 55.3933
19.140888842324735 56.0078
19.16346759176222 56.4398
19.18622349753803 57.153999999999996
19.208803755869358 58.0605
19.231384767143577 59.2901
19.253966532312948 60.8802
19.276725481241822 63.0287
19.29930876296784 65.5517
19.3218928014549 68.9959
19.34465404436217 72.1326
19.36723960516257 74.9
19.389825925592426 76.3478
19.412413006605938 75.44
19.43517731967805 72.6213
19.457765930683355 68.1175
19.48035530514408 63.483000000000004
19.50294544401556 59.3403
19.525712842708348 56.2901
19.54830451925909 54.4622
19.570896963095727 53.0776
19.593490175174704 52.5404
19.616260674962184 52.4548
19.638855432416964 52.1591
19.661450960992624 52.4192
19.68404726164677 52.0952
19.706820878021247 51.8635
19.729418731756834 52.0824
19.752017360452857 51.7969
19.77461676506804 51.9525
19.797393513540218 52.0145
19.819994478951667 52.336000000000006
19.84259622316767 52.926
19.8651987471481 53.3577
19.887978643247177 53.7904
19.91058273574792 54.3759
19.933187610901943 55.1158
19.955969879466828 56.1896
19.97857632894404 57.6927
20.00118356396599 59.1719
20.023791585494575 61.0579
20.046577028914875 63.8712
20.069186632506966 66.5181
20.091797025500632 69.1518
20.114408208858933 70.7183
20.137196842715273 70.875
20.159809615886765 69.3491
20.18242318232135 66.9869
20.20503754298326 64.2811
20.227829382875154 62.6404
20.250445341109344 62.0178
20.27306209647285 62.3355
20.29567964993108 63.6193
20.31847471147704 64.8279
20.34109387027612 65.8573
20.363713830075454 65.6315
20.386334591841646 64.3023
20.409132890679302 61.7076
20.431755265564437 58.4403
20.454378445325528 55.2395
20.477002430930366 52.8329
20.499803982716553 51.1218
20.522429589228004 50.0029
20.54505600449589 49.4198
20.567683229489194 49.4594
20.590488049900088 49.0883
20.61311690359731 48.7827
20.63574656993626 48.7783
20.658553853717297 48.3559
20.681185154618298 48.3716
20.703817271080066 48.2474
20.72645020407368 47.9465
20.749260783967177 48.1478
20.771895359337133 48.1381
20.794530754161617 48.1502
20.817166969412938 48.06
20.83998086114876 47.8345
20.86261872660049 47.6585
20.885257415405402 47.5591
20.90789692853701 47.4706
20.930714147864748 47.2671
20.953355319030678 47.3453
20.97599731745334 47.3838
20.99864014410749 47.4126
21.021460706796564 47.5795
21.044105199328826 47.6099
21.06675052302631 47.9693
21.089396678865015 48.0783
21.112220600704806 48.262
21.134868430275347 48.5397
21.15751709492456 48.9029
21.180166595629693 49.2671
21.202993892429635 49.6341
21.22564507473034 50.2334
21.24829709602816 50.5665
21.27112693608965 50.5849
21.293780644891275 50.6005
21.316435195634053 50.1355
21.339090589297417 49.2424
21.361923832041875 48.6589
21.384580921090404 47.9415
21.407238856007325 47.4234
21.429897637773326 47.44
21.45273429906592 47.4784
21.475394784108598 47.3473
21.498056118951983 47.2128
21.520718304578022 47.4817
21.543558400304388 47.5643
21.566222297108816 47.5399
21.58888704765135 47.5468
21.61155265291521 47.7808
21.63439619898156 48.6493
21.657063523335786 48.9733
21.67973170537063 49.7035
21.7024007460706 50.1719
21.72524775840385 50.9019
21.747918526116475 51.9856
21.770590155457388 53.0082
21.79326264741238 54.1921
21.816113141960237 56.0234
21.838787368860547 58.3574
21.861462461341976 60.3882
21.884315579735777 62.9141
21.90699241312273 64.7117
21.92967011506078 65.2868
21.95234868653799 65.3915
21.9752053151131 64.2554
21.997885635446785 62.1602
22.020566828293532 60.0339
22.04324889464272 58.1401
22.066109049404666 56.4751
22.088792872571794 55.918
22.111477572219204 55.9817
22.1341631493376 56.0931
22.157026846313123 56.1813
22.179714188221507 55.3867
22.202402410582668 54.4893
22.22509151438863 52.724
22.24795876962584 51.3069
22.270649646204486 50.0389
22.293341407213727 49.0851
22.316034053646906 48.54600000000001
22.338904883215342 47.9253
22.36159931041458 47.8591
22.38429462602756 47.7566
22.40699083104897 47.6331
22.429865251039757 47.5503
22.452563244831367 47.7513
22.47526213102522 47.7067
22.49813925616515 47.6401
22.520839937143307 47.5701
22.543541513520587 47.5455
22.56624398629403 47.4985
22.589124730075895 47.5515
22.611829005656723 47.5625
22.63453418063466 47.718
22.657240256008077 47.7111
22.680124634582935 48.042
22.70283252079775 48.3815
22.725541310413075 48.7304
22.74825100442868 48.9044
22.771139033969575 49.7237
22.79385054687155 50.0552
22.81656296718292 50.5291
22.83927629590484 51.2752
22.862167992606945 52.1974
22.88488314827121 53.5033
22.907599215359284 54.4158
22.93031619487366 55.8308
22.953211574954405 56.923
22.975930389478226 57.7941
22.998650119445763 58.2685
23.02137076586092 57.6123
23.044269845560063 56.336000000000006
23.06699233506288 54.7425
23.089715744034912 52.6332
23.112617610931565 51.0915
23.135342869061212 49.6472
23.158069049684816 48.4604
23.1807961538087 47.9795
23.20370174880544 47.8714
23.226430710184808 47.7359
23.249160598093425 47.8186
23.271891413539002 47.7458
23.294800752937697 47.9284
23.31753343374794 48.3778
23.340267045128353 48.5422
23.36300158808808 49.1072
23.38591468821339 49.4257
23.408651104658304 49.9548
23.431388455719986 50.6359
23.454126742409 51.3019
23.4770436196085 52.1218
23.499783787914662 53.5009
23.522524894889884 54.8736
23.54526694154616 56.0315
23.56818761219047 57.2855
23.59093154860734 58.0141
23.613676427751283 58.6232
23.636422250635754 58.1862
23.659346731118656 56.5969
23.68209445191868 54.5352
23.704843119509587 52.0855
23.72759273490623 50.1803
23.750521041644767 48.4014
23.77327256312355 47.0007
23.796025035462787 45.979
23.818956224555475 45.38399999999999
23.841710609113413 45.3555
23.86446594758979 44.9804
23.887222241002014 44.7173
23.910157285144578 44.3804
23.932915498962537 44.3838
23.955674670778713 44.3742
23.978434801611975 44.0106
24.001373717286125 43.9202
24.024135776723917 43.8702
24.046898798245582 43.7197
24.06966278287146 43.6788
24.092605586582614 43.4835
24.115371508023642 43.2313
24.1381383956401 43.1092
24.16090625045381 43.019
24.183852958731244 42.8977
24.206622758582608 42.9361
24.229393528706886 42.7461
24.252165270127392 42.7254
24.27511589952438 42.7769
24.297889594216997 42.6128
24.32066426328598 42.4501
24.34343990775613 42.3978
24.36639447485003 42.3386
24.38917208083877 42.1639
24.41195066531332 42.2091
24.43490819850244 42.2282
24.457688750692377 41.9792
24.48047028445616 42.0739
24.503252800821233 42.2271
24.526214300784112 42.3244
24.548998793132213 42.3665
24.57178427117417 42.2467
24.59457073593893 42.2374
24.617536219319863 42.225
24.64032466834748 42.2825
24.663114107195035 42.0486
24.685904536893013 41.8676
24.708874020360852 41.7047
24.731666442613744 41.6397
24.754459858818787 41.4915
24.777254270007962 41.5502
24.80022777025625 41.4063
24.82302418230472 41.466
24.845821592443674 41.4026
24.86862000170663 41.3355
24.891597535453727 41.2725
24.914397953892728 41.4608
24.93719937456671 41.3927
24.96000179851076 41.5572
24.98298338249997 41.6275
25.00578782394922 41.9823
25.028593271784167 42.1219
25.05157790644186 42.4848
25.07438537804115 42.6309
25.097193859145293 43.0655
25.120003350792075 43.4601
25.142992065061257 43.7376
25.165803588823465 43.9331
25.18861612625217 44.2343
25.211429678386736 44.3178
25.234422489079968 44.513000000000005
25.257238081693636 44.5216
25.280054692141732 44.5875
25.3028723214652 44.4292
25.325869245420463 44.693000000000005
25.348688923599397 44.8375
25.371509623787006 44.7689
25.394331347025812 44.3788
25.41733240110666 43.9523
25.440156181590016 43.3663
25.46298098826268 42.754
25.48580682216873 42.1567
25.50881202326435 41.4376
25.53163992281684 41.0361
25.55446885274561 40.5656
25.577298814096377 40.1157
25.600308179121807 40.0665
25.623140214533745 40.0736
25.64597328451537 39.9944
25.66898578564376 39.7396
25.691820936010206 39.7632
25.714657124097695 39.7434
25.737494350954734 39.76
25.760511045684957 39.7137
25.783350361364224 39.8232
25.806190718969255 39.8256
25.82903211955018 39.9087
25.852053024868923 40.0426
25.874896522722523 40.0089
25.897741066713106 39.8905
25.920586657892454 40.03
25.943611790812668 40.214
25.966459487728237 40.3738
25.989308234998564 40.2637
26.01215803367705 40.7385
26.03518741123814 40.797
26.05803932412957 41.0192
26.080892291600094 41.0449
26.10374631470478 41.2742
26.12677995397268 41.4269
26.14963609978026 41.4383
26.172493304397875 41.0652
26.19535156888223 40.8472
26.218389486949604 40.4155
26.241249882640123 40.0988
26.26411134137826 39.7051
26.28715248187403 39.7935
26.31001607820869 39.4781
26.3328807407756 39.2816
26.35574647063438 39.551
26.37879191991473 39.4141
26.401659795896734 39.621
26.424528742360263 39.8291
26.447398760366614 39.7795
26.470448535598294 39.8501
26.49332070826805 40.1044
26.516193955675355 40.4028
26.53906827888316 40.6672
26.562122397260108 40.8647
26.584998883685063 41.3528
26.607876449110325 41.5465
26.63075509460056 41.8805
26.65381357334404 41.9171
26.67669439061878 42.1619
26.699576291163382 42.0266
26.722459276044212 41.9801
26.745522132402975 41.6059
26.768407297649354 41.2488
26.791293550442003 40.9112
26.814180891848974 40.6197
26.837248143099337 40.2305
26.860137673466657 40.1267
26.88302829566349 39.7924
26.90592001075963 39.7249
26.92899167420566 39.5312
26.951885586870763 39.0877
26.974780595655517 38.9069
26.99785558178161 38.8353
27.020752794605112 38.5402
27.043651106772522 38.3058
27.06655051935668 38.2389
27.089629948036183 38.2013
27.112531573292053 37.9356
27.135434302194138 38.1399
27.158338135817015 38.0337
27.181422024430987 38.0705
27.204328079372566 37.9454
27.22723524226965 37.9784
27.250143514198573 37.9262
27.273231880156334 37.9933
27.296142382065014 37.8268
27.319053996245536 37.7693
27.341966723775965 37.8123
27.365059584515222 37.763000000000005
27.38797455070062 37.8488
27.410890633481237 37.7408
27.433807833936918 37.8272
27.456905206923906 37.9466
27.47982465472398 37.9779
27.502745223449743 38.0653
27.525666914182825 38.2014
27.548768816912457 38.1708
27.571692763693633 38.0678
27.59461783573812 38.025999999999996
27.617723149491244 37.8285
27.640650484125285 37.716
27.66357894728264 37.5265
27.686508540048052 37.6348
27.709618414237887 37.494
27.732550278321757 37.3612
27.755483275279115 37.2627
27.778417406196485 37.3364
27.801531858397514 37.2545
27.824468269376716 37.207
27.847405817586786 37.262
27.870344504116094 37.4906
27.893463551932008 37.6314
27.916404527281053 37.8611
27.93934664422563 37.9073
27.962289903855886 38.0511
27.98541356491974 38.2374
28.00835912214229 38.5347
28.03130582533231 38.7896
28.054253675581805 39.014
28.077381967556104 38.8924
28.100332124185126 38.8323
28.123283431160893 38.9174
28.146235889577238 38.7784
28.169368830154156 38.6488
28.192323603752033 38.4216
28.215279532083304 38.068000000000005
28.238415973016764 37.7565
28.261374223145094 37.6691
28.284333631303806 37.4308
28.307294198589954 37.2141
28.330435319167677 36.8202
28.353398217078915 36.5197
28.376362277420153 36.3383
28.39932750129032 36.2039
28.422473319286713 36.0278
28.44544088262495 35.8268
28.468409612800283 35.7422
28.491379510913497 35.4621
28.51453004413313 35.4843
28.53750229057244 35.4247
28.56047570826344 35.2775
28.583450298308804 35.3169
28.606605564586562 35.1822
28.629582511831156 35.2264
28.65256063474956 35.0554
28.675539934446338 35.2069
28.698699951647605 35.1482
28.72168161743193 35.0641
28.74466446331978 34.959
28.767648490417624 34.8856
28.790813276438353 34.8286
28.813799678527303 34.8761
28.836787265157085 34.8807
28.859955641890075 34.8623
28.882945610203045 34.8827
28.905936766392035 34.7681
28.928929111566863 34.8394
28.952102288520145 34.7823
28.975097024308607 34.6605
28.998092952423807 34.4916
29.021090073977508 34.4587
29.04426806913204 34.4336
29.067267590245258 34.1989
29.090268308143695 34.0669
29.11327022394099 34.0123
29.13645305530891 33.9317
29.159457379627167 33.9889
29.18246290519685 33.8116
29.20546963313352 33.8393
29.22865731875826 33.9027
29.25166646419296 33.7235
29.27467681535305 33.6809
29.29768837335608 33.7054
29.320880931312562 33.7895
29.34389491580634 33.8105
29.366910110507334 33.7715
29.38992651653503 33.7671
29.41312396492981 33.8501
29.436142806456754 33.7484
29.45916286268059 33.6076
29.48236399319994 33.5387
29.50538649169417 33.3489
29.528410208259935 33.3598
29.55143514402014 33.0492
29.574641196749695 32.8531
29.597668583816574 32.7261
29.6206971934585 32.571
29.64372702680042 32.6847
29.666938019934474 32.5099
29.689970313635285 32.383
29.713003834422636 32.3988
29.73603858342347 32.4293
29.759254535188578 32.3068
29.78229175361658 32.3122
29.80533020365064 32.3401
29.82836988641968 32.2618
29.85159081507472 32.1615
29.874632976355343 32.1955
29.89767637376955 32.235
29.920721008448314 32.1821
29.9439469322847 32.1409
29.96699405457564 31.9135
29.9900424175358 32.1151
30.013092022298157 32.0716
30.03632295963995 31.9415
30.059375061131373 32.0258
30.08242840783577 32.0364
30.105483000888153 32.0117
30.128718970092244 31.9772
30.151776069006917 32.014
30.17483441768648 31.9828
30.198074175317235 31.8904
30.221135036724256 31.9982
30.24419715131772 31.9164
30.267260520236203 31.7138
30.290505341942243 31.796
30.313571232750228 31.9127
30.336638381310948 31.9048
30.35970678876503 31.781999999999996
30.38295669299435 31.7383
30.40602763151657 31.671
30.429099832366074 31.7427
30.452173296685572 31.6147
30.47542830191959 31.6937
30.498504306502497 31.5696
30.521581577995562 31.5896
30.544660117543582 31.7631
30.56792024229725 31.75
30.59100133132069 31.7705
30.614083691845494 31.7601
30.637167325018545 31.7382
30.660432587840603 31.9206
30.683518779717886 31.7784
30.70660624769615 31.9424
30.729694992924372 32.029
30.75296541239743 31.9312
30.77605672557558 31.8295
30.799149319462742 31.7659
30.8224236211637 31.7215
30.845518789950724 31.5331
30.868615242910597 31.6142
30.891712981195973 31.4457
30.91499247215866 31.2679
30.938092794619365 31.2606
30.96119440587579 31.2401
30.984297307082752 31.0148
31.00758200598383 30.8751
31.030687500658694 30.8679
31.053794288760695 30.8632
31.076902371446767 30.6976
31.100192296997445 30.7556
31.12330298246119 30.6646
31.14641496599209 30.5973
31.169528248749216 30.5881
31.19282341969534 30.5667
31.215939314557186 30.5969
31.239056512134788 30.6386
31.262175013589378 30.5128
31.28547544871168 30.451999999999998
31.30859657161541 30.3567
31.331719001892175 30.33
31.35484274070538 30.4868
31.378148458819545 30.5743
31.401274828443725 30.5153
31.424402510106933 30.6197
31.447712205419993 30.6665
31.470842524931633 30.5513
31.493974159989783 30.5227
31.51710711176168 30.467
31.54042212308802 30.4965
31.563557722100917 30.4328
31.586694641341655 30.2626
31.609832881979628 30.256
31.63315322823208 30.1619
31.656294125521327 30.000999999999998
31.679436347728515 29.982
31.70257989602529 29.8577
31.725905596152327 29.8369
31.74905181052835 29.7576
31.772199354521323 29.8109
31.79534822930507 29.8891
31.818679302290967 29.8987
31.84183085259981 29.8967
31.864983737233473 29.846
31.88813795736804 29.8316
31.911474422233013 29.7064
31.934631327356435 29.748
31.9577895715215 29.7474
31.980949155906522 29.837
32.004291031706956 29.7787
32.027453310562606 29.6281
32.05061693318573 29.4531
32.07396288236386 29.5715
32.09712920658542 29.5077
32.12029687812702 29.3162
32.14346589817093 29.2329
32.166817291729984 29.1795
32.18998902288583 29.0425
32.21316210610336 28.9496
32.23633654256711 28.9365
32.259693399663725 28.9144
32.282870556771144 28.8109
32.30604907069099 28.7808
32.329228942610065 28.7617
32.35259128243769 28.6254
32.375773884550505 28.5489
32.398957848235646 28.429000000000002
32.422143174682176 28.4534
32.445511016471215 28.3616
32.468699082679954 28.3363
32.49188851523011 28.3059
32.51507931531304 28.1763
32.538452678331 28.2498
32.56164622776311 28.1809
32.58484114831493 28.0862
32.60803744118015 28.0933
32.631416344731896 28.0575
32.654615396551876 27.9503
32.67781582427913 28.0341
32.701198898634416 28.0457
32.72440209253756 27.8703
32.747606665947124 27.9083
32.77081262006088 27.7277
32.79420126883317 27.7448
32.81740999876112 27.8046
32.840620112999424 27.7262
32.86383161274818 27.6975
32.88722585534586 27.6256
32.91044014056596 27.6778
32.933655814909734 27.651999999999997
32.95687287957963 27.7334
32.98027273544904 27.5554
33.00349259526636 27.5248
33.026713849030116 27.6189
33.04993649794511 27.4255
33.073341986570746 27.4338
33.09656744032826 27.3928
33.11979429286444 27.4587
33.14302254538647 27.4443
33.166433686291185 27.3703
33.18966475336992 27.3963
33.212897224069096 27.4212
33.23613109959831 27.2775
33.259547912343415 27.2197
33.2827846121627 27.2887
33.306022720453775 27.2278
33.32926223842861 27.0819
33.352684742614166 27.0825
33.37592709463173 27.1376
33.399170859982064 27.0032
33.422597648419426 26.9704
33.44584425514446 26.8453
33.46909227885668 26.7894
33.4923417207723 26.6805
33.51577423505344 26.714000000000002
33.539026528130385 26.6156
33.56228024307245 26.6319
33.585535381098246 26.3808
33.60897364093058 26.4009
33.63223163992385 26.4254
33.6554910656699 26.3047
33.678751919389796 26.3365
33.702195944520106 26.2131
33.72545966903325 26.2476
33.74872482519663 26.209
33.771991414233746 26.1475
33.79544122444841 26.1054
33.81871069412428 26.0577
33.84198160035767 26.0601
33.86525394437455 26.0576
33.88870955949969 26.0546
33.911984794020626 25.9284
33.93526147001624 25.9295
33.958539588715006 25.8737
33.98200102861669 25.7153
34.0052820477047 25.6793
34.02856451319451 25.6819
34.05203033759056 25.6428
34.07531571090147 25.6524
34.09860253431845 25.6157
34.121890809074316 25.4825
34.145362493118924 25.5081
34.16865368561615 25.4182
34.191946333164054 25.4491
34.21524043699793 25.4261
34.23871800066799 25.36
34.26201503218366 25.3148
34.28531352370466 25.3776
34.30861347646881 25.2402
34.33209693978188 25.208000000000002
34.3553998301885 25.2128
34.378704185565205 25.0898
34.402010007152356 25.0717
34.42549939016683 25.070999999999998
34.44880815937748 24.9896
34.472118398533134 24.9083
34.49543010887669 24.9337
34.51892543169198 24.7623
34.54224009966052 24.8236
34.56555624255917 24.8182
34.58887386163339 24.6874
34.61237514439016 24.6613
34.6356957311114 24.6268
34.65901779775809 24.5433
34.68252356662995 24.5041
34.705848608458616 24.4968
34.72917513396849 24.478
34.75250314440949 24.4453
34.77601490857862 24.3756
34.799345904259795 24.3186
34.82267838863559 24.3392
34.846012362958525 24.2845
34.869530142679984 24.3426
34.89286711232212 24.3381
34.91620557568269 24.1991
34.93954553401677 24.156999999999996
34.9630693495876 24.1449
34.986412313340814 24.1693
35.00975677584668 24.1074
35.033102738362956 24.0963
35.05663261012228 24.0399
35.0799815881786 24.0641
35.10333207003229 23.9371
35.12668405694369 24.035999999999998
35.150220005273056 23.9262
35.17357501786656 23.9858
35.19693153931268 23.8511
35.220289570874385 23.7801
35.24383161619786 23.8176
35.267192683604904 23.8571
35.290555264930376 23.7723
35.314101899412165 23.7516
35.33746752422433 23.6788
35.36083466676374 23.7525
35.38420332829803 23.6323
35.407756095629054 23.6916
35.43112781085063 23.7397
35.45450104888391 23.6552
35.477875810999194 23.6803
35.50143473172161 23.6214
35.52481255774625 23.6444
35.54819191167777 23.5462
35.57157279478914 23.5642
35.595137889488406 23.4157
35.61852184675279 23.5301
35.641907337029984 23.3809
35.665294361595684 23.3013
35.68886565090076 23.2922
35.7122557598848 23.3052
35.73564740699838 23.2615
35.759040593519934 23.2167
35.78261809810353 23.1036
35.80601437933051 23.004
35.829412203814705 22.9589
35.85281157283719 22.851999999999997
35.876395313415884 22.923000000000002
35.8997977874528 22.8213
35.92320180988546 22.8451
35.946790244133936 22.820999999999998
35.97019737933222 22.8638
35.993606066789866 22.820999999999998
36.01701630779276 22.7448
36.04061101440684 22.7809
36.06402437852291 22.7379
36.08743930005611 22.7113
36.1108557802951 22.5855
36.13445678011326 22.5793
36.15787639383515 22.5965
36.18129757014299 22.5103
36.20472031032821 22.504
36.22832762423364 22.4744
36.25175350829375 22.421999999999997
36.275180960119776 22.3266
36.298609981005924 22.461
36.32222362992669 22.4803
36.34565580510207 22.4005
36.36908955323448 22.3601
36.39252487562093 22.2277
36.416144880530226 22.2156
36.43958336764275 22.145
36.463023432914625 22.1689
36.486465077645676 22.0991
36.51009145956204 22.2411
36.53353627947859 22.1685
36.55698268276811 22.0717
36.58043067073321 22.0243
36.60406345072071 21.9225
36.62751462435344 21.9117
36.65096738658405 21.9034
36.67460498210655 21.8703
36.69806093788647 21.8293
36.72151848619297 21.7722
36.744977628333636 21.8369
36.76862165890998 21.6996
36.79208400512205 21.7131
36.81554794910557 21.6888
36.83901349217101 21.5657
36.862663978991606 21.4978
36.88613273667352 21.4434
36.90960309738324 21.5137
36.933075062434064 21.4885
36.95673202673572 21.4757
36.98020721697122 21.4642
37.003684015502365 21.3856
37.027162423645365 21.3478
37.050825886711465 21.3507
37.07430753063053 21.2304
37.09779078812467 21.2307
37.121275660513014 21.1923
37.144945643673694 21.1971
37.16843376245278 21.1533
37.19192350009803 21.099
37.215414857931435 21.1568
37.239091382563885 21.0651
37.262585997426164 21.0128
37.28608223645736 20.9842
37.309763684451696 20.9114
37.33326318851098 20.8782
37.356764320726555 20.8684
37.380267082425526 20.8819
37.40395510942588 20.7383
37.42746114683234 20.7789
37.45096881771841 20.7008
37.474478123414166 20.766
37.49817275092816 20.7298
37.52168534303452 20.5996
37.54519957395567 20.5879
37.568715445024665 20.6102
37.592416694607714 20.4978
37.61593586281424 20.5699
37.63945667518264 20.5328
37.66297913304891 20.4785
37.68668702630454 20.5327
37.710212792059274 20.3513
37.733740207334854 20.2865
37.757269273470364 20.2607
37.780983832050374 20.2685
37.80451621684926 20.3018
37.82805025654007 20.2
37.851585952464795 20.2083
37.8753071980695 20.1105
37.89884622345676 20.0687
37.92238690911902 20.0485
37.94611318753442 20.027
37.969657210779765 19.9543
37.99320289834801 19.9978
38.016750251586465 19.9822
38.04048325513017 19.8823
38.06403395679343 19.9235
38.087586328183946 19.8711
38.11114037065203 19.8268
38.13488012115898 19.8308
38.1584375229181 19.7683
38.181996599821 19.7342
38.205557353221124 19.6779
38.229303872575656 19.7315
38.2528679961576 19.6627
38.27643380031219 19.6095
38.30000128639589 19.5196
38.32375459653193 19.5483
38.34732546371299 19.5849
38.37089801690786 19.4493
38.39447225747609 19.3907
38.418232380377425 19.381
38.441810012983396 19.3644
38.46538933705673 19.3001
38.488970353960084 19.3435
38.51273731166058 19.3041
38.536321731567014 19.2032
38.55990784840681 19.1859
38.58367995004091 19.1232
38.60726947812959 19.1594
38.63086070726198 19.232
38.654453638806274 19.1502
38.678232613930824 19.0865
38.70182896773327 19.0411
38.72542702806741 19.0266
38.7490267963045 19.0168
38.77281266709232 18.9929
38.79641586862214 18.9657
38.8200207821842 18.8682
38.843627409152944 18.8229
38.86742019782782 18.8179
38.891030269149255 18.8065
38.914642058016156 18.8344
38.938255565806124 18.7371
38.96205529464307 18.6844
38.98567225787121 18.7023
39.00929094417078 18.6727
39.03291135492255 18.6619
39.05671804624804 18.6958
39.080341923549106 18.5996
39.103967529460334 18.5251
39.127594865365744 18.4695
39.15140854155791 18.3741
39.17503935514948 18.4319
39.19867190290282 18.4682
39.22249083587951 18.4153
39.24612686969409 18.4198
39.269764641845306 18.4264
39.293404153722804 18.4138
39.317230110864074 18.2537
39.34087311998506 18.2141
39.36451787301696 18.2705
39.388164371352595 18.1834
39.41199737518003 18.1745
39.43564738196752 18.1522
39.45929913825317 18.1136
39.48295264543308 18.0571
39.506792718520884 18.052
39.530449745387216 17.9917
39.55410852735203 17.9804
39.57776906581474 18.0158
39.60161623079 17.969
39.625280300200025 17.8988
39.64894613032202 17.8221
39.67261372255866 17.875999999999998
39.6964680021016 17.8365
39.72013913657293 17.8556
39.74381203738292 17.7762
39.76748670593756 17.7461
39.79134812278169 17.682000000000002
39.81502634488497 17.7206
39.83870633896685 17.675
39.862388106436654 17.622
39.88625668336918 17.642
39.90994201572829 17.6549
39.933629125719285 17.5828
39.957503091207826 17.5546
39.9811937746168 17.6093
40.00488623990914 17.4843
40.02858048850006 17.4227
40.05246165409549 17.4376
40.076159487492085 17.3794
40.099859108448875 17.3852
40.123560518384345 17.3239
40.1474489070226 17.304000000000002
40.171153913178564 17.2603
40.194860712584955 17.2163
40.2185693066637 17.2663
40.242464941335314 17.2019
40.26617714307655 17.1657
40.289891143772046 17.1663
40.3136069448471 17.0748
40.33750984859743 17.1085
40.3612292688043 17.0507
40.3849504936829 16.9896
40.40867352466194 17.032
40.43258372059144 16.957
40.45631038219906 16.9852
40.48003885420956 16.914
40.503769138055105 16.9342
40.52768664931955 16.8614
40.55142057531802 16.8351
40.57515631746428 16.84
40.599079334038514 16.8011
40.62281872700477 16.7764
40.64655994043941 16.7285
40.67030297578061 16.7274
40.69423334835778 16.727
40.71798004609188 16.6401
40.74172857006355 16.6031
40.76547892171441 16.6322
40.7894166736039 16.5845
40.813170699248566 16.5649
40.83692655691388 16.5273
40.86068424804498 16.5236
40.884629402612525 16.4565
40.908390779366385 16.4942
40.932153993938 16.3873
40.95591904777605 16.3731
40.979871628443995 16.3966
41.003640379561936 16.3691
41.02741097430883 16.3606
41.05118341413683 16.2768
41.075143444384416 16.2875
41.098919593177826 16.2572
41.1226975914255 16.2154
41.14647744058318 16.152
41.170444943946755 16.1357
41.19422851378379 16.1928
41.218013938914645 16.0967
41.24198706625173 16.0458
41.26577622087193 16.0263
41.289567235177785 16.0764
41.31336011063129 16.0096
41.337340752422875 15.958
41.361137369129835 15.9972
41.38493585138705 15.9538
41.40873620066004 15.9249
41.43272438060107 15.8412
41.45652848292052 15.8631
41.48033445666918 15.7987
41.50414230331616 15.7789
41.528138045159764 15.7234
41.551949656675205 15.6986
41.575763145513235 15.7539
41.59957851314666 15.6991
41.62358184070442 15.6319
41.64740098505737 15.6113
41.6712220126409 15.5982
41.69504492493139 15.5819
41.71905586207357 15.5476
41.74288256296395 15.4989
41.766711153007456 15.5107
41.79054163368412 15.4567
41.814560204340054 15.4289
41.838394485526365 15.407
41.86223066180303 15.375
41.88625497706819 15.3681
41.910094962812 15.3273
41.93393684811168 15.3281
41.95778063445365 15.2807
41.981812625263366 15.274000000000001
42.00566023303407 15.2497
42.029509746323676 15.2308
42.05336116662236 15.1901
42.077400857069705 15.1388
42.10125611078846 15.1021
42.12511327600405 15.1188
42.14897235421036 15.0301
42.173019768448455 15.0977
42.19688269209613 15.0365
42.22074753323349 15.0017
42.24461429335818 14.94
42.268669455600495 14.9723
42.292540073217886 14.9424
42.31641261433284 14.9139
42.34028708044675 14.7987
42.36435001496739 14.841
42.38822835065557 14.8641
42.41210861586426 14.7804
42.4359908120986 14.7534
42.46006154323262 14.7673
42.48394762115317 14.7404
42.507835634632315 14.7698
42.531912233047436 14.7079
42.55580413732265 14.6328
42.579697981698 14.5413
42.60359376768525 14.6313
42.62767820545945 14.5709
42.65157789440821 14.5737
42.67547952952185 14.5378
42.699383112316 14.5088
42.72347541395347 14.4345
42.74738291190531 14.4234
42.771292362102166 14.4507
42.795203766063516 14.4396
42.819303956130405 14.3365
42.843219287476536 14.3182
42.86713657716324 14.3301
42.89105582671383 14.3168
42.91516392983864 14.3052
42.939087119032166 14.28
42.963012272677304 14.2592
42.98693939230129 14.1995
43.01105543317513 14.1925
43.034986504731386 14.17
43.05891954686589 14.125
43.08285456110972 14.0976
43.10697856448665 14.0977
43.130917542983475 14.0711
43.15485849820081 14.0661
43.17880143167367 14.0004
43.20293342237094 14.0086
43.226880332449 13.9231
43.25082922540554 13.9423
43.27496722682525 13.9283
43.29892010567796 13.9021
43.32287497204102 13.8586
43.34683182745632 13.8207
43.370977859791836 13.8829
43.39493871351105 13.8006
43.41890156092628 13.7993
43.44286640358341 13.7443
43.46702049182749 13.6935
43.49098934522816 13.6192
43.51496019852649 13.6895
43.5389330532723 13.6501
43.56309522248204 13.6104
43.58707210044314 13.6189
43.61105098451946 13.5898
43.63503187626491 13.5229
43.659202151562134 13.5744
43.68318707902681 13.5195
43.70717401884041 13.5139
43.731162972560874 13.456
43.75534137913236 13.4441
43.779334381108384 13.4277
43.803329401683186 13.4311
43.82732644241872 13.4103
43.8515130055166 13.3164
43.87551410707659 13.298
43.89951723350145 13.3189
43.923709934595614 13.3012
43.94771713129917 13.2578
43.97172635758096 13.2757
43.99573761501002 13.2264
44.0199385169922 13.1816
44.04395385732619 13.165
44.067971233533086 13.1736
44.09199064718605 13.1583
44.11619977548961 13.0811
44.14022328470671 13.0466
44.16424883610785 13.0684
44.18827643127035 13.0435
44.21249381139513 13.0492
44.236525514814076 13.007
44.26055926674478 12.9832
44.28459506876863 12.9748
44.3088207262813 12.9039
44.33286064928722 12.8896
44.35690262714919 12.8287
44.38094666145278 12.856
44.4051806219871 12.8502
44.42922879003185 12.8045
44.45327901929361 12.7764
44.477331311362136 12.7713
44.501573600619416 12.7272
44.525630039221795 12.6682
44.54968854541895 12.7004
44.573937102200176 12.7012
44.5979997645541 12.6299
44.622064499300315 12.6665
44.64613130803592 12.6137
44.67038823869318 12.6012
44.69445921643748 12.5829
44.718532272981385 12.5291
44.742607409926194 12.5058
44.76687274034801 12.5201
44.79095205918753 12.4294
44.81503346325094 12.4268
44.839116954143876 12.3962
44.86339071028742 12.3612
44.88747839599524 12.3728
44.91156817336837 12.3145
44.93566004401666 12.3778
44.959942251908146 12.3596
44.984038330325966 12.3008
45.00813650686762 12.263
45.03223678314731 12.2594
45.05652746888232 12.1886
45.08063196592069 12.2101
45.104738567558705 12.1601
45.128847275414856 12.1545
45.15314646515866 12.1519
45.17725940679741 12.1133
45.20137445952892 12.1044
45.22568004865265 12.0696
45.24979934496396 12.0697
45.27392075725247 12.0374
45.29804428714431 12.0302
45.322358426247604 12.0188
45.346486212804315 11.9737
45.370616121861914 11.9542
45.39474815505086 11.9409
45.41907087049246 11.9091
45.4432071734666 11.8806
45.46734560548283 11.925999999999998
45.49148616817604 11.9231
45.51581748638564 11.8619
45.5399623320197 11.8141
45.56410931325473 11.7552
45.58825843173002 11.8118
45.61259837920865 11.7831
45.636751793816 11.7662
45.66090735060093 11.6761
45.68506505120716 11.618
45.7094136545275 11.6484
45.73357566449271 11.5833
45.75773982322992 11.6152
45.78190613238733 11.5612
45.806263418194064 11.5293
45.83043404997326 11.5718
45.85460683713677 11.5277
45.87897065658495 11.5508
45.90314777634752 11.4972
45.92732705646868 11.4724
45.9515084986045 11.448
45.97588104735473 11.4546
46.00006683541565 11.439
46.02425479047904 11.3952
46.04844491420549 11.3718
46.0728262191024 11.3972
46.09702070211635 11.3452
46.12121735879483 11.3018
46.14541619080294 11.3173
46.169806278764455 11.2818
46.194009483459034 11.2912
46.21821486849841 11.2353
46.24242243555223 11.1921
46.266821333570014 11.2101
46.29103328674601 11.2011
46.31524742696538 11.1972
46.33946375590237 11.0968
46.36387149104216 11.0814
46.38809221957392 11.0995
46.41231514186606 11.0696
46.436540259597464 11.0463
46.460956858999374 11.0532
46.48518638983522 11.0295
46.509418121166966 10.9751
46.533652054678114 10.963
46.55807754555709 10.9731
46.58231590571962 10.9275
46.60655647313217 10.9285
46.630988654873654 10.8628
46.655233659129024 10.8081
46.67948087571551 10.8419
46.70373030632484 10.8098
46.72817142736393 10.8087
46.752425308428684 10.7919
46.77668140861147 10.8245
46.80093972960865 10.7486
46.82538981736788 10.716
46.849652602470904 10.685
46.87391761349769 10.6565
46.8981848521493 10.6565
46.9226439341274 10.6557
46.946915650573224 10.6435
46.97118959976749 10.6077
46.99546578341598 10.5669
47.019933887188216 10.5983
47.04421456235744 10.535
47.06849747711879 10.5307
47.09278263318286 10.5223
47.11725978640143 10.4771
47.14154944775105 10.4659
47.165841355555656 10.4654
47.1901355115306 10.4245
47.214621741924994 10.4261
47.23892041698887 10.3818
47.26322134538975 10.3537
47.28771440635075 10.3178
47.31201986422527 10.3347
47.33632758061436 10.3341
47.360637557241866 10.2932
47.38513974410611 10.29
47.40945426407847 10.2156
47.43377104948137 10.2232
47.45809010204344 10.2056
47.48260144275502 10.2257
47.506925052572285 10.1568
47.53125093475548 10.1408
47.55557909103813 10.1201
47.58009961361992 10.0985
47.60443234110732 10.0422
47.62876734791564 10.1059
47.65310463578333 10.0474
47.6776343683373 10.0558
47.7019762413987 10.0057
47.72632040075572 10.0086
47.75066684815169 10.0567
47.77520581885936 9.95391
47.799556865477655 9.93714
47.823910205386 9.93425
47.84826584033272 9.93591
47.87281407745551 9.899519999999999
47.89717432569297 9.928469999999999
47.92153687423484 9.84721
47.94609208429692 9.82664
47.97045925671401 9.81311
47.99482873471275 9.8478
48.01920052005013 9.8216
48.04376504619224 9.79294
48.068141469543484 9.77507
48.09252020552573 9.769639999999999
48.11690125590099 9.736469999999999
48.1414751266064 9.72321
48.16586082917454 9.70721
48.19024885144316 9.6876
48.2146391951793 9.66653
48.239222439012764 9.655669999999999
48.26361744916137 9.618839999999999
48.28801478610016 9.62016
48.31241445160131 9.62492
48.337007097209366 9.59505
48.36141144338331 9.5748
48.38581812345755 9.50037
48.41022713920929 9.535219999999999
48.434829215320704 9.520539999999999
48.45924292604658 9.46756
48.48365897780325 9.511519999999999
48.50807737237308 9.46988
48.532688907799276 9.42498
48.55711201168574 9.41514
48.581537463754074 9.38481
48.60615611725119 9.425889999999999
48.63058628942721 9.36893
48.65501881516546 9.35088
48.6794536962573 9.32929
48.70408185970339 9.347489999999999
48.72852147531801 9.28792
48.75296345168211 9.25603
48.77740779059232 9.252360000000001
48.80204549302823 9.27202
48.82649458091802 9.26322
48.85094603676547 9.2354
48.87539986237231 9.20941
48.90004713292306 9.14674
48.92450572200832 9.12608
48.94896668628025 9.143880000000001
48.97343002754588 9.112680000000001
48.99808689542115 9.12695
49.02255501470614 9.11215
49.04702551642794 9.080860000000001
49.0714984023988 9.04809
49.096164896893235 9.01454
49.120642575466796 8.98488
49.145122643748394 9.002410000000001
49.16960510355558 9.01299
49.19428125404938 8.96429
49.2187685210852 8.93863
49.243258185121555 8.93131
49.26794160167084 8.92002
49.2924360839405 8.88742
49.31693296869764 8.875589999999999
49.34143225776915 8.83876
49.36612538195438 8.84472
49.39062950396021 8.82134
49.41513603578346 8.7753
49.4396449792564 8.7956
49.46434784069503 8.78159
49.488861631846454 8.76022
49.513377840166804 8.74211
49.537896467493745 8.731580000000001
49.56260909589029 8.716339999999999
49.587132585683285 8.73043
49.611658500018365 8.66414
49.636186840738596 8.636569999999999
49.66090926588511 8.67192
49.685442483902584 8.65513
49.70997813385706 8.596960000000001
49.734516217597076 8.608419999999999
49.75924846937352 8.59759
49.7837914452858 8.577810000000001
49.80833686055187 8.51732
49.83288471702571 8.50175
49.85762682540054 8.53426
49.882179588965734 8.5024
49.9067347993235 8.49057
49.93129245833333 8.47644
49.95604445336378 8.46998
49.98060703442832 8.44251
50.005172069746266 8.437710000000001
50.02993150438364 8.414019999999999
50.05450147301533 8.40742
50.07907390151433 8.364189999999999
50.10364879174981 8.32965
50.12841816587289 8.35266
50.1529980044635 8.32438
50.17758031042124 8.28145
50.20216508562089 8.289760000000001
50.22694442953363 8.26286
50.25153416817468 8.26951
50.27612638170508 8.23047
50.300721072005196 8.242560000000001
50.325510416102105 8.217939999999999
50.350110084975064 8.16484
50.37471223628208 8.179210000000001
50.39931687190919 8.153360000000001
50.424116246675766 8.10703
50.44872587605249 8.13888
50.47333799543065 8.102910000000001
50.49795260670191 8.13086
50.52276204271512 8.095289999999999
50.54738166295838 8.07957
50.57200378079314 8.031360000000001
50.596628398116835 8.003739999999999
50.62144792604559 7.9931399999999995
50.646077567609396 7.9944
50.670709714377715 7.9998
50.69553683636198 7.95162
50.72017401885922 7.956360000000001
50.7448137122895 7.917619999999999
50.76945591856022 7.972689999999999
50.79429318636823 7.941089999999999
50.818940443716784 7.92968
50.84359021965163 7.8468800000000005
50.868242516085964 7.871739999999999
50.893089960641895 7.8407100000000005
50.917747323549435 7.805110000000001
50.94240721271973 7.787939999999999
50.96706963007175 7.801410000000001
50.99192728239342 7.78737
51.01659478166073 7.82075
51.04126481489051 7.78253
51.06593738400761 7.74388
51.090805275207074 7.73655
51.11548294172845 7.72774
51.14016314993547 7.7088600000000005
51.164845901758845 7.6684600000000005
51.18972406304274 7.652
51.21441192780656 7.67478
51.23910234200271 7.65193
51.2637953075678 7.6224
51.288683770237945 7.630380000000001
51.31338186432707 7.58684
51.33808251561888 7.60607
51.362978729967345 7.590380000000001
51.387684521509755 7.570880000000001
51.41239287610203 7.546819999999999
51.437103795691165 7.5258199999999995
51.46201036644977 7.50102
51.486726441956634 7.48053
51.51144508832545 7.49983
51.536166307509156 7.462039999999999
51.56108326624387 7.4331
51.58580965706056 7.40941
51.61053862657523 7.426360000000001
51.635270176746864 7.389189999999999
51.66019755512065 7.395230000000001
51.68493429268881 7.3387899999999995
51.70967361681515 7.354660000000001
51.73441552946465 7.3567800000000005
51.759353359237934 7.325419999999999
51.7841004750961 7.3099300000000005
51.80885018539685 7.29625
51.833602492111254 7.232469999999999
51.8585508051424 7.2603
51.883308330926425 7.219989999999999
51.90806845906181 7.2089300000000005
51.932831191525715 7.195069999999999
51.95779001977161 7.16845
51.98255798721516 7.163589999999999
52.00732856494335 7.155530000000001
52.03229530577543 7.1432
52.057071130455945 7.11056
52.081849571391054 7.14945
52.106630630568695 7.0952399999999995
52.13160794279417 7.08092
52.15639426492067 7.092219999999999
52.18118321127822 7.095039999999999
52.205974783860896 7.05558
52.23096269971011 7.058669999999999
52.255759551287994 7.02628
52.280559035098186 7.003989999999999
52.30536115314103 6.9971
52.33035970494467 6.972160000000001
52.35516711807904 6.94035
52.37997717147198 6.93611
52.40478986713005 6.94353
52.42979908731974 6.93469
52.454617094216 6.90385
52.47943774942214 6.90845
52.50426105495102 6.8879600000000005
52.529280976059844 6.860239999999999
52.554109609024096 6.83078
52.57894089837482 6.8461
52.60377484613117 6.81763
52.62880550079408 6.830030000000001
52.65364479223379 6.7455300000000005
52.67848674816189 6.72618
52.70352547971946 6.7429
52.72837279155837 6.7523
52.753222773982785 6.7137199999999995
52.778075429022984 6.7106
52.80312495150885 6.6799
52.827982978797436 6.66506
52.85284368481815 6.67577
52.87770707160767 6.621739999999999
52.90276741793998 6.63691
52.92763619336701 6.6282
52.952507655698504 6.5956600000000005
52.977381806977576 6.611560000000001
53.00245301017842 6.57615
53.02733256653592 6.5486699999999995
53.052214817996074 6.568860000000001
53.077099766608484 6.53815
53.102181859804446 6.54972
53.127072229988265 6.55032
53.15196530349892 6.51797
53.17686108239249 6.475630000000001
53.20195409881522 6.44937
53.22685531582556 6.4934
53.25175924441303 6.456169999999999
53.27666588664027 6.44712
53.30176985962693 6.44942
53.3266819565689 6.42818
53.35159677336455 6.37634
53.376514312083096 6.39886
53.40162927507703 6.43328
53.42655228516116 6.41217
53.45147802340193 6.32097
53.47660125628886 6.32564
53.50153247842639 6.32276
53.52646643496923 6.28337
53.55140312799818 6.2793
53.576537409691696 6.2975699999999994
53.60147960336152 6.30635
53.626424539786164 6.2653
53.65137222105307 6.1944
53.67651758529126 6.205419999999999
53.70147078399681 6.18422
53.72642673383343 6.1997
53.75138543689533 6.15311
53.776541917524526 6.1631800000000005
53.801506154876755 6.13433
53.826473151763246 6.1479800000000004
53.851442910284916 6.11555
53.87661054126026 6.0721300000000005
53.9015858509782 6.10269
53.92656392866066 6.07704
53.95154477641532 6.09161
53.976723591801296 6.04875
54.00171000771266 6.05543
54.02669920004598 6.027340000000001
54.051691170915745 6.036630000000001
54.076881204886796 6.0298099999999994
54.101878760928514 5.98184
54.12687910187696 5.95897
54.152077577768296 5.963419999999999
54.1770835166946 5.9046
54.20209224691339 5.9345
54.22710377055121 5.92089
54.25231352511594 5.89119
54.27733066384342 5.8679
54.30235060239643 5.862
54.32737334290836 5.87594
54.35259441062629 5.8627199999999995
54.377622783395324 5.80987
54.40265396455061 5.8092
54.42768795623251 5.8354
54.45292037169559 5.72307
54.477960012857906 5.75692
54.50300247099511 5.7137199999999995
54.52804774825457 5.7208
54.55329154616743 5.6554400000000005
54.57834249018678 5.67181
54.6033962597977 5.67925
54.6284528571545 5.66582
54.653708072335164 5.6177
54.67877035378786 5.59743
54.70383546947698 5.60176
54.72890342156389 5.60576
54.7541700889442 5.54282
54.77924374251975 5.5357
54.8043202390049 5.5079
54.82959552413022 5.50437
54.8546777351945 5.50325
54.87976279569621 5.41429
54.90485070780914 5.46852
54.930137506558005 5.38858
54.95523115074295 5.42749
54.98032765308844 5.38997
55.005427015775496 5.4023
55.03072536339621 5.36437
55.05583047570572 5.29632
55.080938454927676 5.31886
55.10604930325027 5.28515
55.131359235107396 5.28961
55.15647585066083 5.21005
55.181595341907496 5.19921
55.20671771104285 5.20745
55.232039262617704 5.13359
55.25716741665048 5.14246
55.28229845518636 5.1635599999999995
55.30743238042802 5.095269999999999
55.33276558731939 5.1330599999999995
55.357905315183636 5.076230000000001
55.383047936390035 5.04556
55.40819345314859 5.00217
55.433538351073295 4.98414
55.458689688238415 4.950419999999999
55.483843927614096 4.89941
55.509197623043605 4.90689
55.53435769621134 4.88226
55.55952067826466 4.89832
55.5846865714265 4.91365
55.61005202069737 4.83609
55.63522376553902 4.85099
55.66039842818645 4.78899
55.68557601087004 4.770169999999999
55.7109532500271 4.7515
55.73613670233794 4.743040000000001
