TT I
1.2716486653135266 7.549360000000001
1.2939594142134223 7.34473
1.3162702121660406 6.49951
1.3385810600174564 6.21059
1.3608919586137629 6.66926
1.383202908801069 6.44643
1.405513911425503 6.9897100000000005
1.4278249673332093 6.5151
1.4501343378461518 5.8916900000000005
1.4724455028545926 5.84965
1.4947567236847858 5.94926
1.517068001182951 6.534590000000001
1.5393793361953272 5.66626
1.5616907295681737 5.263380000000001
1.5840021821477681 5.20369
1.60631369478041 5.16194
1.6286252683124185 5.03758
1.6509369035901333 5.45496
1.6732468618895553 5.05773
1.695558623192809 4.47684
1.7178704487808514 4.60625
1.7401823395001077 4.60602
1.7625012545597203 4.99339
1.7848028405262486 4.6384099999999995
1.8071218901122095 5.20638
1.8294236121921872 4.6222199999999996
1.8517427996910911 4.46082
1.8740620574440425 4.5764
1.8963639900671978 4.12626
1.9186833908139995 4.40361
1.9409854680117449 4.96817
1.9633050151394713 5.42596
1.9856246367570705 4.895
2.0079269371922672 4.42863
2.03024671027244 4.18994
2.0525491637446027 4.30325
2.074869091674931 3.8077900000000002
2.097171701569106 4.21141
2.1194917877373847 5.0370800000000004
2.141811954326636 4.466069999999999
2.164114805233074 4.62434
2.186435135143035 5.097230000000001
2.208738150935709 9.08913
2.231058647554722 15.6554
2.2533792288321184 11.6264
2.275682498336085 6.8627
2.298003251406138 5.72419
2.3203066942619714 5.1817
2.3426276225136022 5.66801
2.3649486396617507 5.78677
2.387252348930071 5.889869999999999
2.4095735463442893 5.53925
2.4318774374315884 5.91512
2.4541988185014043 6.33627
2.476502894794693 6.489809999999999
2.498824462909887 6.29962
2.521146125856138 6.98385
2.5434504863470337 6.96047
2.5657723414244717 7.58188
2.588076895590662 7.521780000000001
2.610398946189713 7.9497800000000005
2.6327210958598384 7.73243
2.6550259469304716 6.9505300000000005
2.6773482972090137 7.687139999999999
2.6996533504259 7.52981
2.7219759047039602 8.499939999999999
2.744298562293959 7.83358
2.7666039251246595 7.8503
2.7889267918020164 7.67617
2.8112323652516555 8.29307
2.833555444408179 7.628360000000001
2.8558786311183852 8.52009
2.8781845268938557 8.19219
2.9005079311721484 8.710360000000001
2.9228140460410397 8.87761
2.9451376712799635 9.63775
2.967444008632326 9.54936
2.9897678582247247 9.85573
3.0120918213106695 10.1567
3.0343984987899373 10.2228
3.0567226913198637 10.92
3.079029599759726 11.6021
3.101354025127254 12.0416
3.123678568232338 12.4394
3.145985829517914 12.9443
3.16831061055229 13.2673
3.1906181112775593 14.1666
3.212943133635653 14.7892
3.2352682779763207 15.0517
3.2575761442691227 15.0536
3.2799015350264273 15.6388
3.302209649240067 16.0868
3.3245352898092655 16.6114
3.3468436553365257 17.2753
3.369169549113219 17.1393
3.3914955708171384 18.5104
3.413804319727358 18.3638
3.4361305997334863 18.3881
3.4584396084414553 19.3557
3.4807661501462652 19.7559
3.503092824025881 20.7647
3.5254022288463154 20.9875
3.5477291695206588 21.8251
3.5700388426251948 21.6967
3.5923660534916446 23.5641
3.6146934007816114 30.2465
3.637003482731501 52.1772
3.6593311053109985 56.1022
3.681641464033634 37.0784
3.7039693653009733 26.8533
3.726297407241705 25.7464
3.7486081875460804 25.3306
3.7709365132734978 25.8925
3.793247578841633 26.1964
3.8155761917550093 26.3053
3.8378875459837216 26.8478
3.8602164494827234 27.5961
3.882545499606844 27.8435
3.9048572932539183 28.5759
3.9271866390645718 28.8941
3.9494987298666713 29.4362
3.971828374764527 30.0843
3.9941581705403255 30.5608
4.016470713506008 31.0655
4.038800813471445 31.7702
4.061113662089144 32.7302
4.0834440696459176 33.3036
4.105774632334751 33.7051
4.128087945865126 34.5234
4.150418821249301 34.9997
4.172732448931298 36.3086
4.195063640413578 37.3085
4.2173775856475215 39.402
4.239709096631102 53.7723
4.262040768704612 124.538
4.284355196706267 154.957
4.306687193387355 107.846
4.329001947444346 57.2257
4.35133427213731 44.2241
4.373666762177566 42.7149
4.395982011761091 43.368
4.418314834921175 44.4255
4.44063041906622 49.2489
4.4629635787515625 53.9437
4.4852969080429785 54.4707
4.5076130004776225 52.5791
4.529946671403969 55.9172
4.552263106909177 59.0292
4.574597122877047 56.6142
4.596931312711224 54.253
4.619248269273446 54.0909
4.6415828092605835 54.5892
4.663900117405352 55.8464
4.686235010953232 57.2163
4.708552674085913 58.5928
4.730887924602802 59.7684
4.753223354952695 61.5969
4.775541557023902 65.0127
4.797877349456786 68.0327
4.820195915032126 68.3477
4.842532072957498 68.6516
4.864868414979744 70.8068
4.88718753227192 74.8523
4.909524244902505 76.3197
4.931843734218147 76.3968
4.954180820867835 79.1003
4.976518095879839 81.4298
4.998838149695359 84.141
5.021175803844231 88.1334
5.043496238205739 91.3667
5.065834274903528 96.2247
5.088172504230693 100.774
5.1104935158799565 108.155
5.132832132875765 127.63600000000001
5.155153533596801 158.284
5.1774925416746225 206.34
5.199814334878411 438.89
5.2221537374521505 1127.11
5.244493338631803 3083.22
5.266815727034316 7955.31
5.289155727832427 12585.1
5.311478517248165 8527.58
5.333818921080011 2647.5
5.356159527788849 519.322
5.3784829252032536 195.25099999999998
5.400823940070432 152.92700000000002
5.423147747031976 131.506
5.445489173474152 121.14399999999999
5.467830807066149 119.431
5.490155234831516 118.241
5.512497285125229 111.904
5.534822130975162 106.49700000000001
5.557164601388673 102.71
5.579489868738879 99.5749
5.601832762690846 98.4154
5.6241758697774475 97.5905
5.646501775867269 96.3475
5.668845311622074 95.6804
5.691171647754637 95.0671
5.713515615597765 93.8109
5.735859800852677 93.6173
5.758186788542988 95.0003
5.780531411018185 97.8996
5.802858837297399 97.7325
5.825203900414495 97.6256
5.8475491852224 100.711
5.869877275883075 100.102
5.892223006467101 96.8165
5.914551544266608 96.0568
5.936897724049891 99.0993
5.959244129804903 106.62299999999999
5.981573344815301 138.72299999999998
6.0039202049061 257.573
6.026249875609095 511.62800000000004
6.04859719346037 1039.91
6.070927323278297 2296.63
6.093275102315365 4655.06
6.115623113320588 5152.72
6.137953938319995 3083.16
6.160302415650845 918.425
6.182633708324452 217.3
6.2049826554078376 109.57
6.227331838745022 91.3926
6.249663839443684 84.2734
6.27201349767565 81.1245
6.294345974611799 82.4804
6.316696111167083 85.2762
6.339046488263839 81.7473
6.361379686074702 74.7704
6.383730546639482 70.9492
6.406064229255215 70.4673
6.428415576718203 70.9929
6.450749747566656 69.8779
6.47310158535871 67.0689
6.495453669698332 65.5394
6.517788579421056 64.6742
6.540141159237969 63.5735
6.562476565766648 63.0365
6.5848296444934045 63.0049
6.607182974060425 63.0025
6.6295191323281015 63.0129
6.651872965955752 63.8063
6.6742096296068985 74.6819
6.6965639707294615 93.7261
6.71891856698715 92.9375
6.741255995248479 73.5874
6.763611104154477 62.0801
6.785949046381137 59.0138
6.808304671371482 59.0681
6.8306605557940046 60.6623
6.852999275508618 59.8098
6.875355681171544 57.777
6.897694923437771 56.8391
6.92005185377892 56.5371
6.9423916220322655 56.4245
6.964749080490181 55.6525
6.987106804399774 55.8319
7.009447368180821 55.9346
7.031805625367033 55.7625
7.054146723727803 55.2173
7.076505517631004 54.8684
7.098864581288365 54.8756
7.121206488070854 54.4036
7.143566093607822 55.0293
7.165908543567245 56.0011
7.188268694426048 55.9222
7.2106291193438095 55.0241
7.232972390625943 55.0201
7.255333366030969 60.8662
7.277677189091925 83.7499
7.300038718428332 103.921
7.322400526130865 91.0074
7.344745183422596 68.2186
7.367107550224791 57.1097
7.389452767901992 55.028
7.411815697249891 54.3478
7.434161478756298 53.7062
7.456524974096713 53.7142
7.478888753837185 53.7266
7.501235387657368 54.2788
7.523599738562711 54.2595
7.545946944825532 54.6905
7.568311870344528 55.0611
7.5906770845765665 55.0182
7.613025156078678 55.9578
7.635390950099687 56.6798
7.657739602662809 56.1296
7.680105979923558 56.025
7.702472650212829 56.931999999999995
7.724822180948224 56.6484
7.747189439655568 56.3447
7.769539560075357 56.1774
7.791907410653562 56.6058
7.81425812420825 56.4444
7.836626570110925 56.8521
7.858995315087906 57.8154
7.881346924933401 57.7031
7.903716270417482 58.0786
7.926068482028405 58.5918
7.948438431475253 59.3821
7.9708086843180235 60.0256
7.993161805171116 60.6596
8.015532667162402 61.2064
8.037886398416653 62.4068
8.060257873014221 62.6072
8.082629655331942 63.36600000000001
8.104984308787587 64.4155
8.127356708900503 66.6745
8.149711981398308 70.6606
8.172085002766314 72.5521
8.194458336181368 70.6727
8.216814543847752 69.399
8.23918850371002 69.4346
8.26154533906492 70.2513
8.283919928836452 71.9197
8.306277395339652 72.9347
8.328652618483376 74.4536
8.351028159736202 76.3782
8.373386579575245 79.0913
8.395762759396959 80.6807
8.418121819038275 84.6846
8.440498640894003 92.29299999999999
8.462875785192262 105.211
8.485235811156207 132.614
8.507613602688501 188.926
8.529974277114228 274.188
8.552352719347912 414.49300000000005
8.574731488360351 694.919
8.59709314210385 1257.01
8.619472567021075 1920.13
8.64183487789147 2173.57
8.664214962183097 1720.32
8.686577933647762 841.695
8.708958680784317 323.79400000000004
8.731339760774953 148.20600000000002
8.753703729764451 107.749
8.77608547780821 98.4045
8.798450116065078 95.1773
8.820832535634787 92.837
8.843215292401656 92.4252
8.865580941199045 92.7324
8.887964374703538 92.0801
8.910330701447199 92.2398
8.932714815164482 91.9848
8.955099270424924 90.0395
8.977466620733543 87.1178
8.999851761421976 85.28299999999999
9.022219798361645 84.4846
9.04460562795561 83.8099
9.066991803441677 83.7323
9.089360876979615 84.4592
9.111747746589993 84.1545
9.13411751544971 82.9991
9.156505082664324 82.4325
9.178875550323522 82.3833
9.20126381862328 82.1598
9.223652438908596 82.4346
9.246023961427412 82.6762
9.26841328802173 82.3951
9.290785518039224 82.7099
9.313175554425882 84.9455
9.335565947154315 86.1106
9.357939245086508 86.4229
9.380330352834827 85.8648
9.40270436697103 86.0979
9.425096193225055 85.125
9.447488380180165 85.2107
9.469863475295412 84.9214
9.492256385987508 85.4589
9.514632206018318 85.7803
9.537025843935714 86.1472
9.559402392368193 87.0371
9.581796761000229 89.4117
9.604191496441521 91.8485
9.626569144158516 94.2967
9.648964615551032 95.9497
9.671343000390081 95.7971
9.693739211225699 94.4136
9.716135793237463 93.2624
9.738515290448102 93.5309
9.760912617143402 95.2099
9.783292860202891 97.40899999999999
9.805690935076182 98.8087
9.828089385495742 100.08
9.850470754023561 101.65100000000001
9.872869957865444 105.62299999999999
9.89525208097539 113.194
9.917652041736662 121.05
9.940052382417589 130.173
9.962435644102392 157.208
9.984836746950979 201.43400000000003
10.007220771957746 260.921
10.029622640473708 369.399
10.052007432299963 556.216
10.074410069984072 866.82
10.096813093716005 1314.5
10.119199042482517 1809.81
10.141602840636468 1981.39
10.163989564971628 1518.89
10.186394141051062 820.567
10.208799107559706 354.088
10.231187001965623 171.13
10.253592751657669 121.935
10.275981430388155 111.779
10.298387966769793 109.48700000000001
10.320794897965431 110.037
10.343184759907361 109.053
10.36559248305461 105.756
10.387983138083852 106.073
10.410391656691655 113.27600000000001
10.432800574501677 124.82799999999999
10.455192425893369 141.406
10.47760214443012 167.449
10.499994797678786 215.135
10.522405320453982 297.034
10.54479877906917 415.214
10.567210109595656 519.673
10.5896218454736 573.064
10.612016518879773 492.22
10.634429067781074 327.82300000000004
10.656824555333241 190.167
10.679237920773568 117.31
10.701651695961992 94.1208
10.724048411481384 89.1316
10.746463008485165 86.2954
10.768860546937125 84.8054
10.791275969274796 83.3628
10.81369180576079 81.9708
10.836090585366925 80.6975
10.858507252467449 79.6413
10.88090686379991 78.8455
10.903324365036394 78.6529
10.925724811614439 77.8577
10.948143150509463 78.6189
10.970561909719066 78.2305
10.992963615930844 76.825
11.015383218085756 75.3963
11.037785768347074 73.8187
11.06020621697282 72.72399999999999
11.082627090322113 72.2165
11.105030913430326 71.4577
11.12745263854165 71.3766
11.149857314510728 72.3099
11.172279894912576 74.6656
11.194702904450653 74.6386
11.217108866490921 72.4891
11.239532736615194 70.2816
11.26193956033512 69.3207
11.284364294577085 68.4453
11.306789462371718 67.4143
11.329197585398376 67.1582
11.351623622610898 66.8682
11.37403261614354 66.1
11.396459526308487 65.7898
11.418869393879497 65.7519
11.441297180532617 65.2574
11.463725406927658 64.8037
11.486136592353875 64.5276
11.508565700543707 64.5357
11.530977768845315 65.70100000000001
11.553407762368774 65.5845
11.575838200059769 65.4043
11.598251599479612 64.3865
11.620682927815501 63.4573
11.64309721895548 63.4801
11.665529441478206 63.0325
11.687962112597958 62.6554
11.710377748130886 63.0127
11.732811318753434 62.6805
11.755227854859067 62.792
11.777662328529495 62.7475
11.800079768750786 62.6214
11.822515149015453 63.0075
11.844950984084935 63.1651
11.867369787303163 62.5391
11.889806534289491 62.742
11.912226250487029 62.7916
11.934663912939751 62.792
11.9571020346363 63.1604
11.979523127133968 63.5679
12.001962169624331 64.6986
12.024384183972964 66.6069
12.046824150809913 69.762
12.069264581333726 74.1745
12.091687985297767 79.7376
12.11412934550045 89.8389
12.136553680195208 105.838
12.158995973632788 128.639
12.181438735204349 156.05200000000002
12.20386447284199 183.505
12.226308172985636 205.456
12.24873485024193 194.31
12.271179492516982 156.826
12.293607112949127 116.419
12.316052700916226 87.3029
12.338498763250042 72.6653
12.360927805303868 67.0109
12.383374818673879 65.032
12.405804812803074 63.9526
12.428252780773262 64.0464
12.45070122756722 64.3871
12.473132656675375 64.2969
12.49558206341869 64.7655
12.518014453510101 64.9336
12.540464823770117 64.7299
12.562915677315177 64.8679
12.58534951575545 65.2438
12.607801338171472 66.0994
12.630236146511358 68.3278
12.652688941369085 70.5291
12.675124723177234 71.3452
12.697578494048786 69.7815
12.720032754458185 68.1052
12.742470003354093 67.527
12.764925245138771 67.6353
12.787363476431278 67.911
12.809819703166806 68.6789
12.83227642391173 69.1202
12.854716135692716 69.9709
12.877173846755147 71.0637
12.899614549869717 71.4615
12.9220732548287 72.8021
12.94453245827299 73.1567
12.966974655289818 74.0598
12.989434858002571 74.9473
13.011878055298721 75.842
13.034339260862497 76.501
13.056800969391883 77.676
13.079245674017244 80.9883
13.101708390774869 85.319
13.12415410463411 94.2804
13.146617833206086 104.11200000000001
13.169064559883248 114.492
13.191529303857127 130.127
13.213994557076367 154.219
13.236442809902437 194.05599999999998
13.258909083908291 252.519
13.28135835851934 318.36
13.30382565690295 383.296
13.326293469022952 429.51199999999994
13.348744283242008 417.244
13.371213125129904 335.38699999999994
13.39366497011003 243.75099999999998
13.416134845360597 162.07399999999998
13.438605238843131 120.05
13.46105863690397 107.476
13.483530069144786 108.671
13.505984506951902 113.601
13.528456981549432 123.693
13.550929978879088 139.24200000000002
13.573385983253365 165.725
13.595860028340867 206.30200000000002
13.618317081455832 258.988
13.64079217790333 314.529
13.663250283359057 357.212
13.685726434770173 371.38800000000003
13.708203115221277 327.80300000000005
13.730662806148091 248.43400000000003
13.75314054697177 171.85
13.775601299246777 119.31200000000001
13.798080104050406 93.8306
13.820559442405358 84.6537
13.843021793671388 81.5214
13.865502201420897 80.2289
13.887965623051947 79.7871
13.910447103807167 78.4477
13.932929122629764 76.9762
13.955394156785959 76.8334
13.977877254034569 76.1134
14.000343367582113 75.0535
14.022827546871707 74.4531
14.045294743423524 73.5409
14.06778000837062 73.2259
14.090265817715476 72.9519
14.112734645763819 72.5584
14.13522154619454 72.2062
14.157691466286913 72.0094
14.180179461423874 71.8034
14.202668005486178 71.2831
14.22513957064374 70.6485
14.247629214846473 70.6369
14.270101881097517 70.1
14.29259262906496 70.34899999999999
14.315083930490205 70.4486
14.337558255389705 70.4308
14.360050666019726 70.1368
14.382526101071944 69.5617
14.405019624534942 69.2085
14.427513705993134 69.1211
14.449990813291825 68.8752
14.47248601302899 68.9519
14.49496423954951 69.167
14.517460561197822 69.0444
14.539939910570322 69.0001
14.562437357763558 69.2028
14.58493536931253 69.7817
14.607416409993311 69.9515
14.62991555254159 70.6214
14.652397725157423 70.6956
14.674898002342799 70.7235
14.697398848433282 71.0007
14.719882725991326 72.4114
14.74238471217934 74.4488
14.764869730765593 77.8069
14.787372860692983 80.6809
14.809876564079925 84.948
14.83236330125751 90.8382
14.854868153850365 99.7541
14.877356041159485 114.652
14.899862046604186 134.314
14.922351087688757 160.341
14.944858249632887 189.47799999999998
14.967365991421232 214.623
14.989856770231246 226.46200000000002
15.012365673994204 215.832
15.03485761569738 179.739
15.05736768508665 138.759
15.07987833888692 107.609
15.102372032001655 86.1739
15.124883856909658 75.2333
15.14737872204565 71.586
15.169891721717274 70.6288
15.192405310371893 70.26899999999999
15.214901940621196 70.1836
15.237416709527137 69.7184
15.259914520936249 69.4019
15.282430473753607 68.5159
15.304947020131227 67.9028
15.327446610371178 67.4665
15.349964346154254 67.1222
15.372465126703139 66.8338
15.394984055556009 66.5118
15.417486030076159 66.35
15.44000615566487 66.0014
15.462526881230803 66.0283
15.485030653812652 66.1284
15.507552581617434 65.9003
15.530057557334603 65.7123
15.55258069104857 66.0126
15.575104429329837 65.8874
15.597611216864632 66.0084
15.620136166564563 66.9458
15.6426441664095 68.6368
15.665170331202765 71.3808
15.687697105158826 73.7842
15.710206930593545 77.4004
15.732734925158933 81.2412
15.755245972089478 87.9481
15.77777519094324 97.34200000000001
15.800287463046663 111.184
15.822817909869592 131.063
15.84534897229804 152.189
15.867863089299354 176.18200000000002
15.890395385222186 190.858
15.912910736597423 193.41
15.935444269699861 175.372
15.957978423016485 147.437
15.980495633101265 115.008
16.003031029129367 90.5801
16.02554948280019 73.8117
16.048086125229432 66.3378
16.070623392487107 63.9352
16.09314371869582 62.9405
16.11568223789321 62.0412
16.13820381691126 61.2805
16.160743591742527 60.7294
16.183283996022084 59.9874
16.205807461423195 59.276
16.228349126881973 58.7319
16.25087385432698 58.5112
16.27341678466365 58.1675
16.29594277784926 57.8807
16.31848697676433 57.7481
16.341031811604868 57.7692
16.36355971058487 57.6529
16.3861058195587 57.4413
16.40863499352978 56.8096
16.431182380342005 56.3361
16.453730407713202 55.9973
16.476261501364792 55.5938
16.498810812136167 55.2248
16.52134319004079 55.6036
16.54389378792203 55.475
16.566445031001553 55.0928
16.588979342490088 55.02
16.61153187824822 55.0406
16.634067483263312 54.9363
16.656621315414416 54.7866
16.679175797408888 54.3984
16.701713349928728 54.4812
16.72426913389191 54.586000000000006
16.74680798922351 54.6659
16.76936507887444 54.8635
16.791905240734874 54.7187
16.814463639794468 54.4407
16.837022695210294 54.7128
16.859564824093756 54.955
16.882125194503903 55.3191
16.904668639217885 55.6244
16.927230328348003 55.7462
16.949792678493612 55.6928
16.972338104193863 55.5102
16.994901778652235 55.3475
17.017448529496576 55.6141
17.040013531998152 56.0277
17.06257920018044 56.6123
17.0851279459922 57.5781
17.107694947817667 58.2657
17.130245028099072 58.9439
17.15281336730298 60.2009
17.17536478578733 61.9299
17.19793446610687 64.6141
17.220504818648422 67.6118
17.243058251703697 70.9288
17.265629950971032 75.4939
17.288184731571736 79.7695
17.310757781306908 83.1155
17.33333150794385 84.7973
17.355888317140174 81.2045
17.37846339986244 75.7058
17.401021565958885 69.4013
17.42359800851343 64.6726
17.44617513265564 61.4123
17.468735341390783 60.1239
17.491261035594565 59.1735
17.51396340099364 58.9902
17.536490463869136 59.0473
17.559018209820174 59.1142
17.58154663977963 59.2574
17.604251766089718 59.3508
17.626781572227713 59.7158
17.64931206518155 59.8729
17.671843245885103 60.4308
17.69455114821572 60.5548
17.717083712612634 60.6463
17.739616967569667 61.0515
17.762150914021706 61.4644
17.78486160749854 61.7298
17.807396945166804 62.7919
17.829932977143503 64.10600000000001
17.85246970436452 65.626
17.875183204129467 67.0927
17.897721330097664 69.1154
17.920260154126645 71.3742
17.942799677153296 74.5917
17.9655159983646 78.6334
17.988056927677544 84.3167
18.010598558807683 92.73200000000001
18.033140892692916 103.21
18.05586005052525 114.12299999999999
18.07840379824407 125.83
18.10094825154059 135.92600000000002
18.12366954819864 141.582
18.146215420998306 138.516
18.16876200220057 129.371
18.191309292745153 113.975
18.214033452627167 100.31
18.236582170236648 89.4214
18.259131600016456 86.0284
18.281681742907335 87.0942
18.304408781233683 91.7264
18.32696035875955 96.7593
18.349512652227624 101.42399999999999
18.372065662579683 105.27600000000001
18.394795594587553 105.68299999999999
18.41735004715306 101.01
18.43990521943684 93.2589
18.46246111238171 83.7545
18.485193953325208 74.6982
18.507751296070428 68.44800000000001
18.530309362314178 64.9006
18.552868153000343 63.1722
18.57560391815056 61.9505
18.59816416623245 61.6708
18.620725141597372 61.273999999999994
18.643286845190268 60.6542
18.666025549835414 60.1391
18.688588718427933 59.6552
18.711152618092243 59.6956
18.73389353884365 59.3857
18.75645890921984 58.9595
18.77902501351406 58.647
18.801591852673102 58.5506
18.824335739722738 58.1628
18.846904057212626 58.1619
18.8694731124168 57.6854
18.89204290628315 57.657
18.914789774966803 57.5778
18.937361054791623 57.1022
18.959933076131318 56.8285
18.982505839934877 57.1247
19.00525570560582 57.0388
19.027829963004184 56.6697
19.05040496572238 57.0008
19.072980714710468 57.1004
19.095733592739563 57.3896
19.11831084296757 57.3874
19.140888842324735 57.5163
19.16346759176222 57.7776
19.18622349753803 58.2583
19.208803755869358 59.6335
19.231384767143577 60.9304
19.253966532312948 62.4851
19.276725481241822 64.661
19.29930876296784 67.508
19.3218928014549 70.2529
19.34465404436217 73.2257
19.36723960516257 75.1017
19.389825925592426 75.8711
19.412413006605938 74.3619
19.43517731967805 70.5404
19.457765930683355 66.21300000000001
19.48035530514408 61.8947
19.50294544401556 58.2919
19.525712842708348 56.0708
19.54830451925909 54.9807
19.570896963095727 53.99100000000001
19.593490175174704 53.7362
19.616260674962184 53.7841
19.638855432416964 53.403
19.661450960992624 53.8143
19.68404726164677 53.6807
19.706820878021247 53.1714
19.729418731756834 53.5456
19.752017360452857 53.3998
19.77461676506804 53.6012
19.797393513540218 53.7823
19.819994478951667 53.9645
19.84259622316767 54.5112
19.8651987471481 54.818000000000005
19.887978643247177 55.0788
19.91058273574792 55.5888
19.933187610901943 56.3488
19.955969879466828 57.5186
19.97857632894404 59.3792
20.00118356396599 61.129
20.023791585494575 63.1357
20.046577028914875 65.8235
20.069186632506966 67.648
20.091797025500632 69.3395
20.114408208858933 69.738
20.137196842715273 69.0843
20.159809615886765 67.4516
20.18242318232135 65.0706
20.20503754298326 62.9876
20.227829382875154 62.1014
20.250445341109344 62.0978
20.27306209647285 62.831
20.29567964993108 63.9783
20.31847471147704 64.8997
20.34109387027612 65.4225
20.363713830075454 64.4639
20.386334591841646 63.0126
20.409132890679302 60.1728
20.431755265564437 57.2556
20.454378445325528 54.8896
20.477002430930366 53.0317
20.499803982716553 51.6989
20.522429589228004 51.1175
20.54505600449589 50.6551
20.567683229489194 50.6605
20.590488049900088 50.4753
20.61311690359731 50.1958
20.63574656993626 50.1895
20.658553853717297 49.6901
20.681185154618298 49.6265
20.703817271080066 49.3632
20.72645020407368 48.9175
20.749260783967177 48.9193
20.771895359337133 49.0214
20.794530754161617 48.9512
20.817166969412938 48.8362
20.83998086114876 48.7345
20.86261872660049 48.6311
20.885257415405402 48.7127
20.90789692853701 48.6368
20.930714147864748 48.5317
20.953355319030678 48.684
20.97599731745334 48.7805
20.99864014410749 48.6516
21.021460706796564 48.6077
21.044105199328826 48.9603
21.06675052302631 48.9885
21.089396678865015 49.1051
21.112220600704806 49.5753
21.134868430275347 49.8567
21.15751709492456 50.045
21.180166595629693 50.336999999999996
21.202993892429635 50.8935
21.22564507473034 51.2141
21.24829709602816 51.4644
21.27112693608965 51.4913
21.293780644891275 51.3945
21.316435195634053 50.7844
21.339090589297417 49.8635
21.361923832041875 49.2898
21.384580921090404 48.7715
21.407238856007325 48.3755
21.429897637773326 48.273
21.45273429906592 48.4075
21.475394784108598 48.3981
21.498056118951983 48.2996
21.520718304578022 48.7096
21.543558400304388 48.7359
21.566222297108816 48.8832
21.58888704765135 49.0474
21.61155265291521 49.3502
21.63439619898156 49.8029
21.657063523335786 49.9359
21.67973170537063 50.3895
21.7024007460706 50.8355
21.72524775840385 51.7831
21.747918526116475 52.7661
21.770590155457388 54.2417
21.79326264741238 56.0217
21.816113141960237 57.8434
21.838787368860547 59.4447
21.861462461341976 61.1773
21.884315579735777 63.2387
21.90699241312273 64.3215
21.92967011506078 64.7711
21.95234868653799 64.1239
21.9752053151131 62.6583
21.997885635446785 60.526
22.020566828293532 58.6876
22.04324889464272 57.0875
22.066109049404666 56.1932
22.088792872571794 55.9215
22.111477572219204 55.9621
22.1341631493376 56.0925
22.157026846313123 55.8677
22.179714188221507 55.0182
22.202402410582668 53.6943
22.22509151438863 52.3309
22.24795876962584 51.1398
22.270649646204486 50.2217
22.293341407213727 49.3409
22.316034053646906 49.222
22.338904883215342 48.9167
22.36159931041458 48.8923
22.38429462602756 48.8319
22.40699083104897 48.5876
22.429865251039757 48.7575
22.452563244831367 48.6638
22.47526213102522 48.6224
22.49813925616515 48.5882
22.520839937143307 48.4857
22.543541513520587 48.576
22.56624398629403 48.4874
22.589124730075895 48.5014
22.611829005656723 48.7576
22.63453418063466 48.7408
22.657240256008077 48.9086
22.680124634582935 49.2663
22.70283252079775 49.4331
22.725541310413075 49.5396
22.74825100442868 49.8304
22.771139033969575 50.2931
22.79385054687155 50.5493
22.81656296718292 51.2243
22.83927629590484 52.2386
22.862167992606945 53.2341
22.88488314827121 54.5889
22.907599215359284 55.4743
22.93031619487366 56.4627
22.953211574954405 57.1496
22.975930389478226 57.7708
22.998650119445763 57.8045
23.02137076586092 56.9027
23.044269845560063 55.485
23.06699233506288 53.8503
23.089715744034912 52.1501
23.112617610931565 50.7061
23.135342869061212 49.618
23.158069049684816 49.0992
23.1807961538087 48.7909
23.20370174880544 48.81
23.226430710184808 48.8255
23.249160598093425 48.7781
23.271891413539002 48.8132
23.294800752937697 48.8772
23.31753343374794 49.119
23.340267045128353 49.0811
23.36300158808808 49.5029
23.38591468821339 49.9333
23.408651104658304 50.3714
23.431388455719986 51.0215
23.454126742409 51.9004
23.4770436196085 52.8183
23.499783787914662 54.1546
23.522524894889884 55.0192
23.54526694154616 56.1402
23.56818761219047 57.2157
23.59093154860734 57.7358
23.613676427751283 57.6172
23.636422250635754 56.4265
23.659346731118656 54.7465
23.68209445191868 52.8341
23.704843119509587 50.798
23.72759273490623 48.9244
23.750521041644767 47.824
23.77327256312355 46.9957
23.796025035462787 46.3917
23.818956224555475 45.9755
23.841710609113413 45.8226
23.86446594758979 45.6788
23.887222241002014 45.486000000000004
23.910157285144578 45.098
23.932915498962537 45.0827
23.955674670778713 44.9878
23.978434801611975 44.9347
24.001373717286125 44.7632
24.024135776723917 44.6142
24.046898798245582 44.56100000000001
24.06966278287146 44.3137
24.092605586582614 44.1272
24.115371508023642 43.9577
24.1381383956401 43.8247
24.16090625045381 43.9176
24.183852958731244 43.8191
24.206622758582608 43.6899
24.229393528706886 43.5442
24.252165270127392 43.6887
24.27511589952438 43.4631
24.297889594216997 43.3785
24.32066426328598 43.3103
24.34343990775613 43.2308
24.36639447485003 43.1457
24.38917208083877 43.0004
24.41195066531332 42.9791
24.43490819850244 43.0995
24.457688750692377 42.967
24.48047028445616 43.0085
24.503252800821233 43.0048
24.526214300784112 43.0354
24.548998793132213 42.9545
24.57178427117417 42.933
24.59457073593893 42.9204
24.617536219319863 42.8515
24.64032466834748 42.7986
24.663114107195035 42.6919
24.685904536893013 42.4142
24.708874020360852 42.3342
24.731666442613744 42.3601
24.754459858818787 42.2797
24.777254270007962 42.2713
24.80022777025625 42.1577
24.82302418230472 42.2753
24.845821592443674 42.0575
24.86862000170663 42.2151
24.891597535453727 41.9944
24.914397953892728 42.2834
24.93719937456671 42.3136
24.96000179851076 42.4301
24.98298338249997 42.5418
25.00578782394922 42.8325
25.028593271784167 42.9406
25.05157790644186 43.1982
25.07438537804115 43.4043
25.097193859145293 43.6775
25.120003350792075 43.7526
25.142992065061257 44.097
25.165803588823465 44.3075
25.18861612625217 44.5401
25.211429678386736 44.8028
25.234422489079968 44.692
25.257238081693636 44.743
25.280054692141732 44.7788
25.3028723214652 44.7406
25.325869245420463 44.9174
25.348688923599397 44.9448
25.371509623787006 44.8871
25.394331347025812 44.5654
25.41733240110666 43.9851
25.440156181590016 43.2692
25.46298098826268 42.727
25.48580682216873 42.1765
25.50881202326435 41.5593
25.53163992281684 41.3755
25.55446885274561 41.1437
25.577298814096377 40.8741
25.600308179121807 40.7844
25.623140214533745 40.7866
25.64597328451537 40.5797
25.66898578564376 40.5178
25.691820936010206 40.51
25.714657124097695 40.4268
25.737494350954734 40.4425
25.760511045684957 40.3733
25.783350361364224 40.5236
25.806190718969255 40.4533
25.82903211955018 40.5309
25.852053024868923 40.5045
25.874896522722523 40.650999999999996
25.897741066713106 40.5738
25.920586657892454 40.8393
25.943611790812668 40.8268
25.966459487728237 40.8592
25.989308234998564 40.9104
26.01215803367705 41.2863
26.03518741123814 41.4443
26.05803932412957 41.6688
26.080892291600094 41.6755
26.10374631470478 41.6654
26.12677995397268 41.6858
26.14963609978026 41.5526
26.172493304397875 41.1396
26.19535156888223 41.0612
26.218389486949604 40.6921
26.241249882640123 40.3707
26.26411134137826 40.2267
26.28715248187403 40.2503
26.31001607820869 39.973
26.3328807407756 39.9361
26.35574647063438 40.1206
26.37879191991473 40.0352
26.401659795896734 40.1262
26.424528742360263 40.1317
26.447398760366614 40.4692
26.470448535598294 40.6101
26.49332070826805 40.8879
26.516193955675355 41.1996
26.53906827888316 41.3636
26.562122397260108 41.3899
26.584998883685063 41.7248
26.607876449110325 42.0263
26.63075509460056 42.1266
26.65381357334404 42.1228
26.67669439061878 42.0721
26.699576291163382 41.9148
26.722459276044212 41.8339
26.745522132402975 41.4472
26.768407297649354 41.2594
26.791293550442003 40.907
26.814180891848974 40.8074
26.837248143099337 40.533
26.860137673466657 40.3977
26.88302829566349 40.0482
26.90592001075963 39.885999999999996
26.92899167420566 39.6913
26.951885586870763 39.3338
26.974780595655517 39.0724
26.99785558178161 39.0477
27.020752794605112 38.884
27.043651106772522 38.7837
27.06655051935668 38.7215
27.089629948036183 38.6857
27.112531573292053 38.5828
27.135434302194138 38.6634
27.158338135817015 38.4542
27.181422024430987 38.5636
27.204328079372566 38.3749
27.22723524226965 38.4421
27.250143514198573 38.5082
27.273231880156334 38.4898
27.296142382065014 38.2638
27.319053996245536 38.23
27.341966723775965 38.3549
27.365059584515222 38.4169
27.38797455070062 38.4527
27.410890633481237 38.3538
27.433807833936918 38.3171
27.456905206923906 38.5393
27.47982465472398 38.4285
27.502745223449743 38.5249
27.525666914182825 38.5595
27.548768816912457 38.544000000000004
27.571692763693633 38.4794
27.59461783573812 38.2902
27.617723149491244 38.0742
27.640650484125285 38.0279
27.66357894728264 38.0935
27.686508540048052 38.0547
27.709618414237887 37.8446
27.732550278321757 37.7023
27.755483275279115 37.7486
27.778417406196485 37.8075
27.801531858397514 37.8733
27.824468269376716 37.7367
27.847405817586786 37.8582
27.870344504116094 37.9758
27.893463551932008 38.0828
27.916404527281053 38.3129
27.93934664422563 38.3795
27.962289903855886 38.4727
27.98541356491974 38.7482
28.00835912214229 38.7527
28.03130582533231 39.0195
28.054253675581805 39.0587
28.077381967556104 39.1576
28.100332124185126 39.0052
28.123283431160893 38.9561
28.146235889577238 38.6566
28.169368830154156 38.5077
28.192323603752033 38.2769
28.215279532083304 37.983000000000004
28.238415973016764 37.6822
28.261374223145094 37.564
28.284333631303806 37.4602
28.307294198589954 37.3216
28.330435319167677 36.9762
28.353398217078915 36.8379
28.376362277420153 36.5638
28.39932750129032 36.4879
28.422473319286713 36.2953
28.44544088262495 36.3
28.468409612800283 36.2958
28.491379510913497 35.8378
28.51453004413313 35.7733
28.53750229057244 35.8229
28.56047570826344 35.8429
28.583450298308804 35.7952
28.606605564586562 35.6193
28.629582511831156 35.6999
28.65256063474956 35.5101
28.675539934446338 35.5642
28.698699951647605 35.4747
28.72168161743193 35.4332
28.74466446331978 35.443000000000005
28.767648490417624 35.3153
28.790813276438353 35.3413
28.813799678527303 35.3921
28.836787265157085 35.3302
28.859955641890075 35.4785
28.882945610203045 35.3493
28.905936766392035 35.3168
28.928929111566863 35.288000000000004
28.952102288520145 35.2181
28.975097024308607 35.0683
28.998092952423807 34.9638
29.021090073977508 34.879
29.04426806913204 34.7335
29.067267590245258 34.6976
29.090268308143695 34.5787
29.11327022394099 34.5462
29.13645305530891 34.3964
29.159457379627167 34.3566
29.18246290519685 34.2166
29.20546963313352 34.2026
29.22865731875826 34.3307
29.25166646419296 34.3399
29.27467681535305 34.2136
29.29768837335608 34.3545
29.320880931312562 34.2843
29.34389491580634 34.1699
29.366910110507334 34.1645
29.38992651653503 34.264
29.41312396492981 34.2117
29.436142806456754 34.1665
29.45916286268059 33.9475
29.48236399319994 33.9066
29.50538649169417 33.7411
29.528410208259935 33.6714
29.55143514402014 33.4184
29.574641196749695 33.269
29.597668583816574 33.171
29.6206971934585 33.0098
29.64372702680042 33.1131
29.666938019934474 33.0221
29.689970313635285 33.0584
29.713003834422636 32.9348
29.73603858342347 32.8184
29.759254535188578 32.8244
29.78229175361658 32.7717
29.80533020365064 32.755
29.82836988641968 32.8438
29.85159081507472 32.7904
29.874632976355343 32.5866
29.89767637376955 32.7559
29.920721008448314 32.571
29.9439469322847 32.5279
29.96699405457564 32.4142
29.9900424175358 32.4956
30.013092022298157 32.417
30.03632295963995 32.4086
30.059375061131373 32.44
30.08242840783577 32.4746
30.105483000888153 32.4469
30.128718970092244 32.4373
30.151776069006917 32.314
30.17483441768648 32.413000000000004
30.198074175317235 32.4013
30.221135036724256 32.3757
30.24419715131772 32.2571
30.267260520236203 32.092
30.290505341942243 32.2243
30.313571232750228 32.2736
30.336638381310948 32.2897
30.35970678876503 32.288000000000004
30.38295669299435 32.1201
30.40602763151657 32.1456
30.429099832366074 32.2035
30.452173296685572 32.0141
30.47542830191959 32.1249
30.498504306502497 32.0056
30.521581577995562 32.218
30.544660117543582 32.2298
30.56792024229725 32.1728
30.59100133132069 32.0645
30.614083691845494 32.1687
30.637167325018545 32.2052
30.660432587840603 32.2205
30.683518779717886 32.1546
30.70660624769615 32.1772
30.729694992924372 32.171
30.75296541239743 32.1872
30.77605672557558 32.1413
30.799149319462742 32.056
30.8224236211637 32.0033
30.845518789950724 31.8826
30.868615242910597 31.8942
30.891712981195973 31.6599
30.91499247215866 31.5443
30.938092794619365 31.5639
30.96119440587579 31.3372
30.984297307082752 31.2577
31.00758200598383 31.2254
31.030687500658694 31.1419
31.053794288760695 31.0678
31.076902371446767 30.8861
31.100192296997445 31.1008
31.12330298246119 31.0584
31.14641496599209 30.8767
31.169528248749216 30.9285
31.19282341969534 30.9204
31.215939314557186 30.8257
31.239056512134788 30.8743
31.262175013589378 30.8688
31.28547544871168 30.7292
31.30859657161541 30.7956
31.331719001892175 30.803
31.35484274070538 30.9862
31.378148458819545 30.9325
31.401274828443725 30.8569
31.424402510106933 30.878
31.447712205419993 30.9814
31.470842524931633 30.7453
31.493974159989783 30.7155
31.51710711176168 30.747
31.54042212308802 30.7908
31.563557722100917 30.7014
31.586694641341655 30.5606
31.609832881979628 30.4246
31.63315322823208 30.3786
31.656294125521327 30.2602
31.679436347728515 30.2068
31.70257989602529 30.2091
31.725905596152327 30.1822
31.74905181052835 30.0326
31.772199354521323 30.1096
31.79534822930507 30.158
31.818679302290967 30.1876
31.84183085259981 30.1686
31.864983737233473 30.1465
31.88813795736804 30.1589
31.911474422233013 30.0081
31.934631327356435 30.0486
31.9577895715215 30.0187
31.980949155906522 29.9815
32.004291031706956 30.061
32.027453310562606 29.8842
32.05061693318573 29.69
32.07396288236386 29.7115
32.09712920658542 29.6418
32.12029687812702 29.5324
32.14346589817093 29.3905
32.166817291729984 29.4189
32.18998902288583 29.4024
32.21316210610336 29.2839
32.23633654256711 29.1698
32.259693399663725 29.2007
32.282870556771144 29.1364
32.30604907069099 29.1232
32.329228942610065 29.038
32.35259128243769 29.0086
32.375773884550505 28.8853
32.398957848235646 28.9258
32.422143174682176 28.8553
32.445511016471215 28.7492
32.468699082679954 28.7376
32.49188851523011 28.6248
32.51507931531304 28.5427
32.538452678331 28.5665
32.56164622776311 28.5993
32.58484114831493 28.4739
32.60803744118015 28.4996
32.631416344731896 28.4789
32.654615396551876 28.4096
32.67781582427913 28.3019
32.701198898634416 28.2314
32.72440209253756 28.1795
32.747606665947124 28.2388
32.77081262006088 28.1623
32.79420126883317 28.0433
32.81740999876112 28.1086
32.840620112999424 28.0187
32.86383161274818 27.9495
32.88722585534586 27.943
32.91044014056596 28.0177
32.933655814909734 27.958000000000002
32.95687287957963 27.9838
32.98027273544904 27.8386
33.00349259526636 27.8689
33.026713849030116 27.8231
33.04993649794511 27.7597
33.073341986570746 27.7972
33.09656744032826 27.8
33.11979429286444 27.6474
33.14302254538647 27.6412
33.166433686291185 27.6725
33.18966475336992 27.728
33.212897224069096 27.5988
33.23613109959831 27.5648
33.259547912343415 27.4924
33.2827846121627 27.541999999999998
33.306022720453775 27.4146
33.32926223842861 27.3804
33.352684742614166 27.4533
33.37592709463173 27.3887
33.399170859982064 27.2509
33.422597648419426 27.1552
33.44584425514446 27.1057
33.46909227885668 27.1194
33.4923417207723 26.9573
33.51577423505344 26.8581
33.539026528130385 26.7997
33.56228024307245 26.8795
33.585535381098246 26.7124
33.60897364093058 26.7199
33.63223163992385 26.6594
33.6554910656699 26.6048
33.678751919389796 26.6645
33.702195944520106 26.5701
33.72545966903325 26.5802
33.74872482519663 26.3899
33.771991414233746 26.4399
33.79544122444841 26.3784
33.81871069412428 26.3122
33.84198160035767 26.2657
33.86525394437455 26.3155
33.88870955949969 26.2916
33.911984794020626 26.2755
33.93526147001624 26.2029
33.958539588715006 26.1526
33.98200102861669 26.0575
34.0052820477047 25.9561
34.02856451319451 26.041
34.05203033759056 26.0008
34.07531571090147 25.9011
34.09860253431845 25.9166
34.121890809074316 25.8958
34.145362493118924 25.7882
34.16865368561615 25.8245
34.191946333164054 25.7459
34.21524043699793 25.7794
34.23871800066799 25.7548
34.26201503218366 25.5586
34.28531352370466 25.4812
34.30861347646881 25.5308
34.33209693978188 25.508000000000003
34.3553998301885 25.5183
34.378704185565205 25.4227
34.402010007152356 25.261999999999997
34.42549939016683 25.3168
34.44880815937748 25.3072
34.472118398533134 25.1717
34.49543010887669 25.1756
34.51892543169198 25.1048
34.54224009966052 25.0616
34.56555624255917 25.1222
34.58887386163339 25.0415
34.61237514439016 24.951999999999998
34.6356957311114 24.9451
34.65901779775809 24.9277
34.68252356662995 24.9391
34.705848608458616 24.9378
34.72917513396849 24.8492
34.75250314440949 24.6191
34.77601490857862 24.671999999999997
34.799345904259795 24.6865
34.82267838863559 24.684
34.846012362958525 24.6337
34.869530142679984 24.6248
34.89286711232212 24.559
34.91620557568269 24.533
34.93954553401677 24.5068
34.9630693495876 24.366999999999997
34.986412313340814 24.4401
35.00975677584668 24.5142
35.033102738362956 24.3229
35.05663261012228 24.2782
35.0799815881786 24.2861
35.10333207003229 24.2369
35.12668405694369 24.2081
35.150220005273056 24.2307
35.17357501786656 24.1467
35.19693153931268 24.1507
35.220289570874385 24.0695
35.24383161619786 24.0906
35.267192683604904 24.0607
35.290555264930376 23.9772
35.314101899412165 24.0655
35.33746752422433 24.0753
35.36083466676374 23.9804
35.38420332829803 23.9985
35.407756095629054 23.9981
35.43112781085063 23.9288
35.45450104888391 23.8831
35.477875810999194 23.9109
35.50143473172161 23.8612
35.52481255774625 23.8016
35.54819191167777 23.7762
35.57157279478914 23.7131
35.595137889488406 23.6281
35.61852184675279 23.6945
35.641907337029984 23.578000000000003
35.665294361595684 23.5891
35.68886565090076 23.5783
35.7122557598848 23.5274
35.73564740699838 23.4793
35.759040593519934 23.4637
35.78261809810353 23.3832
35.80601437933051 23.2811
35.829412203814705 23.2728
35.85281157283719 23.2378
35.876395313415884 23.2678
35.8997977874528 23.1604
35.92320180988546 23.076999999999998
35.946790244133936 23.0954
35.97019737933222 23.0053
35.993606066789866 23.0709
36.01701630779276 22.9814
36.04061101440684 22.9776
36.06402437852291 22.9791
36.08743930005611 22.9004
36.1108557802951 22.8195
36.13445678011326 22.8378
36.15787639383515 22.8645
36.18129757014299 22.8415
36.20472031032821 22.7353
36.22832762423364 22.6742
36.25175350829375 22.7214
36.275180960119776 22.5508
36.298609981005924 22.6569
36.32222362992669 22.5988
36.34565580510207 22.5731
36.36908955323448 22.5126
36.39252487562093 22.4764
36.416144880530226 22.4345
36.43958336764275 22.3327
36.463023432914625 22.3893
36.486465077645676 22.3144
36.51009145956204 22.462
36.53353627947859 22.3638
36.55698268276811 22.3053
36.58043067073321 22.2108
36.60406345072071 22.1611
36.62751462435344 22.1782
36.65096738658405 22.1169
36.67460498210655 22.1135
36.69806093788647 22.0942
36.72151848619297 21.9236
36.744977628333636 21.9368
36.76862165890998 21.9379
36.79208400512205 21.9248
36.81554794910557 21.8354
36.83901349217101 21.8141
36.862663978991606 21.7198
36.88613273667352 21.7184
36.90960309738324 21.7325
36.933075062434064 21.6252
36.95673202673572 21.7502
36.98020721697122 21.646
37.003684015502365 21.5483
37.027162423645365 21.5366
37.050825886711465 21.561
37.07430753063053 21.4675
37.09779078812467 21.4659
37.121275660513014 21.4158
37.144945643673694 21.3817
37.16843376245278 21.3986
37.19192350009803 21.3612
37.215414857931435 21.2711
37.239091382563885 21.25
37.262585997426164 21.193
37.28608223645736 21.2273
37.309763684451696 21.1767
37.33326318851098 21.0944
37.356764320726555 21.061
37.380267082425526 21.1198
37.40395510942588 21.0275
37.42746114683234 21.031999999999996
37.45096881771841 20.9267
37.474478123414166 20.9558
37.49817275092816 20.886999999999997
37.52168534303452 20.8991
37.54519957395567 20.756
37.568715445024665 20.8519
37.592416694607714 20.8156
37.61593586281424 20.7587
37.63945667518264 20.755
37.66297913304891 20.6344
37.68668702630454 20.596999999999998
37.710212792059274 20.5354
37.733740207334854 20.5541
37.757269273470364 20.5028
37.780983832050374 20.4512
37.80451621684926 20.4295
37.82805025654007 20.4075
37.851585952464795 20.4419
37.8753071980695 20.3461
37.89884622345676 20.2639
37.92238690911902 20.3432
37.94611318753442 20.2649
37.969657210779765 20.2156
37.99320289834801 20.2082
38.016750251586465 20.1292
38.04048325513017 20.0969
38.06403395679343 20.0708
38.087586328183946 20.0504
38.11114037065203 20.0647
38.13488012115898 20.0842
38.1584375229181 20.0062
38.181996599821 19.9748
38.205557353221124 19.9495
38.229303872575656 19.9377
38.2528679961576 19.8886
38.27643380031219 19.8062
38.30000128639589 19.7986
38.32375459653193 19.7643
38.34732546371299 19.7
38.37089801690786 19.634
38.39447225747609 19.5948
38.418232380377425 19.5909
38.441810012983396 19.5626
38.46538933705673 19.5798
38.488970353960084 19.549
38.51273731166058 19.5465
38.536321731567014 19.5036
38.55990784840681 19.4477
38.58367995004091 19.3777
38.60726947812959 19.3974
38.63086070726198 19.4299
38.654453638806274 19.3499
38.678232613930824 19.269000000000002
38.70182896773327 19.2604
38.72542702806741 19.1601
38.7490267963045 19.2642
38.77281266709232 19.1212
38.79641586862214 19.1142
38.8200207821842 19.0753
38.843627409152944 19.1426
38.86742019782782 19.0964
38.891030269149255 19.0575
38.914642058016156 18.9865
38.938255565806124 18.9972
38.96205529464307 18.9778
38.98567225787121 18.8953
39.00929094417078 18.8897
39.03291135492255 18.8201
39.05671804624804 18.8904
39.080341923549106 18.8263
39.103967529460334 18.8266
39.127594865365744 18.6883
39.15140854155791 18.6607
39.17503935514948 18.6832
39.19867190290282 18.6517
39.22249083587951 18.6277
39.24612686969409 18.6084
39.269764641845306 18.4866
39.293404153722804 18.4995
39.317230110864074 18.5173
39.34087311998506 18.4864
39.36451787301696 18.4221
39.388164371352595 18.3677
39.41199737518003 18.2802
39.43564738196752 18.3557
39.45929913825317 18.2737
39.48295264543308 18.2277
39.506792718520884 18.2554
39.530449745387216 18.2605
39.55410852735203 18.1811
39.57776906581474 18.1754
39.60161623079 18.1365
39.625280300200025 18.125
39.64894613032202 18.0079
39.67261372255866 18.0382
39.6964680021016 17.9725
39.72013913657293 18.0677
39.74381203738292 18.0139
39.76748670593756 17.9281
39.79134812278169 17.9181
39.81502634488497 17.9105
39.83870633896685 17.8013
39.862388106436654 17.8041
39.88625668336918 17.8028
39.90994201572829 17.7599
39.933629125719285 17.6868
39.957503091207826 17.7078
39.9811937746168 17.7409
40.00488623990914 17.6684
40.02858048850006 17.6026
40.05246165409549 17.6099
40.076159487492085 17.5697
40.099859108448875 17.5586
40.123560518384345 17.5115
40.1474489070226 17.4939
40.171153913178564 17.4305
40.194860712584955 17.3983
40.2185693066637 17.3914
40.242464941335314 17.3473
40.26617714307655 17.3289
40.289891143772046 17.3111
40.3136069448471 17.2745
40.33750984859743 17.2491
40.3612292688043 17.2126
40.3849504936829 17.1831
40.40867352466194 17.2017
40.43258372059144 17.1875
40.45631038219906 17.1717
40.48003885420956 17.0558
40.503769138055105 17.061
40.52768664931955 17.026
40.55142057531802 17.0002
40.57515631746428 16.9614
40.599079334038514 16.9442
40.62281872700477 16.8693
40.64655994043941 16.8429
40.67030297578061 16.8889
40.69423334835778 16.9287
40.71798004609188 16.886
40.74172857006355 16.7367
40.76547892171441 16.7394
40.7894166736039 16.7639
40.813170699248566 16.684
40.83692655691388 16.7063
40.86068424804498 16.7293
40.884629402612525 16.6425
40.908390779366385 16.6274
40.932153993938 16.6547
40.95591904777605 16.5673
40.979871628443995 16.5183
41.003640379561936 16.5308
41.02741097430883 16.498
41.05118341413683 16.4999
41.075143444384416 16.445999999999998
41.098919593177826 16.4427
41.1226975914255 16.3857
41.14647744058318 16.371
41.170444943946755 16.2421
41.19422851378379 16.2726
41.218013938914645 16.2729
41.24198706625173 16.2718
41.26577622087193 16.183
41.289567235177785 16.1674
41.31336011063129 16.135
41.337340752422875 16.1247
41.361137369129835 16.0741
41.38493585138705 16.0165
41.40873620066004 16.0418
41.43272438060107 15.9844
41.45652848292052 16.02
41.48033445666918 15.9388
41.50414230331616 15.8547
41.528138045159764 15.8697
41.551949656675205 15.857999999999999
41.575763145513235 15.8235
41.59957851314666 15.886
41.62358184070442 15.7616
41.64740098505737 15.7319
41.6712220126409 15.7429
41.69504492493139 15.7434
41.71905586207357 15.7561
41.74288256296395 15.7423
41.766711153007456 15.6468
41.79054163368412 15.5419
41.814560204340054 15.6031
41.838394485526365 15.5925
41.86223066180303 15.5557
41.88625497706819 15.5396
41.910094962812 15.5098
41.93393684811168 15.515999999999998
41.95778063445365 15.3972
41.981812625263366 15.3423
42.00566023303407 15.3594
42.029509746323676 15.353
42.05336116662236 15.3754
42.077400857069705 15.3528
42.10125611078846 15.2685
42.12511327600405 15.2996
42.14897235421036 15.1973
42.173019768448455 15.213
42.19688269209613 15.1368
42.22074753323349 15.1471
42.24461429335818 15.1241
42.268669455600495 15.0814
42.292540073217886 15.047
42.31641261433284 15.0675
42.34028708044675 15.0058
42.36435001496739 14.9413
42.38822835065557 15.002
42.41210861586426 15.0187
42.4359908120986 14.932
42.46006154323262 14.8572
42.48394762115317 14.8391
42.507835634632315 14.8738
42.531912233047436 14.8887
42.55580413732265 14.8066
42.579697981698 14.7624
42.60359376768525 14.7806
42.62767820545945 14.767999999999999
42.65157789440821 14.7112
42.67547952952185 14.6457
42.699383112316 14.668
42.72347541395347 14.6284
42.74738291190531 14.5548
42.771292362102166 14.5793
42.795203766063516 14.5217
42.819303956130405 14.5242
42.843219287476536 14.4555
42.86713657716324 14.498
42.89105582671383 14.4771
42.91516392983864 14.424000000000001
42.939087119032166 14.4121
42.963012272677304 14.3791
42.98693939230129 14.3743
43.01105543317513 14.3217
43.034986504731386 14.3
43.05891954686589 14.2562
43.08285456110972 14.279000000000002
43.10697856448665 14.2707
43.130917542983475 14.1891
43.15485849820081 14.174000000000001
43.17880143167367 14.132
43.20293342237094 14.1015
43.226880332449 14.1298
43.25082922540554 14.1132
43.27496722682525 14.04
43.29892010567796 14.040999999999999
43.32287497204102 14.0449
43.34683182745632 13.9968
43.370977859791836 13.9519
43.39493871351105 13.9249
43.41890156092628 13.9384
43.44286640358341 13.8909
43.46702049182749 13.8598
43.49098934522816 13.8329
43.51496019852649 13.8136
43.5389330532723 13.814
43.56309522248204 13.7787
43.58707210044314 13.7608
43.61105098451946 13.677999999999999
43.63503187626491 13.7074
43.659202151562134 13.6437
43.68318707902681 13.5963
43.70717401884041 13.5768
43.731162972560874 13.5796
43.75534137913236 13.5552
43.779334381108384 13.5746
43.803329401683186 13.5809
43.82732644241872 13.5212
43.8515130055166 13.4928
43.87551410707659 13.4385
43.89951723350145 13.4087
43.923709934595614 13.3829
43.94771713129917 13.4292
43.97172635758096 13.37
43.99573761501002 13.3704
44.0199385169922 13.3459
44.04395385732619 13.3033
44.067971233533086 13.2688
44.09199064718605 13.2301
44.11619977548961 13.1978
44.14022328470671 13.2192
44.16424883610785 13.2135
44.18827643127035 13.2252
44.21249381139513 13.177
44.236525514814076 13.0832
44.26055926674478 13.0873
44.28459506876863 13.1398
44.3088207262813 13.0593
44.33286064928722 12.9952
44.35690262714919 12.981
44.38094666145278 12.9389
44.4051806219871 12.9924
44.42922879003185 12.9422
44.45327901929361 12.8854
44.477331311362136 12.9059
44.501573600619416 12.852
44.525630039221795 12.818
44.54968854541895 12.8563
44.573937102200176 12.8566
44.5979997645541 12.8283
44.622064499300315 12.764000000000001
44.64613130803592 12.7243
44.67038823869318 12.7238
44.69445921643748 12.6698
44.718532272981385 12.6261
44.742607409926194 12.6584
44.76687274034801 12.6402
44.79095205918753 12.5496
44.81503346325094 12.5929
44.839116954143876 12.5956
44.86339071028742 12.5407
44.88747839599524 12.4969
44.91156817336837 12.4673
44.93566004401666 12.4926
44.959942251908146 12.4721
44.984038330325966 12.4016
45.00813650686762 12.3849
45.03223678314731 12.3796
45.05652746888232 12.3665
45.08063196592069 12.3608
45.104738567558705 12.2882
45.128847275414856 12.2882
45.15314646515866 12.2645
45.17725940679741 12.2378
45.20137445952892 12.1919
45.22568004865265 12.2009
45.24979934496396 12.1927
45.27392075725247 12.1267
45.29804428714431 12.1344
45.322358426247604 12.1464
45.346486212804315 12.1201
45.370616121861914 12.089
45.39474815505086 12.0587
45.41907087049246 12.0247
45.4432071734666 12.0065
45.46734560548283 11.9886
45.49148616817604 12.0055
45.51581748638564 11.9717
45.5399623320197 11.9271
45.56410931325473 11.9279
45.58825843173002 11.9214
45.61259837920865 11.8634
45.636751793816 11.8935
45.66090735060093 11.8574
45.68506505120716 11.8065
45.7094136545275 11.7866
45.73357566449271 11.7213
45.75773982322992 11.7426
45.78190613238733 11.7315
45.806263418194064 11.6388
45.83043404997326 11.6636
45.85460683713677 11.6694
45.87897065658495 11.6355
45.90314777634752 11.6222
45.92732705646868 11.5853
45.9515084986045 11.5885
45.97588104735473 11.5454
46.00006683541565 11.5169
46.02425479047904 11.4971
46.04844491420549 11.4828
46.0728262191024 11.4619
46.09702070211635 11.4568
46.12121735879483 11.4881
46.14541619080294 11.4193
46.169806278764455 11.4215
46.194009483459034 11.4036
46.21821486849841 11.3528
46.24242243555223 11.3279
46.266821333570014 11.2591
46.29103328674601 11.2821
46.31524742696538 11.3528
46.33946375590237 11.2556
46.36387149104216 11.2042
46.38809221957392 11.2201
46.41231514186606 11.2066
46.436540259597464 11.1831
46.460956858999374 11.1284
46.48518638983522 11.1187
46.509418121166966 11.0934
46.533652054678114 11.110999999999999
46.55807754555709 11.0798
46.58231590571962 11.0598
46.60655647313217 10.9804
46.630988654873654 10.9643
46.655233659129024 10.9821
46.67948087571551 10.9738
46.70373030632484 10.931
46.72817142736393 10.9435
46.752425308428684 10.8985
46.77668140861147 10.8843
46.80093972960865 10.8059
46.82538981736788 10.8348
46.849652602470904 10.835999999999999
46.87391761349769 10.8259
46.8981848521493 10.7867
46.9226439341274 10.7432
46.946915650573224 10.7374
46.97118959976749 10.7225
46.99546578341598 10.7098
47.019933887188216 10.6915
47.04421456235744 10.6394
47.06849747711879 10.6612
47.09278263318286 10.6462
47.11725978640143 10.6016
47.14154944775105 10.5722
47.165841355555656 10.5383
47.1901355115306 10.4989
47.214621741924994 10.5605
47.23892041698887 10.5111
47.26322134538975 10.464
47.28771440635075 10.4517
47.31201986422527 10.4535
47.33632758061436 10.4524
47.360637557241866 10.3816
47.38513974410611 10.3506
47.40945426407847 10.3571
47.43377104948137 10.3858
47.45809010204344 10.345
47.48260144275502 10.3254
47.506925052572285 10.3189
47.53125093475548 10.2601
47.55557909103813 10.2098
47.58009961361992 10.1678
47.60443234110732 10.2096
47.62876734791564 10.2
47.65310463578333 10.2032
47.6776343683373 10.1787
47.7019762413987 10.1428
47.72632040075572 10.1136
47.75066684815169 10.1075
47.77520581885936 10.0776
47.799556865477655 10.0618
47.823910205386 10.0372
47.84826584033272 10.033999999999999
47.87281407745551 9.98982
47.89717432569297 9.97983
47.92153687423484 9.974960000000001
47.94609208429692 9.9372
47.97045925671401 9.94163
47.99482873471275 9.9137
48.01920052005013 9.90899
48.04376504619224 9.89385
48.068141469543484 9.902280000000001
48.09252020552573 9.86248
48.11690125590099 9.8053
48.1414751266064 9.80669
48.16586082917454 9.798589999999999
48.19024885144316 9.74655
48.2146391951793 9.78224
48.239222439012764 9.7701
48.26361744916137 9.765939999999999
48.28801478610016 9.75957
48.31241445160131 9.73034
48.337007097209366 9.67578
48.36141144338331 9.66506
48.38581812345755 9.63907
48.41022713920929 9.60336
48.434829215320704 9.5901
48.45924292604658 9.5906
48.48365897780325 9.59912
48.50807737237308 9.55856
48.532688907799276 9.54776
48.55711201168574 9.53021
48.581537463754074 9.53631
48.60615611725119 9.522960000000001
48.63058628942721 9.45594
48.65501881516546 9.43374
48.6794536962573 9.42753
48.70408185970339 9.4075
48.72852147531801 9.395010000000001
48.75296345168211 9.36817
48.77740779059232 9.39425
48.80204549302823 9.355039999999999
48.82649458091802 9.32811
48.85094603676547 9.31368
48.87539986237231 9.20871
48.90004713292306 9.22931
48.92450572200832 9.26176
48.94896668628025 9.22547
48.97343002754588 9.20041
48.99808689542115 9.24566
49.02255501470614 9.181230000000001
49.04702551642794 9.138069999999999
49.0714984023988 9.17176
49.096164896893235 9.11105
49.120642575466796 9.10297
49.145122643748394 9.097560000000001
49.16960510355558 9.100610000000001
49.19428125404938 9.081539999999999
49.2187685210852 9.035960000000001
49.243258185121555 9.05219
49.26794160167084 8.97613
49.2924360839405 8.964160000000001
49.31693296869764 8.932030000000001
49.34143225776915 8.930810000000001
49.36612538195438 8.95781
49.39062950396021 8.93797
49.41513603578346 8.93253
49.4396449792564 8.91998
49.46434784069503 8.88791
49.488861631846454 8.85305
49.513377840166804 8.85173
49.537896467493745 8.8446
49.56260909589029 8.788310000000001
49.587132585683285 8.80232
49.611658500018365 8.814969999999999
49.636186840738596 8.778189999999999
49.66090926588511 8.75033
49.685442483902584 8.726410000000001
49.70997813385706 8.67478
49.734516217597076 8.67699
49.75924846937352 8.66325
49.7837914452858 8.627889999999999
49.80833686055187 8.61278
49.83288471702571 8.58163
49.85762682540054 8.57057
49.882179588965734 8.579260000000001
49.9067347993235 8.572280000000001
49.93129245833333 8.57363
49.95604445336378 8.55102
49.98060703442832 8.4921
50.005172069746266 8.481860000000001
50.02993150438364 8.484
50.05450147301533 8.46257
50.07907390151433 8.48541
50.10364879174981 8.42417
50.12841816587289 8.433530000000001
50.1529980044635 8.42326
50.17758031042124 8.40162
50.20216508562089 8.36972
50.22694442953363 8.345360000000001
50.25153416817468 8.32488
50.27612638170508 8.336319999999999
50.300721072005196 8.30144
50.325510416102105 8.28958
50.350110084975064 8.2385
50.37471223628208 8.26078
50.39931687190919 8.23069
50.424116246675766 8.25259
50.44872587605249 8.21405
50.47333799543065 8.20127
50.49795260670191 8.18929
50.52276204271512 8.14005
50.54738166295838 8.15535
50.57200378079314 8.1115
50.596628398116835 8.10978
50.62144792604559 8.13113
50.646077567609396 8.0951
50.670709714377715 8.07958
50.69553683636198 8.0756
50.72017401885922 8.06575
50.7448137122895 8.0236
50.76945591856022 8.032680000000001
50.79429318636823 8.0192
50.818940443716784 7.998360000000001
50.84359021965163 7.97715
50.868242516085964 7.94672
50.893089960641895 7.93348
50.917747323549435 7.93962
50.94240721271973 7.921869999999999
50.96706963007175 7.868130000000001
50.99192728239342 7.872910000000001
51.01659478166073 7.84991
51.04126481489051 7.867939999999999
51.06593738400761 7.84793
51.090805275207074 7.8049
51.11548294172845 7.779610000000001
51.14016314993547 7.777419999999999
51.164845901758845 7.76353
51.18972406304274 7.77866
51.21441192780656 7.73417
51.23910234200271 7.72267
51.2637953075678 7.72133
51.288683770237945 7.675910000000001
51.31338186432707 7.652610000000001
51.33808251561888 7.67243
51.362978729967345 7.63738
51.387684521509755 7.62161
51.41239287610203 7.62419
51.437103795691165 7.61308
51.46201036644977 7.5638
51.486726441956634 7.564369999999999
51.51144508832545 7.589289999999999
51.536166307509156 7.51969
51.56108326624387 7.504160000000001
51.58580965706056 7.499969999999999
51.61053862657523 7.48935
51.635270176746864 7.46841
51.66019755512065 7.4479
51.68493429268881 7.432289999999999
51.70967361681515 7.43295
51.73441552946465 7.41182
51.759353359237934 7.402610000000001
51.7841004750961 7.37073
51.80885018539685 7.3539699999999995
51.833602492111254 7.3341199999999995
51.8585508051424 7.3320300000000005
51.883308330926425 7.29783
51.90806845906181 7.30225
51.932831191525715 7.295839999999999
51.95779001977161 7.24061
51.98255798721516 7.22305
52.00732856494335 7.23033
52.03229530577543 7.2511600000000005
52.057071130455945 7.21059
52.081849571391054 7.16914
52.106630630568695 7.19865
52.13160794279417 7.13381
52.15639426492067 7.1413899999999995
52.18118321127822 7.176019999999999
52.205974783860896 7.107760000000001
52.23096269971011 7.10585
52.255759551287994 7.1293
52.280559035098186 7.078189999999999
52.30536115314103 7.05605
52.33035970494467 7.0625800000000005
52.35516711807904 7.03405
52.37997717147198 6.98997
52.40478986713005 7.001710000000001
52.42979908731974 6.99632
52.454617094216 6.978619999999999
52.47943774942214 6.95367
52.50426105495102 6.934310000000001
52.529280976059844 6.93848
52.554109609024096 6.8991
52.57894089837482 6.90446
52.60377484613117 6.90676
52.62880550079408 6.918260000000001
52.65364479223379 6.85067
52.67848674816189 6.84192
52.70352547971946 6.836939999999999
52.72837279155837 6.84068
52.753222773982785 6.78477
52.778075429022984 6.773569999999999
52.80312495150885 6.7812600000000005
52.827982978797436 6.779139999999999
52.85284368481815 6.770919999999999
52.87770707160767 6.759710000000001
52.90276741793998 6.725960000000001
52.92763619336701 6.6892
52.952507655698504 6.7255199999999995
52.977381806977576 6.6913100000000005
53.00245301017842 6.68185
53.02733256653592 6.622380000000001
53.052214817996074 6.64198
53.077099766608484 6.6308300000000004
53.102181859804446 6.62735
53.127072229988265 6.63428
53.15196530349892 6.527340000000001
53.17686108239249 6.55314
53.20195409881522 6.5488
53.22685531582556 6.52189
53.25175924441303 6.47054
53.27666588664027 6.50329
53.30176985962693 6.482469999999999
53.3266819565689 6.46955
53.35159677336455 6.44674
53.376514312083096 6.4356
53.40162927507703 6.474130000000001
53.42655228516116 6.448930000000001
53.45147802340193 6.45515
53.47660125628886 6.45421
53.50153247842639 6.39365
53.52646643496923 6.361000000000001
53.55140312799818 6.34084
53.576537409691696 6.34523
53.60147960336152 6.3585400000000005
53.626424539786164 6.3436
53.65137222105307 6.32704
53.67651758529126 6.31635
53.70147078399681 6.23348
53.72642673383343 6.21059
53.75138543689533 6.24524
53.776541917524526 6.22393
53.801506154876755 6.21052
53.826473151763246 6.20901
53.851442910284916 6.22976
53.87661054126026 6.18633
53.9015858509782 6.1636
53.92656392866066 6.14579
53.95154477641532 6.15756
53.976723591801296 6.14605
54.00171000771266 6.068919999999999
54.02669920004598 6.07797
54.051691170915745 6.05123
54.076881204886796 6.04335
54.101878760928514 6.0709599999999995
54.12687910187696 6.05814
54.152077577768296 6.06583
54.1770835166946 6.0469
54.20209224691339 5.98603
54.22710377055121 5.97814
54.25231352511594 5.97351
54.27733066384342 5.9517
54.30235060239643 5.96208
54.32737334290836 5.92391
54.35259441062629 5.8785300000000005
54.377622783395324 5.91895
54.40265396455061 5.8745
54.42768795623251 5.87071
54.45292037169559 5.865130000000001
54.477960012857906 5.8350800000000005
54.50300247099511 5.76665
54.52804774825457 5.80072
54.55329154616743 5.80053
54.57834249018678 5.74479
54.6033962597977 5.71295
54.6284528571545 5.66412
54.653708072335164 5.64804
54.67877035378786 5.6503
54.70383546947698 5.65305
54.72890342156389 5.63563
54.7541700889442 5.59106
54.77924374251975 5.574330000000001
54.8043202390049 5.5639400000000006
54.82959552413022 5.55663
54.8546777351945 5.51771
54.87976279569621 5.50279
54.90485070780914 5.505809999999999
54.930137506558005 5.47745
54.95523115074295 5.45265
54.98032765308844 5.4443
55.005427015775496 5.4284
55.03072536339621 5.44123
55.05583047570572 5.414619999999999
55.080938454927676 5.33804
55.10604930325027 5.32852
55.131359235107396 5.36595
55.15647585066083 5.31829
55.181595341907496 5.332000000000001
55.20671771104285 5.256130000000001
55.232039262617704 5.20545
55.25716741665048 5.20539
55.28229845518636 5.18615
55.30743238042802 5.14674
55.33276558731939 5.10703
55.357905315183636 5.15409
55.383047936390035 5.0629599999999995
55.40819345314859 5.06566
55.433538351073295 5.0835099999999995
55.458689688238415 5.04599
55.483843927614096 4.9958599999999995
55.509197623043605 4.98727
55.53435769621134 4.90942
55.55952067826466 4.94186
55.5846865714265 4.92928
55.61005202069737 4.91133
55.63522376553902 4.92136
55.66039842818645 4.874969999999999
55.68557601087004 4.84249
55.7109532500271 4.79304
55.73613670233794 4.86685
