TT I
1.2716486653135266 8.377469999999999
1.2939594142134223 8.00513
1.3162702121660406 7.3357600000000005
1.3385810600174564 6.86723
1.3608919586137629 7.378430000000001
1.383202908801069 7.30055
1.405513911425503 6.5054300000000005
1.4278249673332093 6.54941
1.4501343378461518 6.94715
1.4724455028545926 6.59885
1.4947567236847858 7.22785
1.517068001182951 6.44254
1.5393793361953272 6.11867
1.5616907295681737 6.0082
1.5840021821477681 5.49469
1.60631369478041 6.17002
1.6286252683124185 6.51304
1.6509369035901333 5.99777
1.6732468618895553 5.75776
1.695558623192809 5.09114
1.7178704487808514 5.19031
1.7401823395001077 5.1322
1.7625012545597203 5.670669999999999
1.7848028405262486 5.83712
1.8071218901122095 5.65602
1.8294236121921872 5.0833699999999995
1.8517427996910911 5.917009999999999
1.8740620574440425 5.74153
1.8963639900671978 5.06453
1.9186833908139995 5.17546
1.9409854680117449 5.35681
1.9633050151394713 5.46908
1.9856246367570705 5.52505
2.0079269371922672 5.75847
2.03024671027244 5.1199699999999995
2.0525491637446027 5.3531699999999995
2.074869091674931 5.25098
2.097171701569106 5.065230000000001
2.1194917877373847 5.31459
2.141811954326636 5.4436800000000005
2.164114805233074 4.987080000000001
2.186435135143035 4.932180000000001
2.208738150935709 4.52801
2.231058647554722 4.35636
2.2533792288321184 4.19192
2.275682498336085 4.40848
2.298003251406138 4.78015
2.3203066942619714 4.33275
2.3426276225136022 4.64979
2.3649486396617507 4.62665
2.387252348930071 4.37582
2.4095735463442893 2.85735
2.4318774374315884 3.24633
2.4541988185014043 3.8634800000000005
2.476502894794693 4.02179
2.498824462909887 4.54097
2.521146125856138 4.40152
2.5434504863470337 4.02387
2.5657723414244717 4.58284
2.588076895590662 5.1336
2.610398946189713 5.08386
2.6327210958598384 4.8343
2.6550259469304716 4.26234
2.6773482972090137 5.37956
2.6996533504259 6.179790000000001
2.7219759047039602 5.92391
2.744298562293959 5.70884
2.7666039251246595 5.607130000000001
2.7889267918020164 6.03085
2.8112323652516555 6.05357
2.833555444408179 6.8539
2.8558786311183852 7.645919999999999
2.8781845268938557 7.81763
2.9005079311721484 8.58127
2.9228140460410397 8.48757
2.9451376712799635 8.97582
2.967444008632326 9.39744
2.9897678582247247 9.32511
3.0120918213106695 10.0273
3.0343984987899373 10.138
3.0567226913198637 10.9873
3.079029599759726 11.6448
3.101354025127254 12.1419
3.123678568232338 12.6015
3.145985829517914 13.1537
3.16831061055229 13.4323
3.1906181112775593 14.0331
3.212943133635653 14.5025
3.2352682779763207 14.8315
3.2575761442691227 15.628
3.2799015350264273 15.2831
3.302209649240067 15.8131
3.3245352898092655 16.8825
3.3468436553365257 17.3996
3.369169549113219 17.5623
3.3914955708171384 18.3041
3.413804319727358 18.7606
3.4361305997334863 18.8168
3.4584396084414553 19.5181
3.4807661501462652 19.8914
3.503092824025881 20.2114
3.5254022288463154 20.0752
3.5477291695206588 20.7255
3.5700388426251948 20.9406
3.5923660534916446 21.4001
3.6146934007816114 21.8856
3.637003482731501 22.0757
3.6593311053109985 22.3035
3.681641464033634 23.0257
3.7039693653009733 23.3675
3.726297407241705 24.1113
3.7486081875460804 24.9016
3.7709365132734978 25.2649
3.793247578841633 25.284000000000002
3.8155761917550093 25.6536
3.8378875459837216 26.1631
3.8602164494827234 26.1488
3.882545499606844 26.9776
3.9048572932539183 27.533
3.9271866390645718 27.9652
3.9494987298666713 28.246
3.971828374764527 28.5616
3.9941581705403255 29.2633
4.016470713506008 29.6092
4.038800813471445 30.2509
4.061113662089144 30.7763
4.0834440696459176 31.5622
4.105774632334751 31.8466
4.128087945865126 32.6294
4.150418821249301 32.6909
4.172732448931298 33.632
4.195063640413578 34.3804
4.2173775856475215 35.0152
4.239709096631102 35.5944
4.262040768704612 36.3054
4.284355196706267 36.7927
4.306687193387355 37.5213
4.329001947444346 38.6955
4.35133427213731 39.2116
4.373666762177566 39.9342
4.395982011761091 40.6687
4.418314834921175 41.8007
4.44063041906622 42.4191
4.4629635787515625 43.6206
4.4852969080429785 44.3645
4.5076130004776225 45.6744
4.529946671403969 46.8423
4.552263106909177 47.5665
4.574597122877047 48.6531
4.596931312711224 50.1242
4.619248269273446 51.2984
4.6415828092605835 52.2928
4.663900117405352 53.4086
4.686235010953232 54.5364
4.708552674085913 56.1636
4.730887924602802 57.6176
4.753223354952695 58.7588
4.775541557023902 60.5454
4.797877349456786 61.9923
4.820195915032126 64.0302
4.842532072957498 65.4001
4.864868414979744 67.5431
4.88718753227192 69.791
4.909524244902505 72.2268
4.931843734218147 74.8739
4.954180820867835 78.8097
4.976518095879839 82.8397
4.998838149695359 86.029
5.021175803844231 90.7943
5.043496238205739 95.8206
5.065834274903528 102.315
5.088172504230693 109.273
5.1104935158799565 119.288
5.132832132875765 134.57
5.155153533596801 159.16
5.1774925416746225 219.638
5.199814334878411 586.567
5.2221537374521505 2023.19
5.244493338631803 3761.13
5.266815727034316 5072.4
5.289155727832427 7644.87
5.311478517248165 9467.88
5.333818921080011 6735.93
5.356159527788849 2275.95
5.3784829252032536 533.799
5.400823940070432 232.207
5.423147747031976 170.885
5.445489173474152 144.0
5.467830807066149 130.509
5.490155234831516 122.179
5.512497285125229 115.384
5.534822130975162 111.756
5.557164601388673 108.366
5.579489868738879 104.126
5.601832762690846 101.94200000000001
5.6241758697774475 100.154
5.646501775867269 99.4412
5.668845311622074 98.2487
5.691171647754637 97.8453
5.713515615597765 96.6006
5.735859800852677 95.4144
5.758186788542988 94.76899999999999
5.780531411018185 95.5507
5.802858837297399 94.76799999999999
5.825203900414495 95.7048
5.8475491852224 97.3189
5.869877275883075 99.695
5.892223006467101 102.741
5.914551544266608 106.73899999999999
5.936897724049891 114.24700000000001
5.959244129804903 127.84700000000001
5.981573344815301 161.031
6.0039202049061 302.27299999999997
6.026249875609095 778.0419999999999
6.04859719346037 1401.1
6.070927323278297 1852.79
6.093275102315365 2499.92
6.115623113320588 3516.06
6.137953938319995 3925.49
6.160302415650845 2310.81
6.182633708324452 752.452
6.2049826554078376 234.31900000000002
6.227331838745022 128.906
6.249663839443684 102.458
6.27201349767565 90.7706
6.294345974611799 83.8333
6.316696111167083 78.7574
6.339046488263839 75.6069
6.361379686074702 72.4636
6.383730546639482 70.3366
6.406064229255215 68.2931
6.428415576718203 67.5454
6.450749747566656 66.2176
6.47310158535871 64.6382
6.495453669698332 63.9457
6.517788579421056 63.1643
6.540141159237969 62.1111
6.562476565766648 61.1438
6.5848296444934045 60.5953
6.607182974060425 59.6927
6.6295191323281015 59.1527
6.651872965955752 58.5138
6.6742096296068985 57.9433
6.6965639707294615 57.5284
6.71891856698715 56.8793
6.741255995248479 56.8992
6.763611104154477 56.4869
6.785949046381137 55.933
6.808304671371482 54.9246
6.8306605557940046 55.3778
6.852999275508618 54.6688
6.875355681171544 54.2962
6.897694923437771 54.0747
6.92005185377892 54.2761
6.9423916220322655 53.7958
6.964749080490181 53.0019
6.987106804399774 52.93899999999999
7.009447368180821 52.7831
7.031805625367033 52.915
7.054146723727803 52.8208
7.076505517631004 52.2054
7.098864581288365 52.4244
7.121206488070854 52.0842
7.143566093607822 51.4604
7.165908543567245 51.7713
7.188268694426048 51.8526
7.2106291193438095 51.5052
7.232972390625943 51.3114
7.255333366030969 51.3687
7.277677189091925 51.3157
7.300038718428332 51.5813
7.322400526130865 51.5162
7.344745183422596 51.8292
7.367107550224791 51.56
7.389452767901992 51.9615
7.411815697249891 51.7412
7.434161478756298 51.478
7.456524974096713 51.5473
7.478888753837185 51.3627
7.501235387657368 52.5358
7.523599738562711 56.2481
7.545946944825532 63.5691
7.568311870344528 66.1364
7.5906770845765665 61.2053
7.613025156078678 56.1532
7.635390950099687 54.2578
7.657739602662809 52.8357
7.680105979923558 52.7414
7.702472650212829 53.2458
7.724822180948224 53.3818
7.747189439655568 53.7798
7.769539560075357 53.615
7.791907410653562 54.5265
7.81425812420825 54.5533
7.836626570110925 54.4332
7.858995315087906 55.5033
7.881346924933401 55.5781
7.903716270417482 56.1118
7.926068482028405 56.5132
7.948438431475253 57.1906
7.9708086843180235 57.2613
7.993161805171116 58.0127
8.015532667162402 58.5177
8.037886398416653 59.6162
8.060257873014221 60.0209
8.082629655331942 60.4573
8.104984308787587 61.393
8.127356708900503 62.1217
8.149711981398308 62.8305
8.172085002766314 63.2238
8.194458336181368 64.7702
8.216814543847752 65.9508
8.23918850371002 67.3616
8.26154533906492 68.6859
8.283919928836452 70.3346
8.306277395339652 71.6322
8.328652618483376 73.0766
8.351028159736202 75.1817
8.373386579575245 77.6519
8.395762759396959 80.2908
8.418121819038275 83.5545
8.440498640894003 88.3659
8.462875785192262 95.9129
8.485235811156207 111.72200000000001
8.507613602688501 176.392
8.529974277114228 375.39599999999996
8.552352719347912 615.837
8.574731488360351 770.4119999999999
8.59709314210385 836.538
8.619472567021075 1000.04
8.64183487789147 1356.82
8.664214962183097 1785.59
8.686577933647762 1697.67
8.708958680784317 1038.47
8.731339760774953 456.647
8.753703729764451 188.475
8.77608547780821 119.801
8.798450116065078 105.171
8.820832535634787 98.208
8.843215292401656 94.1462
8.865580941199045 91.2064
8.887964374703538 88.6114
8.910330701447199 87.2131
8.932714815164482 85.8851
8.955099270424924 84.5814
8.977466620733543 84.1682
8.999851761421976 83.266
9.022219798361645 82.4861
9.04460562795561 82.3644
9.066991803441677 81.6471
9.089360876979615 81.5291
9.111747746589993 81.3529
9.13411751544971 80.7199
9.156505082664324 80.2438
9.178875550323522 80.7442
9.20126381862328 81.8287
9.223652438908596 87.6198
9.246023961427412 99.4381
9.26841328802173 102.801
9.290785518039224 96.4212
9.313175554425882 88.3357
9.335565947154315 83.1496
9.357939245086508 81.825
9.380330352834827 81.5004
9.40270436697103 81.2292
9.425096193225055 81.1009
9.447488380180165 82.2139
9.469863475295412 82.7093
9.492256385987508 83.1711
9.514632206018318 83.545
9.537025843935714 83.7846
9.559402392368193 84.4757
9.581796761000229 85.2882
9.604191496441521 85.5823
9.626569144158516 86.7281
9.648964615551032 87.3399
9.671343000390081 87.6102
9.693739211225699 88.8624
9.716135793237463 89.6947
9.738515290448102 91.1112
9.760912617143402 92.1652
9.783292860202891 93.3881
9.805690935076182 94.9664
9.828089385495742 95.7355
9.850470754023561 98.0784
9.872869957865444 100.443
9.89525208097539 103.272
9.917652041736662 107.5
9.940052382417589 114.08
9.962435644102392 131.282
9.984836746950979 188.43
10.007220771957746 350.12300000000005
10.029622640473708 558.626
10.052007432299963 682.793
10.074410069984072 711.039
10.096813093716005 759.663
10.119199042482517 931.721
10.141602840636468 1261.38
10.163989564971628 1591.73
10.186394141051062 1598.13
10.208799107559706 1076.78
10.231187001965623 544.482
10.253592751657669 237.424
10.275981430388155 139.305
10.298387966769793 117.773
10.320794897965431 112.189
10.343184759907361 108.07600000000001
10.36559248305461 105.145
10.387983138083852 104.43
10.410391656691655 106.675
10.432800574501677 121.124
10.455192425893369 165.213
10.47760214443012 218.09099999999998
10.499994797678786 249.84
10.522405320453982 255.172
10.54479877906917 265.723
10.567210109595656 304.30400000000003
10.5896218454736 376.51099999999997
10.612016518879773 469.904
10.634429067781074 494.95
10.656824555333241 400.01099999999997
10.679237920773568 253.21900000000002
10.701651695961992 145.501
10.724048411481384 103.74700000000001
10.746463008485165 91.6343
10.768860546937125 86.6528
10.791275969274796 83.2885
10.81369180576079 81.428
10.836090585366925 80.1009
10.858507252467449 78.7215
10.88090686379991 77.1911
10.903324365036394 76.4851
10.925724811614439 75.235
10.948143150509463 74.6268
10.970561909719066 73.6381
10.992963615930844 72.9619
11.015383218085756 71.9642
11.037785768347074 70.852
11.06020621697282 70.7302
11.082627090322113 70.156
11.105030913430326 69.3446
11.12745263854165 68.7332
11.149857314510728 67.7109
11.172279894912576 67.8842
11.194702904450653 67.0474
11.217108866490921 66.5493
11.239532736615194 66.1294
11.26193956033512 65.8118
11.284364294577085 65.6332
11.306789462371718 65.14399999999999
11.329197585398376 64.7911
11.351623622610898 64.586
11.37403261614354 64.0552
11.396459526308487 63.8402
11.418869393879497 63.4647
11.441297180532617 63.1861
11.463725406927658 62.4749
11.486136592353875 62.4139
11.508565700543707 62.2934
11.530977768845315 62.2109
11.553407762368774 61.7125
11.575838200059769 61.8123
11.598251599479612 61.3429
11.620682927815501 61.3236
11.64309721895548 61.5251
11.665529441478206 61.0109
11.687962112597958 60.9123
11.710377748130886 61.1963
11.732811318753434 60.727
11.755227854859067 60.6892
11.777662328529495 60.6137
11.800079768750786 60.6538
11.822515149015453 60.5346
11.844950984084935 60.7991
11.867369787303163 60.5462
11.889806534289491 60.7532
11.912226250487029 62.1046
11.934663912939751 64.4947
11.9571020346363 66.4737
11.979523127133968 66.5258
12.001962169624331 66.0164
12.024384183972964 65.2451
12.046824150809913 67.6109
12.069264581333726 77.439
12.091687985297767 90.9864
12.11412934550045 101.83
12.136553680195208 106.98200000000001
12.158995973632788 109.008
12.181438735204349 112.439
12.20386447284199 122.061
12.226308172985636 141.759
12.24873485024193 168.495
12.271179492516982 188.304
12.293607112949127 183.017
12.316052700916226 145.917
12.338498763250042 103.97
12.360927805303868 76.8899
12.383374818673879 67.1414
12.405804812803074 63.8174
12.428252780773262 62.9506
12.45070122756722 62.7826
12.473132656675375 62.4279
12.49558206341869 62.7047
12.518014453510101 62.4606
12.540464823770117 62.5118
12.562915677315177 62.6495
12.58534951575545 63.0105
12.607801338171472 62.765
12.630236146511358 62.9011
12.652688941369085 63.4674
12.675124723177234 63.8902
12.697578494048786 64.4277
12.720032754458185 64.4382
12.742470003354093 65.0023
12.764925245138771 65.6801
12.787363476431278 66.0687
12.809819703166806 66.2575
12.83227642391173 67.0702
12.854716135692716 67.6689
12.877173846755147 68.5898
12.899614549869717 69.2365
12.9220732548287 69.9426
12.94453245827299 70.3824
12.966974655289818 71.5611
12.989434858002571 72.4675
13.011878055298721 73.3703
13.034339260862497 74.3975
13.056800969391883 76.1856
13.079245674017244 78.8467
13.101708390774869 80.8717
13.12415410463411 86.3875
13.146617833206086 103.085
13.169064559883248 133.81799999999998
13.191529303857127 166.359
13.213994557076367 188.84900000000002
13.236442809902437 195.61700000000002
13.258909083908291 196.68599999999998
13.28135835851934 204.40099999999998
13.30382565690295 226.485
13.326293469022952 269.019
13.348744283242008 329.596
13.371213125129904 384.27099999999996
13.39366497011003 390.439
13.416134845360597 325.829
13.438605238843131 227.324
13.46105863690397 151.828
13.483530069144786 122.835
13.505984506951902 131.484
13.528456981549432 156.138
13.550929978879088 175.08
13.573385983253365 182.025
13.595860028340867 180.69299999999998
13.618317081455832 182.577
13.64079217790333 194.928
13.663250283359057 219.955
13.685726434770173 261.228
13.708203115221277 313.79200000000003
13.730662806148091 340.26300000000003
13.75314054697177 315.51
13.775601299246777 246.30200000000002
13.798080104050406 165.63099999999997
13.820559442405358 110.915
13.843021793671388 89.2453
13.865502201420897 82.1625
13.887965623051947 80.3836
13.910447103807167 78.5856
13.932929122629764 76.7701
13.955394156785959 76.4824
13.977877254034569 75.4558
14.000343367582113 74.3497
14.022827546871707 73.6722
14.045294743423524 73.0631
14.06778000837062 72.5181
14.090265817715476 72.2721
14.112734645763819 72.2751
14.13522154619454 73.4697
14.157691466286913 74.4476
14.180179461423874 74.2228
14.202668005486178 73.0974
14.22513957064374 71.5177
14.247629214846473 70.2729
14.270101881097517 69.2037
14.29259262906496 68.8214
14.315083930490205 68.5621
14.337558255389705 68.4119
14.360050666019726 68.0926
14.382526101071944 67.991
14.405019624534942 67.7477
14.427513705993134 67.4272
14.449990813291825 67.52199999999999
14.47248601302899 67.4047
14.49496423954951 67.5947
14.517460561197822 67.4421
14.539939910570322 67.1046
14.562437357763558 67.5859
14.58493536931253 67.8799
14.607416409993311 67.9073
14.62991555254159 68.2281
14.652397725157423 68.5828
14.674898002342799 68.8595
14.697398848433282 68.8715
14.719882725991326 70.1471
14.74238471217934 70.6032
14.764869730765593 73.4153
14.787372860692983 79.8599
14.809876564079925 93.4478
14.83236330125751 107.82799999999999
14.854868153850365 117.12799999999999
14.877356041159485 120.387
14.899862046604186 120.185
14.922351087688757 121.715
14.944858249632887 127.49
14.967365991421232 139.03
14.989856770231246 155.785
15.012365673994204 181.24200000000002
15.03485761569738 203.917
15.05736768508665 206.423
15.07987833888692 183.89700000000002
15.102372032001655 146.836
15.124883856909658 107.02600000000001
15.14737872204565 84.0034
15.169891721717274 74.2331
15.192405310371893 71.1628
15.214901940621196 69.5322
15.237416709527137 68.3999
15.259914520936249 68.1194
15.282430473753607 67.2311
15.304947020131227 66.7282
15.327446610371178 66.405
15.349964346154254 66.0029
15.372465126703139 65.7576
15.394984055556009 65.7718
15.417486030076159 65.5366
15.44000615566487 65.0916
15.462526881230803 64.8381
15.485030653812652 64.8315
15.507552581617434 64.8548
15.530057557334603 64.9095
15.55258069104857 64.9093
15.575104429329837 65.2661
15.597611216864632 65.1599
15.620136166564563 65.0982
15.6426441664095 65.7923
15.665170331202765 67.6735
15.687697105158826 73.4188
15.710206930593545 84.1169
15.732734925158933 95.4376
15.755245972089478 103.616
15.77777519094324 107.419
15.800287463046663 107.18
15.822817909869592 107.196
15.84534897229804 109.61
15.867863089299354 117.41
15.890395385222186 128.51
15.912910736597423 145.535
15.935444269699861 167.972
15.957978423016485 183.926
15.980495633101265 181.146
16.003031029129367 158.322
16.02554948280019 123.26899999999999
16.048086125229432 92.8019
16.070623392487107 74.8857
16.09314371869582 66.8299
16.11568223789321 63.2261
16.13820381691126 61.5128
16.160743591742527 60.7792
16.183283996022084 59.9688
16.205807461423195 59.0018
16.228349126881973 58.4956
16.25087385432698 58.3252
16.27341678466365 57.5484
16.29594277784926 57.1705
16.31848697676433 56.5805
16.341031811604868 56.1243
16.36355971058487 56.2816
16.3861058195587 56.0141
16.40863499352978 55.4094
16.431182380342005 55.1076
16.453730407713202 54.9738
16.476261501364792 54.9411
16.498810812136167 54.6203
16.52134319004079 54.4929
16.54389378792203 54.1645
16.566445031001553 54.0725
16.588979342490088 54.2167
16.61153187824822 53.9452
16.634067483263312 53.9223
16.656621315414416 53.7198
16.679175797408888 53.5088
16.701713349928728 53.7482
16.72426913389191 53.6525
16.74680798922351 53.5142
16.76936507887444 53.4772
16.791905240734874 53.5538
16.814463639794468 53.6317
16.837022695210294 53.5761
16.859564824093756 53.6311
16.882125194503903 53.8536
16.904668639217885 54.1481
16.927230328348003 54.4219
16.949792678493612 54.6827
16.972338104193863 54.5909
16.994901778652235 54.5468
17.017448529496576 54.5201
17.040013531998152 54.7611
17.06257920018044 55.0339
17.0851279459922 56.1121
17.107694947817667 58.3687
17.130245028099072 60.5173
17.15281336730298 62.7316
17.17536478578733 63.9074
17.19793446610687 64.2988
17.220504818648422 64.3382
17.243058251703697 64.2919
17.265629950971032 65.3708
17.288184731571736 67.2807
17.310757781306908 70.1139
17.33333150794385 73.2895
17.355888317140174 77.1964
17.37846339986244 80.4629
17.401021565958885 80.9732
17.42359800851343 77.8539
17.44617513265564 72.0045
17.468735341390783 65.9635
17.491261035594565 61.5674
17.51396340099364 59.3309
17.536490463869136 58.5392
17.559018209820174 58.3621
17.58154663977963 58.549
17.604251766089718 58.438
17.626781572227713 58.7149
17.64931206518155 58.802
17.671843245885103 59.1828
17.69455114821572 59.2534
17.717083712612634 59.593
17.739616967569667 60.135
17.762150914021706 60.7033
17.78486160749854 61.0071
17.807396945166804 61.6018
17.829932977143503 62.1929
17.85246970436452 63.4814
17.875183204129467 66.0732
17.897721330097664 71.6196
17.920260154126645 78.428
17.942799677153296 83.815
17.9655159983646 86.9319
17.988056927677544 87.8474
18.010598558807683 87.8298
18.033140892692916 88.351
18.05586005052525 89.9453
18.07840379824407 93.8442
18.10094825154059 99.9764
18.12366954819864 109.15899999999999
18.146215420998306 122.016
18.16876200220057 136.59
18.191309292745153 145.454
18.214033452627167 144.411
18.236582170236648 132.061
18.259131600016456 114.152
18.281681742907335 97.6213
18.304408781233683 87.7682
18.32696035875955 83.8206
18.349512652227624 83.9115
18.372065662579683 87.539
18.394795594587553 92.0218
18.41735004715306 97.6801
18.43990521943684 101.939
18.46246111238171 102.26799999999999
18.485193953325208 97.2825
18.507751296070428 88.0473
18.530309362314178 78.1099
18.552868153000343 70.2355
18.57560391815056 65.2585
18.59816416623245 63.0192
18.620725141597372 61.8104
18.643286845190268 60.9275
18.666025549835414 60.3098
18.688588718427933 59.6875
18.711152618092243 59.5645
18.73389353884365 59.3525
18.75645890921984 58.7795
18.77902501351406 58.251999999999995
18.801591852673102 58.2383
18.824335739722738 57.7293
18.846904057212626 57.8169
18.8694731124168 57.1896
18.89204290628315 57.3886
18.914789774966803 57.233999999999995
18.937361054791623 56.903
18.959933076131318 56.5216
18.982505839934877 56.5637
19.00525570560582 56.5841
19.027829963004184 56.2145
19.05040496572238 56.2525
19.072980714710468 56.3345
19.095733592739563 56.278999999999996
19.11831084296757 56.6765
19.140888842324735 57.9377
19.16346759176222 59.0971
19.18622349753803 60.6081
19.208803755869358 61.4782
19.231384767143577 61.8367
19.253966532312948 61.6433
19.276725481241822 61.6221
19.29930876296784 61.9094
19.3218928014549 62.699
19.34465404436217 63.7154
19.36723960516257 65.1966
19.389825925592426 67.1884
19.412413006605938 69.9065
19.43517731967805 72.4425
19.457765930683355 73.6439
19.48035530514408 72.7608
19.50294544401556 69.4134
19.525712842708348 64.3935
19.54830451925909 60.2247
19.570896963095727 56.2819
19.593490175174704 54.6022
19.616260674962184 53.8606
19.638855432416964 53.2392
19.661450960992624 53.3939
19.68404726164677 53.2761
19.706820878021247 53.0056
19.729418731756834 53.1937
19.752017360452857 52.6923
19.77461676506804 52.9107
19.797393513540218 52.9712
19.819994478951667 53.3482
19.84259622316767 54.2079
19.8651987471481 55.5195
19.887978643247177 56.4708
19.91058273574792 57.3153
19.933187610901943 57.8984
19.955969879466828 58.0339
19.97857632894404 58.0512
20.00118356396599 58.0235
20.023791585494575 58.0011
20.046577028914875 59.1889
20.069186632506966 60.6542
20.091797025500632 62.9353
20.114408208858933 65.7552
20.137196842715273 68.5846
20.159809615886765 71.31
20.18242318232135 72.0263
20.20503754298326 70.9344
20.227829382875154 68.7445
20.250445341109344 65.4616
20.27306209647285 62.4368
20.29567964993108 60.3941
20.31847471147704 59.6728
20.34109387027612 60.4316
20.363713830075454 61.5068
20.386334591841646 63.3301
20.409132890679302 64.6385
20.431755265564437 64.4368
20.454378445325528 62.6864
20.477002430930366 59.555
20.499803982716553 56.5036
20.522429589228004 53.3725
20.54505600449589 51.5489
20.567683229489194 50.8236
20.590488049900088 50.1912
20.61311690359731 50.0737
20.63574656993626 49.7435
20.658553853717297 49.3885
20.681185154618298 49.4569
20.703817271080066 49.2864
20.72645020407368 48.8568
20.749260783967177 48.8211
20.771895359337133 48.849
20.794530754161617 48.8093
20.817166969412938 48.5658
20.83998086114876 48.6814
20.86261872660049 48.4714
20.885257415405402 48.3061
20.90789692853701 48.3068
20.930714147864748 48.1201
20.953355319030678 48.1259
20.97599731745334 48.4128
20.99864014410749 48.2785
21.021460706796564 48.5947
21.044105199328826 48.9271
21.06675052302631 48.9756
21.089396678865015 49.0074
21.112220600704806 48.917
21.134868430275347 49.1677
21.15751709492456 48.9218
21.180166595629693 48.8234
21.202993892429635 49.0489
21.22564507473034 49.3008
21.24829709602816 49.8182
21.27112693608965 50.2774
21.293780644891275 50.7992
21.316435195634053 50.9853
21.339090589297417 50.9168
21.361923832041875 50.8456
21.384580921090404 50.2177
21.407238856007325 49.6303
21.429897637773326 49.0221
21.45273429906592 48.5831
21.475394784108598 48.4272
21.498056118951983 48.3513
21.520718304578022 48.4474
21.543558400304388 48.153
21.566222297108816 48.3798
21.58888704765135 48.5803
21.61155265291521 49.0889
21.63439619898156 49.9271
21.657063523335786 50.9802
21.67973170537063 51.9492
21.7024007460706 52.8498
21.72524775840385 53.4149
21.747918526116475 53.5616
21.770590155457388 53.6142
21.79326264741238 53.677
21.816113141960237 54.1173
21.838787368860547 54.782
21.861462461341976 55.641999999999996
21.884315579735777 57.3098
21.90699241312273 58.7521
21.92967011506078 60.8115
21.95234868653799 62.9379
21.9752053151131 64.6186
21.997885635446785 65.7849
22.020566828293532 65.2703
22.04324889464272 63.6541
22.066109049404666 60.8312
22.088792872571794 58.1815
22.111477572219204 56.1234
22.1341631493376 55.1739
22.157026846313123 54.8721
22.179714188221507 55.3757
22.202402410582668 55.9744
22.22509151438863 55.7381
22.24795876962584 55.1369
22.270649646204486 54.0243
22.293341407213727 52.573
22.316034053646906 51.0247
22.338904883215342 49.9457
22.36159931041458 49.3222
22.38429462602756 48.93899999999999
22.40699083104897 48.547
22.429865251039757 48.4639
22.452563244831367 48.5793
22.47526213102522 48.4353
22.49813925616515 48.2697
22.520839937143307 48.2942
22.543541513520587 48.5049
22.56624398629403 48.3396
22.589124730075895 48.294
22.611829005656723 48.3783
22.63453418063466 48.4281
22.657240256008077 48.6494
22.680124634582935 49.043
22.70283252079775 49.8582
22.725541310413075 50.7118
22.74825100442868 50.9708
22.771139033969575 51.6264
22.79385054687155 51.2907
22.81656296718292 51.3689
22.83927629590484 51.4431
22.862167992606945 51.633
22.88488314827121 51.8366
22.907599215359284 51.9741
22.93031619487366 52.3543
22.953211574954405 53.132
22.975930389478226 53.9259
22.998650119445763 55.1189
23.02137076586092 56.0555
23.044269845560063 57.3113
23.06699233506288 57.8443
23.089715744034912 57.5403
23.112617610931565 56.1803
23.135342869061212 54.2727
23.158069049684816 52.4499
23.1807961538087 50.7048
23.20370174880544 49.7121
23.226430710184808 49.1454
23.249160598093425 48.9658
23.271891413539002 48.8571
23.294800752937697 49.3554
23.31753343374794 50.1638
23.340267045128353 50.7139
23.36300158808808 51.32899999999999
23.38591468821339 51.583
23.408651104658304 51.4656
23.431388455719986 51.3388
23.454126742409 51.2187
23.4770436196085 51.2078
23.499783787914662 51.6513
23.522524894889884 51.6406
23.54526694154616 51.8835
23.56818761219047 52.6611
23.59093154860734 53.2746
23.613676427751283 54.5625
23.636422250635754 55.8231
23.659346731118656 56.8914
23.68209445191868 57.5453
23.704843119509587 57.1584
23.72759273490623 55.5817
23.750521041644767 53.7457
23.77327256312355 51.3815
23.796025035462787 49.2812
23.818956224555475 47.603
23.841710609113413 46.8686
23.86446594758979 46.0891
23.887222241002014 45.7321
23.910157285144578 45.3073
23.932915498962537 45.2104
23.955674670778713 45.0446
23.978434801611975 44.9082
24.001373717286125 44.7802
24.024135776723917 44.6589
24.046898798245582 44.5922
24.06966278287146 44.4186
24.092605586582614 44.2116
24.115371508023642 44.0251
24.1381383956401 43.8554
24.16090625045381 43.843
24.183852958731244 43.8325
24.206622758582608 43.4671
24.229393528706886 43.4438
24.252165270127392 43.5622
24.27511589952438 43.5241
24.297889594216997 43.2315
24.32066426328598 43.2258
24.34343990775613 43.2202
24.36639447485003 43.1242
24.38917208083877 43.0897
24.41195066531332 42.9752
24.43490819850244 42.9103
24.457688750692377 42.7982
24.48047028445616 42.5914
24.503252800821233 42.7151
24.526214300784112 42.8127
24.548998793132213 42.6982
24.57178427117417 42.6615
24.59457073593893 42.5145
24.617536219319863 42.6409
24.64032466834748 42.833
24.663114107195035 42.8114
24.685904536893013 42.6609
24.708874020360852 42.6104
24.731666442613744 42.7054
24.754459858818787 42.4731
24.777254270007962 42.2619
24.80022777025625 42.1034
24.82302418230472 42.0246
24.845821592443674 42.0398
24.86862000170663 42.2829
24.891597535453727 42.294
24.914397953892728 42.4413
24.93719937456671 42.3038
24.96000179851076 42.3364
24.98298338249997 42.5386
25.00578782394922 42.6254
25.028593271784167 42.7568
25.05157790644186 43.0556
25.07438537804115 43.1035
25.097193859145293 43.4498
25.120003350792075 43.4699
25.142992065061257 43.7597
25.165803588823465 43.8712
25.18861612625217 43.894
25.211429678386736 44.0117
25.234422489079968 44.3678
25.257238081693636 44.5736
25.280054692141732 44.647
25.3028723214652 44.4351
25.325869245420463 44.419
25.348688923599397 44.3052
25.371509623787006 44.4793
25.394331347025812 44.3271
25.41733240110666 44.4424
25.440156181590016 44.6091
25.46298098826268 44.6974
25.48580682216873 44.4416
25.50881202326435 43.8396
25.53163992281684 43.1906
25.55446885274561 42.2817
25.577298814096377 41.5028
25.600308179121807 41.256
25.623140214533745 40.9343
25.64597328451537 40.9637
25.66898578564376 40.6102
25.691820936010206 40.3666
25.714657124097695 40.4009
25.737494350954734 40.4804
25.760511045684957 40.4085
25.783350361364224 40.4886
25.806190718969255 40.5856
25.82903211955018 40.8937
25.852053024868923 40.887
25.874896522722523 40.8791
25.897741066713106 40.7036
25.920586657892454 40.6388
25.943611790812668 40.689
25.966459487728237 40.6176
25.989308234998564 40.503
26.01215803367705 40.6802
26.03518741123814 40.8505
26.05803932412957 40.8339
26.080892291600094 40.9015
26.10374631470478 41.0744
26.12677995397268 41.1761
26.14963609978026 41.5372
26.172493304397875 41.7546
26.19535156888223 41.9207
26.218389486949604 41.7267
26.241249882640123 41.6017
26.26411134137826 41.2265
26.28715248187403 41.086000000000006
26.31001607820869 40.8009
26.3328807407756 40.4731
26.35574647063438 40.5645
26.37879191991473 40.4491
26.401659795896734 40.561
26.424528742360263 40.5711
26.447398760366614 40.568000000000005
26.470448535598294 40.594
26.49332070826805 40.5351
26.516193955675355 40.789
26.53906827888316 40.8708
26.562122397260108 40.7712
26.584998883685063 40.9934
26.607876449110325 41.2018
26.63075509460056 41.2062
26.65381357334404 41.4669
26.67669439061878 41.6153
26.699576291163382 41.9594
26.722459276044212 42.2705
26.745522132402975 42.3862
26.768407297649354 42.3873
26.791293550442003 42.2046
26.814180891848974 41.7475
26.837248143099337 41.3526
26.860137673466657 41.1031
26.88302829566349 40.7945
26.90592001075963 40.5927
26.92899167420566 40.497
26.951885586870763 40.1083
26.974780595655517 40.0477
26.99785558178161 39.7763
27.020752794605112 39.5599
27.043651106772522 39.1154
27.06655051935668 39.1712
27.089629948036183 38.8816
27.112531573292053 38.7207
27.135434302194138 39.0001
27.158338135817015 38.6896
27.181422024430987 38.7384
27.204328079372566 38.5317
27.22723524226965 38.5941
27.250143514198573 38.7078
27.273231880156334 38.683
27.296142382065014 38.4494
27.319053996245536 38.4446
27.341966723775965 38.4887
27.365059584515222 38.3325
27.38797455070062 38.4008
27.410890633481237 38.2727
27.433807833936918 38.2711
27.456905206923906 38.2561
27.47982465472398 38.1876
27.502745223449743 38.2075
27.525666914182825 38.3826
27.548768816912457 38.4579
27.571692763693633 38.5251
27.59461783573812 38.5047
27.617723149491244 38.3604
27.640650484125285 38.4749
27.66357894728264 38.4243
27.686508540048052 38.4489
27.709618414237887 38.3669
27.732550278321757 38.2067
27.755483275279115 38.3047
27.778417406196485 38.3532
27.801531858397514 38.2417
27.824468269376716 38.1641
27.847405817586786 38.0662
27.870344504116094 38.0107
27.893463551932008 38.0357
27.916404527281053 38.2041
27.93934664422563 38.1663
27.962289903855886 38.0872
27.98541356491974 38.3064
28.00835912214229 38.3229
28.03130582533231 38.4943
28.054253675581805 38.6374
28.077381967556104 38.6477
28.100332124185126 38.7125
28.123283431160893 38.8133
28.146235889577238 39.0024
28.169368830154156 39.0636
28.192323603752033 39.0841
28.215279532083304 38.9349
28.238415973016764 38.6601
28.261374223145094 38.4204
28.284333631303806 38.1787
28.307294198589954 37.9762
28.330435319167677 37.7764
28.353398217078915 37.7008
28.376362277420153 37.3695
28.39932750129032 37.2537
28.422473319286713 37.0087
28.44544088262495 36.8565
28.468409612800283 36.5295
28.491379510913497 36.2053
28.51453004413313 36.0441
28.53750229057244 35.955999999999996
28.56047570826344 35.9147
28.583450298308804 35.9799
28.606605564586562 35.5982
28.629582511831156 35.8237
28.65256063474956 35.6241
28.675539934446338 35.7235
28.698699951647605 35.5912
28.72168161743193 35.4629
28.74466446331978 35.484
28.767648490417624 35.3835
28.790813276438353 35.2608
28.813799678527303 35.2492
28.836787265157085 35.2666
28.859955641890075 35.1621
28.882945610203045 35.1878
28.905936766392035 35.0258
28.928929111566863 35.2022
28.952102288520145 35.1497
28.975097024308607 35.1375
28.998092952423807 35.0907
29.021090073977508 35.1068
29.04426806913204 35.0646
29.067267590245258 34.9876
29.090268308143695 35.0167
29.11327022394099 34.9261
29.13645305530891 34.6416
29.159457379627167 34.6017
29.18246290519685 34.4562
29.20546963313352 34.3837
29.22865731875826 34.3292
29.25166646419296 34.3824
29.27467681535305 34.013000000000005
29.29768837335608 34.1348
29.320880931312562 34.0444
29.34389491580634 33.9553
29.366910110507334 33.9668
29.38992651653503 33.9606
29.41312396492981 33.9373
29.436142806456754 33.9567
29.45916286268059 33.989000000000004
29.48236399319994 34.035
29.50538649169417 33.9388
29.528410208259935 33.9935
29.55143514402014 33.7141
29.574641196749695 33.75
29.597668583816574 33.6215
29.6206971934585 33.3415
29.64372702680042 33.2758
29.666938019934474 33.1292
29.689970313635285 32.9706
29.713003834422636 33.0005
29.73603858342347 32.9179
29.759254535188578 32.8274
29.78229175361658 32.7023
29.80533020365064 32.8258
29.82836988641968 32.7677
29.85159081507472 32.7246
29.874632976355343 32.6359
29.89767637376955 32.7816
29.920721008448314 32.5853
29.9439469322847 32.5657
29.96699405457564 32.5153
29.9900424175358 32.507
30.013092022298157 32.4947
30.03632295963995 32.4442
30.059375061131373 32.4449
30.08242840783577 32.4001
30.105483000888153 32.3787
30.128718970092244 32.2197
30.151776069006917 32.2383
30.17483441768648 32.2367
30.198074175317235 32.3473
30.221135036724256 32.2943
30.24419715131772 32.2602
30.267260520236203 32.2395
30.290505341942243 32.2451
30.313571232750228 32.3614
30.336638381310948 32.3651
30.35970678876503 32.304
30.38295669299435 32.3093
30.40602763151657 32.3887
30.429099832366074 32.2863
30.452173296685572 32.1023
30.47542830191959 32.0947
30.498504306502497 31.9887
30.521581577995562 32.105
30.544660117543582 32.1287
30.56792024229725 32.1313
30.59100133132069 32.0046
30.614083691845494 31.9585
30.637167325018545 32.0786
30.660432587840603 31.9869
30.683518779717886 31.9256
30.70660624769615 32.0792
30.729694992924372 32.0378
30.75296541239743 32.0801
30.77605672557558 32.1049
30.799149319462742 32.1303
30.8224236211637 32.0622
30.845518789950724 32.1448
30.868615242910597 32.1702
30.891712981195973 31.9021
30.91499247215866 31.8549
30.938092794619365 31.7906
30.96119440587579 31.6766
30.984297307082752 31.6262
31.00758200598383 31.5785
31.030687500658694 31.4135
31.053794288760695 31.361
31.076902371446767 31.166999999999998
31.100192296997445 31.2341
31.12330298246119 31.2141
31.14641496599209 30.9699
31.169528248749216 30.9994
31.19282341969534 31.0062
31.215939314557186 31.1407
31.239056512134788 30.8705
31.262175013589378 30.9604
31.28547544871168 30.9896
31.30859657161541 30.7703
31.331719001892175 30.8703
31.35484274070538 30.9228
31.378148458819545 30.728
31.401274828443725 30.7312
31.424402510106933 30.8057
31.447712205419993 30.8786
31.470842524931633 30.753
31.493974159989783 30.7089
31.51710711176168 30.6734
31.54042212308802 30.9102
31.563557722100917 30.8801
31.586694641341655 30.7325
31.609832881979628 30.7519
31.63315322823208 30.7788
31.656294125521327 30.6349
31.679436347728515 30.5617
31.70257989602529 30.4455
31.725905596152327 30.4608
31.74905181052835 30.2066
31.772199354521323 30.1843
31.79534822930507 30.2052
31.818679302290967 30.131
31.84183085259981 30.1619
31.864983737233473 30.02
31.88813795736804 30.1164
31.911474422233013 29.9837
31.934631327356435 30.074
31.9577895715215 30.0102
31.980949155906522 30.0671
32.004291031706956 30.0879
32.027453310562606 29.9009
32.05061693318573 29.8881
32.07396288236386 29.9268
32.09712920658542 29.9346
32.12029687812702 29.8509
32.14346589817093 29.7626
32.166817291729984 29.7047
32.18998902288583 29.6309
32.21316210610336 29.5827
32.23633654256711 29.4101
32.259693399663725 29.34
32.282870556771144 29.3054
32.30604907069099 29.2948
32.329228942610065 29.2202
32.35259128243769 28.9824
32.375773884550505 28.8862
32.398957848235646 28.9819
32.422143174682176 28.8679
32.445511016471215 28.8
32.468699082679954 28.7403
32.49188851523011 28.712
32.51507931531304 28.6877
32.538452678331 28.6153
32.56164622776311 28.603
32.58484114831493 28.5616
32.60803744118015 28.5345
32.631416344731896 28.5563
32.654615396551876 28.5194
32.67781582427913 28.4223
32.701198898634416 28.3658
32.72440209253756 28.2086
32.747606665947124 28.3061
32.77081262006088 28.1131
32.79420126883317 28.146
32.81740999876112 28.1773
32.840620112999424 28.0558
32.86383161274818 28.0373
32.88722585534586 28.098000000000003
32.91044014056596 28.084
32.933655814909734 27.9643
32.95687287957963 28.0285
32.98027273544904 27.948
33.00349259526636 27.8315
33.026713849030116 27.8424
33.04993649794511 27.7683
33.073341986570746 27.7579
33.09656744032826 27.6605
33.11979429286444 27.6889
33.14302254538647 27.6762
33.166433686291185 27.6509
33.18966475336992 27.6259
33.212897224069096 27.504
33.23613109959831 27.5968
33.259547912343415 27.5548
33.2827846121627 27.5949
33.306022720453775 27.5312
33.32926223842861 27.4614
33.352684742614166 27.4908
33.37592709463173 27.4556
33.399170859982064 27.4572
33.422597648419426 27.3105
33.44584425514446 27.1518
33.46909227885668 27.1333
33.4923417207723 27.1595
33.51577423505344 27.0634
33.539026528130385 27.0226
33.56228024307245 26.9814
33.585535381098246 26.8332
33.60897364093058 26.7684
33.63223163992385 26.7515
33.6554910656699 26.6271
33.678751919389796 26.7191
33.702195944520106 26.6014
33.72545966903325 26.6132
33.74872482519663 26.5068
33.771991414233746 26.5401
33.79544122444841 26.4962
33.81871069412428 26.3616
33.84198160035767 26.3131
33.86525394437455 26.3673
33.88870955949969 26.320999999999998
33.911984794020626 26.2255
33.93526147001624 26.2405
33.958539588715006 26.2422
33.98200102861669 26.1072
34.0052820477047 26.0353
34.02856451319451 26.0609
34.05203033759056 26.0525
34.07531571090147 26.0263
34.09860253431845 26.0034
34.121890809074316 25.9382
34.145362493118924 25.8718
34.16865368561615 25.8392
34.191946333164054 25.7551
34.21524043699793 25.7697
34.23871800066799 25.7341
34.26201503218366 25.6327
34.28531352370466 25.5809
34.30861347646881 25.5591
34.33209693978188 25.4808
34.3553998301885 25.4286
34.378704185565205 25.4211
34.402010007152356 25.3292
34.42549939016683 25.4261
34.44880815937748 25.2548
34.472118398533134 25.3191
34.49543010887669 25.2601
34.51892543169198 25.179000000000002
34.54224009966052 25.2448
34.56555624255917 25.2003
34.58887386163339 25.0395
34.61237514439016 24.963
34.6356957311114 24.9136
34.65901779775809 24.9677
34.68252356662995 24.9487
34.705848608458616 24.9583
34.72917513396849 24.8449
34.75250314440949 24.8072
34.77601490857862 24.7653
34.799345904259795 24.7006
34.82267838863559 24.7
34.846012362958525 24.6199
34.869530142679984 24.5803
34.89286711232212 24.6165
34.91620557568269 24.5425
34.93954553401677 24.4969
34.9630693495876 24.503
34.986412313340814 24.494
35.00975677584668 24.4298
35.033102738362956 24.4092
35.05663261012228 24.4655
35.0799815881786 24.3553
35.10333207003229 24.2892
35.12668405694369 24.3398
35.150220005273056 24.2063
35.17357501786656 24.2137
35.19693153931268 24.1186
35.220289570874385 24.1499
35.24383161619786 24.1226
35.267192683604904 24.0711
35.290555264930376 23.98
35.314101899412165 24.0117
35.33746752422433 23.9471
35.36083466676374 23.953000000000003
35.38420332829803 23.9151
35.407756095629054 23.8809
35.43112781085063 23.9458
35.45450104888391 23.8967
35.477875810999194 23.9593
35.50143473172161 23.7768
35.52481255774625 23.776
35.54819191167777 23.7364
35.57157279478914 23.7872
35.595137889488406 23.6833
35.61852184675279 23.7462
35.641907337029984 23.622
35.665294361595684 23.6171
35.68886565090076 23.6757
35.7122557598848 23.5666
35.73564740699838 23.6245
35.759040593519934 23.5764
35.78261809810353 23.4664
35.80601437933051 23.37
35.829412203814705 23.2391
35.85281157283719 23.211
35.876395313415884 23.3113
35.8997977874528 23.1675
35.92320180988546 23.2754
35.946790244133936 23.0926
35.97019737933222 23.1529
35.993606066789866 23.0297
36.01701630779276 22.9784
36.04061101440684 22.9455
36.06402437852291 23.0058
36.08743930005611 22.935
36.1108557802951 22.886999999999997
36.13445678011326 22.9298
36.15787639383515 22.853
36.18129757014299 22.7619
36.20472031032821 22.688000000000002
36.22832762423364 22.6774
36.25175350829375 22.7446
36.275180960119776 22.663
36.298609981005924 22.6602
36.32222362992669 22.6903
36.34565580510207 22.6652
36.36908955323448 22.6061
36.39252487562093 22.4528
36.416144880530226 22.4075
36.43958336764275 22.4048
36.463023432914625 22.4324
36.486465077645676 22.3133
36.51009145956204 22.3884
36.53353627947859 22.3305
36.55698268276811 22.263
36.58043067073321 22.2856
36.60406345072071 22.1662
36.62751462435344 22.1566
36.65096738658405 22.2537
36.67460498210655 22.133000000000003
36.69806093788647 22.1574
36.72151848619297 22.092
36.744977628333636 22.1153
36.76862165890998 21.9997
36.79208400512205 21.9933
36.81554794910557 21.9993
36.83901349217101 21.9507
36.862663978991606 21.8771
36.88613273667352 21.8238
36.90960309738324 21.7844
36.933075062434064 21.7381
36.95673202673572 21.7551
36.98020721697122 21.6811
37.003684015502365 21.6306
37.027162423645365 21.6211
37.050825886711465 21.5664
37.07430753063053 21.497
37.09779078812467 21.4265
37.121275660513014 21.4321
37.144945643673694 21.3904
37.16843376245278 21.453000000000003
37.19192350009803 21.3742
37.215414857931435 21.3776
37.239091382563885 21.2493
37.262585997426164 21.2672
37.28608223645736 21.2567
37.309763684451696 21.2505
37.33326318851098 21.1866
37.356764320726555 21.1239
37.380267082425526 21.0983
37.40395510942588 21.0756
37.42746114683234 21.0429
37.45096881771841 20.9702
37.474478123414166 20.9568
37.49817275092816 20.9299
37.52168534303452 20.9863
37.54519957395567 20.8499
37.568715445024665 20.8009
37.592416694607714 20.8049
37.61593586281424 20.8452
37.63945667518264 20.7869
37.66297913304891 20.633000000000003
37.68668702630454 20.7366
37.710212792059274 20.6625
37.733740207334854 20.5831
37.757269273470364 20.6376
37.780983832050374 20.5491
37.80451621684926 20.4872
37.82805025654007 20.4188
37.851585952464795 20.4174
37.8753071980695 20.3794
37.89884622345676 20.3397
37.92238690911902 20.2917
37.94611318753442 20.2791
37.969657210779765 20.2436
37.99320289834801 20.2206
38.016750251586465 20.2646
38.04048325513017 20.1669
38.06403395679343 20.1333
38.087586328183946 20.0769
38.11114037065203 20.1012
38.13488012115898 20.1348
38.1584375229181 20.0218
38.181996599821 19.9869
38.205557353221124 19.9214
38.229303872575656 19.9355
38.2528679961576 19.8867
38.27643380031219 19.852999999999998
38.30000128639589 19.7755
38.32375459653193 19.8121
38.34732546371299 19.8274
38.37089801690786 19.727
38.39447225747609 19.6779
38.418232380377425 19.6747
38.441810012983396 19.6372
38.46538933705673 19.5905
38.488970353960084 19.5663
38.51273731166058 19.5579
38.536321731567014 19.5202
38.55990784840681 19.4209
38.58367995004091 19.4603
38.60726947812959 19.3736
38.63086070726198 19.3393
38.654453638806274 19.3773
38.678232613930824 19.2722
38.70182896773327 19.2733
38.72542702806741 19.2723
38.7490267963045 19.2508
38.77281266709232 19.1905
38.79641586862214 19.1526
38.8200207821842 19.1102
38.843627409152944 19.1641
38.86742019782782 18.9991
38.891030269149255 18.9397
38.914642058016156 18.9716
38.938255565806124 19.0007
38.96205529464307 18.8921
38.98567225787121 18.9211
39.00929094417078 18.9167
39.03291135492255 18.9298
39.05671804624804 18.8644
39.080341923549106 18.8304
39.103967529460334 18.7702
39.127594865365744 18.7222
39.15140854155791 18.5878
39.17503935514948 18.6671
39.19867190290282 18.6354
39.22249083587951 18.6653
39.24612686969409 18.5974
39.269764641845306 18.5962
39.293404153722804 18.5714
39.317230110864074 18.5092
39.34087311998506 18.4218
39.36451787301696 18.4581
39.388164371352595 18.3271
39.41199737518003 18.3266
39.43564738196752 18.325
39.45929913825317 18.3285
39.48295264543308 18.3408
39.506792718520884 18.281
39.530449745387216 18.2598
39.55410852735203 18.2127
39.57776906581474 18.2093
39.60161623079 18.1334
39.625280300200025 18.1759
39.64894613032202 18.0954
39.67261372255866 18.1145
39.6964680021016 18.1052
39.72013913657293 18.0394
39.74381203738292 18.0005
39.76748670593756 17.9398
39.79134812278169 17.9757
39.81502634488497 17.8865
39.83870633896685 17.8259
39.862388106436654 17.7918
39.88625668336918 17.8055
39.90994201572829 17.8346
39.933629125719285 17.7506
39.957503091207826 17.6989
39.9811937746168 17.8083
40.00488623990914 17.6764
40.02858048850006 17.6116
40.05246165409549 17.6256
40.076159487492085 17.5863
40.099859108448875 17.586
40.123560518384345 17.5635
40.1474489070226 17.5371
40.171153913178564 17.5039
40.194860712584955 17.4508
40.2185693066637 17.3977
40.242464941335314 17.3471
40.26617714307655 17.3305
40.289891143772046 17.3055
40.3136069448471 17.3919
40.33750984859743 17.3852
40.3612292688043 17.2804
40.3849504936829 17.2625
40.40867352466194 17.1913
40.43258372059144 17.2198
40.45631038219906 17.2094
40.48003885420956 17.1172
40.503769138055105 17.0969
40.52768664931955 17.1536
40.55142057531802 17.0813
40.57515631746428 17.0371
40.599079334038514 16.9797
40.62281872700477 16.9092
40.64655994043941 16.9129
40.67030297578061 16.9015
40.69423334835778 16.8906
40.71798004609188 16.8448
40.74172857006355 16.8083
40.76547892171441 16.8407
40.7894166736039 16.7965
40.813170699248566 16.7362
40.83692655691388 16.7589
40.86068424804498 16.7348
40.884629402612525 16.674
40.908390779366385 16.6542
40.932153993938 16.627
40.95591904777605 16.5955
40.979871628443995 16.62
41.003640379561936 16.5726
41.02741097430883 16.5593
41.05118341413683 16.4875
41.075143444384416 16.4639
41.098919593177826 16.4237
41.1226975914255 16.4437
41.14647744058318 16.4002
41.170444943946755 16.3389
41.19422851378379 16.3234
41.218013938914645 16.2819
41.24198706625173 16.2241
41.26577622087193 16.262999999999998
41.289567235177785 16.173
41.31336011063129 16.1879
41.337340752422875 16.1831
41.361137369129835 16.0886
41.38493585138705 16.0936
41.40873620066004 16.0312
41.43272438060107 16.0954
41.45652848292052 16.0408
41.48033445666918 16.0171
41.50414230331616 15.935
41.528138045159764 15.9322
41.551949656675205 15.8925
41.575763145513235 15.8745
41.59957851314666 15.8844
41.62358184070442 15.8124
41.64740098505737 15.755
41.6712220126409 15.7596
41.69504492493139 15.7381
41.71905586207357 15.7032
41.74288256296395 15.6994
41.766711153007456 15.6512
41.79054163368412 15.6226
41.814560204340054 15.6389
41.838394485526365 15.6431
41.86223066180303 15.5357
41.88625497706819 15.5215
41.910094962812 15.5306
41.93393684811168 15.4863
41.95778063445365 15.4224
41.981812625263366 15.3858
42.00566023303407 15.3851
42.029509746323676 15.3727
42.05336116662236 15.3829
42.077400857069705 15.3909
42.10125611078846 15.3409
42.12511327600405 15.3052
42.14897235421036 15.2479
42.173019768448455 15.2578
42.19688269209613 15.186
42.22074753323349 15.1358
42.24461429335818 15.1853
42.268669455600495 15.1234
42.292540073217886 15.0737
42.31641261433284 15.0309
42.34028708044675 15.0281
42.36435001496739 15.0302
42.38822835065557 15.0522
42.41210861586426 14.9929
42.4359908120986 14.9784
42.46006154323262 14.914000000000001
42.48394762115317 14.8817
42.507835634632315 14.9117
42.531912233047436 14.9148
42.55580413732265 14.8632
42.579697981698 14.8344
42.60359376768525 14.7655
42.62767820545945 14.7444
42.65157789440821 14.6869
42.67547952952185 14.6797
42.699383112316 14.7026
42.72347541395347 14.6351
42.74738291190531 14.6085
42.771292362102166 14.6087
42.795203766063516 14.5856
42.819303956130405 14.5564
42.843219287476536 14.5188
42.86713657716324 14.5441
42.89105582671383 14.4915
42.91516392983864 14.48
42.939087119032166 14.4454
42.963012272677304 14.4247
42.98693939230129 14.3526
43.01105543317513 14.3179
43.034986504731386 14.3445
43.05891954686589 14.3081
43.08285456110972 14.2653
43.10697856448665 14.2583
43.130917542983475 14.2429
43.15485849820081 14.1763
43.17880143167367 14.0907
43.20293342237094 14.1166
43.226880332449 14.0676
43.25082922540554 14.0984
43.27496722682525 14.0652
43.29892010567796 14.0242
43.32287497204102 14.0312
43.34683182745632 14.0561
43.370977859791836 14.0013
43.39493871351105 13.9751
43.41890156092628 13.98
43.44286640358341 13.9312
43.46702049182749 13.8474
43.49098934522816 13.8793
43.51496019852649 13.8637
43.5389330532723 13.799000000000001
43.56309522248204 13.7971
43.58707210044314 13.7808
43.61105098451946 13.7168
43.63503187626491 13.7072
43.659202151562134 13.6763
43.68318707902681 13.6828
43.70717401884041 13.6708
43.731162972560874 13.6647
43.75534137913236 13.6009
43.779334381108384 13.6113
43.803329401683186 13.5739
43.82732644241872 13.5595
43.8515130055166 13.5335
43.87551410707659 13.4761
43.89951723350145 13.4586
43.923709934595614 13.4391
43.94771713129917 13.4312
43.97172635758096 13.3967
43.99573761501002 13.3469
44.0199385169922 13.3337
44.04395385732619 13.3551
44.067971233533086 13.3401
44.09199064718605 13.282
44.11619977548961 13.2573
44.14022328470671 13.2512
44.16424883610785 13.2396
44.18827643127035 13.2248
44.21249381139513 13.162
44.236525514814076 13.1222
44.26055926674478 13.1452
44.28459506876863 13.1212
44.3088207262813 13.0797
44.33286064928722 13.0504
44.35690262714919 13.0384
44.38094666145278 12.977
44.4051806219871 13.0084
44.42922879003185 12.9597
44.45327901929361 12.960999999999999
44.477331311362136 12.9526
44.501573600619416 12.8829
44.525630039221795 12.889000000000001
44.54968854541895 12.8888
44.573937102200176 12.8171
44.5979997645541 12.8205
44.622064499300315 12.8382
44.64613130803592 12.7842
44.67038823869318 12.7701
44.69445921643748 12.7402
44.718532272981385 12.6976
44.742607409926194 12.6741
44.76687274034801 12.6593
44.79095205918753 12.5721
44.81503346325094 12.6151
44.839116954143876 12.5639
44.86339071028742 12.5639
44.88747839599524 12.5235
44.91156817336837 12.5021
44.93566004401666 12.5371
44.959942251908146 12.4858
44.984038330325966 12.4787
45.00813650686762 12.4091
45.03223678314731 12.3866
45.05652746888232 12.3404
45.08063196592069 12.3261
45.104738567558705 12.3315
45.128847275414856 12.2759
45.15314646515866 12.276
45.17725940679741 12.2886
45.20137445952892 12.2054
45.22568004865265 12.2313
45.24979934496396 12.2101
45.27392075725247 12.1685
45.29804428714431 12.1412
45.322358426247604 12.1126
45.346486212804315 12.0607
45.370616121861914 12.088
45.39474815505086 12.0851
45.41907087049246 12.0569
45.4432071734666 12.0167
45.46734560548283 12.0027
45.49148616817604 12.0493
45.51581748638564 12.0086
45.5399623320197 12.0038
45.56410931325473 11.965
45.58825843173002 11.9306
45.61259837920865 11.8957
45.636751793816 11.8781
45.66090735060093 11.835999999999999
45.68506505120716 11.8107
45.7094136545275 11.8071
45.73357566449271 11.732000000000001
45.75773982322992 11.7399
45.78190613238733 11.7077
45.806263418194064 11.630999999999998
45.83043404997326 11.6918
45.85460683713677 11.7219
45.87897065658495 11.6931
45.90314777634752 11.6392
45.92732705646868 11.6518
45.9515084986045 11.6267
45.97588104735473 11.5928
46.00006683541565 11.5893
46.02425479047904 11.5509
46.04844491420549 11.4856
46.0728262191024 11.4896
46.09702070211635 11.49
46.12121735879483 11.4568
46.14541619080294 11.4297
46.169806278764455 11.3762
46.194009483459034 11.4161
46.21821486849841 11.3849
46.24242243555223 11.3342
46.266821333570014 11.3278
46.29103328674601 11.2702
46.31524742696538 11.2654
46.33946375590237 11.2772
46.36387149104216 11.2438
46.38809221957392 11.1849
46.41231514186606 11.1583
46.436540259597464 11.1845
46.460956858999374 11.1752
46.48518638983522 11.1259
46.509418121166966 11.1418
46.533652054678114 11.1239
46.55807754555709 11.1115
46.58231590571962 11.0815
46.60655647313217 11.0497
46.630988654873654 10.9938
46.655233659129024 11.0148
46.67948087571551 10.9645
46.70373030632484 10.9407
46.72817142736393 10.9444
46.752425308428684 10.9428
46.77668140861147 10.8774
46.80093972960865 10.8111
46.82538981736788 10.8369
46.849652602470904 10.8482
46.87391761349769 10.8012
46.8981848521493 10.8127
46.9226439341274 10.7672
46.946915650573224 10.7427
46.97118959976749 10.7229
46.99546578341598 10.6936
47.019933887188216 10.6825
47.04421456235744 10.6557
47.06849747711879 10.6576
47.09278263318286 10.6224
47.11725978640143 10.5924
47.14154944775105 10.5699
47.165841355555656 10.6023
47.1901355115306 10.5522
47.214621741924994 10.5698
47.23892041698887 10.5111
47.26322134538975 10.4921
47.28771440635075 10.4549
47.31201986422527 10.4574
47.33632758061436 10.4239
47.360637557241866 10.4158
47.38513974410611 10.3957
47.40945426407847 10.3595
47.43377104948137 10.3581
47.45809010204344 10.3137
47.48260144275502 10.2779
47.506925052572285 10.3083
47.53125093475548 10.2969
47.55557909103813 10.2956
47.58009961361992 10.2312
47.60443234110732 10.2368
47.62876734791564 10.2017
47.65310463578333 10.1995
47.6776343683373 10.1838
47.7019762413987 10.1404
47.72632040075572 10.1064
47.75066684815169 10.1146
47.77520581885936 10.1061
47.799556865477655 10.0664
47.823910205386 10.0342
47.84826584033272 10.0141
47.87281407745551 10.0266
47.89717432569297 10.0204
47.92153687423484 9.984760000000001
47.94609208429692 9.95257
47.97045925671401 9.968869999999999
47.99482873471275 9.910680000000001
48.01920052005013 9.89343
48.04376504619224 9.871080000000001
48.068141469543484 9.897310000000001
48.09252020552573 9.83295
48.11690125590099 9.84296
48.1414751266064 9.819460000000001
48.16586082917454 9.836139999999999
48.19024885144316 9.8026
48.2146391951793 9.80021
48.239222439012764 9.788689999999999
48.26361744916137 9.76154
48.28801478610016 9.7364
48.31241445160131 9.77234
48.337007097209366 9.70616
48.36141144338331 9.6755
48.38581812345755 9.66718
48.41022713920929 9.67573
48.434829215320704 9.61177
48.45924292604658 9.59848
48.48365897780325 9.60765
48.50807737237308 9.58745
48.532688907799276 9.56483
48.55711201168574 9.498660000000001
48.581537463754074 9.51256
48.60615611725119 9.50656
48.63058628942721 9.476180000000001
48.65501881516546 9.51857
48.6794536962573 9.42946
48.70408185970339 9.41033
48.72852147531801 9.4513
48.75296345168211 9.38373
48.77740779059232 9.356860000000001
48.80204549302823 9.38543
48.82649458091802 9.34568
48.85094603676547 9.34567
48.87539986237231 9.28792
48.90004713292306 9.26585
48.92450572200832 9.28624
48.94896668628025 9.25484
48.97343002754588 9.24863
48.99808689542115 9.22596
49.02255501470614 9.257710000000001
49.04702551642794 9.226
49.0714984023988 9.17036
49.096164896893235 9.13118
49.120642575466796 9.17813
49.145122643748394 9.1186
49.16960510355558 9.09975
49.19428125404938 9.063239999999999
49.2187685210852 9.07455
49.243258185121555 9.078330000000001
49.26794160167084 9.05805
49.2924360839405 9.02175
49.31693296869764 8.98433
49.34143225776915 8.9843
49.36612538195438 8.955919999999999
49.39062950396021 8.94517
49.41513603578346 8.90709
49.4396449792564 8.87468
49.46434784069503 8.889569999999999
49.488861631846454 8.87882
49.513377840166804 8.85238
49.537896467493745 8.83433
49.56260909589029 8.81317
49.587132585683285 8.797460000000001
49.611658500018365 8.79355
49.636186840738596 8.76326
49.66090926588511 8.8072
49.685442483902584 8.772680000000001
49.70997813385706 8.710189999999999
49.734516217597076 8.676969999999999
49.75924846937352 8.6814
49.7837914452858 8.68022
49.80833686055187 8.65788
49.83288471702571 8.6384
49.85762682540054 8.66563
49.882179588965734 8.657810000000001
49.9067347993235 8.577539999999999
49.93129245833333 8.54317
49.95604445336378 8.58644
49.98060703442832 8.55819
50.005172069746266 8.52961
50.02993150438364 8.52164
50.05450147301533 8.4985
50.07907390151433 8.47765
50.10364879174981 8.44742
50.12841816587289 8.47985
50.1529980044635 8.47032
50.17758031042124 8.452639999999999
50.20216508562089 8.42924
50.22694442953363 8.39143
50.25153416817468 8.35425
50.27612638170508 8.333910000000001
50.300721072005196 8.35552
50.325510416102105 8.32062
50.350110084975064 8.29814
50.37471223628208 8.31398
50.39931687190919 8.27853
50.424116246675766 8.24955
50.44872587605249 8.22087
50.47333799543065 8.21608
50.49795260670191 8.20162
50.52276204271512 8.195089999999999
50.54738166295838 8.18478
50.57200378079314 8.186069999999999
50.596628398116835 8.12888
50.62144792604559 8.123610000000001
50.646077567609396 8.12982
50.670709714377715 8.15935
50.69553683636198 8.13485
50.72017401885922 8.12502
50.7448137122895 8.11093
50.76945591856022 8.05751
50.79429318636823 8.02175
50.818940443716784 8.0457
50.84359021965163 7.9896
50.868242516085964 7.9648699999999995
50.893089960641895 7.9535
50.917747323549435 7.95251
50.94240721271973 7.93319
50.96706963007175 7.8961
50.99192728239342 7.87482
51.01659478166073 7.8884300000000005
51.04126481489051 7.85553
51.06593738400761 7.85916
51.090805275207074 7.846210000000001
51.11548294172845 7.8167
51.14016314993547 7.798089999999999
51.164845901758845 7.7907
51.18972406304274 7.7599800000000005
51.21441192780656 7.758439999999999
51.23910234200271 7.7443
51.2637953075678 7.7314300000000005
51.288683770237945 7.6996899999999995
51.31338186432707 7.6697
51.33808251561888 7.65495
51.362978729967345 7.693010000000001
51.387684521509755 7.69388
51.41239287610203 7.67241
51.437103795691165 7.644080000000001
51.46201036644977 7.60158
51.486726441956634 7.57653
51.51144508832545 7.57684
51.536166307509156 7.567539999999999
51.56108326624387 7.554010000000001
51.58580965706056 7.52008
51.61053862657523 7.518160000000001
51.635270176746864 7.45697
51.66019755512065 7.43918
51.68493429268881 7.451060000000001
51.70967361681515 7.46077
51.73441552946465 7.44675
51.759353359237934 7.4321399999999995
51.7841004750961 7.43346
51.80885018539685 7.393680000000001
51.833602492111254 7.3559399999999995
51.8585508051424 7.348489999999999
51.883308330926425 7.335039999999999
51.90806845906181 7.33304
51.932831191525715 7.30427
51.95779001977161 7.28902
51.98255798721516 7.29075
52.00732856494335 7.2348300000000005
52.03229530577543 7.2053199999999995
52.057071130455945 7.21983
52.081849571391054 7.193510000000001
52.106630630568695 7.2106699999999995
52.13160794279417 7.20242
52.15639426492067 7.187119999999999
52.18118321127822 7.17023
52.205974783860896 7.126060000000001
52.23096269971011 7.11994
52.255759551287994 7.10884
52.280559035098186 7.07397
52.30536115314103 7.0705
52.33035970494467 7.07608
52.35516711807904 7.043639999999999
52.37997717147198 7.005319999999999
52.40478986713005 7.03282
52.42979908731974 6.97353
52.454617094216 6.96542
52.47943774942214 6.965660000000001
52.50426105495102 6.984260000000001
52.529280976059844 6.95247
52.554109609024096 6.923780000000001
52.57894089837482 6.91335
52.60377484613117 6.910260000000001
52.62880550079408 6.878239999999999
52.65364479223379 6.89085
52.67848674816189 6.8311399999999995
52.70352547971946 6.863460000000001
52.72837279155837 6.8519
52.753222773982785 6.820589999999999
52.778075429022984 6.8540600000000005
52.80312495150885 6.826169999999999
52.827982978797436 6.7908
52.85284368481815 6.747389999999999
52.87770707160767 6.73382
52.90276741793998 6.7162
52.92763619336701 6.69065
52.952507655698504 6.663189999999999
52.977381806977576 6.7092600000000004
53.00245301017842 6.67733
53.02733256653592 6.717280000000001
53.052214817996074 6.6663
53.077099766608484 6.62735
53.102181859804446 6.626710000000001
53.127072229988265 6.60987
53.15196530349892 6.6041300000000005
53.17686108239249 6.5704899999999995
53.20195409881522 6.585789999999999
53.22685531582556 6.50925
53.25175924441303 6.50269
53.27666588664027 6.55131
53.30176985962693 6.53611
53.3266819565689 6.52445
53.35159677336455 6.51086
53.376514312083096 6.48278
53.40162927507703 6.44262
53.42655228516116 6.44508
53.45147802340193 6.41478
53.47660125628886 6.41094
53.50153247842639 6.3952599999999995
53.52646643496923 6.38226
53.55140312799818 6.39671
53.576537409691696 6.3575800000000005
53.60147960336152 6.3402
53.626424539786164 6.34537
53.65137222105307 6.31771
53.67651758529126 6.320819999999999
53.70147078399681 6.29991
53.72642673383343 6.28219
53.75138543689533 6.294630000000001
53.776541917524526 6.28875
53.801506154876755 6.23681
53.826473151763246 6.204619999999999
53.851442910284916 6.195869999999999
53.87661054126026 6.22316
53.9015858509782 6.18812
53.92656392866066 6.16929
53.95154477641532 6.152819999999999
53.976723591801296 6.11699
54.00171000771266 6.12938
54.02669920004598 6.12344
54.051691170915745 6.06845
54.076881204886796 6.08628
54.101878760928514 6.09443
54.12687910187696 6.04734
54.152077577768296 6.04934
54.1770835166946 5.97881
54.20209224691339 5.95489
54.22710377055121 5.94974
54.25231352511594 5.94325
54.27733066384342 5.90921
54.30235060239643 5.916180000000001
54.32737334290836 5.93642
54.35259441062629 5.87519
54.377622783395324 5.81997
54.40265396455061 5.89098
54.42768795623251 5.79496
54.45292037169559 5.790690000000001
54.477960012857906 5.81639
54.50300247099511 5.76499
54.52804774825457 5.74603
54.55329154616743 5.68778
54.57834249018678 5.71586
54.6033962597977 5.64933
54.6284528571545 5.6372599999999995
54.653708072335164 5.57063
54.67877035378786 5.58913
54.70383546947698 5.56353
54.72890342156389 5.580509999999999
54.7541700889442 5.55692
54.77924374251975 5.564780000000001
54.8043202390049 5.5519300000000005
54.82959552413022 5.473330000000001
54.8546777351945 5.487430000000001
54.87976279569621 5.40494
54.90485070780914 5.473
54.930137506558005 5.391859999999999
54.95523115074295 5.3840900000000005
54.98032765308844 5.3671
55.005427015775496 5.33061
55.03072536339621 5.36146
55.05583047570572 5.307259999999999
55.080938454927676 5.27599
55.10604930325027 5.2496599999999995
55.131359235107396 5.221419999999999
55.15647585066083 5.17413
55.181595341907496 5.16887
55.20671771104285 5.165080000000001
55.232039262617704 5.15805
55.25716741665048 5.10398
55.28229845518636 5.08628
55.30743238042802 5.0126
55.33276558731939 5.04134
55.357905315183636 5.0313099999999995
55.383047936390035 4.987830000000001
55.40819345314859 4.981240000000001
55.433538351073295 4.95561
55.458689688238415 4.93567
55.483843927614096 4.9282900000000005
55.509197623043605 4.906219999999999
55.53435769621134 4.85917
55.55952067826466 4.82271
55.5846865714265 4.8236099999999995
55.61005202069737 4.84479
55.63522376553902 4.829330000000001
55.66039842818645 4.79475
55.68557601087004 4.71703
55.7109532500271 4.69536
55.73613670233794 4.76279
