TT I
1.2716486653135266 7.132569999999999
1.2939594142134223 7.087510000000001
1.3162702121660406 6.81
1.3385810600174564 6.644710000000001
1.3608919586137629 6.81906
1.383202908801069 6.01785
1.405513911425503 5.85899
1.4278249673332093 6.36216
1.4501343378461518 5.868469999999999
1.4724455028545926 5.96865
1.4947567236847858 6.33889
1.517068001182951 5.96698
1.5393793361953272 5.89155
1.5616907295681737 5.44097
1.5840021821477681 5.14395
1.60631369478041 5.46269
1.6286252683124185 5.17584
1.6509369035901333 5.45571
1.6732468618895553 5.47786
1.695558623192809 5.2029
1.7178704487808514 4.96109
1.7401823395001077 5.5506400000000005
1.7625012545597203 4.59931
1.7848028405262486 4.68383
1.8071218901122095 4.94906
1.8294236121921872 4.44227
1.8517427996910911 4.640680000000001
1.8740620574440425 5.06654
1.8963639900671978 4.51398
1.9186833908139995 4.4333599999999995
1.9409854680117449 5.03239
1.9633050151394713 5.10895
1.9856246367570705 4.883369999999999
2.0079269371922672 4.83502
2.03024671027244 4.4789
2.0525491637446027 4.5175
2.074869091674931 4.30481
2.097171701569106 4.03217
2.1194917877373847 4.6689
2.141811954326636 4.71099
2.164114805233074 5.08343
2.186435135143035 5.2218800000000005
2.208738150935709 10.2266
2.231058647554722 18.477999999999998
2.2533792288321184 14.6467
2.275682498336085 8.21902
2.298003251406138 5.87057
2.3203066942619714 4.95371
2.3426276225136022 5.42146
2.3649486396617507 5.23399
2.387252348930071 5.29769
2.4095735463442893 4.82263
2.4318774374315884 5.75057
2.4541988185014043 6.25131
2.476502894794693 6.16027
2.498824462909887 6.48045
2.521146125856138 6.4195
2.5434504863470337 6.63952
2.5657723414244717 7.608289999999999
2.588076895590662 7.34248
2.610398946189713 7.581289999999999
2.6327210958598384 7.482260000000001
2.6550259469304716 7.406039999999999
2.6773482972090137 7.8541
2.6996533504259 7.730919999999999
2.7219759047039602 7.4988399999999995
2.744298562293959 7.89147
2.7666039251246595 7.54685
2.7889267918020164 7.55041
2.8112323652516555 8.03284
2.833555444408179 8.69234
2.8558786311183852 8.18118
2.8781845268938557 9.05068
2.9005079311721484 8.508939999999999
2.9228140460410397 8.57404
2.9451376712799635 9.27341
2.967444008632326 9.47503
2.9897678582247247 9.60112
3.0120918213106695 10.6631
3.0343984987899373 10.5257
3.0567226913198637 10.8847
3.079029599759726 11.3836
3.101354025127254 11.9416
3.123678568232338 12.9727
3.145985829517914 13.2208
3.16831061055229 13.4587
3.1906181112775593 14.1815
3.212943133635653 14.7223
3.2352682779763207 15.2315
3.2575761442691227 15.7577
3.2799015350264273 15.5364
3.302209649240067 16.8252
3.3245352898092655 17.2297
3.3468436553365257 17.7142
3.369169549113219 18.0498
3.3914955708171384 18.1374
3.413804319727358 18.6474
3.4361305997334863 19.0962
3.4584396084414553 19.9006
3.4807661501462652 20.3268
3.503092824025881 21.1671
3.5254022288463154 20.9407
3.5477291695206588 21.7792
3.5700388426251948 22.3341
3.5923660534916446 23.7549
3.6146934007816114 32.8657
3.637003482731501 61.8146
3.6593311053109985 67.1034
3.681641464033634 42.9602
3.7039693653009733 28.0202
3.726297407241705 25.3664
3.7486081875460804 25.7421
3.7709365132734978 26.2577
3.793247578841633 26.4517
3.8155761917550093 26.6785
3.8378875459837216 27.2428
3.8602164494827234 27.5222
3.882545499606844 28.3067
3.9048572932539183 29.0387
3.9271866390645718 29.5235
3.9494987298666713 29.7102
3.971828374764527 30.5438
3.9941581705403255 30.8313
4.016470713506008 31.7449
4.038800813471445 32.327
4.061113662089144 32.6169
4.0834440696459176 33.6691
4.105774632334751 34.1282
4.128087945865126 34.3401
4.150418821249301 35.5448
4.172732448931298 36.9923
4.195063640413578 38.2501
4.2173775856475215 40.7767
4.239709096631102 61.6493
4.262040768704612 157.507
4.284355196706267 200.66
4.306687193387355 133.289
4.329001947444346 63.6051
4.35133427213731 45.7053
4.373666762177566 44.3791
4.395982011761091 44.7881
4.418314834921175 45.4381
4.44063041906622 50.4539
4.4629635787515625 57.7571
4.4852969080429785 58.0767
4.5076130004776225 52.9009
4.529946671403969 52.7681
4.552263106909177 53.3728
4.574597122877047 53.0907
4.596931312711224 53.6465
4.619248269273446 54.5155
4.6415828092605835 55.0664
4.663900117405352 56.4443
4.686235010953232 57.9512
4.708552674085913 59.205
4.730887924602802 61.0997
4.753223354952695 61.93
4.775541557023902 63.7311
4.797877349456786 65.7003
4.820195915032126 67.5594
4.842532072957498 69.0908
4.864868414979744 71.2447
4.88718753227192 73.7696
4.909524244902505 75.4221
4.931843734218147 77.3579
4.954180820867835 79.7856
4.976518095879839 83.0137
4.998838149695359 86.3679
5.021175803844231 90.0491
5.043496238205739 93.9908
5.065834274903528 99.0299
5.088172504230693 104.669
5.1104935158799565 111.95100000000001
5.132832132875765 132.696
5.155153533596801 167.5
5.1774925416746225 225.93400000000003
5.199814334878411 520.749
5.2221537374521505 1406.27
5.244493338631803 3475.12
5.266815727034316 7755.45
5.289155727832427 11843.1
5.311478517248165 8661.77
5.333818921080011 2960.59
5.356159527788849 607.36
5.3784829252032536 204.57
5.400823940070432 154.737
5.423147747031976 134.58100000000002
5.445489173474152 123.64399999999999
5.467830807066149 118.63799999999999
5.490155234831516 114.679
5.512497285125229 109.85
5.534822130975162 107.66799999999999
5.557164601388673 105.24700000000001
5.579489868738879 101.814
5.601832762690846 100.946
5.6241758697774475 99.4777
5.646501775867269 98.4413
5.668845311622074 97.5229
5.691171647754637 96.6138
5.713515615597765 95.3612
5.735859800852677 95.1481
5.758186788542988 94.6171
5.780531411018185 95.4212
5.802858837297399 95.162
5.825203900414495 95.1533
5.8475491852224 96.8511
5.869877275883075 97.2318
5.892223006467101 97.5354
5.914551544266608 98.9993
5.936897724049891 102.87299999999999
5.959244129804903 111.78
5.981573344815301 146.857
6.0039202049061 288.485
6.026249875609095 602.558
6.04859719346037 1189.35
6.070927323278297 2342.44
6.093275102315365 4239.7
6.115623113320588 5211.69
6.137953938319995 3343.84
6.160302415650845 1088.42
6.182633708324452 261.481
6.2049826554078376 120.531
6.227331838745022 96.5133
6.249663839443684 88.2016
6.27201349767565 83.7582
6.294345974611799 85.8548
6.316696111167083 91.3924
6.339046488263839 87.2018
6.361379686074702 77.6026
6.383730546639482 72.3088
6.406064229255215 70.4889
6.428415576718203 69.9764
6.450749747566656 68.9745
6.47310158535871 67.0857
6.495453669698332 66.1842
6.517788579421056 65.7016
6.540141159237969 64.4219
6.562476565766648 64.1941
6.5848296444934045 63.6123
6.607182974060425 63.294
6.6295191323281015 63.2756
6.651872965955752 64.7645
6.6742096296068985 79.5119
6.6965639707294615 105.762
6.71891856698715 105.287
6.741255995248479 80.4519
6.763611104154477 64.4715
6.785949046381137 60.0249
6.808304671371482 59.3227
6.8306605557940046 59.0609
6.852999275508618 58.1675
6.875355681171544 57.7073
6.897694923437771 57.1115
6.92005185377892 57.1259
6.9423916220322655 57.0444
6.964749080490181 56.5521
6.987106804399774 56.5186
7.009447368180821 56.3944
7.031805625367033 56.2056
7.054146723727803 56.095
7.076505517631004 55.8489
7.098864581288365 56.0279
7.121206488070854 55.659
7.143566093607822 55.7875
7.165908543567245 56.0362
7.188268694426048 55.7361
7.2106291193438095 55.6269
7.232972390625943 56.727
7.255333366030969 63.7425
7.277677189091925 94.6854
7.300038718428332 120.385
7.322400526130865 107.009
7.344745183422596 75.6217
7.367107550224791 59.545
7.389452767901992 56.5112
7.411815697249891 55.3951
7.434161478756298 54.6633
7.456524974096713 54.5887
7.478888753837185 54.5515
7.501235387657368 55.1809
7.523599738562711 55.0263
7.545946944825532 55.3936
7.568311870344528 56.0058
7.5906770845765665 56.001999999999995
7.613025156078678 56.7761
7.635390950099687 57.5864
7.657739602662809 57.1033
7.680105979923558 56.5985
7.702472650212829 56.9424
7.724822180948224 56.7205
7.747189439655568 57.0665
7.769539560075357 56.9975
7.791907410653562 57.3565
7.81425812420825 57.2737
7.836626570110925 57.5649
7.858995315087906 58.7083
7.881346924933401 58.8594
7.903716270417482 59.2794
7.926068482028405 59.4056
7.948438431475253 59.8387
7.9708086843180235 60.5804
7.993161805171116 61.3426
8.015532667162402 61.861000000000004
8.037886398416653 62.8225
8.060257873014221 63.1288
8.082629655331942 63.6073
8.104984308787587 64.89399999999999
8.127356708900503 67.5567
8.149711981398308 71.3781
8.172085002766314 73.2364
8.194458336181368 71.0706
8.216814543847752 70.1711
8.23918850371002 70.5841
8.26154533906492 71.5579
8.283919928836452 73.2957
8.306277395339652 74.3308
8.328652618483376 75.8763
8.351028159736202 77.8907
8.373386579575245 80.3947
8.395762759396959 82.1444
8.418121819038275 87.0682
8.440498640894003 97.2018
8.462875785192262 111.03299999999999
8.485235811156207 138.876
8.507613602688501 207.72799999999998
8.529974277114228 314.89799999999997
8.552352719347912 465.12
8.574731488360351 738.909
8.59709314210385 1216.03
8.619472567021075 1823.51
8.64183487789147 2136.34
8.664214962183097 1837.98
8.686577933647762 1023.67
8.708958680784317 397.199
8.731339760774953 170.791
8.753703729764451 114.728
8.77608547780821 101.816
8.798450116065078 97.6743
8.820832535634787 94.5157
8.843215292401656 93.0137
8.865580941199045 91.8311
8.887964374703538 90.8442
8.910330701447199 91.22200000000001
8.932714815164482 92.0814
8.955099270424924 90.4854
8.977466620733543 88.345
8.999851761421976 86.6588
9.022219798361645 85.3332
9.04460562795561 85.264
9.066991803441677 84.855
9.089360876979615 84.9377
9.111747746589993 84.1107
9.13411751544971 83.7442
9.156505082664324 83.5789
9.178875550323522 83.2258
9.20126381862328 83.3835
9.223652438908596 83.9189
9.246023961427412 83.9514
9.26841328802173 83.6477
9.290785518039224 83.537
9.313175554425882 84.9922
9.335565947154315 85.0613
9.357939245086508 85.1297
9.380330352834827 85.0284
9.40270436697103 85.3638
9.425096193225055 85.0787
9.447488380180165 85.6205
9.469863475295412 85.9676
9.492256385987508 86.1916
9.514632206018318 86.5715
9.537025843935714 87.2313
9.559402392368193 88.098
9.581796761000229 89.4844
9.604191496441521 90.6065
9.626569144158516 93.0527
9.648964615551032 95.4471
9.671343000390081 96.7131
9.693739211225699 95.6633
9.716135793237463 94.9227
9.738515290448102 94.806
9.760912617143402 95.8881
9.783292860202891 97.3458
9.805690935076182 99.0334
9.828089385495742 100.25200000000001
9.850470754023561 102.26799999999999
9.872869957865444 107.755
9.89525208097539 118.021
9.917652041736662 127.25200000000001
9.940052382417589 135.378
9.962435644102392 164.50599999999997
9.984836746950979 219.687
10.007220771957746 294.513
10.029622640473708 410.037
10.052007432299963 595.484
10.074410069984072 881.28
10.096813093716005 1277.25
10.119199042482517 1715.88
10.141602840636468 1935.17
10.163989564971628 1628.49
10.186394141051062 930.189
10.208799107559706 409.782
10.231187001965623 193.095
10.253592751657669 130.226
10.275981430388155 115.821
10.298387966769793 113.17399999999999
10.320794897965431 114.175
10.343184759907361 112.601
10.36559248305461 108.721
10.387983138083852 108.266
10.410391656691655 116.354
10.432800574501677 131.79
10.455192425893369 150.903
10.47760214443012 178.799
10.499994797678786 222.75099999999998
10.522405320453982 300.252
10.54479877906917 401.991
10.567210109595656 493.22
10.5896218454736 569.335
10.612016518879773 491.33
10.634429067781074 348.86699999999996
10.656824555333241 204.706
10.679237920773568 125.331
10.701651695961992 97.2136
10.724048411481384 91.0598
10.746463008485165 88.2801
10.768860546937125 86.2838
10.791275969274796 84.7624
10.81369180576079 83.7127
10.836090585366925 82.2686
10.858507252467449 81.0458
10.88090686379991 80.0331
10.903324365036394 79.7451
10.925724811614439 78.7303
10.948143150509463 79.2959
10.970561909719066 78.883
10.992963615930844 77.4181
11.015383218085756 75.5914
11.037785768347074 74.3848
11.06020621697282 73.6031
11.082627090322113 73.025
11.105030913430326 72.8582
11.12745263854165 72.734
11.149857314510728 74.5628
11.172279894912576 78.0508
11.194702904450653 78.1395
11.217108866490921 75.3455
11.239532736615194 72.7963
11.26193956033512 71.0598
11.284364294577085 70.1132
11.306789462371718 68.8435
11.329197585398376 68.0325
11.351623622610898 68.0988
11.37403261614354 67.0468
11.396459526308487 67.0174
11.418869393879497 66.7959
11.441297180532617 66.4042
11.463725406927658 65.8709
11.486136592353875 65.8101
11.508565700543707 66.1186
11.530977768845315 66.9751
11.553407762368774 66.9545
11.575838200059769 66.6624
11.598251599479612 65.5445
11.620682927815501 64.5768
11.64309721895548 64.378
11.665529441478206 64.0725
11.687962112597958 63.9188
11.710377748130886 64.0481
11.732811318753434 63.887
11.755227854859067 63.7611
11.777662328529495 63.5761
11.800079768750786 63.6041
11.822515149015453 63.2836
11.844950984084935 63.6082
11.867369787303163 63.2229
11.889806534289491 63.5517
11.912226250487029 63.9352
11.934663912939751 63.863
11.9571020346363 64.2014
11.979523127133968 64.404
12.001962169624331 65.7294
12.024384183972964 67.5026
12.046824150809913 72.2426
12.069264581333726 77.4392
12.091687985297767 84.0014
12.11412934550045 93.9584
12.136553680195208 109.714
12.158995973632788 130.291
12.181438735204349 156.241
12.20386447284199 184.16
12.226308172985636 202.412
12.24873485024193 201.84900000000002
12.271179492516982 170.183
12.293607112949127 125.67200000000001
12.316052700916226 92.6746
12.338498763250042 77.6216
12.360927805303868 69.4411
12.383374818673879 66.3182
12.405804812803074 65.3524
12.428252780773262 65.1593
12.45070122756722 65.1735
12.473132656675375 65.1598
12.49558206341869 65.2346
12.518014453510101 65.1964
12.540464823770117 65.3838
12.562915677315177 65.7475
12.58534951575545 66.499
12.607801338171472 67.2799
12.630236146511358 70.5612
12.652688941369085 73.6566
12.675124723177234 74.1321
12.697578494048786 72.1635
12.720032754458185 69.73100000000001
12.742470003354093 68.7915
12.764925245138771 68.9696
12.787363476431278 69.0768
12.809819703166806 69.6647
12.83227642391173 70.3067
12.854716135692716 70.8456
12.877173846755147 72.0339
12.899614549869717 72.3972
12.9220732548287 73.2623
12.94453245827299 73.8091
12.966974655289818 75.07600000000001
12.989434858002571 75.8668
13.011878055298721 76.5239
13.034339260862497 77.3568
13.056800969391883 78.7194
13.079245674017244 81.8679
13.101708390774869 86.2537
13.12415410463411 96.7853
13.146617833206086 109.741
13.169064559883248 122.315
13.191529303857127 138.504
13.213994557076367 163.154
13.236442809902437 199.146
13.258909083908291 250.326
13.28135835851934 304.257
13.30382565690295 366.603
13.326293469022952 415.477
13.348744283242008 419.31699999999995
13.371213125129904 355.531
13.39366497011003 260.355
13.416134845360597 170.875
13.438605238843131 124.369
13.46105863690397 111.383
13.483530069144786 113.647
13.505984506951902 120.081
13.528456981549432 130.705
13.550929978879088 146.579
13.573385983253365 171.239
13.595860028340867 207.051
13.618317081455832 253.87400000000002
13.64079217790333 300.296
13.663250283359057 339.79699999999997
13.685726434770173 369.121
13.708203115221277 339.37300000000005
13.730662806148091 267.392
13.75314054697177 187.332
13.775601299246777 127.384
13.798080104050406 97.7152
13.820559442405358 86.6778
13.843021793671388 83.2151
13.865502201420897 81.5346
13.887965623051947 80.7324
13.910447103807167 79.7695
13.932929122629764 78.4923
13.955394156785959 78.2852
13.977877254034569 76.9916
14.000343367582113 76.3005
14.022827546871707 75.4822
14.045294743423524 75.006
14.06778000837062 74.4923
14.090265817715476 74.1408
14.112734645763819 73.4257
14.13522154619454 73.4837
14.157691466286913 73.6699
14.180179461423874 73.1533
14.202668005486178 72.5382
14.22513957064374 71.9086
14.247629214846473 71.6664
14.270101881097517 71.4917
14.29259262906496 71.5326
14.315083930490205 71.8685
14.337558255389705 71.7446
14.360050666019726 71.7012
14.382526101071944 71.0778
14.405019624534942 70.4028
14.427513705993134 69.7361
14.449990813291825 69.9179
14.47248601302899 69.9134
14.49496423954951 70.2067
14.517460561197822 70.3992
14.539939910570322 69.7683
14.562437357763558 70.22800000000001
14.58493536931253 71.0773
14.607416409993311 71.5517
14.62991555254159 72.0319
14.652397725157423 72.1091
14.674898002342799 71.9423
14.697398848433282 71.7929
14.719882725991326 73.3148
14.74238471217934 75.6337
14.764869730765593 79.999
14.787372860692983 83.8072
14.809876564079925 88.5562
14.83236330125751 95.1136
14.854868153850365 104.445
14.877356041159485 117.965
14.899862046604186 135.844
14.922351087688757 157.74200000000002
14.944858249632887 181.803
14.967365991421232 202.858
14.989856770231246 217.398
15.012365673994204 215.227
15.03485761569738 187.57299999999998
15.05736768508665 147.933
15.07987833888692 114.791
15.102372032001655 90.686
15.124883856909658 77.62100000000001
15.14737872204565 73.1548
15.169891721717274 71.6558
15.192405310371893 71.3172
15.214901940621196 71.4558
15.237416709527137 71.1386
15.259914520936249 71.2926
15.282430473753607 70.3142
15.304947020131227 69.3707
15.327446610371178 68.8314
15.349964346154254 68.2838
15.372465126703139 68.0377
15.394984055556009 67.5353
15.417486030076159 67.271
15.44000615566487 67.2072
15.462526881230803 67.197
15.485030653812652 67.2043
15.507552581617434 67.2054
15.530057557334603 67.2157
15.55258069104857 67.1262
15.575104429329837 67.221
15.597611216864632 67.2558
15.620136166564563 68.0229
15.6426441664095 69.932
15.665170331202765 73.3129
15.687697105158826 76.4666
15.710206930593545 80.0827
15.732734925158933 84.54299999999999
15.755245972089478 91.4872
15.77777519094324 100.946
15.800287463046663 113.729
15.822817909869592 130.609
15.84534897229804 148.226
15.867863089299354 168.622
15.890395385222186 182.65400000000002
15.912910736597423 191.30900000000003
15.935444269699861 182.38099999999997
15.957978423016485 155.543
15.980495633101265 123.55799999999999
16.003031029129367 95.5254
16.02554948280019 76.8594
16.048086125229432 68.63600000000001
16.070623392487107 65.5419
16.09314371869582 64.4346
16.11568223789321 63.6095
16.13820381691126 62.8202
16.160743591742527 61.981
16.183283996022084 61.3342
16.205807461423195 60.4278
16.228349126881973 59.9329
16.25087385432698 59.893
16.27341678466365 59.2383
16.29594277784926 59.0208
16.31848697676433 59.2258
16.341031811604868 59.0019
16.36355971058487 59.2523
16.3861058195587 58.9508
16.40863499352978 58.1405
16.431182380342005 57.4938
16.453730407713202 57.107
16.476261501364792 56.6727
16.498810812136167 56.3771
16.52134319004079 56.47
16.54389378792203 56.4474
16.566445031001553 56.2451
16.588979342490088 56.0993
16.61153187824822 55.97
16.634067483263312 55.8444
16.656621315414416 55.5809
16.679175797408888 55.3864
16.701713349928728 55.5522
16.72426913389191 55.6169
16.74680798922351 55.5507
16.76936507887444 55.578
16.791905240734874 55.7041
16.814463639794468 55.6683
16.837022695210294 55.4499
16.859564824093756 55.7488
16.882125194503903 56.2191
16.904668639217885 56.88
16.927230328348003 56.9634
16.949792678493612 56.9297
16.972338104193863 56.6758
16.994901778652235 56.4533
17.017448529496576 56.611999999999995
17.040013531998152 57.0391
17.06257920018044 57.7589
17.0851279459922 58.4726
17.107694947817667 59.382
17.130245028099072 60.3614
17.15281336730298 61.6659
17.17536478578733 63.4894
17.19793446610687 65.8169
17.220504818648422 68.6223
17.243058251703697 71.2915
17.265629950971032 75.5335
17.288184731571736 78.9172
17.310757781306908 82.2596
17.33333150794385 83.39
17.355888317140174 82.4337
17.37846339986244 77.5693
17.401021565958885 71.6604
17.42359800851343 66.3066
17.44617513265564 62.7714
17.468735341390783 61.078
17.491261035594565 60.1211
17.51396340099364 59.961000000000006
17.536490463869136 60.224
17.559018209820174 60.0147
17.58154663977963 60.2158
17.604251766089718 60.3127
17.626781572227713 60.641999999999996
17.64931206518155 60.8671
17.671843245885103 61.3893
17.69455114821572 61.6802
17.717083712612634 61.6736
17.739616967569667 62.0208
17.762150914021706 62.2622
17.78486160749854 62.7222
17.807396945166804 63.4658
17.829932977143503 65.1938
17.85246970436452 67.2498
17.875183204129467 69.0576
17.897721330097664 71.2855
17.920260154126645 73.7635
17.942799677153296 76.9937
17.9655159983646 81.1646
17.988056927677544 86.3791
18.010598558807683 94.2221
18.033140892692916 102.819
18.05586005052525 111.633
18.07840379824407 121.516
18.10094825154059 132.058
18.12366954819864 139.95
18.146215420998306 141.025
18.16876200220057 133.27100000000002
18.191309292745153 119.945
18.214033452627167 105.87200000000001
18.236582170236648 94.4943
18.259131600016456 88.7295
18.281681742907335 88.5147
18.304408781233683 91.8784
18.32696035875955 95.9933
18.349512652227624 100.382
18.372065662579683 105.22399999999999
18.394795594587553 106.79700000000001
18.41735004715306 103.92399999999999
18.43990521943684 97.1031
18.46246111238171 87.5039
18.485193953325208 77.883
18.507751296070428 70.6506
18.530309362314178 66.6935
18.552868153000343 64.317
18.57560391815056 63.0708
18.59816416623245 62.5239
18.620725141597372 62.1238
18.643286845190268 61.7405
18.666025549835414 61.4324
18.688588718427933 60.7685
18.711152618092243 60.6614
18.73389353884365 60.387
18.75645890921984 59.9146
18.77902501351406 59.5275
18.801591852673102 59.6094
18.824335739722738 58.9735
18.846904057212626 58.8984
18.8694731124168 58.6595
18.89204290628315 58.7085
18.914789774966803 58.4537
18.937361054791623 58.1318
18.959933076131318 58.1233
18.982505839934877 58.0821
19.00525570560582 57.8593
19.027829963004184 57.6386
19.05040496572238 57.9839
19.072980714710468 58.2056
19.095733592739563 58.2888
19.11831084296757 58.4857
19.140888842324735 59.0978
19.16346759176222 59.3116
19.18622349753803 59.9623
19.208803755869358 60.9846
19.231384767143577 62.1149
19.253966532312948 63.5338
19.276725481241822 65.6739
19.29930876296784 67.6947
19.3218928014549 70.1496
19.34465404436217 72.7745
19.36723960516257 75.4376
19.389825925592426 76.7178
19.412413006605938 76.28699999999999
19.43517731967805 73.2326
19.457765930683355 68.9531
19.48035530514408 63.9085
19.50294544401556 60.0688
19.525712842708348 57.2952
19.54830451925909 56.0133
19.570896963095727 54.8942
19.593490175174704 54.6108
19.616260674962184 54.9151
19.638855432416964 54.333999999999996
19.661450960992624 54.7045
19.68404726164677 54.6605
19.706820878021247 54.2722
19.729418731756834 54.5347
19.752017360452857 54.2159
19.77461676506804 54.5201
19.797393513540218 54.6169
19.819994478951667 54.9038
19.84259622316767 55.4951
19.8651987471481 55.7661
19.887978643247177 56.1664
19.91058273574792 56.8637
19.933187610901943 57.6193
19.955969879466828 58.9449
19.97857632894404 60.4033
20.00118356396599 61.964
20.023791585494575 63.7548
20.046577028914875 66.2686
20.069186632506966 68.0309
20.091797025500632 69.8466
20.114408208858933 70.6273
20.137196842715273 70.7577
20.159809615886765 69.1602
20.18242318232135 66.6863
20.20503754298326 64.4577
20.227829382875154 63.273999999999994
20.250445341109344 63.0191
20.27306209647285 63.3295
20.29567964993108 64.4986
20.31847471147704 65.3201
20.34109387027612 66.0737
20.363713830075454 66.0363
20.386334591841646 64.7261
20.409132890679302 61.9615
20.431755265564437 58.735
20.454378445325528 56.0465
20.477002430930366 54.1741
20.499803982716553 52.8645
20.522429589228004 52.1682
20.54505600449589 51.7936
20.567683229489194 51.6079
20.590488049900088 51.1973
20.61311690359731 50.8756
20.63574656993626 50.7926
20.658553853717297 50.5104
20.681185154618298 50.4759
20.703817271080066 50.3102
20.72645020407368 49.8997
20.749260783967177 49.9292
20.771895359337133 49.9173
20.794530754161617 49.7283
20.817166969412938 49.751999999999995
20.83998086114876 49.6682
20.86261872660049 49.4732
20.885257415405402 49.6059
20.90789692853701 49.4198
20.930714147864748 49.4998
20.953355319030678 49.6207
20.97599731745334 49.5155
20.99864014410749 49.3358
21.021460706796564 49.5344
21.044105199328826 49.7663
21.06675052302631 49.9241
21.089396678865015 50.175
21.112220600704806 50.3584
21.134868430275347 50.7703
21.15751709492456 50.9458
21.180166595629693 51.3244
21.202993892429635 51.6518
21.22564507473034 51.9365
21.24829709602816 52.1114
21.27112693608965 52.2742
21.293780644891275 52.3382
21.316435195634053 51.5852
21.339090589297417 50.7904
21.361923832041875 50.3458
21.384580921090404 49.6162
21.407238856007325 49.1564
21.429897637773326 49.2119
21.45273429906592 49.2564
21.475394784108598 49.265
21.498056118951983 49.2913
21.520718304578022 49.3164
21.543558400304388 49.4825
21.566222297108816 49.7562
21.58888704765135 50.0384
21.61155265291521 50.4017
21.63439619898156 50.8849
21.657063523335786 51.0506
21.67973170537063 51.4402
21.7024007460706 52.0348
21.72524775840385 52.8885
21.747918526116475 53.824
21.770590155457388 55.1306
21.79326264741238 56.7966
21.816113141960237 58.433
21.838787368860547 59.8628
21.861462461341976 61.5203
21.884315579735777 63.1861
21.90699241312273 64.5562
21.92967011506078 65.3972
21.95234868653799 65.1214
21.9752053151131 64.0356
21.997885635446785 62.2767
22.020566828293532 60.4522
22.04324889464272 58.5841
22.066109049404666 57.0783
22.088792872571794 56.4847
22.111477572219204 56.6118
22.1341631493376 56.8772
22.157026846313123 56.5812
22.179714188221507 56.1001
22.202402410582668 55.1641
22.22509151438863 53.6264
22.24795876962584 52.1713
22.270649646204486 51.4117
22.293341407213727 50.5959
22.316034053646906 50.1853
22.338904883215342 49.8494
22.36159931041458 49.96
22.38429462602756 49.7512
22.40699083104897 49.4532
22.429865251039757 49.5823
22.452563244831367 49.6402
22.47526213102522 49.6808
22.49813925616515 49.4876
22.520839937143307 49.2504
22.543541513520587 49.4319
22.56624398629403 49.184
22.589124730075895 49.2953
22.611829005656723 49.6367
22.63453418063466 49.7308
22.657240256008077 49.7374
22.680124634582935 49.9507
22.70283252079775 50.1274
22.725541310413075 50.5996
22.74825100442868 50.7154
22.771139033969575 51.3003
22.79385054687155 51.568000000000005
22.81656296718292 52.1818
22.83927629590484 53.1001
22.862167992606945 53.9152
22.88488314827121 55.0068
22.907599215359284 55.7892
22.93031619487366 56.6942
22.953211574954405 57.4721
22.975930389478226 58.3182
22.998650119445763 58.7649
23.02137076586092 57.9404
23.044269845560063 56.8282
23.06699233506288 55.1318
23.089715744034912 53.3895
23.112617610931565 51.8692
23.135342869061212 50.5146
23.158069049684816 49.9814
23.1807961538087 49.6513
23.20370174880544 49.7732
23.226430710184808 49.7911
23.249160598093425 49.9632
23.271891413539002 49.9491
23.294800752937697 49.8652
23.31753343374794 50.1413
23.340267045128353 50.1314
23.36300158808808 50.5621
23.38591468821339 50.8218
23.408651104658304 51.2986
23.431388455719986 51.9032
23.454126742409 52.7916
23.4770436196085 53.6866
23.499783787914662 54.8151
23.522524894889884 55.4922
23.54526694154616 56.4599
23.56818761219047 57.3161
23.59093154860734 58.0181
23.613676427751283 58.4799
23.636422250635754 57.7829
23.659346731118656 56.1348
23.68209445191868 54.485
23.704843119509587 52.4978
23.72759273490623 50.4578
23.750521041644767 49.1999
23.77327256312355 48.0325
23.796025035462787 47.385
23.818956224555475 46.8516
23.841710609113413 46.6033
23.86446594758979 46.4953
23.887222241002014 46.165
23.910157285144578 45.8062
23.932915498962537 45.7905
23.955674670778713 45.7988
23.978434801611975 45.5774
24.001373717286125 45.4257
24.024135776723917 45.3396
24.046898798245582 45.1966
24.06966278287146 45.0609
24.092605586582614 44.9135
24.115371508023642 44.8272
24.1381383956401 44.685
24.16090625045381 44.604
24.183852958731244 44.7085
24.206622758582608 44.6188
24.229393528706886 44.4065
24.252165270127392 44.3641
24.27511589952438 44.2364
24.297889594216997 44.0581
24.32066426328598 43.8779
24.34343990775613 43.9823
24.36639447485003 43.9747
24.38917208083877 43.7758
24.41195066531332 43.7782
24.43490819850244 43.9328
24.457688750692377 43.5716
24.48047028445616 43.6639
24.503252800821233 43.6977
24.526214300784112 43.7045
24.548998793132213 43.7744
24.57178427117417 43.6462
24.59457073593893 43.5755
24.617536219319863 43.6425
24.64032466834748 43.5898
24.663114107195035 43.6289
24.685904536893013 43.2083
24.708874020360852 43.2179
24.731666442613744 43.1492
24.754459858818787 43.0332
24.777254270007962 42.9613
24.80022777025625 42.8148
24.82302418230472 42.8541
24.845821592443674 42.9635
24.86862000170663 42.9894
24.891597535453727 42.7539
24.914397953892728 43.0627
24.93719937456671 43.1094
24.96000179851076 43.0866
24.98298338249997 43.1943
25.00578782394922 43.5308
25.028593271784167 43.6468
25.05157790644186 44.0388
25.07438537804115 44.0108
25.097193859145293 44.4028
25.120003350792075 44.5135
25.142992065061257 44.8993
25.165803588823465 45.2172
25.18861612625217 45.4205
25.211429678386736 45.5819
25.234422489079968 45.5727
25.257238081693636 45.5391
25.280054692141732 45.4641
25.3028723214652 45.3169
25.325869245420463 45.3882
25.348688923599397 45.5996
25.371509623787006 45.565
25.394331347025812 45.181999999999995
25.41733240110666 44.6411
25.440156181590016 44.1832
25.46298098826268 43.6179
25.48580682216873 43.1313
25.50881202326435 42.5529
25.53163992281684 42.1274
25.55446885274561 41.8031
25.577298814096377 41.5389
25.600308179121807 41.4814
25.623140214533745 41.5685
25.64597328451537 41.3754
25.66898578564376 41.2001
25.691820936010206 41.1965
25.714657124097695 41.2509
25.737494350954734 41.2433
25.760511045684957 41.1839
25.783350361364224 41.0207
25.806190718969255 41.0571
25.82903211955018 41.2428
25.852053024868923 41.2703
25.874896522722523 41.3253
25.897741066713106 41.2664
25.920586657892454 41.4833
25.943611790812668 41.4541
25.966459487728237 41.5505
25.989308234998564 41.5912
26.01215803367705 41.8489
26.03518741123814 42.0811
26.05803932412957 42.2112
26.080892291600094 42.1346
26.10374631470478 42.317
26.12677995397268 42.2962
26.14963609978026 42.3934
26.172493304397875 42.0547
26.19535156888223 41.7685
26.218389486949604 41.4246
26.241249882640123 41.0938
26.26411134137826 41.0007
26.28715248187403 41.0009
26.31001607820869 40.7656
26.3328807407756 40.6514
26.35574647063438 40.7752
26.37879191991473 40.7489
26.401659795896734 40.8176
26.424528742360263 40.9886
26.447398760366614 41.2419
26.470448535598294 41.3092
26.49332070826805 41.4697
26.516193955675355 41.8086
26.53906827888316 41.8815
26.562122397260108 41.9873
26.584998883685063 42.3659
26.607876449110325 42.5775
26.63075509460056 42.6069
26.65381357334404 42.8069
26.67669439061878 42.7987
26.699576291163382 42.7628
26.722459276044212 42.6351
26.745522132402975 42.3968
26.768407297649354 41.9866
26.791293550442003 41.6376
26.814180891848974 41.3824
26.837248143099337 41.0421
26.860137673466657 41.0108
26.88302829566349 40.8897
26.90592001075963 40.5857
26.92899167420566 40.5179
26.951885586870763 40.2351
26.974780595655517 39.9716
26.99785558178161 39.6848
27.020752794605112 39.5662
27.043651106772522 39.4508
27.06655051935668 39.5531
27.089629948036183 39.3749
27.112531573292053 39.4524
27.135434302194138 39.3848
27.158338135817015 39.2557
27.181422024430987 39.2887
27.204328079372566 39.1429
27.22723524226965 39.04
27.250143514198573 39.2215
27.273231880156334 39.2249
27.296142382065014 39.0068
27.319053996245536 39.0031
27.341966723775965 39.0671
27.365059584515222 39.105
27.38797455070062 39.18
27.410890633481237 39.0303
27.433807833936918 39.1482
27.456905206923906 39.1798
27.47982465472398 39.1213
27.502745223449743 39.1667
27.525666914182825 39.2154
27.548768816912457 39.2202
27.571692763693633 39.1122
27.59461783573812 38.9951
27.617723149491244 38.8189
27.640650484125285 38.8423
27.66357894728264 38.7463
27.686508540048052 38.8058
27.709618414237887 38.5209
27.732550278321757 38.3731
27.755483275279115 38.4574
27.778417406196485 38.5857
27.801531858397514 38.5269
27.824468269376716 38.3772
27.847405817586786 38.3365
27.870344504116094 38.650999999999996
27.893463551932008 38.8121
27.916404527281053 38.9665
27.93934664422563 39.0012
27.962289903855886 38.9055
27.98541356491974 39.2745
28.00835912214229 39.3511
28.03130582533231 39.4963
28.054253675581805 39.6732
28.077381967556104 39.7587
28.100332124185126 39.6851
28.123283431160893 39.6252
28.146235889577238 39.3521
28.169368830154156 39.2283
28.192323603752033 38.9272
28.215279532083304 38.7309
28.238415973016764 38.4506
28.261374223145094 38.1765
28.284333631303806 38.1781
28.307294198589954 38.0359
28.330435319167677 37.7429
28.353398217078915 37.4372
28.376362277420153 37.3329
28.39932750129032 37.1885
28.422473319286713 37.0418
28.44544088262495 37.0203
28.468409612800283 36.8115
28.491379510913497 36.4882
28.51453004413313 36.4927
28.53750229057244 36.4749
28.56047570826344 36.5117
28.583450298308804 36.4652
28.606605564586562 36.1684
28.629582511831156 36.2314
28.65256063474956 36.2886
28.675539934446338 36.1448
28.698699951647605 36.1331
28.72168161743193 36.1411
28.74466446331978 36.0572
28.767648490417624 36.0719
28.790813276438353 36.0209
28.813799678527303 35.9909
28.836787265157085 35.9292
28.859955641890075 36.0231
28.882945610203045 35.8652
28.905936766392035 35.834
28.928929111566863 35.8218
28.952102288520145 35.8619
28.975097024308607 35.731
28.998092952423807 35.473
29.021090073977508 35.5643
29.04426806913204 35.4546
29.067267590245258 35.2853
29.090268308143695 35.2278
29.11327022394099 35.1497
29.13645305530891 35.0126
29.159457379627167 34.9373
29.18246290519685 34.8605
29.20546963313352 34.9332
29.22865731875826 34.9014
29.25166646419296 34.8908
29.27467681535305 34.8251
29.29768837335608 34.7915
29.320880931312562 34.8166
29.34389491580634 34.7644
29.366910110507334 34.79
29.38992651653503 34.8422
29.41312396492981 34.6818
29.436142806456754 34.6259
29.45916286268059 34.5091
29.48236399319994 34.4993
29.50538649169417 34.3328
29.528410208259935 34.1987
29.55143514402014 34.068000000000005
29.574641196749695 33.9274
29.597668583816574 33.8771
29.6206971934585 33.6702
29.64372702680042 33.6745
29.666938019934474 33.5423
29.689970313635285 33.4432
29.713003834422636 33.4789
29.73603858342347 33.4827
29.759254535188578 33.3702
29.78229175361658 33.3049
29.80533020365064 33.455
29.82836988641968 33.3978
29.85159081507472 33.263000000000005
29.874632976355343 33.2167
29.89767637376955 33.278
29.920721008448314 33.0487
29.9439469322847 33.0587
29.96699405457564 33.0464
29.9900424175358 33.1316
30.013092022298157 33.0434
30.03632295963995 33.01
30.059375061131373 32.8996
30.08242840783577 33.062
30.105483000888153 33.059
30.128718970092244 32.8956
30.151776069006917 32.9021
30.17483441768648 32.9605
30.198074175317235 32.9676
30.221135036724256 32.9269
30.24419715131772 32.8855
30.267260520236203 32.7081
30.290505341942243 32.8243
30.313571232750228 32.9326
30.336638381310948 32.8059
30.35970678876503 32.8497
30.38295669299435 32.7771
30.40602763151657 32.6551
30.429099832366074 32.6867
30.452173296685572 32.5356
30.47542830191959 32.5017
30.498504306502497 32.5584
30.521581577995562 32.6732
30.544660117543582 32.6418
30.56792024229725 32.6631
30.59100133132069 32.6243
30.614083691845494 32.6511
30.637167325018545 32.6125
30.660432587840603 32.7631
30.683518779717886 32.6745
30.70660624769615 32.7975
30.729694992924372 32.7858
30.75296541239743 32.8209
30.77605672557558 32.6581
30.799149319462742 32.5714
30.8224236211637 32.5132
30.845518789950724 32.3623
30.868615242910597 32.2681
30.891712981195973 32.1908
30.91499247215866 32.1488
30.938092794619365 32.1148
30.96119440587579 32.0627
30.984297307082752 31.9511
31.00758200598383 31.7149
31.030687500658694 31.73
31.053794288760695 31.6782
31.076902371446767 31.4984
31.100192296997445 31.6415
31.12330298246119 31.5341
31.14641496599209 31.4509
31.169528248749216 31.4808
31.19282341969534 31.4317
31.215939314557186 31.4845
31.239056512134788 31.4452
31.262175013589378 31.4724
31.28547544871168 31.3953
31.30859657161541 31.2983
31.331719001892175 31.3083
31.35484274070538 31.4093
31.378148458819545 31.4847
31.401274828443725 31.3956
31.424402510106933 31.4182
31.447712205419993 31.5159
31.470842524931633 31.2803
31.493974159989783 31.3065
31.51710711176168 31.2984
31.54042212308802 31.2585
31.563557722100917 31.2659
31.586694641341655 31.1116
31.609832881979628 31.0668
31.63315322823208 30.9197
31.656294125521327 30.7404
31.679436347728515 30.7715
31.70257989602529 30.8263
31.725905596152327 30.7231
31.74905181052835 30.5708
31.772199354521323 30.7179
31.79534822930507 30.6548
31.818679302290967 30.6618
31.84183085259981 30.6805
31.864983737233473 30.524
31.88813795736804 30.5186
31.911474422233013 30.5225
31.934631327356435 30.5725
31.9577895715215 30.5536
31.980949155906522 30.5588
32.004291031706956 30.5343
32.027453310562606 30.4119
32.05061693318573 30.2821
32.07396288236386 30.2493
32.09712920658542 30.1557
32.12029687812702 30.0562
32.14346589817093 29.8915
32.166817291729984 29.9539
32.18998902288583 29.909000000000002
32.21316210610336 29.8928
32.23633654256711 29.6666
32.259693399663725 29.7121
32.282870556771144 29.5392
32.30604907069099 29.6182
32.329228942610065 29.5083
32.35259128243769 29.4225
32.375773884550505 29.3555
32.398957848235646 29.3818
32.422143174682176 29.3072
32.445511016471215 29.1869
32.468699082679954 29.1936
32.49188851523011 29.1004
32.51507931531304 29.0424
32.538452678331 29.0579
32.56164622776311 28.9483
32.58484114831493 28.8976
32.60803744118015 28.9283
32.631416344731896 28.9432
32.654615396551876 28.9198
32.67781582427913 28.8853
32.701198898634416 28.7434
32.72440209253756 28.6757
32.747606665947124 28.6804
32.77081262006088 28.5488
32.79420126883317 28.6075
32.81740999876112 28.5676
32.840620112999424 28.535
32.86383161274818 28.4579
32.88722585534586 28.5199
32.91044014056596 28.4884
32.933655814909734 28.4492
32.95687287957963 28.4282
32.98027273544904 28.3846
33.00349259526636 28.2719
33.026713849030116 28.3311
33.04993649794511 28.2658
33.073341986570746 28.2385
33.09656744032826 28.302
33.11979429286444 28.2669
33.14302254538647 28.1907
33.166433686291185 28.1446
33.18966475336992 28.2082
33.212897224069096 28.0553
33.23613109959831 28.0663
33.259547912343415 27.9589
33.2827846121627 27.9707
33.306022720453775 27.8965
33.32926223842861 27.8576
33.352684742614166 27.9419
33.37592709463173 27.8054
33.399170859982064 27.726999999999997
33.422597648419426 27.6922
33.44584425514446 27.6258
33.46909227885668 27.4515
33.4923417207723 27.4297
33.51577423505344 27.4595
33.539026528130385 27.3836
33.56228024307245 27.3643
33.585535381098246 27.1753
33.60897364093058 27.1908
33.63223163992385 27.195999999999998
33.6554910656699 27.0852
33.678751919389796 27.1291
33.702195944520106 27.0266
33.72545966903325 27.0749
33.74872482519663 26.936
33.771991414233746 26.9231
33.79544122444841 26.8666
33.81871069412428 26.750999999999998
33.84198160035767 26.7573
33.86525394437455 26.7696
33.88870955949969 26.7458
33.911984794020626 26.6849
33.93526147001624 26.6764
33.958539588715006 26.5565
33.98200102861669 26.5121
34.0052820477047 26.4773
34.02856451319451 26.4992
34.05203033759056 26.3925
34.07531571090147 26.3628
34.09860253431845 26.333000000000002
34.121890809074316 26.2801
34.145362493118924 26.2782
34.16865368561615 26.2048
34.191946333164054 26.2292
34.21524043699793 26.2452
34.23871800066799 26.2487
34.26201503218366 26.0838
34.28531352370466 26.0415
34.30861347646881 25.9089
34.33209693978188 25.8773
34.3553998301885 25.9364
34.378704185565205 25.7758
34.402010007152356 25.7948
34.42549939016683 25.8253
34.44880815937748 25.6602
34.472118398533134 25.6338
34.49543010887669 25.6115
34.51892543169198 25.5388
34.54224009966052 25.6649
34.56555624255917 25.5644
34.58887386163339 25.4535
34.61237514439016 25.3841
34.6356957311114 25.3132
34.65901779775809 25.3619
34.68252356662995 25.3207
34.705848608458616 25.2885
34.72917513396849 25.1937
34.75250314440949 25.139
34.77601490857862 25.0903
34.799345904259795 25.0133
34.82267838863559 25.1211
34.846012362958525 24.9909
34.869530142679984 24.9877
34.89286711232212 24.9035
34.91620557568269 24.9394
34.93954553401677 24.9135
34.9630693495876 24.8352
34.986412313340814 24.8001
35.00975677584668 24.8095
35.033102738362956 24.767
35.05663261012228 24.7629
35.0799815881786 24.6944
35.10333207003229 24.6292
35.12668405694369 24.6753
35.150220005273056 24.6706
35.17357501786656 24.5938
35.19693153931268 24.5417
35.220289570874385 24.5436
35.24383161619786 24.5166
35.267192683604904 24.4921
35.290555264930376 24.4871
35.314101899412165 24.4221
35.33746752422433 24.4037
35.36083466676374 24.4175
35.38420332829803 24.3405
35.407756095629054 24.3587
35.43112781085063 24.3875
35.45450104888391 24.3107
35.477875810999194 24.3505
35.50143473172161 24.2096
35.52481255774625 24.1785
35.54819191167777 24.1593
35.57157279478914 24.1459
35.595137889488406 24.1583
35.61852184675279 24.063000000000002
35.641907337029984 24.0036
35.665294361595684 23.9438
35.68886565090076 23.9406
35.7122557598848 23.9542
35.73564740699838 23.8999
35.759040593519934 23.8063
35.78261809810353 23.822
35.80601437933051 23.7258
35.829412203814705 23.6291
35.85281157283719 23.5651
35.876395313415884 23.614
35.8997977874528 23.5891
35.92320180988546 23.5083
35.946790244133936 23.5145
35.97019737933222 23.544
35.993606066789866 23.526
36.01701630779276 23.403000000000002
36.04061101440684 23.373
36.06402437852291 23.3218
36.08743930005611 23.3644
36.1108557802951 23.2888
36.13445678011326 23.2197
36.15787639383515 23.1798
36.18129757014299 23.1369
36.20472031032821 23.0648
36.22832762423364 23.0148
36.25175350829375 23.066999999999997
36.275180960119776 22.9393
36.298609981005924 22.95
36.32222362992669 23.0645
36.34565580510207 22.8944
36.36908955323448 22.9211
36.39252487562093 22.8004
36.416144880530226 22.7459
36.43958336764275 22.7921
36.463023432914625 22.7879
36.486465077645676 22.6818
36.51009145956204 22.7749
36.53353627947859 22.7566
36.55698268276811 22.7193
36.58043067073321 22.6771
36.60406345072071 22.4946
36.62751462435344 22.5719
36.65096738658405 22.5708
36.67460498210655 22.4848
36.69806093788647 22.486
36.72151848619297 22.3529
36.744977628333636 22.3454
36.76862165890998 22.228
36.79208400512205 22.2054
36.81554794910557 22.3246
36.83901349217101 22.1625
36.862663978991606 22.1321
36.88613273667352 22.0997
36.90960309738324 22.0856
36.933075062434064 22.0805
36.95673202673572 22.0916
36.98020721697122 22.0138
37.003684015502365 21.9535
37.027162423645365 21.9026
37.050825886711465 21.8798
37.07430753063053 21.855
37.09779078812467 21.8152
37.121275660513014 21.8001
37.144945643673694 21.6859
37.16843376245278 21.7057
37.19192350009803 21.7306
37.215414857931435 21.6381
37.239091382563885 21.6089
37.262585997426164 21.5169
37.28608223645736 21.5696
37.309763684451696 21.5325
37.33326318851098 21.4791
37.356764320726555 21.5066
37.380267082425526 21.4341
37.40395510942588 21.4123
37.42746114683234 21.3356
37.45096881771841 21.3191
37.474478123414166 21.283
37.49817275092816 21.2627
37.52168534303452 21.2221
37.54519957395567 21.1322
37.568715445024665 21.0711
37.592416694607714 21.1076
37.61593586281424 21.122
37.63945667518264 21.1244
37.66297913304891 21.087
37.68668702630454 21.046
37.710212792059274 20.9623
37.733740207334854 20.941999999999997
37.757269273470364 20.8719
37.780983832050374 20.8613
37.80451621684926 20.8368
37.82805025654007 20.7667
37.851585952464795 20.763
37.8753071980695 20.7163
37.89884622345676 20.6568
37.92238690911902 20.6989
37.94611318753442 20.5343
37.969657210779765 20.5887
37.99320289834801 20.529
38.016750251586465 20.5601
38.04048325513017 20.4952
38.06403395679343 20.3875
38.087586328183946 20.3778
38.11114037065203 20.3798
38.13488012115898 20.430999999999997
38.1584375229181 20.3342
38.181996599821 20.3115
38.205557353221124 20.2911
38.229303872575656 20.2241
38.2528679961576 20.1981
38.27643380031219 20.1877
38.30000128639589 20.2117
38.32375459653193 20.1392
38.34732546371299 20.097
38.37089801690786 19.9736
38.39447225747609 20.0007
38.418232380377425 19.883
38.441810012983396 19.9613
38.46538933705673 19.919
38.488970353960084 19.8524
38.51273731166058 19.8824
38.536321731567014 19.8072
38.55990784840681 19.7167
38.58367995004091 19.6948
38.60726947812959 19.6451
38.63086070726198 19.7004
38.654453638806274 19.7206
38.678232613930824 19.613
38.70182896773327 19.5678
38.72542702806741 19.5732
38.7490267963045 19.5197
38.77281266709232 19.4716
38.79641586862214 19.51
38.8200207821842 19.3971
38.843627409152944 19.4053
38.86742019782782 19.3849
38.891030269149255 19.3581
38.914642058016156 19.3148
38.938255565806124 19.2521
38.96205529464307 19.2725
38.98567225787121 19.2209
39.00929094417078 19.1941
39.03291135492255 19.1691
39.05671804624804 19.1387
39.080341923549106 19.1125
39.103967529460334 19.0479
39.127594865365744 18.9846
39.15140854155791 18.9592
39.17503935514948 19.0289
39.19867190290282 18.9289
39.22249083587951 19.0215
39.24612686969409 18.955
39.269764641845306 18.881
39.293404153722804 18.8327
39.317230110864074 18.6889
39.34087311998506 18.7381
39.36451787301696 18.7951
39.388164371352595 18.6732
39.41199737518003 18.6327
39.43564738196752 18.6501
39.45929913825317 18.6177
39.48295264543308 18.663
39.506792718520884 18.5491
39.530449745387216 18.5701
39.55410852735203 18.5134
39.57776906581474 18.5045
39.60161623079 18.4585
39.625280300200025 18.4224
39.64894613032202 18.3323
39.67261372255866 18.3723
39.6964680021016 18.3248
39.72013913657293 18.3254
39.74381203738292 18.345
39.76748670593756 18.2918
39.79134812278169 18.2458
39.81502634488497 18.2
39.83870633896685 18.1617
39.862388106436654 18.1274
39.88625668336918 18.1046
39.90994201572829 18.0888
39.933629125719285 18.0358
39.957503091207826 18.0129
39.9811937746168 18.0788
40.00488623990914 18.0291
40.02858048850006 17.952
40.05246165409549 17.9088
40.076159487492085 17.85
40.099859108448875 17.8171
40.123560518384345 17.8379
40.1474489070226 17.8519
40.171153913178564 17.7735
40.194860712584955 17.7121
40.2185693066637 17.7534
40.242464941335314 17.6596
40.26617714307655 17.6378
40.289891143772046 17.595
40.3136069448471 17.5916
40.33750984859743 17.5912
40.3612292688043 17.5357
40.3849504936829 17.4466
40.40867352466194 17.5698
40.43258372059144 17.4856
40.45631038219906 17.3903
40.48003885420956 17.3703
40.503769138055105 17.3743
40.52768664931955 17.3854
40.55142057531802 17.3374
40.57515631746428 17.3131
40.599079334038514 17.2858
40.62281872700477 17.1814
40.64655994043941 17.1867
40.67030297578061 17.2507
40.69423334835778 17.149
40.71798004609188 17.0901
40.74172857006355 17.081
40.76547892171441 17.0986
40.7894166736039 17.0336
40.813170699248566 17.0577
40.83692655691388 16.9836
40.86068424804498 17.0038
40.884629402612525 16.9584
40.908390779366385 16.9373
40.932153993938 16.8918
40.95591904777605 16.8216
40.979871628443995 16.8312
41.003640379561936 16.8142
41.02741097430883 16.7626
41.05118341413683 16.7778
41.075143444384416 16.7022
41.098919593177826 16.6527
41.1226975914255 16.6469
41.14647744058318 16.5909
41.170444943946755 16.5833
41.19422851378379 16.6046
41.218013938914645 16.5244
41.24198706625173 16.5152
41.26577622087193 16.4088
41.289567235177785 16.4302
41.31336011063129 16.4663
41.337340752422875 16.448
41.361137369129835 16.4233
41.38493585138705 16.3588
41.40873620066004 16.3084
41.43272438060107 16.3442
41.45652848292052 16.2751
41.48033445666918 16.223
41.50414230331616 16.1757
41.528138045159764 16.1756
41.551949656675205 16.0957
41.575763145513235 16.1239
41.59957851314666 16.1402
41.62358184070442 16.0795
41.64740098505737 16.075
41.6712220126409 16.0149
41.69504492493139 16.0009
41.71905586207357 15.9631
41.74288256296395 15.9651
41.766711153007456 15.9618
41.79054163368412 15.8839
41.814560204340054 15.8836
41.838394485526365 15.8825
41.86223066180303 15.7539
41.88625497706819 15.7765
41.910094962812 15.7296
41.93393684811168 15.7179
41.95778063445365 15.669
41.981812625263366 15.6508
42.00566023303407 15.6466
42.029509746323676 15.5703
42.05336116662236 15.5553
42.077400857069705 15.6092
42.10125611078846 15.5264
42.12511327600405 15.537
42.14897235421036 15.4725
42.173019768448455 15.4079
42.19688269209613 15.4244
42.22074753323349 15.4609
42.24461429335818 15.432
42.268669455600495 15.3645
42.292540073217886 15.3672
42.31641261433284 15.335
42.34028708044675 15.2682
42.36435001496739 15.3211
42.38822835065557 15.2715
42.41210861586426 15.2109
42.4359908120986 15.2114
42.46006154323262 15.1401
42.48394762115317 15.1475
42.507835634632315 15.126
42.531912233047436 15.1056
42.55580413732265 15.1037
42.579697981698 15.0702
42.60359376768525 14.9963
42.62767820545945 14.9675
42.65157789440821 14.9646
42.67547952952185 14.9271
42.699383112316 14.8618
42.72347541395347 14.8701
42.74738291190531 14.8764
42.771292362102166 14.8508
42.795203766063516 14.8046
42.819303956130405 14.7473
42.843219287476536 14.7263
42.86713657716324 14.7395
42.89105582671383 14.7327
42.91516392983864 14.6729
42.939087119032166 14.633
42.963012272677304 14.6389
42.98693939230129 14.6469
43.01105543317513 14.5604
43.034986504731386 14.5469
43.05891954686589 14.517000000000001
43.08285456110972 14.5334
43.10697856448665 14.499
43.130917542983475 14.4084
43.15485849820081 14.4543
43.17880143167367 14.3718
43.20293342237094 14.3993
43.226880332449 14.3806
43.25082922540554 14.3533
43.27496722682525 14.3184
43.29892010567796 14.2549
43.32287497204102 14.2696
43.34683182745632 14.2294
43.370977859791836 14.1738
43.39493871351105 14.1653
43.41890156092628 14.2044
43.44286640358341 14.1681
43.46702049182749 14.112
43.49098934522816 14.0553
43.51496019852649 14.0429
43.5389330532723 14.0469
43.56309522248204 13.9903
43.58707210044314 14.0007
43.61105098451946 13.9614
43.63503187626491 13.9737
43.659202151562134 13.8831
43.68318707902681 13.8477
43.70717401884041 13.8406
43.731162972560874 13.8541
43.75534137913236 13.8443
43.779334381108384 13.8002
43.803329401683186 13.7432
43.82732644241872 13.7285
43.8515130055166 13.7472
43.87551410707659 13.7239
43.89951723350145 13.704
43.923709934595614 13.6052
43.94771713129917 13.6254
43.97172635758096 13.6011
43.99573761501002 13.5663
44.0199385169922 13.5728
44.04395385732619 13.5736
44.067971233533086 13.5343
44.09199064718605 13.4601
44.11619977548961 13.4401
44.14022328470671 13.4019
44.16424883610785 13.4464
44.18827643127035 13.4507
44.21249381139513 13.3943
44.236525514814076 13.3509
44.26055926674478 13.3143
44.28459506876863 13.2943
44.3088207262813 13.2066
44.33286064928722 13.2299
44.35690262714919 13.258
44.38094666145278 13.2064
44.4051806219871 13.1902
44.42922879003185 13.1146
44.45327901929361 13.1245
44.477331311362136 13.157
44.501573600619416 13.125
44.525630039221795 13.0707
44.54968854541895 13.0249
44.573937102200176 13.0328
44.5979997645541 13.0113
44.622064499300315 12.9619
44.64613130803592 12.9007
44.67038823869318 12.9909
44.69445921643748 12.9324
44.718532272981385 12.8701
44.742607409926194 12.9095
44.76687274034801 12.8995
44.79095205918753 12.82
44.81503346325094 12.8065
44.839116954143876 12.7936
44.86339071028742 12.7605
44.88747839599524 12.7532
44.91156817336837 12.7057
44.93566004401666 12.722000000000001
44.959942251908146 12.6567
44.984038330325966 12.6677
45.00813650686762 12.595999999999998
45.03223678314731 12.5812
45.05652746888232 12.5651
45.08063196592069 12.5175
45.104738567558705 12.498
45.128847275414856 12.5179
45.15314646515866 12.449000000000002
45.17725940679741 12.4256
45.20137445952892 12.418
45.22568004865265 12.4282
45.24979934496396 12.4063
45.27392075725247 12.329
45.29804428714431 12.314
45.322358426247604 12.3273
45.346486212804315 12.3433
45.370616121861914 12.286
45.39474815505086 12.2693
45.41907087049246 12.2726
45.4432071734666 12.2223
45.46734560548283 12.2565
45.49148616817604 12.1858
45.51581748638564 12.1768
45.5399623320197 12.1232
45.56410931325473 12.11
45.58825843173002 12.1318
45.61259837920865 12.0676
45.636751793816 12.0841
45.66090735060093 12.0215
45.68506505120716 12.0033
45.7094136545275 11.9634
45.73357566449271 11.9682
45.75773982322992 11.935
45.78190613238733 11.9119
45.806263418194064 11.8782
45.83043404997326 11.9205
45.85460683713677 11.9075
45.87897065658495 11.8204
45.90314777634752 11.7868
45.92732705646868 11.8106
45.9515084986045 11.7786
45.97588104735473 11.7355
46.00006683541565 11.7167
46.02425479047904 11.699000000000002
46.04844491420549 11.6974
46.0728262191024 11.665999999999999
46.09702070211635 11.6671
46.12121735879483 11.6572
46.14541619080294 11.607999999999999
46.169806278764455 11.5724
46.194009483459034 11.5594
46.21821486849841 11.5609
46.24242243555223 11.5336
46.266821333570014 11.4951
46.29103328674601 11.5127
46.31524742696538 11.4956
46.33946375590237 11.4075
46.36387149104216 11.4152
46.38809221957392 11.3514
46.41231514186606 11.3958
46.436540259597464 11.3651
46.460956858999374 11.3472
46.48518638983522 11.3145
46.509418121166966 11.2804
46.533652054678114 11.2802
46.55807754555709 11.238
46.58231590571962 11.2607
46.60655647313217 11.1857
46.630988654873654 11.1246
46.655233659129024 11.179
46.67948087571551 11.1772
46.70373030632484 11.1308
46.72817142736393 11.0948
46.752425308428684 11.0715
46.77668140861147 11.0509
46.80093972960865 11.0205
46.82538981736788 11.0242
46.849652602470904 11.0069
46.87391761349769 10.9585
46.8981848521493 10.9597
46.9226439341274 10.9128
46.946915650573224 10.8755
46.97118959976749 10.8718
46.99546578341598 10.8622
47.019933887188216 10.8474
47.04421456235744 10.8743
47.06849747711879 10.8183
47.09278263318286 10.8137
47.11725978640143 10.7937
47.14154944775105 10.7279
47.165841355555656 10.7035
47.1901355115306 10.722999999999999
47.214621741924994 10.7231
47.23892041698887 10.6701
47.26322134538975 10.6662
47.28771440635075 10.6101
47.31201986422527 10.6517
47.33632758061436 10.597000000000001
47.360637557241866 10.5658
47.38513974410611 10.5979
47.40945426407847 10.5363
47.43377104948137 10.5363
47.45809010204344 10.5162
47.48260144275502 10.51
47.506925052572285 10.4895
47.53125093475548 10.4242
47.55557909103813 10.4398
47.58009961361992 10.3735
47.60443234110732 10.3514
47.62876734791564 10.3832
47.65310463578333 10.3735
47.6776343683373 10.3908
47.7019762413987 10.3098
47.72632040075572 10.28
47.75066684815169 10.2879
47.77520581885936 10.2701
47.799556865477655 10.2481
47.823910205386 10.2162
47.84826584033272 10.1933
47.87281407745551 10.167
47.89717432569297 10.1953
47.92153687423484 10.168
47.94609208429692 10.1121
47.97045925671401 10.0813
47.99482873471275 10.0937
48.01920052005013 10.062999999999999
48.04376504619224 10.0507
48.068141469543484 10.0414
48.09252020552573 9.991710000000001
48.11690125590099 10.0108
48.1414751266064 9.96872
48.16586082917454 9.96716
48.19024885144316 9.939110000000001
48.2146391951793 9.941239999999999
48.239222439012764 9.94985
48.26361744916137 9.91801
48.28801478610016 9.86502
48.31241445160131 9.90875
48.337007097209366 9.82282
48.36141144338331 9.83482
48.38581812345755 9.799610000000001
48.41022713920929 9.80752
48.434829215320704 9.75865
48.45924292604658 9.76695
48.48365897780325 9.78589
48.50807737237308 9.70629
48.532688907799276 9.68467
48.55711201168574 9.66163
48.581537463754074 9.647210000000001
48.60615611725119 9.70037
48.63058628942721 9.669410000000001
48.65501881516546 9.60326
48.6794536962573 9.601230000000001
48.70408185970339 9.585930000000001
48.72852147531801 9.53266
48.75296345168211 9.51636
48.77740779059232 9.52774
48.80204549302823 9.52175
48.82649458091802 9.48714
48.85094603676547 9.45106
48.87539986237231 9.42345
48.90004713292306 9.43788
48.92450572200832 9.40686
48.94896668628025 9.373619999999999
48.97343002754588 9.38767
48.99808689542115 9.35498
49.02255501470614 9.37505
49.04702551642794 9.33775
49.0714984023988 9.31198
49.096164896893235 9.31663
49.120642575466796 9.25157
49.145122643748394 9.26108
49.16960510355558 9.226519999999999
49.19428125404938 9.223519999999999
49.2187685210852 9.2019
49.243258185121555 9.15837
49.26794160167084 9.14825
49.2924360839405 9.15592
49.31693296869764 9.114310000000001
49.34143225776915 9.09797
49.36612538195438 9.082880000000001
49.39062950396021 9.09205
49.41513603578346 9.07927
49.4396449792564 9.07409
49.46434784069503 9.03252
49.488861631846454 8.996789999999999
49.513377840166804 8.98788
49.537896467493745 8.949689999999999
49.56260909589029 8.93582
49.587132585683285 8.977689999999999
49.611658500018365 8.92218
49.636186840738596 8.88033
49.66090926588511 8.89901
49.685442483902584 8.90191
49.70997813385706 8.84137
49.734516217597076 8.83553
49.75924846937352 8.8318
49.7837914452858 8.79602
49.80833686055187 8.7765
49.83288471702571 8.76348
49.85762682540054 8.77961
49.882179588965734 8.73756
49.9067347993235 8.72228
49.93129245833333 8.71344
49.95604445336378 8.68945
49.98060703442832 8.65526
50.005172069746266 8.66548
50.02993150438364 8.64157
50.05450147301533 8.61027
50.07907390151433 8.624460000000001
50.10364879174981 8.58685
50.12841816587289 8.59779
50.1529980044635 8.589319999999999
50.17758031042124 8.54
50.20216508562089 8.525780000000001
50.22694442953363 8.52336
50.25153416817468 8.49687
50.27612638170508 8.4727
50.300721072005196 8.44811
50.325510416102105 8.43025
50.350110084975064 8.4094
50.37471223628208 8.41813
50.39931687190919 8.40691
50.424116246675766 8.36638
50.44872587605249 8.32141
50.47333799543065 8.342410000000001
50.49795260670191 8.34085
50.52276204271512 8.27053
50.54738166295838 8.304960000000001
50.57200378079314 8.3046
50.596628398116835 8.26423
50.62144792604559 8.26041
50.646077567609396 8.2546
50.670709714377715 8.23633
50.69553683636198 8.20761
50.72017401885922 8.194980000000001
50.7448137122895 8.14668
50.76945591856022 8.145010000000001
50.79429318636823 8.13767
50.818940443716784 8.1357
50.84359021965163 8.14096
50.868242516085964 8.10388
50.893089960641895 8.060789999999999
50.917747323549435 8.01895
50.94240721271973 8.03898
50.96706963007175 8.04493
50.99192728239342 7.98945
51.01659478166073 8.024510000000001
51.04126481489051 7.998819999999999
51.06593738400761 7.946739999999999
51.090805275207074 7.942989999999999
51.11548294172845 7.94923
51.14016314993547 7.87935
51.164845901758845 7.8952
51.18972406304274 7.915189999999999
51.21441192780656 7.877330000000001
51.23910234200271 7.85418
51.2637953075678 7.83487
51.288683770237945 7.8173
51.31338186432707 7.78592
51.33808251561888 7.82065
51.362978729967345 7.80955
51.387684521509755 7.763789999999999
51.41239287610203 7.74357
51.437103795691165 7.739330000000001
51.46201036644977 7.7391
51.486726441956634 7.70396
51.51144508832545 7.69077
51.536166307509156 7.6299
51.56108326624387 7.641939999999999
51.58580965706056 7.62604
51.61053862657523 7.64623
51.635270176746864 7.6036
51.66019755512065 7.6001199999999995
51.68493429268881 7.58125
51.70967361681515 7.55
51.73441552946465 7.553260000000001
51.759353359237934 7.5162
51.7841004750961 7.52504
51.80885018539685 7.519610000000001
51.833602492111254 7.47469
51.8585508051424 7.45138
51.883308330926425 7.43951
51.90806845906181 7.40607
51.932831191525715 7.385160000000001
51.95779001977161 7.35187
51.98255798721516 7.375489999999999
52.00732856494335 7.3715
52.03229530577543 7.36176
52.057071130455945 7.32989
52.081849571391054 7.32965
52.106630630568695 7.3118
52.13160794279417 7.274660000000001
52.15639426492067 7.280880000000001
52.18118321127822 7.24567
52.205974783860896 7.2468
52.23096269971011 7.228289999999999
52.255759551287994 7.2069399999999995
52.280559035098186 7.19935
52.30536115314103 7.16251
52.33035970494467 7.17943
52.35516711807904 7.145760000000001
52.37997717147198 7.09859
52.40478986713005 7.102339999999999
52.42979908731974 7.09172
52.454617094216 7.0852
52.47943774942214 7.075989999999999
52.50426105495102 7.10349
52.529280976059844 7.06555
52.554109609024096 7.02226
52.57894089837482 7.0212699999999995
52.60377484613117 6.97645
52.62880550079408 7.00484
52.65364479223379 6.965389999999999
52.67848674816189 6.96576
52.70352547971946 6.95356
52.72837279155837 6.897060000000001
52.753222773982785 6.879860000000001
52.778075429022984 6.904489999999999
52.80312495150885 6.88439
52.827982978797436 6.85468
52.85284368481815 6.84059
52.87770707160767 6.81009
52.90276741793998 6.7877600000000005
52.92763619336701 6.8569
52.952507655698504 6.80245
52.977381806977576 6.778760000000001
53.00245301017842 6.78987
53.02733256653592 6.7503
53.052214817996074 6.77567
53.077099766608484 6.748889999999999
53.102181859804446 6.700010000000001
53.127072229988265 6.716310000000001
53.15196530349892 6.66638
53.17686108239249 6.6622
53.20195409881522 6.67162
53.22685531582556 6.668760000000001
53.25175924441303 6.64123
53.27666588664027 6.641089999999999
53.30176985962693 6.60595
53.3266819565689 6.587619999999999
53.35159677336455 6.565689999999999
53.376514312083096 6.5394
53.40162927507703 6.580369999999999
53.42655228516116 6.54479
53.45147802340193 6.54596
53.47660125628886 6.5439
53.50153247842639 6.46672
53.52646643496923 6.49731
53.55140312799818 6.48994
53.576537409691696 6.5461800000000006
53.60147960336152 6.44499
53.626424539786164 6.4167
53.65137222105307 6.4048300000000005
53.67651758529126 6.35214
53.70147078399681 6.36116
53.72642673383343 6.33177
53.75138543689533 6.31542
53.776541917524526 6.31305
53.801506154876755 6.3192699999999995
53.826473151763246 6.32775
53.851442910284916 6.2855300000000005
53.87661054126026 6.2544699999999995
53.9015858509782 6.26617
53.92656392866066 6.252680000000001
53.95154477641532 6.27864
53.976723591801296 6.257969999999999
54.00171000771266 6.22539
54.02669920004598 6.2287099999999995
54.051691170915745 6.23147
54.076881204886796 6.21424
54.101878760928514 6.20365
54.12687910187696 6.13408
54.152077577768296 6.16063
54.1770835166946 6.13966
54.20209224691339 6.110119999999999
54.22710377055121 6.07945
54.25231352511594 6.0507
54.27733066384342 5.99196
54.30235060239643 6.01016
54.32737334290836 6.03439
54.35259441062629 5.96643
54.377622783395324 5.9993099999999995
54.40265396455061 5.96495
54.42768795623251 5.96061
54.45292037169559 5.9396
54.477960012857906 5.89098
54.50300247099511 5.87879
54.52804774825457 5.86578
54.55329154616743 5.83242
54.57834249018678 5.81464
54.6033962597977 5.832330000000001
54.6284528571545 5.77797
54.653708072335164 5.76207
54.67877035378786 5.72961
54.70383546947698 5.73717
54.72890342156389 5.72995
54.7541700889442 5.70662
54.77924374251975 5.67422
54.8043202390049 5.66223
54.82959552413022 5.65917
54.8546777351945 5.6105599999999995
54.87976279569621 5.60974
54.90485070780914 5.61217
54.930137506558005 5.52968
54.95523115074295 5.5897
54.98032765308844 5.53126
55.005427015775496 5.50989
55.03072536339621 5.51819
55.05583047570572 5.4777
55.080938454927676 5.47314
55.10604930325027 5.46572
55.131359235107396 5.45894
55.15647585066083 5.38581
55.181595341907496 5.349880000000001
55.20671771104285 5.34512
55.232039262617704 5.32072
55.25716741665048 5.27811
55.28229845518636 5.30147
55.30743238042802 5.25189
55.33276558731939 5.2657099999999994
55.357905315183636 5.22688
55.383047936390035 5.17606
55.40819345314859 5.19566
55.433538351073295 5.15946
55.458689688238415 5.11952
55.483843927614096 5.10224
55.509197623043605 5.09505
55.53435769621134 4.9973
55.55952067826466 5.01875
55.5846865714265 5.01421
55.61005202069737 4.98792
55.63522376553902 4.95791
55.66039842818645 4.910769999999999
55.68557601087004 4.90555
55.7109532500271 4.8314900000000005
55.73613670233794 4.886019999999999
