TT I
1.2716486653135266 8.12321
1.2939594142134223 7.86083
1.3162702121660406 7.37688
1.3385810600174564 6.968889999999999
1.3608919586137629 7.00943
1.383202908801069 7.504110000000001
1.405513911425503 7.2584
1.4278249673332093 6.989669999999999
1.4501343378461518 6.847119999999999
1.4724455028545926 6.51957
1.4947567236847858 6.979889999999999
1.517068001182951 7.025460000000001
1.5393793361953272 6.53754
1.5616907295681737 6.05771
1.5840021821477681 5.67485
1.60631369478041 6.22043
1.6286252683124185 6.569369999999999
1.6509369035901333 5.55889
1.6732468618895553 5.97067
1.695558623192809 5.76158
1.7178704487808514 5.916580000000001
1.7401823395001077 5.16317
1.7625012545597203 5.79482
1.7848028405262486 5.68239
1.8071218901122095 5.65181
1.8294236121921872 5.41488
1.8517427996910911 5.470680000000001
1.8740620574440425 5.1128
1.8963639900671978 5.342219999999999
1.9186833908139995 5.3443
1.9409854680117449 4.72095
1.9633050151394713 5.57138
1.9856246367570705 5.24089
2.0079269371922672 5.3960300000000005
2.03024671027244 5.1906099999999995
2.0525491637446027 4.6936800000000005
2.074869091674931 4.32067
2.097171701569106 4.95942
2.1194917877373847 5.498130000000001
2.141811954326636 5.11273
2.164114805233074 4.4157
2.186435135143035 4.58634
2.208738150935709 4.99495
2.231058647554722 4.932169999999999
2.2533792288321184 4.4752
2.275682498336085 4.57112
2.298003251406138 5.05446
2.3203066942619714 4.99449
2.3426276225136022 4.62059
2.3649486396617507 4.520580000000001
2.387252348930071 5.03843
2.4095735463442893 4.64465
2.4318774374315884 4.79033
2.4541988185014043 4.82325
2.476502894794693 5.0875
2.498824462909887 4.29603
2.521146125856138 4.13836
2.5434504863470337 4.681690000000001
2.5657723414244717 5.262169999999999
2.588076895590662 5.99195
2.610398946189713 5.7672300000000005
2.6327210958598384 5.9375800000000005
2.6550259469304716 5.87501
2.6773482972090137 5.87484
2.6996533504259 6.19094
2.7219759047039602 6.351
2.744298562293959 6.739960000000001
2.7666039251246595 6.17197
2.7889267918020164 6.471509999999999
2.8112323652516555 6.935110000000001
2.833555444408179 7.33161
2.8558786311183852 7.15307
2.8781845268938557 7.694939999999999
2.9005079311721484 8.11778
2.9228140460410397 8.31542
2.9451376712799635 9.07244
2.967444008632326 9.47167
2.9897678582247247 9.729239999999999
3.0120918213106695 10.6023
3.0343984987899373 11.0244
3.0567226913198637 11.0616
3.079029599759726 11.5599
3.101354025127254 12.4669
3.123678568232338 12.9238
3.145985829517914 12.8296
3.16831061055229 13.5613
3.1906181112775593 14.1668
3.212943133635653 14.5696
3.2352682779763207 14.8098
3.2575761442691227 15.437000000000001
3.2799015350264273 16.0306
3.302209649240067 16.5739
3.3245352898092655 16.9938
3.3468436553365257 17.4534
3.369169549113219 18.0128
3.3914955708171384 18.9876
3.413804319727358 19.2651
3.4361305997334863 19.3049
3.4584396084414553 19.5629
3.4807661501462652 20.4047
3.503092824025881 20.6828
3.5254022288463154 20.8328
3.5477291695206588 21.2559
3.5700388426251948 21.8796
3.5923660534916446 22.2157
3.6146934007816114 22.4519
3.637003482731501 23.1121
3.6593311053109985 23.5774
3.681641464033634 23.765
3.7039693653009733 24.2463
3.726297407241705 25.2083
3.7486081875460804 25.5095
3.7709365132734978 25.9255
3.793247578841633 26.4793
3.8155761917550093 26.951999999999998
3.8378875459837216 27.5464
3.8602164494827234 28.0639
3.882545499606844 28.5333
3.9048572932539183 28.8761
3.9271866390645718 29.1347
3.9494987298666713 30.3876
3.971828374764527 30.7668
3.9941581705403255 31.0788
4.016470713506008 31.7528
4.038800813471445 32.6118
4.061113662089144 33.1405
4.0834440696459176 34.1243
4.105774632334751 34.1482
4.128087945865126 35.0199
4.150418821249301 35.6698
4.172732448931298 36.0386
4.195063640413578 37.0755
4.2173775856475215 37.6953
4.239709096631102 38.6714
4.262040768704612 39.2817
4.284355196706267 40.1704
4.306687193387355 40.8874
4.329001947444346 42.0623
4.35133427213731 42.5481
4.373666762177566 43.6992
4.395982011761091 44.3666
4.418314834921175 46.0115
4.44063041906622 46.7549
4.4629635787515625 47.4414
4.4852969080429785 48.674
4.5076130004776225 50.1538
4.529946671403969 51.6443
4.552263106909177 52.6379
4.574597122877047 53.6286
4.596931312711224 54.5984
4.619248269273446 55.81399999999999
4.6415828092605835 56.8527
4.663900117405352 58.3248
4.686235010953232 60.2098
4.708552674085913 61.6288
4.730887924602802 62.8122
4.753223354952695 64.5962
4.775541557023902 66.4685
4.797877349456786 67.6779
4.820195915032126 70.5898
4.842532072957498 72.0538
4.864868414979744 74.0542
4.88718753227192 76.8383
4.909524244902505 79.3203
4.931843734218147 82.2364
4.954180820867835 85.0491
4.976518095879839 88.88799999999999
4.998838149695359 92.6759
5.021175803844231 97.5287
5.043496238205739 101.831
5.065834274903528 108.046
5.088172504230693 116.119
5.1104935158799565 125.601
5.132832132875765 141.719
5.155153533596801 170.418
5.1774925416746225 282.45
5.199814334878411 890.188
5.2221537374521505 2258.09
5.244493338631803 3964.74
5.266815727034316 6561.13
5.289155727832427 10296.8
5.311478517248165 9522.83
5.333818921080011 4356.53
5.356159527788849 1059.92
5.3784829252032536 289.492
5.400823940070432 187.359
5.423147747031976 156.239
5.445489173474152 139.32299999999998
5.467830807066149 130.032
5.490155234831516 123.882
5.512497285125229 118.85700000000001
5.534822130975162 116.113
5.557164601388673 113.19200000000001
5.579489868738879 109.41799999999999
5.601832762690846 107.602
5.6241758697774475 105.875
5.646501775867269 104.79
5.668845311622074 103.959
5.691171647754637 103.742
5.713515615597765 102.691
5.735859800852677 101.23200000000001
5.758186788542988 100.869
5.780531411018185 101.565
5.802858837297399 101.324
5.825203900414495 101.699
5.8475491852224 103.275
5.869877275883075 105.346
5.892223006467101 107.79700000000001
5.914551544266608 111.49600000000001
5.936897724049891 119.839
5.959244129804903 135.594
5.981573344815301 196.484
6.0039202049061 445.649
6.026249875609095 915.095
6.04859719346037 1434.04
6.070927323278297 2170.89
6.093275102315365 3575.06
6.115623113320588 4535.99
6.137953938319995 3823.86
6.160302415650845 1528.34
6.182633708324452 399.01300000000003
6.2049826554078376 155.842
6.227331838745022 112.073
6.249663839443684 98.0372
6.27201349767565 90.1956
6.294345974611799 85.5817
6.316696111167083 81.5961
6.339046488263839 78.9641
6.361379686074702 76.3589
6.383730546639482 74.542
6.406064229255215 72.6149
6.428415576718203 72.7436
6.450749747566656 70.9806
6.47310158535871 69.6484
6.495453669698332 68.9038
6.517788579421056 67.9232
6.540141159237969 66.755
6.562476565766648 66.1333
6.5848296444934045 65.7455
6.607182974060425 65.2861
6.6295191323281015 64.4068
6.651872965955752 63.4617
6.6742096296068985 62.5304
6.6965639707294615 62.3178
6.71891856698715 61.7126
6.741255995248479 61.2315
6.763611104154477 60.8481
6.785949046381137 60.2324
6.808304671371482 59.9249
6.8306605557940046 59.9635
6.852999275508618 59.548
6.875355681171544 59.1184
6.897694923437771 58.5155
6.92005185377892 58.5516
6.9423916220322655 58.4717
6.964749080490181 57.733000000000004
6.987106804399774 57.6398
7.009447368180821 57.872
7.031805625367033 57.5897
7.054146723727803 57.1502
7.076505517631004 57.1703
7.098864581288365 56.7054
7.121206488070854 56.8063
7.143566093607822 56.4677
7.165908543567245 56.7349
7.188268694426048 56.3662
7.2106291193438095 56.2625
7.232972390625943 56.0263
7.255333366030969 55.8244
7.277677189091925 55.5931
7.300038718428332 55.7568
7.322400526130865 55.9059
7.344745183422596 56.1034
7.367107550224791 55.8581
7.389452767901992 56.1895
7.411815697249891 56.2559
7.434161478756298 55.6446
7.456524974096713 55.6898
7.478888753837185 55.8363
7.501235387657368 56.2129
7.523599738562711 57.0351
7.545946944825532 58.3803
7.568311870344528 58.6288
7.5906770845765665 57.8091
7.613025156078678 57.7408
7.635390950099687 57.8257
7.657739602662809 57.2891
7.680105979923558 57.5411
7.702472650212829 58.3477
7.724822180948224 57.9913
7.747189439655568 58.202
7.769539560075357 58.5617
7.791907410653562 59.417
7.81425812420825 59.0501
7.836626570110925 59.3846
7.858995315087906 60.3893
7.881346924933401 60.5334
7.903716270417482 61.2567
7.926068482028405 61.5495
7.948438431475253 62.1818
7.9708086843180235 62.7103
7.993161805171116 63.45
8.015532667162402 63.9924
8.037886398416653 65.0664
8.060257873014221 65.4031
8.082629655331942 66.1727
8.104984308787587 67.1191
8.127356708900503 68.112
8.149711981398308 69.0279
8.172085002766314 69.7317
8.194458336181368 70.7422
8.216814543847752 72.14
8.23918850371002 73.267
8.26154533906492 74.7035
8.283919928836452 76.8056
8.306277395339652 77.9455
8.328652618483376 79.4996
8.351028159736202 81.9317
8.373386579575245 84.7811
8.395762759396959 87.0456
8.418121819038275 91.1947
8.440498640894003 97.0949
8.462875785192262 110.271
8.485235811156207 159.19799999999998
8.507613602688501 290.685
8.529974277114228 462.80199999999996
8.552352719347912 596.872
8.574731488360351 754.936
8.59709314210385 1043.27
8.619472567021075 1479.87
8.64183487789147 1947.04
8.664214962183097 1934.0
8.686577933647762 1268.89
8.708958680784317 575.094
8.731339760774953 233.95
8.753703729764451 135.251
8.77608547780821 112.59299999999999
8.798450116065078 105.25
8.820832535634787 100.914
8.843215292401656 98.4
8.865580941199045 96.3973
8.887964374703538 94.6483
8.910330701447199 93.5497
8.932714815164482 92.5371
8.955099270424924 91.3026
8.977466620733543 90.5752
8.999851761421976 89.6433
9.022219798361645 89.0986
9.04460562795561 88.8398
9.066991803441677 88.2312
9.089360876979615 87.7196
9.111747746589993 87.9307
9.13411751544971 87.3843
9.156505082664324 86.7741
9.178875550323522 86.8854
9.20126381862328 87.0177
9.223652438908596 88.1775
9.246023961427412 89.4702
9.26841328802173 88.9339
9.290785518039224 88.4648
9.313175554425882 88.775
9.335565947154315 88.3802
9.357939245086508 88.2438
9.380330352834827 87.7913
9.40270436697103 88.2592
9.425096193225055 88.10700000000001
9.447488380180165 89.1859
9.469863475295412 89.4302
9.492256385987508 90.0411
9.514632206018318 90.624
9.537025843935714 91.1264
9.559402392368193 92.1741
9.581796761000229 92.9418
9.604191496441521 93.3809
9.626569144158516 94.2421
9.648964615551032 95.1579
9.671343000390081 96.0633
9.693739211225699 97.2368
9.716135793237463 98.1392
9.738515290448102 98.92
9.760912617143402 100.147
9.783292860202891 101.81
9.805690935076182 103.455
9.828089385495742 104.87
9.850470754023561 107.36200000000001
9.872869957865444 109.546
9.89525208097539 113.17
9.917652041736662 118.61399999999999
9.940052382417589 134.643
9.962435644102392 193.972
9.984836746950979 303.389
10.007220771957746 427.999
10.029622640473708 528.745
10.052007432299963 632.6030000000001
10.074410069984072 786.513
10.096813093716005 1040.97
10.119199042482517 1419.11
10.141602840636468 1742.3
10.163989564971628 1728.94
10.186394141051062 1212.09
10.208799107559706 603.499
10.231187001965623 271.491
10.253592751657669 154.442
10.275981430388155 125.779
10.298387966769793 118.72
10.320794897965431 115.53399999999999
10.343184759907361 113.447
10.36559248305461 112.35600000000001
10.387983138083852 114.39
10.410391656691655 129.946
10.432800574501677 159.582
10.455192425893369 190.774
10.47760214443012 215.821
10.499994797678786 238.304
10.522405320453982 278.74
10.54479877906917 344.349
10.567210109595656 432.75800000000004
10.5896218454736 515.487
10.612016518879773 530.506
10.634429067781074 424.785
10.656824555333241 263.194
10.679237920773568 155.009
10.701651695961992 109.40299999999999
10.724048411481384 97.5031
10.746463008485165 93.0192
10.768860546937125 90.6958
10.791275969274796 88.5232
10.81369180576079 87.0926
10.836090585366925 85.7097
10.858507252467449 84.3196
10.88090686379991 83.4597
10.903324365036394 82.25399999999999
10.925724811614439 80.9928
10.948143150509463 80.8165
10.970561909719066 80.0239
10.992963615930844 78.8907
11.015383218085756 77.8498
11.037785768347074 77.0578
11.06020621697282 76.7443
11.082627090322113 76.0988
11.105030913430326 75.5652
11.12745263854165 74.9479
11.149857314510728 73.78
11.172279894912576 73.6028
11.194702904450653 72.5607
11.217108866490921 71.8568
11.239532736615194 71.3503
11.26193956033512 71.1621
11.284364294577085 71.304
11.306789462371718 70.6173
11.329197585398376 70.1447
11.351623622610898 70.0777
11.37403261614354 69.4316
11.396459526308487 69.3253
11.418869393879497 68.9593
11.441297180532617 68.5143
11.463725406927658 67.9903
11.486136592353875 67.8029
11.508565700543707 67.3771
11.530977768845315 67.1835
11.553407762368774 66.9751
11.575838200059769 66.7051
11.598251599479612 66.817
11.620682927815501 66.5768
11.64309721895548 66.6483
11.665529441478206 66.1657
11.687962112597958 65.8312
11.710377748130886 65.8322
11.732811318753434 65.9482
11.755227854859067 65.7025
11.777662328529495 65.7065
11.800079768750786 65.57600000000001
11.822515149015453 65.7266
11.844950984084935 65.9648
11.867369787303163 65.9139
11.889806534289491 65.67399999999999
11.912226250487029 66.2636
11.934663912939751 66.8503
11.9571020346363 66.8888
11.979523127133968 67.3124
12.001962169624331 68.7485
12.024384183972964 72.3971
12.046824150809913 80.0083
12.069264581333726 89.038
12.091687985297767 95.7992
12.11412934550045 100.914
12.136553680195208 108.59
12.158995973632788 120.667
12.181438735204349 137.028
12.20386447284199 160.453
12.226308172985636 186.688
12.24873485024193 202.953
12.271179492516982 186.00599999999997
12.293607112949127 147.268
12.316052700916226 106.37299999999999
12.338498763250042 80.5631
12.360927805303868 70.9884
12.383374818673879 68.4438
12.405804812803074 67.5585
12.428252780773262 67.42399999999999
12.45070122756722 67.4964
12.473132656675375 67.146
12.49558206341869 67.6313
12.518014453510101 67.365
12.540464823770117 67.8253
12.562915677315177 67.5789
12.58534951575545 68.2594
12.607801338171472 67.9613
12.630236146511358 68.2955
12.652688941369085 69.1021
12.675124723177234 68.9104
12.697578494048786 69.9491
12.720032754458185 69.8949
12.742470003354093 70.3056
12.764925245138771 71.0593
12.787363476431278 71.4432
12.809819703166806 71.7932
12.83227642391173 72.7158
12.854716135692716 73.3381
12.877173846755147 74.7207
12.899614549869717 75.0668
12.9220732548287 75.6976
12.94453245827299 76.5872
12.966974655289818 77.9112
12.989434858002571 78.4432
13.011878055298721 79.4185
13.034339260862497 80.743
13.056800969391883 82.6944
13.079245674017244 86.2718
13.101708390774869 92.90700000000001
13.12415410463411 110.24
13.146617833206086 132.523
13.169064559883248 150.031
13.191529303857127 162.718
13.213994557076367 175.791
13.236442809902437 195.33599999999998
13.258909083908291 225.222
13.28135835851934 261.618
13.30382565690295 311.861
13.326293469022952 372.575
13.348744283242008 413.439
13.371213125129904 394.561
13.39366497011003 319.034
13.416134845360597 222.07
13.438605238843131 153.954
13.46105863690397 130.595
13.483530069144786 135.167
13.505984506951902 146.14600000000002
13.528456981549432 156.024
13.550929978879088 162.974
13.573385983253365 173.558
13.595860028340867 192.733
13.618317081455832 221.169
13.64079217790333 258.158
13.663250283359057 304.978
13.685726434770173 349.847
13.708203115221277 366.667
13.730662806148091 319.828
13.75314054697177 241.935
13.775601299246777 165.197
13.798080104050406 115.32700000000001
13.820559442405358 94.1986
13.843021793671388 87.7228
13.865502201420897 85.4322
13.887965623051947 84.3624
13.910447103807167 83.2819
13.932929122629764 81.7037
13.955394156785959 81.4095
13.977877254034569 80.2333
14.000343367582113 79.1776
14.022827546871707 78.6849
14.045294743423524 78.1233
14.06778000837062 77.28
14.090265817715476 77.3132
14.112734645763819 76.8546
14.13522154619454 76.1502
14.157691466286913 75.8438
14.180179461423874 75.664
14.202668005486178 75.4123
14.22513957064374 74.8976
14.247629214846473 74.3159
14.270101881097517 73.7743
14.29259262906496 73.6413
14.315083930490205 73.575
14.337558255389705 73.2678
14.360050666019726 73.132
14.382526101071944 73.0731
14.405019624534942 72.8686
14.427513705993134 72.5861
14.449990813291825 72.5154
14.47248601302899 72.567
14.49496423954951 72.7424
14.517460561197822 72.6931
14.539939910570322 72.7071
14.562437357763558 72.9183
14.58493536931253 73.0166
14.607416409993311 73.1135
14.62991555254159 73.6907
14.652397725157423 73.8001
14.674898002342799 74.0298
14.697398848433282 74.7326
14.719882725991326 76.5148
14.74238471217934 80.6016
14.764869730765593 88.3936
14.787372860692983 95.8436
14.809876564079925 102.728
14.83236330125751 108.227
14.854868153850365 112.31200000000001
14.877356041159485 119.117
14.899862046604186 128.555
14.922351087688757 142.616
14.944858249632887 159.722
14.967365991421232 182.239
14.989856770231246 204.921
15.012365673994204 221.71900000000002
15.03485761569738 211.40900000000002
15.05736768508665 178.25
15.07987833888692 139.596
15.102372032001655 106.279
15.124883856909658 86.1337
15.14737872204565 78.0216
15.169891721717274 75.048
15.192405310371893 74.0991
15.214901940621196 73.4849
15.237416709527137 72.7179
15.259914520936249 72.3298
15.282430473753607 71.9127
15.304947020131227 71.3194
15.327446610371178 70.964
15.349964346154254 70.5162
15.372465126703139 70.4547
15.394984055556009 70.4038
15.417486030076159 70.0176
15.44000615566487 69.5843
15.462526881230803 69.8732
15.485030653812652 69.7226
15.507552581617434 69.4511
15.530057557334603 69.4439
15.55258069104857 69.6342
15.575104429329837 69.862
15.597611216864632 69.8369
15.620136166564563 71.2388
15.6426441664095 74.39
15.665170331202765 80.6226
15.687697105158826 86.9079
15.710206930593545 92.5682
15.732734925158933 96.2904
15.755245972089478 99.0704
15.77777519094324 103.565
15.800287463046663 110.31700000000001
15.822817909869592 120.336
15.84534897229804 132.989
15.867863089299354 150.226
15.890395385222186 168.476
15.912910736597423 186.548
15.935444269699861 192.24599999999998
15.957978423016485 177.2
15.980495633101265 148.31
16.003031029129367 116.23200000000001
16.02554948280019 89.4806
16.048086125229432 74.7659
16.070623392487107 68.59
16.09314371869582 66.2813
16.11568223789321 64.8522
16.13820381691126 64.2723
16.160743591742527 64.0233
16.183283996022084 63.4165
16.205807461423195 62.5186
16.228349126881973 61.8429
16.25087385432698 61.6599
16.27341678466365 61.1148
16.29594277784926 60.955
16.31848697676433 60.4409
16.341031811604868 59.8131
16.36355971058487 60.0344
16.3861058195587 59.8693
16.40863499352978 59.1736
16.431182380342005 59.0731
16.453730407713202 58.6538
16.476261501364792 58.4482
16.498810812136167 58.1481
16.52134319004079 58.3517
16.54389378792203 58.1422
16.566445031001553 57.8763
16.588979342490088 57.7614
16.61153187824822 57.6847
16.634067483263312 57.6845
16.656621315414416 57.4367
16.679175797408888 57.3464
16.701713349928728 57.3924
16.72426913389191 57.5161
16.74680798922351 57.4569
16.76936507887444 57.3203
16.791905240734874 57.2665
16.814463639794468 57.4477
16.837022695210294 57.3802
16.859564824093756 57.3847
16.882125194503903 57.6568
16.904668639217885 57.7828
16.927230328348003 57.4016
16.949792678493612 57.7878
16.972338104193863 57.9615
16.994901778652235 58.0689
17.017448529496576 58.4209
17.040013531998152 59.5042
17.06257920018044 60.6193
17.0851279459922 62.0442
17.107694947817667 63.4808
17.130245028099072 63.9544
17.15281336730298 64.8281
17.17536478578733 65.8327
17.19793446610687 66.9573
17.220504818648422 68.6463
17.243058251703697 70.7289
17.265629950971032 73.4009
17.288184731571736 76.9161
17.310757781306908 81.4772
17.33333150794385 84.3429
17.355888317140174 85.09299999999999
17.37846339986244 83.6637
17.401021565958885 78.1886
17.42359800851343 72.6037
17.44617513265564 67.6954
17.468735341390783 64.4963
17.491261035594565 62.7802
17.51396340099364 62.1586
17.536490463869136 62.176
17.559018209820174 62.163999999999994
17.58154663977963 62.4528
17.604251766089718 62.5201
17.626781572227713 62.7431
17.64931206518155 62.7207
17.671843245885103 63.1099
17.69455114821572 63.4289
17.717083712612634 63.6865
17.739616967569667 64.0917
17.762150914021706 64.8785
17.78486160749854 65.2584
17.807396945166804 66.4878
17.829932977143503 68.6571
17.85246970436452 72.0313
17.875183204129467 75.7768
17.897721330097664 79.0766
17.920260154126645 81.4632
17.942799677153296 83.6055
17.9655159983646 85.1279
17.988056927677544 87.9789
18.010598558807683 92.662
18.033140892692916 98.0626
18.05586005052525 104.76100000000001
18.07840379824407 113.22399999999999
18.10094825154059 124.759
18.12366954819864 136.91899999999998
18.146215420998306 145.491
18.16876200220057 145.232
18.191309292745153 135.923
18.214033452627167 121.75
18.236582170236648 105.789
18.259131600016456 94.7768
18.281681742907335 90.0455
18.304408781233683 90.0333
18.32696035875955 92.2183
18.349512652227624 96.0435
18.372065662579683 101.588
18.394795594587553 106.176
18.41735004715306 107.52799999999999
18.43990521943684 103.0
18.46246111238171 95.4604
18.485193953325208 85.6422
18.507751296070428 76.7724
18.530309362314178 71.0365
18.552868153000343 67.7807
18.57560391815056 65.9259
18.59816416623245 65.2915
18.620725141597372 64.7465
18.643286845190268 64.1989
18.666025549835414 63.5648
18.688588718427933 63.0096
18.711152618092243 62.6694
18.73389353884365 62.4405
18.75645890921984 62.2158
18.77902501351406 61.8506
18.801591852673102 61.8612
18.824335739722738 61.3336
18.846904057212626 61.2366
18.8694731124168 60.8367
18.89204290628315 60.7237
18.914789774966803 60.7198
18.937361054791623 60.2325
18.959933076131318 60.1452
18.982505839934877 60.056000000000004
19.00525570560582 60.0642
19.027829963004184 59.8011
19.05040496572238 59.8659
19.072980714710468 60.3247
19.095733592739563 61.0376
19.11831084296757 61.5587
19.140888842324735 61.9699
19.16346759176222 62.4632
19.18622349753803 62.6935
19.208803755869358 63.062
19.231384767143577 63.8604
19.253966532312948 64.6558
19.276725481241822 65.9044
19.29930876296784 67.2256
19.3218928014549 68.7646
19.34465404436217 70.9432
19.36723960516257 73.6684
19.389825925592426 76.1788
19.412413006605938 77.4515
19.43517731967805 76.4447
19.457765930683355 73.6787
19.48035530514408 69.3765
19.50294544401556 64.9636
19.525712842708348 61.2819
19.54830451925909 58.714
19.570896963095727 57.3968
19.593490175174704 56.6749
19.616260674962184 56.821999999999996
19.638855432416964 56.4962
19.661450960992624 56.5321
19.68404726164677 56.3699
19.706820878021247 56.0657
19.729418731756834 56.4125
19.752017360452857 56.1977
19.77461676506804 56.635
19.797393513540218 57.1658
19.819994478951667 57.7343
19.84259622316767 58.3538
19.8651987471481 59.1616
19.887978643247177 59.181999999999995
19.91058273574792 59.5353
19.933187610901943 59.7246
19.955969879466828 60.4706
19.97857632894404 61.2824
20.00118356396599 62.2576
20.023791585494575 63.8676
20.046577028914875 66.0056
20.069186632506966 68.0318
20.091797025500632 70.5493
20.114408208858933 72.5545
20.137196842715273 73.7476
20.159809615886765 73.4179
20.18242318232135 71.1201
20.20503754298326 68.5305
20.227829382875154 66.2435
20.250445341109344 64.5863
20.27306209647285 63.9388
20.29567964993108 64.3049
20.31847471147704 65.4578
20.34109387027612 66.7466
20.363713830075454 67.8165
20.386334591841646 67.7281
20.409132890679302 66.0416
20.431755265564437 63.1533
20.454378445325528 60.0967
20.477002430930366 57.3567
20.499803982716553 55.3882
20.522429589228004 54.0841
20.54505600449589 53.2905
20.567683229489194 53.2388
20.590488049900088 52.9289
20.61311690359731 52.6236
20.63574656993626 52.5958
20.658553853717297 52.2004
20.681185154618298 52.2436
20.703817271080066 52.2196
20.72645020407368 51.7357
20.749260783967177 51.7509
20.771895359337133 51.7146
20.794530754161617 51.6081
20.817166969412938 51.4895
20.83998086114876 51.589
20.86261872660049 51.3895
20.885257415405402 51.4481
20.90789692853701 51.4237
20.930714147864748 51.3994
20.953355319030678 51.4851
20.97599731745334 51.7074
20.99864014410749 51.4424
21.021460706796564 51.2644
21.044105199328826 51.5951
21.06675052302631 51.7041
21.089396678865015 51.8086
21.112220600704806 52.0789
21.134868430275347 52.1277
21.15751709492456 52.1764
21.180166595629693 52.3447
21.202993892429635 52.7877
21.22564507473034 53.0778
21.24829709602816 53.4297
21.27112693608965 53.8325
21.293780644891275 54.1454
21.316435195634053 53.7066
21.339090589297417 53.0222
21.361923832041875 52.6768
21.384580921090404 51.8905
21.407238856007325 51.2538
21.429897637773326 51.1813
21.45273429906592 50.9692
21.475394784108598 51.0242
21.498056118951983 51.1921
21.520718304578022 51.3781
21.543558400304388 51.5547
21.566222297108816 52.056000000000004
21.58888704765135 52.4369
21.61155265291521 52.9754
21.63439619898156 53.6072
21.657063523335786 53.896
21.67973170537063 54.2597
21.7024007460706 54.5659
21.72524775840385 55.0973
21.747918526116475 55.6558
21.770590155457388 56.357
21.79326264741238 57.2877
21.816113141960237 58.5292
21.838787368860547 60.0389
21.861462461341976 61.3781
21.884315579735777 63.203
21.90699241312273 64.9178
21.92967011506078 66.6581
21.95234868653799 67.5304
21.9752053151131 67.0452
21.997885635446785 65.63600000000001
22.020566828293532 63.4891
22.04324889464272 61.1796
22.066109049404666 59.2069
22.088792872571794 57.9198
22.111477572219204 57.7317
22.1341631493376 58.0341
22.157026846313123 58.3466
22.179714188221507 58.5108
22.202402410582668 57.7386
22.22509151438863 56.5684
22.24795876962584 55.0626
22.270649646204486 53.8746
22.293341407213727 52.7488
22.316034053646906 52.0533
22.338904883215342 51.7179
22.36159931041458 51.4911
22.38429462602756 51.333
22.40699083104897 51.1304
22.429865251039757 51.0857
22.452563244831367 51.1122
22.47526213102522 51.0359
22.49813925616515 51.0217
22.520839937143307 51.0281
22.543541513520587 51.3048
22.56624398629403 51.0784
22.589124730075895 51.1281
22.611829005656723 51.53
22.63453418063466 51.8271
22.657240256008077 52.2418
22.680124634582935 52.5295
22.70283252079775 52.7164
22.725541310413075 52.9299
22.74825100442868 53.0219
22.771139033969575 53.2406
22.79385054687155 53.3071
22.81656296718292 53.8225
22.83927629590484 54.2031
22.862167992606945 54.7848
22.88488314827121 55.3459
22.907599215359284 56.0046
22.93031619487366 57.0444
22.953211574954405 57.9815
22.975930389478226 58.9595
22.998650119445763 59.986999999999995
23.02137076586092 60.0173
23.044269845560063 59.4148
23.06699233506288 58.3872
23.089715744034912 56.826
23.112617610931565 54.9729
23.135342869061212 53.4538
23.158069049684816 52.3032
23.1807961538087 51.6198
23.20370174880544 51.4168
23.226430710184808 51.6883
23.249160598093425 52.01
23.271891413539002 52.0339
23.294800752937697 52.3351
23.31753343374794 52.6216
23.340267045128353 52.4607
23.36300158808808 52.8079
23.38591468821339 52.8616
23.408651104658304 53.0202
23.431388455719986 53.2901
23.454126742409 53.6193
23.4770436196085 54.3052
23.499783787914662 55.066
23.522524894889884 55.4382
23.54526694154616 56.1476
23.56818761219047 57.2943
23.59093154860734 58.3027
23.613676427751283 59.4238
23.636422250635754 59.586999999999996
23.659346731118656 59.03
23.68209445191868 57.5197
23.704843119509587 55.6704
23.72759273490623 53.6464
23.750521041644767 51.788000000000004
23.77327256312355 50.2372
23.796025035462787 49.3237
23.818956224555475 48.6381
23.841710609113413 48.6626
23.86446594758979 48.2962
23.887222241002014 48.0218
23.910157285144578 47.6133
23.932915498962537 47.5215
23.955674670778713 47.4299
23.978434801611975 47.2285
24.001373717286125 46.9542
24.024135776723917 46.8555
24.046898798245582 46.854
24.06966278287146 46.6633
24.092605586582614 46.4044
24.115371508023642 46.2224
24.1381383956401 46.0502
24.16090625045381 46.1559
24.183852958731244 46.0099
24.206622758582608 45.9468
24.229393528706886 45.7802
24.252165270127392 45.8606
24.27511589952438 45.773999999999994
24.297889594216997 45.5513
24.32066426328598 45.5665
24.34343990775613 45.4693
24.36639447485003 45.4218
24.38917208083877 45.2766
24.41195066531332 45.1825
24.43490819850244 45.2359
24.457688750692377 44.9329
24.48047028445616 45.0775
24.503252800821233 45.2426
24.526214300784112 45.3206
24.548998793132213 45.1365
24.57178427117417 44.9547
24.59457073593893 45.1111
24.617536219319863 45.0437
24.64032466834748 45.113
24.663114107195035 44.9205
24.685904536893013 44.7236
24.708874020360852 44.6806
24.731666442613744 44.6512
24.754459858818787 44.5939
24.777254270007962 44.3582
24.80022777025625 44.3376
24.82302418230472 44.4342
24.845821592443674 44.4942
24.86862000170663 44.4784
24.891597535453727 44.4182
24.914397953892728 44.466
24.93719937456671 44.4968
24.96000179851076 44.7975
24.98298338249997 44.9109
25.00578782394922 45.2263
25.028593271784167 45.2213
25.05157790644186 45.3304
25.07438537804115 45.4528
25.097193859145293 45.5053
25.120003350792075 45.7469
25.142992065061257 45.9479
25.165803588823465 46.1007
25.18861612625217 46.4818
25.211429678386736 46.6365
25.234422489079968 46.5881
25.257238081693636 46.6016
25.280054692141732 46.6832
25.3028723214652 46.3918
25.325869245420463 46.4309
25.348688923599397 46.6722
25.371509623787006 46.8966
25.394331347025812 46.911
25.41733240110666 46.6722
25.440156181590016 46.0366
25.46298098826268 45.7352
25.48580682216873 44.8863
25.50881202326435 44.2137
25.53163992281684 43.8175
25.55446885274561 43.4048
25.577298814096377 43.0997
25.600308179121807 42.9542
25.623140214533745 43.0633
25.64597328451537 42.9668
25.66898578564376 42.6433
25.691820936010206 42.7177
25.714657124097695 42.6128
25.737494350954734 42.746
25.760511045684957 42.5346
25.783350361364224 42.6713
25.806190718969255 42.535
25.82903211955018 42.6721
25.852053024868923 42.7194
25.874896522722523 42.6345
25.897741066713106 42.5456
25.920586657892454 42.6874
25.943611790812668 42.7449
25.966459487728237 42.851000000000006
25.989308234998564 42.7994
26.01215803367705 43.2004
26.03518741123814 43.1128
26.05803932412957 43.2128
26.080892291600094 43.2721
26.10374631470478 43.3942
26.12677995397268 43.5148
26.14963609978026 43.8702
26.172493304397875 43.5373
26.19535156888223 43.5537
26.218389486949604 43.1542
26.241249882640123 42.985
26.26411134137826 42.6744
26.28715248187403 42.6202
26.31001607820869 42.2536
26.3328807407756 42.1422
26.35574647063438 42.3747
26.37879191991473 42.3153
26.401659795896734 42.2973
26.424528742360263 42.3308
26.447398760366614 42.528999999999996
26.470448535598294 42.498000000000005
26.49332070826805 42.5831
26.516193955675355 42.9507
26.53906827888316 43.0639
26.562122397260108 43.0942
26.584998883685063 43.2649
26.607876449110325 43.486000000000004
26.63075509460056 43.6153
26.65381357334404 43.9399
26.67669439061878 44.0327
26.699576291163382 44.096000000000004
26.722459276044212 44.1477
26.745522132402975 43.9146
26.768407297649354 43.6422
26.791293550442003 43.2369
26.814180891848974 43.0244
26.837248143099337 42.7423
26.860137673466657 42.5761
26.88302829566349 42.196999999999996
26.90592001075963 42.1038
26.92899167420566 41.9981
26.951885586870763 41.6574
26.974780595655517 41.4965
26.99785558178161 41.3538
27.020752794605112 40.9981
27.043651106772522 40.9119
27.06655051935668 40.881
27.089629948036183 40.8272
27.112531573292053 40.7489
27.135434302194138 40.7626
27.158338135817015 40.6471
27.181422024430987 40.611
27.204328079372566 40.5724
27.22723524226965 40.4784
27.250143514198573 40.621
27.273231880156334 40.6352
27.296142382065014 40.4586
27.319053996245536 40.2522
27.341966723775965 40.4074
27.365059584515222 40.4198
27.38797455070062 40.514
27.410890633481237 40.2463
27.433807833936918 40.1808
27.456905206923906 40.3478
27.47982465472398 40.5004
27.502745223449743 40.4009
27.525666914182825 40.5152
27.548768816912457 40.4925
27.571692763693633 40.5422
27.59461783573812 40.3797
27.617723149491244 40.2831
27.640650484125285 40.2178
27.66357894728264 40.2196
27.686508540048052 40.1614
27.709618414237887 40.0671
27.732550278321757 39.9061
27.755483275279115 39.9143
27.778417406196485 39.9854
27.801531858397514 39.8116
27.824468269376716 39.6885
27.847405817586786 39.6012
27.870344504116094 39.9341
27.893463551932008 39.9859
27.916404527281053 40.1196
27.93934664422563 39.9505
27.962289903855886 40.0189
27.98541356491974 40.1592
28.00835912214229 40.2308
28.03130582533231 40.5248
28.054253675581805 40.6923
28.077381967556104 40.7684
28.100332124185126 40.7865
28.123283431160893 40.7265
28.146235889577238 40.7055
28.169368830154156 40.4462
28.192323603752033 40.2749
28.215279532083304 39.9934
28.238415973016764 39.8286
28.261374223145094 39.5709
28.284333631303806 39.6533
28.307294198589954 39.4889
28.330435319167677 39.1817
28.353398217078915 38.9738
28.376362277420153 38.5819
28.39932750129032 38.5789
28.422473319286713 38.3269
28.44544088262495 38.336999999999996
28.468409612800283 38.078
28.491379510913497 37.8757
28.51453004413313 37.8371
28.53750229057244 37.7547
28.56047570826344 37.5998
28.583450298308804 37.7749
28.606605564586562 37.5423
28.629582511831156 37.6145
28.65256063474956 37.3691
28.675539934446338 37.419000000000004
28.698699951647605 37.3339
28.72168161743193 37.2916
28.74466446331978 37.1564
28.767648490417624 37.1338
28.790813276438353 37.2218
28.813799678527303 37.0944
28.836787265157085 37.1106
28.859955641890075 37.131
28.882945610203045 37.077
28.905936766392035 36.9874
28.928929111566863 36.9884
28.952102288520145 36.9956
28.975097024308607 36.971
28.998092952423807 36.8069
29.021090073977508 36.747
29.04426806913204 36.648
29.067267590245258 36.4267
29.090268308143695 36.4728
29.11327022394099 36.2881
29.13645305530891 36.1906
29.159457379627167 36.0382
29.18246290519685 35.9743
29.20546963313352 36.0226
29.22865731875826 36.0139
29.25166646419296 36.0221
29.27467681535305 35.793
29.29768837335608 35.9701
29.320880931312562 36.0175
29.34389491580634 35.9498
29.366910110507334 35.8285
29.38992651653503 35.7634
29.41312396492981 35.8771
29.436142806456754 35.7377
29.45916286268059 35.7483
29.48236399319994 35.6311
29.50538649169417 35.6265
29.528410208259935 35.5062
29.55143514402014 35.2181
29.574641196749695 35.0212
29.597668583816574 35.0375
29.6206971934585 34.7555
29.64372702680042 34.7615
29.666938019934474 34.6406
29.689970313635285 34.6207
29.713003834422636 34.7092
29.73603858342347 34.7053
29.759254535188578 34.4504
29.78229175361658 34.4343
29.80533020365064 34.4995
29.82836988641968 34.6357
29.85159081507472 34.3838
29.874632976355343 34.4021
29.89767637376955 34.5416
29.920721008448314 34.3754
29.9439469322847 34.2991
29.96699405457564 34.0739
29.9900424175358 34.1802
30.013092022298157 34.178000000000004
30.03632295963995 34.0418
30.059375061131373 34.116
30.08242840783577 34.0151
30.105483000888153 34.0238
30.128718970092244 33.9098
30.151776069006917 33.9062
30.17483441768648 33.9865
30.198074175317235 33.9413
30.221135036724256 33.95
30.24419715131772 33.8971
30.267260520236203 33.8863
30.290505341942243 33.9187
30.313571232750228 34.0127
30.336638381310948 34.0252
30.35970678876503 34.0183
30.38295669299435 33.9238
30.40602763151657 33.8595
30.429099832366074 33.8026
30.452173296685572 33.7756
30.47542830191959 33.6926
30.498504306502497 33.6459
30.521581577995562 33.6252
30.544660117543582 33.7063
30.56792024229725 33.6662
30.59100133132069 33.641
30.614083691845494 33.5976
30.637167325018545 33.7345
30.660432587840603 33.7292
30.683518779717886 33.6653
30.70660624769615 33.7562
30.729694992924372 33.7348
30.75296541239743 33.7928
30.77605672557558 33.6516
30.799149319462742 33.6369
30.8224236211637 33.646
30.845518789950724 33.5169
30.868615242910597 33.4124
30.891712981195973 33.2648
30.91499247215866 33.1845
30.938092794619365 33.2314
30.96119440587579 33.0493
30.984297307082752 33.0112
31.00758200598383 32.836
31.030687500658694 32.7721
31.053794288760695 32.7465
31.076902371446767 32.7022
31.100192296997445 32.6249
31.12330298246119 32.6883
31.14641496599209 32.6334
31.169528248749216 32.5657
31.19282341969534 32.5677
31.215939314557186 32.5588
31.239056512134788 32.5041
31.262175013589378 32.3934
31.28547544871168 32.4082
31.30859657161541 32.3813
31.331719001892175 32.384
31.35484274070538 32.4088
31.378148458819545 32.4303
31.401274828443725 32.4055
31.424402510106933 32.3926
31.447712205419993 32.5062
31.470842524931633 32.2706
31.493974159989783 32.3682
31.51710711176168 32.3696
31.54042212308802 32.3796
31.563557722100917 32.3401
31.586694641341655 32.1922
31.609832881979628 32.1152
31.63315322823208 32.0755
31.656294125521327 31.9547
31.679436347728515 31.8779
31.70257989602529 31.7545
31.725905596152327 31.7412
31.74905181052835 31.5595
31.772199354521323 31.641
31.79534822930507 31.5908
31.818679302290967 31.6511
31.84183085259981 31.6768
31.864983737233473 31.5883
31.88813795736804 31.5901
31.911474422233013 31.4212
31.934631327356435 31.545
31.9577895715215 31.4069
31.980949155906522 31.4453
32.004291031706956 31.5106
32.027453310562606 31.3844
32.05061693318573 31.2276
32.07396288236386 31.4042
32.09712920658542 31.2631
32.12029687812702 31.0491
32.14346589817093 30.9955
32.166817291729984 31.0537
32.18998902288583 31.0264
32.21316210610336 30.9124
32.23633654256711 30.8063
32.259693399663725 30.8214
32.282870556771144 30.6825
32.30604907069099 30.6131
32.329228942610065 30.513
32.35259128243769 30.381999999999998
32.375773884550505 30.4052
32.398957848235646 30.4203
32.422143174682176 30.3403
32.445511016471215 30.2508
32.468699082679954 30.2193
32.49188851523011 30.1447
32.51507931531304 30.1173
32.538452678331 30.0343
32.56164622776311 29.9546
32.58484114831493 29.9418
32.60803744118015 30.0115
32.631416344731896 29.9208
32.654615396551876 29.8929
32.67781582427913 29.912
32.701198898634416 29.8437
32.72440209253756 29.7515
32.747606665947124 29.6459
32.77081262006088 29.6008
32.79420126883317 29.5481
32.81740999876112 29.5029
32.840620112999424 29.4528
32.86383161274818 29.4274
32.88722585534586 29.401999999999997
32.91044014056596 29.465999999999998
32.933655814909734 29.3747
32.95687287957963 29.3774
32.98027273544904 29.2564
33.00349259526636 29.2402
33.026713849030116 29.1797
33.04993649794511 29.1193
33.073341986570746 29.1172
33.09656744032826 29.1355
33.11979429286444 29.1306
33.14302254538647 29.1464
33.166433686291185 29.070999999999998
33.18966475336992 29.0337
33.212897224069096 28.9346
33.23613109959831 28.9195
33.259547912343415 28.9044
33.2827846121627 28.9114
33.306022720453775 28.8741
33.32926223842861 28.7842
33.352684742614166 28.8237
33.37592709463173 28.7534
33.399170859982064 28.7278
33.422597648419426 28.6507
33.44584425514446 28.464000000000002
33.46909227885668 28.4953
33.4923417207723 28.4024
33.51577423505344 28.3319
33.539026528130385 28.3252
33.56228024307245 28.3188
33.585535381098246 28.1084
33.60897364093058 28.1058
33.63223163992385 28.0579
33.6554910656699 27.9339
33.678751919389796 28.0271
33.702195944520106 27.8704
33.72545966903325 27.8825
33.74872482519663 27.8146
33.771991414233746 27.9089
33.79544122444841 27.8356
33.81871069412428 27.7299
33.84198160035767 27.6695
33.86525394437455 27.6794
33.88870955949969 27.5316
33.911984794020626 27.5219
33.93526147001624 27.5329
33.958539588715006 27.459
33.98200102861669 27.4524
34.0052820477047 27.3721
34.02856451319451 27.3396
34.05203033759056 27.2826
34.07531571090147 27.2373
34.09860253431845 27.1741
34.121890809074316 27.1044
34.145362493118924 27.1169
34.16865368561615 27.0726
34.191946333164054 27.0353
34.21524043699793 27.0875
34.23871800066799 27.0424
34.26201503218366 26.8732
34.28531352370466 26.8683
34.30861347646881 26.7773
34.33209693978188 26.7418
34.3553998301885 26.7507
34.378704185565205 26.6997
34.402010007152356 26.5945
34.42549939016683 26.6622
34.44880815937748 26.4747
34.472118398533134 26.5436
34.49543010887669 26.517
34.51892543169198 26.4014
34.54224009966052 26.3954
34.56555624255917 26.3769
34.58887386163339 26.2266
34.61237514439016 26.2904
34.6356957311114 26.2221
34.65901779775809 26.2043
34.68252356662995 26.1415
34.705848608458616 26.0892
34.72917513396849 25.9771
34.75250314440949 26.0706
34.77601490857862 25.9205
34.799345904259795 25.9477
34.82267838863559 25.8692
34.846012362958525 25.828000000000003
34.869530142679984 25.824
34.89286711232212 25.8099
34.91620557568269 25.8049
34.93954553401677 25.7207
34.9630693495876 25.6697
34.986412313340814 25.6333
35.00975677584668 25.6117
35.033102738362956 25.616999999999997
35.05663261012228 25.496
35.0799815881786 25.6095
35.10333207003229 25.4708
35.12668405694369 25.5113
35.150220005273056 25.4742
35.17357501786656 25.4096
35.19693153931268 25.3071
35.220289570874385 25.2954
35.24383161619786 25.3203
35.267192683604904 25.2966
35.290555264930376 25.2267
35.314101899412165 25.1599
35.33746752422433 25.2487
35.36083466676374 25.2686
35.38420332829803 25.1312
35.407756095629054 25.1459
35.43112781085063 25.1164
35.45450104888391 25.0597
35.477875810999194 25.0583
35.50143473172161 24.96
35.52481255774625 25.043000000000003
35.54819191167777 25.0189
35.57157279478914 24.9319
35.595137889488406 24.914
35.61852184675279 24.8739
35.641907337029984 24.7954
35.665294361595684 24.7454
35.68886565090076 24.6521
35.7122557598848 24.8212
35.73564740699838 24.6851
35.759040593519934 24.5401
35.78261809810353 24.5572
35.80601437933051 24.5054
35.829412203814705 24.4077
35.85281157283719 24.3428
35.876395313415884 24.3877
35.8997977874528 24.3111
35.92320180988546 24.2629
35.946790244133936 24.2549
35.97019737933222 24.2316
35.993606066789866 24.2471
36.01701630779276 24.1833
36.04061101440684 24.0964
36.06402437852291 24.0923
36.08743930005611 24.0495
36.1108557802951 23.9937
36.13445678011326 23.9875
36.15787639383515 23.9252
36.18129757014299 23.9763
36.20472031032821 23.9396
36.22832762423364 23.7771
36.25175350829375 23.785999999999998
36.275180960119776 23.7711
36.298609981005924 23.7683
36.32222362992669 23.7364
36.34565580510207 23.721999999999998
36.36908955323448 23.6825
36.39252487562093 23.6173
36.416144880530226 23.502
36.43958336764275 23.5004
36.463023432914625 23.4562
36.486465077645676 23.3502
36.51009145956204 23.5374
36.53353627947859 23.4839
36.55698268276811 23.4421
36.58043067073321 23.3279
36.60406345072071 23.254
36.62751462435344 23.3136
36.65096738658405 23.2751
36.67460498210655 23.2154
36.69806093788647 23.1245
36.72151848619297 23.0658
36.744977628333636 23.1481
36.76862165890998 23.0076
36.79208400512205 23.0651
36.81554794910557 23.0872
36.83901349217101 23.0478
36.862663978991606 22.8784
36.88613273667352 22.9221
36.90960309738324 22.8691
36.933075062434064 22.8049
36.95673202673572 22.8135
36.98020721697122 22.8151
37.003684015502365 22.7326
37.027162423645365 22.6616
37.050825886711465 22.6189
37.07430753063053 22.552
37.09779078812467 22.5208
37.121275660513014 22.5149
37.144945643673694 22.4759
37.16843376245278 22.4832
37.19192350009803 22.4964
37.215414857931435 22.4088
37.239091382563885 22.2657
37.262585997426164 22.3327
37.28608223645736 22.3664
37.309763684451696 22.2531
37.33326318851098 22.1813
37.356764320726555 22.1769
37.380267082425526 22.1746
37.40395510942588 22.1177
37.42746114683234 22.1136
37.45096881771841 21.9591
37.474478123414166 21.9778
37.49817275092816 21.9628
37.52168534303452 21.9086
37.54519957395567 21.8449
37.568715445024665 21.8451
37.592416694607714 21.8031
37.61593586281424 21.8241
37.63945667518264 21.8194
37.66297913304891 21.7171
37.68668702630454 21.7218
37.710212792059274 21.6941
37.733740207334854 21.6111
37.757269273470364 21.5394
37.780983832050374 21.451
37.80451621684926 21.5217
37.82805025654007 21.5111
37.851585952464795 21.3909
37.8753071980695 21.2998
37.89884622345676 21.428
37.92238690911902 21.3735
37.94611318753442 21.2522
37.969657210779765 21.225
37.99320289834801 21.2457
38.016750251586465 21.2127
38.04048325513017 21.1775
38.06403395679343 21.0937
38.087586328183946 21.0487
38.11114037065203 21.0405
38.13488012115898 21.0573
38.1584375229181 20.9733
38.181996599821 20.9101
38.205557353221124 20.921999999999997
38.229303872575656 20.8729
38.2528679961576 20.851
38.27643380031219 20.8324
38.30000128639589 20.7698
38.32375459653193 20.7787
38.34732546371299 20.7777
38.37089801690786 20.7588
38.39447225747609 20.6885
38.418232380377425 20.6578
38.441810012983396 20.5787
38.46538933705673 20.5645
38.488970353960084 20.5848
38.51273731166058 20.4947
38.536321731567014 20.4497
38.55990784840681 20.392
38.58367995004091 20.3718
38.60726947812959 20.3052
38.63086070726198 20.352999999999998
38.654453638806274 20.302
38.678232613930824 20.199
38.70182896773327 20.1262
38.72542702806741 20.1589
38.7490267963045 20.164
38.77281266709232 20.1661
38.79641586862214 20.1226
38.8200207821842 20.0853
38.843627409152944 20.1405
38.86742019782782 20.0059
38.891030269149255 19.9912
38.914642058016156 20.0052
38.938255565806124 19.915
38.96205529464307 19.847
38.98567225787121 19.8724
39.00929094417078 19.8307
39.03291135492255 19.8357
39.05671804624804 19.777
39.080341923549106 19.7496
39.103967529460334 19.6843
39.127594865365744 19.6173
39.15140854155791 19.5933
39.17503935514948 19.5942
39.19867190290282 19.5257
39.22249083587951 19.4954
39.24612686969409 19.5127
39.269764641845306 19.5838
39.293404153722804 19.4795
39.317230110864074 19.3908
39.34087311998506 19.3314
39.36451787301696 19.3697
39.388164371352595 19.2829
39.41199737518003 19.2248
39.43564738196752 19.2822
39.45929913825317 19.2501
39.48295264543308 19.2082
39.506792718520884 19.1549
39.530449745387216 19.1706
39.55410852735203 19.127
39.57776906581474 19.1723
39.60161623079 19.043
39.625280300200025 19.0658
39.64894613032202 18.9497
39.67261372255866 19.0001
39.6964680021016 18.9324
39.72013913657293 18.9741
39.74381203738292 18.8959
39.76748670593756 18.8712
39.79134812278169 18.8389
39.81502634488497 18.7816
39.83870633896685 18.7897
39.862388106436654 18.6885
39.88625668336918 18.6744
39.90994201572829 18.7915
39.933629125719285 18.6686
39.957503091207826 18.6037
39.9811937746168 18.6076
40.00488623990914 18.54
40.02858048850006 18.5306
40.05246165409549 18.4918
40.076159487492085 18.4844
40.099859108448875 18.4196
40.123560518384345 18.391
40.1474489070226 18.3448
40.171153913178564 18.3188
40.194860712584955 18.317
40.2185693066637 18.3294
40.242464941335314 18.226
40.26617714307655 18.1452
40.289891143772046 18.1447
40.3136069448471 18.1662
40.33750984859743 18.1718
40.3612292688043 18.1216
40.3849504936829 18.0975
40.40867352466194 18.1301
40.43258372059144 18.023
40.45631038219906 17.9873
40.48003885420956 17.9106
40.503769138055105 17.9368
40.52768664931955 17.957
40.55142057531802 17.9325
40.57515631746428 17.8562
40.599079334038514 17.7934
40.62281872700477 17.7702
40.64655994043941 17.7757
40.67030297578061 17.7702
40.69423334835778 17.7258
40.71798004609188 17.6938
40.74172857006355 17.6907
40.76547892171441 17.6524
40.7894166736039 17.5937
40.813170699248566 17.512
40.83692655691388 17.5416
40.86068424804498 17.5087
40.884629402612525 17.453
40.908390779366385 17.5405
40.932153993938 17.4388
40.95591904777605 17.3644
40.979871628443995 17.4224
41.003640379561936 17.4036
41.02741097430883 17.3685
41.05118341413683 17.3435
41.075143444384416 17.3185
41.098919593177826 17.2861
41.1226975914255 17.207
41.14647744058318 17.2367
41.170444943946755 17.1317
41.19422851378379 17.2041
41.218013938914645 17.0975
41.24198706625173 17.0131
41.26577622087193 17.0046
41.289567235177785 17.0198
41.31336011063129 16.957
41.337340752422875 16.9121
41.361137369129835 16.9084
41.38493585138705 16.8739
41.40873620066004 16.8751
41.43272438060107 16.8726
41.45652848292052 16.784000000000002
41.48033445666918 16.7412
41.50414230331616 16.7411
41.528138045159764 16.7358
41.551949656675205 16.6478
41.575763145513235 16.6405
41.59957851314666 16.6305
41.62358184070442 16.569000000000003
41.64740098505737 16.5468
41.6712220126409 16.5423
41.69504492493139 16.4848
41.71905586207357 16.4545
41.74288256296395 16.445999999999998
41.766711153007456 16.4005
41.79054163368412 16.3525
41.814560204340054 16.4111
41.838394485526365 16.3394
41.86223066180303 16.3003
41.88625497706819 16.2942
41.910094962812 16.2792
41.93393684811168 16.2835
41.95778063445365 16.2071
41.981812625263366 16.1881
42.00566023303407 16.1408
42.029509746323676 16.1263
42.05336116662236 16.1498
42.077400857069705 16.0968
42.10125611078846 16.0486
42.12511327600405 16.0376
42.14897235421036 16.000999999999998
42.173019768448455 15.9753
42.19688269209613 15.9605
42.22074753323349 15.901
42.24461429335818 15.8667
42.268669455600495 15.8603
42.292540073217886 15.8208
42.31641261433284 15.8181
42.34028708044675 15.7852
42.36435001496739 15.7685
42.38822835065557 15.7505
42.41210861586426 15.7352
42.4359908120986 15.700999999999999
42.46006154323262 15.6833
42.48394762115317 15.6352
42.507835634632315 15.6284
42.531912233047436 15.5392
42.55580413732265 15.5802
42.579697981698 15.5239
42.60359376768525 15.5016
42.62767820545945 15.4652
42.65157789440821 15.485999999999999
42.67547952952185 15.4558
42.699383112316 15.4016
42.72347541395347 15.2893
42.74738291190531 15.2949
42.771292362102166 15.3111
42.795203766063516 15.309000000000001
42.819303956130405 15.2598
42.843219287476536 15.1958
42.86713657716324 15.2215
42.89105582671383 15.2596
42.91516392983864 15.2245
42.939087119032166 15.1063
42.963012272677304 15.0773
42.98693939230129 15.0437
43.01105543317513 15.0181
43.034986504731386 15.0041
43.05891954686589 14.9264
43.08285456110972 14.9941
43.10697856448665 14.9295
43.130917542983475 14.8863
43.15485849820081 14.9224
43.17880143167367 14.8722
43.20293342237094 14.8544
43.226880332449 14.8063
43.25082922540554 14.7769
43.27496722682525 14.7974
43.29892010567796 14.7425
43.32287497204102 14.753
43.34683182745632 14.7143
43.370977859791836 14.6595
43.39493871351105 14.6545
43.41890156092628 14.6492
43.44286640358341 14.594000000000001
43.46702049182749 14.5736
43.49098934522816 14.4886
43.51496019852649 14.5092
43.5389330532723 14.4693
43.56309522248204 14.4214
43.58707210044314 14.47
43.61105098451946 14.4293
43.63503187626491 14.4159
43.659202151562134 14.3414
43.68318707902681 14.3554
43.70717401884041 14.332
43.731162972560874 14.2549
43.75534137913236 14.2581
43.779334381108384 14.2472
43.803329401683186 14.2141
43.82732644241872 14.2139
43.8515130055166 14.1996
43.87551410707659 14.1365
43.89951723350145 14.1001
43.923709934595614 14.1089
43.94771713129917 14.0946
43.97172635758096 14.0214
43.99573761501002 14.0189
44.0199385169922 13.9954
44.04395385732619 14.0034
44.067971233533086 14.0018
44.09199064718605 13.927999999999999
44.11619977548961 13.9278
44.14022328470671 13.8922
44.16424883610785 13.8817
44.18827643127035 13.8462
44.21249381139513 13.8169
44.236525514814076 13.7262
44.26055926674478 13.7174
44.28459506876863 13.7864
44.3088207262813 13.7652
44.33286064928722 13.6819
44.35690262714919 13.6784
44.38094666145278 13.6042
44.4051806219871 13.6278
44.42922879003185 13.5618
44.45327901929361 13.525
44.477331311362136 13.5543
44.501573600619416 13.4825
44.525630039221795 13.4643
44.54968854541895 13.4823
44.573937102200176 13.459000000000001
44.5979997645541 13.4471
44.622064499300315 13.3849
44.64613130803592 13.3589
44.67038823869318 13.3404
44.69445921643748 13.3007
44.718532272981385 13.2561
44.742607409926194 13.2729
44.76687274034801 13.2641
44.79095205918753 13.2616
44.81503346325094 13.2429
44.839116954143876 13.2122
44.86339071028742 13.1474
44.88747839599524 13.1602
44.91156817336837 13.1089
44.93566004401666 13.1355
44.959942251908146 13.0796
44.984038330325966 13.0631
45.00813650686762 12.9881
45.03223678314731 13.0189
45.05652746888232 12.9868
45.08063196592069 12.9024
45.104738567558705 12.9101
45.128847275414856 12.9297
45.15314646515866 12.8502
45.17725940679741 12.8641
45.20137445952892 12.847000000000001
45.22568004865265 12.8431
45.24979934496396 12.7902
45.27392075725247 12.7512
45.29804428714431 12.7598
45.322358426247604 12.7254
45.346486212804315 12.6611
45.370616121861914 12.6751
45.39474815505086 12.6847
45.41907087049246 12.6584
45.4432071734666 12.6317
45.46734560548283 12.5794
45.49148616817604 12.5731
45.51581748638564 12.5242
45.5399623320197 12.5155
45.56410931325473 12.4741
45.58825843173002 12.4571
45.61259837920865 12.4651
45.636751793816 12.443
45.66090735060093 12.4011
45.68506505120716 12.3929
45.7094136545275 12.3431
45.73357566449271 12.3165
45.75773982322992 12.3567
45.78190613238733 12.3252
45.806263418194064 12.2916
45.83043404997326 12.267999999999999
45.85460683713677 12.203
45.87897065658495 12.1753
45.90314777634752 12.1922
45.92732705646868 12.1441
45.9515084986045 12.0954
45.97588104735473 12.132
46.00006683541565 12.1487
46.02425479047904 12.0921
46.04844491420549 12.0724
46.0728262191024 12.06
46.09702070211635 12.0197
46.12121735879483 11.9971
46.14541619080294 11.9892
46.169806278764455 11.9625
46.194009483459034 11.9364
46.21821486849841 11.9076
46.24242243555223 11.8834
46.266821333570014 11.8743
46.29103328674601 11.8626
46.31524742696538 11.834000000000001
46.33946375590237 11.7976
46.36387149104216 11.7893
46.38809221957392 11.7043
46.41231514186606 11.7659
46.436540259597464 11.742
46.460956858999374 11.6628
46.48518638983522 11.6729
46.509418121166966 11.6657
46.533652054678114 11.6173
46.55807754555709 11.593
46.58231590571962 11.5941
46.60655647313217 11.5613
46.630988654873654 11.5632
46.655233659129024 11.5248
46.67948087571551 11.4969
46.70373030632484 11.5002
46.72817142736393 11.4557
46.752425308428684 11.4455
46.77668140861147 11.4121
46.80093972960865 11.3804
46.82538981736788 11.3775
46.849652602470904 11.3819
46.87391761349769 11.2997
46.8981848521493 11.3052
46.9226439341274 11.3254
46.946915650573224 11.2564
46.97118959976749 11.2512
46.99546578341598 11.2289
47.019933887188216 11.2095
47.04421456235744 11.1785
47.06849747711879 11.1017
47.09278263318286 11.1577
47.11725978640143 11.151
47.14154944775105 11.0742
47.165841355555656 11.0556
47.1901355115306 11.0446
47.214621741924994 11.0493
47.23892041698887 10.9881
47.26322134538975 10.9788
47.28771440635075 10.9484
47.31201986422527 10.9603
47.33632758061436 10.9219
47.360637557241866 10.9145
47.38513974410611 10.8638
47.40945426407847 10.8357
47.43377104948137 10.8464
47.45809010204344 10.796
47.48260144275502 10.7861
47.506925052572285 10.7741
47.53125093475548 10.7446
47.55557909103813 10.7838
47.58009961361992 10.6862
47.60443234110732 10.662
47.62876734791564 10.6796
47.65310463578333 10.6662
47.6776343683373 10.6756
47.7019762413987 10.6165
47.72632040075572 10.6429
47.75066684815169 10.6026
47.77520581885936 10.5565
47.799556865477655 10.5343
47.823910205386 10.5581
47.84826584033272 10.5085
47.87281407745551 10.4812
47.89717432569297 10.4881
47.92153687423484 10.4742
47.94609208429692 10.4428
47.97045925671401 10.4308
47.99482873471275 10.4083
48.01920052005013 10.4256
48.04376504619224 10.3878
48.068141469543484 10.4134
48.09252020552573 10.3352
48.11690125590099 10.2926
48.1414751266064 10.2918
48.16586082917454 10.2617
48.19024885144316 10.2698
48.2146391951793 10.2661
48.239222439012764 10.2762
48.26361744916137 10.2232
48.28801478610016 10.2433
48.31241445160131 10.1711
48.337007097209366 10.1707
48.36141144338331 10.1353
48.38581812345755 10.1024
48.41022713920929 10.1257
48.434829215320704 10.0738
48.45924292604658 10.0908
48.48365897780325 10.0331
48.50807737237308 10.0149
48.532688907799276 10.0252
48.55711201168574 9.97718
48.581537463754074 9.96013
48.60615611725119 9.98714
48.63058628942721 9.95598
48.65501881516546 9.923639999999999
48.6794536962573 9.93323
48.70408185970339 9.884830000000001
48.72852147531801 9.83495
48.75296345168211 9.86158
48.77740779059232 9.856910000000001
48.80204549302823 9.82634
48.82649458091802 9.78161
48.85094603676547 9.761439999999999
48.87539986237231 9.74468
48.90004713292306 9.73515
48.92450572200832 9.73122
48.94896668628025 9.67758
48.97343002754588 9.71322
48.99808689542115 9.68211
49.02255501470614 9.690710000000001
49.04702551642794 9.63068
49.0714984023988 9.56759
49.096164896893235 9.587769999999999
49.120642575466796 9.58911
49.145122643748394 9.57129
49.16960510355558 9.52782
49.19428125404938 9.520589999999999
49.2187685210852 9.500680000000001
49.243258185121555 9.47753
49.26794160167084 9.49359
49.2924360839405 9.442730000000001
49.31693296869764 9.43835
49.34143225776915 9.4001
49.36612538195438 9.37423
49.39062950396021 9.37753
49.41513603578346 9.34717
49.4396449792564 9.33187
49.46434784069503 9.312669999999999
49.488861631846454 9.29068
49.513377840166804 9.30044
49.537896467493745 9.22527
49.56260909589029 9.242410000000001
49.587132585683285 9.23695
49.611658500018365 9.18498
49.636186840738596 9.1548
49.66090926588511 9.16592
49.685442483902584 9.15981
49.70997813385706 9.10215
49.734516217597076 9.097710000000001
49.75924846937352 9.12163
49.7837914452858 9.07917
49.80833686055187 9.064630000000001
49.83288471702571 9.068389999999999
49.85762682540054 9.05035
49.882179588965734 9.00962
49.9067347993235 8.979460000000001
49.93129245833333 8.97967
49.95604445336378 8.98367
49.98060703442832 8.955119999999999
50.005172069746266 8.913839999999999
50.02993150438364 8.91877
50.05450147301533 8.900210000000001
50.07907390151433 8.8873
50.10364879174981 8.83727
50.12841816587289 8.82681
50.1529980044635 8.81867
50.17758031042124 8.83906
50.20216508562089 8.82363
50.22694442953363 8.7774
50.25153416817468 8.735339999999999
50.27612638170508 8.69469
50.300721072005196 8.720180000000001
50.325510416102105 8.69989
50.350110084975064 8.65815
50.37471223628208 8.64667
50.39931687190919 8.642539999999999
50.424116246675766 8.61225
50.44872587605249 8.60903
50.47333799543065 8.60665
50.49795260670191 8.57151
50.52276204271512 8.54389
50.54738166295838 8.55463
50.57200378079314 8.56477
50.596628398116835 8.52781
50.62144792604559 8.508939999999999
50.646077567609396 8.45936
50.670709714377715 8.49658
50.69553683636198 8.47622
50.72017401885922 8.455869999999999
50.7448137122895 8.43136
50.76945591856022 8.40974
50.79429318636823 8.386289999999999
50.818940443716784 8.38619
50.84359021965163 8.36748
50.868242516085964 8.34544
50.893089960641895 8.31976
50.917747323549435 8.27215
50.94240721271973 8.29926
50.96706963007175 8.28503
50.99192728239342 8.28806
51.01659478166073 8.26275
51.04126481489051 8.26475
51.06593738400761 8.19825
51.090805275207074 8.22064
51.11548294172845 8.194289999999999
51.14016314993547 8.16439
51.164845901758845 8.14276
51.18972406304274 8.10454
51.21441192780656 8.09024
51.23910234200271 8.09048
51.2637953075678 8.06705
51.288683770237945 8.06615
51.31338186432707 8.062710000000001
51.33808251561888 8.034310000000001
51.362978729967345 8.0294
51.387684521509755 7.9996
51.41239287610203 7.98603
51.437103795691165 7.954160000000001
51.46201036644977 7.94567
51.486726441956634 7.917000000000001
51.51144508832545 7.9165399999999995
51.536166307509156 7.86706
51.56108326624387 7.91061
51.58580965706056 7.89244
51.61053862657523 7.850169999999999
51.635270176746864 7.81562
51.66019755512065 7.816660000000001
51.68493429268881 7.786460000000001
51.70967361681515 7.8007800000000005
51.73441552946465 7.79237
51.759353359237934 7.73395
51.7841004750961 7.73505
51.80885018539685 7.72687
51.833602492111254 7.7106699999999995
51.8585508051424 7.6704
51.883308330926425 7.653569999999999
51.90806845906181 7.671139999999999
51.932831191525715 7.64102
51.95779001977161 7.61937
51.98255798721516 7.601360000000001
52.00732856494335 7.55196
52.03229530577543 7.58264
52.057071130455945 7.56465
52.081849571391054 7.538939999999999
52.106630630568695 7.53182
52.13160794279417 7.4985800000000005
52.15639426492067 7.4847399999999995
52.18118321127822 7.483789999999999
52.205974783860896 7.4722
52.23096269971011 7.4522
52.255759551287994 7.437069999999999
52.280559035098186 7.426310000000001
52.30536115314103 7.395060000000001
52.33035970494467 7.392589999999999
52.35516711807904 7.41022
52.37997717147198 7.406210000000001
52.40478986713005 7.3654
52.42979908731974 7.33517
52.454617094216 7.31332
52.47943774942214 7.3124899999999995
52.50426105495102 7.284610000000001
52.529280976059844 7.2477800000000006
52.554109609024096 7.216
52.57894089837482 7.25505
52.60377484613117 7.21472
52.62880550079408 7.18836
52.65364479223379 7.183330000000001
52.67848674816189 7.154660000000001
52.70352547971946 7.121160000000001
52.72837279155837 7.1429
52.753222773982785 7.12062
52.778075429022984 7.1193
52.80312495150885 7.08705
52.827982978797436 7.07931
52.85284368481815 7.08034
52.87770707160767 7.029539999999999
52.90276741793998 7.014139999999999
52.92763619336701 7.036389999999999
52.952507655698504 7.0308600000000006
52.977381806977576 6.98773
53.00245301017842 6.99525
53.02733256653592 7.007680000000001
53.052214817996074 6.96396
53.077099766608484 6.95995
53.102181859804446 6.95878
53.127072229988265 6.89716
53.15196530349892 6.88284
53.17686108239249 6.895289999999999
53.20195409881522 6.849469999999999
53.22685531582556 6.85962
53.25175924441303 6.805060000000001
53.27666588664027 6.783869999999999
53.30176985962693 6.79
53.3266819565689 6.79709
53.35159677336455 6.785089999999999
53.376514312083096 6.749389999999999
53.40162927507703 6.750710000000001
53.42655228516116 6.716489999999999
53.45147802340193 6.73159
53.47660125628886 6.72003
53.50153247842639 6.6756899999999995
53.52646643496923 6.65035
53.55140312799818 6.672210000000001
53.576537409691696 6.64812
53.60147960336152 6.61229
53.626424539786164 6.63098
53.65137222105307 6.582739999999999
53.67651758529126 6.601539999999999
53.70147078399681 6.56422
53.72642673383343 6.5729
53.75138543689533 6.57753
53.776541917524526 6.5690800000000005
53.801506154876755 6.53601
53.826473151763246 6.5019800000000005
53.851442910284916 6.47308
53.87661054126026 6.4955099999999995
53.9015858509782 6.4726300000000005
53.92656392866066 6.42635
53.95154477641532 6.4233400000000005
53.976723591801296 6.39061
54.00171000771266 6.41477
54.02669920004598 6.35869
54.051691170915745 6.37019
54.076881204886796 6.3746
54.101878760928514 6.33372
54.12687910187696 6.32215
54.152077577768296 6.32344
54.1770835166946 6.29706
54.20209224691339 6.27304
54.22710377055121 6.268009999999999
54.25231352511594 6.24885
54.27733066384342 6.2188300000000005
54.30235060239643 6.18979
54.32737334290836 6.18497
54.35259441062629 6.18126
54.377622783395324 6.15564
54.40265396455061 6.13307
54.42768795623251 6.10142
54.45292037169559 6.11333
54.477960012857906 6.07589
54.50300247099511 6.05358
54.52804774825457 6.0576300000000005
54.55329154616743 5.9898
54.57834249018678 5.94309
54.6033962597977 5.94265
54.6284528571545 5.91323
54.653708072335164 5.8682
54.67877035378786 5.87885
54.70383546947698 5.81735
54.72890342156389 5.79742
54.7541700889442 5.79217
54.77924374251975 5.78527
54.8043202390049 5.76821
54.82959552413022 5.7304699999999995
54.8546777351945 5.72573
54.87976279569621 5.71791
54.90485070780914 5.73152
54.930137506558005 5.65878
54.95523115074295 5.7413300000000005
54.98032765308844 5.66068
55.005427015775496 5.622669999999999
55.03072536339621 5.6387599999999996
55.05583047570572 5.56292
55.080938454927676 5.57452
55.10604930325027 5.552169999999999
55.131359235107396 5.5583800000000005
55.15647585066083 5.51958
55.181595341907496 5.3924900000000004
55.20671771104285 5.39914
55.232039262617704 5.4083
55.25716741665048 5.37824
55.28229845518636 5.35839
55.30743238042802 5.30256
55.33276558731939 5.29453
55.357905315183636 5.31617
55.383047936390035 5.23399
55.40819345314859 5.24435
55.433538351073295 5.24244
55.458689688238415 5.21558
55.483843927614096 5.14265
55.509197623043605 5.12542
55.53435769621134 5.070469999999999
55.55952067826466 5.0861
55.5846865714265 5.07415
55.61005202069737 5.0472
55.63522376553902 5.096030000000001
55.66039842818645 5.06352
55.68557601087004 5.0136400000000005
55.7109532500271 4.98546
55.73613670233794 4.951919999999999
