TT I
1.2716486653135266 7.88444
1.2939594142134223 7.7271
1.3162702121660406 6.70327
1.3385810600174564 7.43411
1.3608919586137629 7.103960000000001
1.383202908801069 6.8417
1.405513911425503 6.44664
1.4278249673332093 6.673030000000001
1.4501343378461518 5.87525
1.4724455028545926 5.84275
1.4947567236847858 6.8445800000000006
1.517068001182951 6.42454
1.5393793361953272 6.15203
1.5616907295681737 6.130380000000001
1.5840021821477681 5.66656
1.60631369478041 5.560980000000001
1.6286252683124185 5.29835
1.6509369035901333 4.75478
1.6732468618895553 5.075480000000001
1.695558623192809 5.3267
1.7178704487808514 5.4057900000000005
1.7401823395001077 5.05363
1.7625012545597203 5.129630000000001
1.7848028405262486 5.271380000000001
1.8071218901122095 4.70557
1.8294236121921872 4.66289
1.8517427996910911 4.91444
1.8740620574440425 5.29172
1.8963639900671978 4.93944
1.9186833908139995 4.86675
1.9409854680117449 4.72424
1.9633050151394713 4.45601
1.9856246367570705 4.89226
2.0079269371922672 4.87159
2.03024671027244 4.957319999999999
2.0525491637446027 4.65215
2.074869091674931 4.47215
2.097171701569106 4.83041
2.1194917877373847 5.29946
2.141811954326636 5.01923
2.164114805233074 5.1495
2.186435135143035 5.85688
2.208738150935709 11.9881
2.231058647554722 23.6699
2.2533792288321184 18.204
2.275682498336085 9.02852
2.298003251406138 5.30713
2.3203066942619714 5.21974
2.3426276225136022 5.04387
2.3649486396617507 5.06122
2.387252348930071 4.9772
2.4095735463442893 4.55235
2.4318774374315884 4.84045
2.4541988185014043 5.75866
2.476502894794693 6.12589
2.498824462909887 5.9318599999999995
2.521146125856138 6.0936699999999995
2.5434504863470337 6.01655
2.5657723414244717 6.60315
2.588076895590662 7.166580000000001
2.610398946189713 7.01905
2.6327210958598384 6.52541
2.6550259469304716 7.11515
2.6773482972090137 7.60721
2.6996533504259 7.657830000000001
2.7219759047039602 7.56188
2.744298562293959 7.40212
2.7666039251246595 6.9076
2.7889267918020164 7.826110000000001
2.8112323652516555 7.92932
2.833555444408179 7.99512
2.8558786311183852 8.05327
2.8781845268938557 8.525689999999999
2.9005079311721484 8.55659
2.9228140460410397 9.28758
2.9451376712799635 9.06869
2.967444008632326 9.6758
2.9897678582247247 9.38574
3.0120918213106695 10.690999999999999
3.0343984987899373 10.8397
3.0567226913198637 11.7471
3.079029599759726 11.5987
3.101354025127254 12.4977
3.123678568232338 12.4944
3.145985829517914 12.9555
3.16831061055229 13.4043
3.1906181112775593 14.2731
3.212943133635653 14.442
3.2352682779763207 14.9888
3.2575761442691227 15.7587
3.2799015350264273 15.6753
3.302209649240067 16.1783
3.3245352898092655 16.984
3.3468436553365257 17.4825
3.369169549113219 17.7158
3.3914955708171384 18.8406
3.413804319727358 18.9759
3.4361305997334863 19.3002
3.4584396084414553 20.387
3.4807661501462652 20.1607
3.503092824025881 21.3169
3.5254022288463154 21.9023
3.5477291695206588 22.0839
3.5700388426251948 22.8776
3.5923660534916446 24.2842
3.6146934007816114 36.2543
3.637003482731501 77.1763
3.6593311053109985 83.5056
3.681641464033634 50.4376
3.7039693653009733 30.0886
3.726297407241705 26.3863
3.7486081875460804 26.0374
3.7709365132734978 26.6497
3.793247578841633 26.686
3.8155761917550093 27.1583
3.8378875459837216 27.354
3.8602164494827234 27.6446
3.882545499606844 29.0038
3.9048572932539183 29.8303
3.9271866390645718 29.6312
3.9494987298666713 30.4242
3.971828374764527 30.8912
3.9941581705403255 31.3998
4.016470713506008 31.7895
4.038800813471445 32.3486
4.061113662089144 33.4582
4.0834440696459176 34.3479
4.105774632334751 34.5473
4.128087945865126 35.4069
4.150418821249301 36.2664
4.172732448931298 37.5533
4.195063640413578 39.077
4.2173775856475215 42.2429
4.239709096631102 68.6971
4.262040768704612 201.77599999999998
4.284355196706267 263.784
4.306687193387355 175.197
4.329001947444346 74.8944
4.35133427213731 48.0099
4.373666762177566 45.1721
4.395982011761091 45.0982
4.418314834921175 46.658
4.44063041906622 53.0943
4.4629635787515625 62.5291
4.4852969080429785 62.2611
4.5076130004776225 54.471000000000004
4.529946671403969 52.0064
4.552263106909177 52.3227
4.574597122877047 53.0428
4.596931312711224 53.7647
4.619248269273446 54.6126
4.6415828092605835 56.1353
4.663900117405352 57.0478
4.686235010953232 58.4178
4.708552674085913 59.5663
4.730887924602802 61.1026
4.753223354952695 62.4132
4.775541557023902 64.8349
4.797877349456786 65.7562
4.820195915032126 67.9454
4.842532072957498 70.0089
4.864868414979744 72.1269
4.88718753227192 74.4955
4.909524244902505 76.683
4.931843734218147 78.2933
4.954180820867835 80.7875
4.976518095879839 84.3357
4.998838149695359 87.4345
5.021175803844231 92.0791
5.043496238205739 95.1651
5.065834274903528 100.47
5.088172504230693 106.809
5.1104935158799565 114.82600000000001
5.132832132875765 139.782
5.155153533596801 184.007
5.1774925416746225 243.328
5.199814334878411 553.683
5.2221537374521505 1513.66
5.244493338631803 3513.56
5.266815727034316 7294.12
5.289155727832427 11379.5
5.311478517248165 9199.35
5.333818921080011 3548.42
5.356159527788849 765.875
5.3784829252032536 228.66099999999997
5.400823940070432 162.859
5.423147747031976 139.96
5.445489173474152 127.417
5.467830807066149 120.92200000000001
5.490155234831516 116.205
5.512497285125229 111.06200000000001
5.534822130975162 108.54799999999999
5.557164601388673 106.859
5.579489868738879 103.694
5.601832762690846 102.53399999999999
5.6241758697774475 101.406
5.646501775867269 100.155
5.668845311622074 99.3588
5.691171647754637 98.5646
5.713515615597765 96.78299999999999
5.735859800852677 96.5576
5.758186788542988 95.8245
5.780531411018185 96.3165
5.802858837297399 96.0246
5.825203900414495 96.3908
5.8475491852224 97.1517
5.869877275883075 97.9284
5.892223006467101 99.5833
5.914551544266608 101.431
5.936897724049891 105.662
5.959244129804903 114.42299999999999
5.981573344815301 147.639
6.0039202049061 295.15
6.026249875609095 631.423
6.04859719346037 1226.89
6.070927323278297 2276.64
6.093275102315365 4038.13
6.115623113320588 4795.58
6.137953938319995 3476.4
6.160302415650845 1209.54
6.182633708324452 293.395
6.2049826554078376 129.82399999999998
6.227331838745022 100.809
6.249663839443684 90.7639
6.27201349767565 86.6186
6.294345974611799 90.3564
6.316696111167083 98.6929
6.339046488263839 93.6313
6.361379686074702 81.0156
6.383730546639482 74.0355
6.406064229255215 71.3131
6.428415576718203 70.6691
6.450749747566656 69.4051
6.47310158535871 68.0376
6.495453669698332 67.3756
6.517788579421056 66.5771
6.540141159237969 65.2429
6.562476565766648 65.2605
6.5848296444934045 64.3438
6.607182974060425 64.1688
6.6295191323281015 64.4224
6.651872965955752 66.5146
6.6742096296068985 87.1554
6.6965639707294615 124.27
6.71891856698715 125.229
6.741255995248479 89.5127
6.763611104154477 67.7789
6.785949046381137 61.3973
6.808304671371482 60.1867
6.8306605557940046 59.7472
6.852999275508618 58.7033
6.875355681171544 58.426
6.897694923437771 58.3721
6.92005185377892 58.1431
6.9423916220322655 58.0667
6.964749080490181 57.6588
6.987106804399774 57.3515
7.009447368180821 57.5681
7.031805625367033 57.0051
7.054146723727803 56.8845
7.076505517631004 56.708
7.098864581288365 56.5066
7.121206488070854 56.3866
7.143566093607822 56.4008
7.165908543567245 56.5504
7.188268694426048 56.7804
7.2106291193438095 56.6935
7.232972390625943 57.9258
7.255333366030969 67.4301
7.277677189091925 110.77799999999999
7.300038718428332 149.82399999999998
7.322400526130865 128.092
7.344745183422596 84.2358
7.367107550224791 62.0612
7.389452767901992 57.312
7.411815697249891 56.6477
7.434161478756298 55.4392
7.456524974096713 55.4037
7.478888753837185 55.0501
7.501235387657368 55.7485
7.523599738562711 56.0742
7.545946944825532 56.2222
7.568311870344528 56.6302
7.5906770845765665 56.7161
7.613025156078678 57.8676
7.635390950099687 59.0457
7.657739602662809 58.2031
7.680105979923558 57.402
7.702472650212829 57.5695
7.724822180948224 57.451
7.747189439655568 57.6748
7.769539560075357 57.678999999999995
7.791907410653562 58.1145
7.81425812420825 57.8639
7.836626570110925 58.2525
7.858995315087906 59.2917
7.881346924933401 59.3426
7.903716270417482 60.2671
7.926068482028405 60.5463
7.948438431475253 60.7999
7.9708086843180235 61.8386
7.993161805171116 62.5329
8.015532667162402 62.395
8.037886398416653 63.2972
8.060257873014221 63.8232
8.082629655331942 64.6602
8.104984308787587 65.5988
8.127356708900503 68.2584
8.149711981398308 73.63600000000001
8.172085002766314 75.8576
8.194458336181368 72.9508
8.216814543847752 71.043
8.23918850371002 71.6138
8.26154533906492 72.5303
8.283919928836452 74.1054
8.306277395339652 75.4347
8.328652618483376 76.6889
8.351028159736202 78.8233
8.373386579575245 81.1156
8.395762759396959 83.4244
8.418121819038275 88.8333
8.440498640894003 101.29
8.462875785192262 116.84100000000001
8.485235811156207 141.201
8.507613602688501 210.602
8.529974277114228 328.29
8.552352719347912 480.046
8.574731488360351 732.128
8.59709314210385 1156.52
8.619472567021075 1678.77
8.64183487789147 2131.58
8.664214962183097 1865.57
8.686577933647762 1089.34
8.708958680784317 446.39300000000003
8.731339760774953 186.89
8.753703729764451 120.005
8.77608547780821 105.325
8.798450116065078 100.025
8.820832535634787 96.2421
8.843215292401656 94.5469
8.865580941199045 92.8536
8.887964374703538 91.3237
8.910330701447199 92.3193
8.932714815164482 93.9799
8.955099270424924 93.0839
8.977466620733543 90.2171
8.999851761421976 87.8423
9.022219798361645 86.3845
9.04460562795561 85.8418
9.066991803441677 85.4165
9.089360876979615 85.251
9.111747746589993 84.7891
9.13411751544971 84.0753
9.156505082664324 84.2517
9.178875550323522 84.4606
9.20126381862328 84.7646
9.223652438908596 84.9411
9.246023961427412 84.8044
9.26841328802173 84.4114
9.290785518039224 84.4239
9.313175554425882 85.3071
9.335565947154315 85.238
9.357939245086508 85.6522
9.380330352834827 85.4703
9.40270436697103 85.887
9.425096193225055 85.6485
9.447488380180165 86.4721
9.469863475295412 86.435
9.492256385987508 87.1942
9.514632206018318 87.8508
9.537025843935714 87.7701
9.559402392368193 88.6999
9.581796761000229 90.182
9.604191496441521 91.5136
9.626569144158516 94.1413
9.648964615551032 98.0644
9.671343000390081 99.7767
9.693739211225699 98.0786
9.716135793237463 96.1795
9.738515290448102 95.7686
9.760912617143402 97.3146
9.783292860202891 98.6294
9.805690935076182 99.8365
9.828089385495742 101.432
9.850470754023561 103.43799999999999
9.872869957865444 110.054
9.89525208097539 123.686
9.917652041736662 135.472
9.940052382417589 140.485
9.962435644102392 163.33
9.984836746950979 219.903
10.007220771957746 302.622
10.029622640473708 420.287
10.052007432299963 598.946
10.074410069984072 847.028
10.096813093716005 1196.09
10.119199042482517 1614.99
10.141602840636468 1878.39
10.163989564971628 1687.33
10.186394141051062 1061.37
10.208799107559706 496.735
10.231187001965623 228.08
10.253592751657669 139.821
10.275981430388155 119.37799999999999
10.298387966769793 117.01700000000001
10.320794897965431 118.133
10.343184759907361 116.979
10.36559248305461 111.89399999999999
10.387983138083852 109.285
10.410391656691655 116.066
10.432800574501677 132.583
10.455192425893369 153.89700000000002
10.47760214443012 182.56799999999998
10.499994797678786 225.327
10.522405320453982 290.10200000000003
10.54479877906917 382.08099999999996
10.567210109595656 481.99300000000005
10.5896218454736 544.118
10.612016518879773 525.134
10.634429067781074 374.041
10.656824555333241 219.09
10.679237920773568 133.195
10.701651695961992 100.97399999999999
10.724048411481384 93.0379
10.746463008485165 89.6715
10.768860546937125 87.5652
10.791275969274796 85.7733
10.81369180576079 84.4704
10.836090585366925 83.2414
10.858507252467449 82.5073
10.88090686379991 81.5456
10.903324365036394 80.6826
10.925724811614439 80.2332
10.948143150509463 81.303
10.970561909719066 80.4738
10.992963615930844 78.7842
11.015383218085756 76.8453
11.037785768347074 75.41
11.06020621697282 74.7862
11.082627090322113 74.5043
11.105030913430326 73.8045
11.12745263854165 73.6529
11.149857314510728 76.5133
11.172279894912576 81.5415
11.194702904450653 82.305
11.217108866490921 78.6591
11.239532736615194 74.9159
11.26193956033512 72.90100000000001
11.284364294577085 71.8273
11.306789462371718 70.1752
11.329197585398376 69.2791
11.351623622610898 68.9023
11.37403261614354 67.9914
11.396459526308487 67.8773
11.418869393879497 67.7537
11.441297180532617 67.0698
11.463725406927658 66.6301
11.486136592353875 66.4502
11.508565700543707 66.7491
11.530977768845315 68.5174
11.553407762368774 69.142
11.575838200059769 68.4005
11.598251599479612 66.7938
11.620682927815501 65.7612
11.64309721895548 65.235
11.665529441478206 64.9521
11.687962112597958 64.7302
11.710377748130886 64.9133
11.732811318753434 64.7342
11.755227854859067 64.4285
11.777662328529495 64.447
11.800079768750786 64.3551
11.822515149015453 64.3846
11.844950984084935 64.7242
11.867369787303163 64.1613
11.889806534289491 64.2595
11.912226250487029 64.5125
11.934663912939751 64.753
11.9571020346363 64.4542
11.979523127133968 65.0216
12.001962169624331 66.0058
12.024384183972964 67.8661
12.046824150809913 72.5301
12.069264581333726 78.9297
12.091687985297767 85.7928
12.11412934550045 94.7452
12.136553680195208 108.304
12.158995973632788 126.104
12.181438735204349 148.467
12.20386447284199 176.40900000000002
12.226308172985636 199.59099999999998
12.24873485024193 206.69299999999998
12.271179492516982 178.472
12.293607112949127 134.747
12.316052700916226 100.99
12.338498763250042 80.9672
12.360927805303868 71.8515
12.383374818673879 68.1231
12.405804812803074 66.3253
12.428252780773262 66.22800000000001
12.45070122756722 66.1264
12.473132656675375 66.131
12.49558206341869 66.2618
12.518014453510101 66.2579
12.540464823770117 66.5078
12.562915677315177 66.5429
12.58534951575545 67.4454
12.607801338171472 68.6842
12.630236146511358 72.9803
12.652688941369085 77.0653
12.675124723177234 77.4797
12.697578494048786 74.9579
12.720032754458185 71.2648
12.742470003354093 69.9236
12.764925245138771 70.0065
12.787363476431278 69.9834
12.809819703166806 70.505
12.83227642391173 71.1613
12.854716135692716 71.8059
12.877173846755147 72.9013
12.899614549869717 73.3362
12.9220732548287 74.1609
12.94453245827299 74.7596
12.966974655289818 75.4813
12.989434858002571 76.3501
13.011878055298721 77.4451
13.034339260862497 78.4473
13.056800969391883 79.7578
13.079245674017244 82.3084
13.101708390774869 86.3906
13.12415410463411 96.3447
13.146617833206086 111.166
13.169064559883248 125.23200000000001
13.191529303857127 141.872
13.213994557076367 164.908
13.236442809902437 197.21599999999998
13.258909083908291 242.00400000000002
13.28135835851934 291.52
13.30382565690295 350.233
13.326293469022952 404.879
13.348744283242008 427.215
13.371213125129904 378.531
13.39366497011003 285.66900000000004
13.416134845360597 192.02
13.438605238843131 134.30200000000002
13.46105863690397 115.009
13.483530069144786 115.70299999999999
13.505984506951902 122.919
13.528456981549432 133.94899999999998
13.550929978879088 149.203
13.573385983253365 170.583
13.595860028340867 202.169
13.618317081455832 239.85299999999998
13.64079217790333 285.02299999999997
13.663250283359057 329.848
13.685726434770173 358.42900000000003
13.708203115221277 343.735
13.730662806148091 282.143
13.75314054697177 204.78099999999998
13.775601299246777 138.868
13.798080104050406 103.294
13.820559442405358 89.0809
13.843021793671388 84.87299999999999
13.865502201420897 82.7771
13.887965623051947 82.0988
13.910447103807167 80.9391
13.932929122629764 79.6983
13.955394156785959 79.1799
13.977877254034569 78.2064
14.000343367582113 77.031
14.022827546871707 76.4297
14.045294743423524 75.6084
14.06778000837062 75.1267
14.090265817715476 74.9009
14.112734645763819 74.8392
14.13522154619454 74.5717
14.157691466286913 74.4011
14.180179461423874 74.0316
14.202668005486178 73.7966
14.22513957064374 72.92399999999999
14.247629214846473 72.395
14.270101881097517 72.4732
14.29259262906496 72.6268
14.315083930490205 73.1542
14.337558255389705 73.358
14.360050666019726 73.2575
14.382526101071944 72.4442
14.405019624534942 71.2499
14.427513705993134 71.0411
14.449990813291825 70.7856
14.47248601302899 70.7043
14.49496423954951 70.7109
14.517460561197822 70.8408
14.539939910570322 70.6787
14.562437357763558 71.2865
14.58493536931253 72.092
14.607416409993311 72.8611
14.62991555254159 73.5645
14.652397725157423 73.3316
14.674898002342799 73.1296
14.697398848433282 72.6523
14.719882725991326 73.6276
14.74238471217934 75.6411
14.764869730765593 80.7934
14.787372860692983 85.2351
14.809876564079925 90.525
14.83236330125751 96.9138
14.854868153850365 105.633
14.877356041159485 118.006
14.899862046604186 133.054
14.922351087688757 152.935
14.944858249632887 174.503
14.967365991421232 198.71200000000002
14.989856770231246 216.645
15.012365673994204 219.303
15.03485761569738 196.165
15.05736768508665 157.434
15.07987833888692 121.775
15.102372032001655 95.1057
15.124883856909658 79.9247
15.14737872204565 74.5729
15.169891721717274 72.8359
15.192405310371893 72.7128
15.214901940621196 72.8579
15.237416709527137 72.51899999999999
15.259914520936249 72.8856
15.282430473753607 71.7914
15.304947020131227 70.7706
15.327446610371178 70.1339
15.349964346154254 69.3362
15.372465126703139 68.7664
15.394984055556009 68.6068
15.417486030076159 68.4276
15.44000615566487 67.9874
15.462526881230803 68.0059
15.485030653812652 68.2155
15.507552581617434 68.0607
15.530057557334603 68.1761
15.55258069104857 68.1749
15.575104429329837 68.4879
15.597611216864632 68.0253
15.620136166564563 68.5155
15.6426441664095 70.2234
15.665170331202765 73.6693
15.687697105158826 77.6802
15.710206930593545 81.6993
15.732734925158933 86.5156
15.755245972089478 92.885
15.77777519094324 101.29799999999999
15.800287463046663 112.529
15.822817909869592 127.49700000000001
15.84534897229804 143.256
15.867863089299354 162.935
15.890395385222186 180.4
15.912910736597423 192.66299999999998
15.935444269699861 189.899
15.957978423016485 166.644
15.980495633101265 134.494
16.003031029129367 103.988
16.02554948280019 81.2748
16.048086125229432 70.484
16.070623392487107 67.1314
16.09314371869582 66.0432
16.11568223789321 65.2493
16.13820381691126 64.3177
16.160743591742527 63.2602
16.183283996022084 62.1871
16.205807461423195 61.0965
16.228349126881973 60.9253
16.25087385432698 60.89
16.27341678466365 60.1215
16.29594277784926 60.0421
16.31848697676433 60.1002
16.341031811604868 60.2486
16.36355971058487 60.383
16.3861058195587 60.0666
16.40863499352978 58.901
16.431182380342005 58.5505
16.453730407713202 58.0056
16.476261501364792 57.5776
16.498810812136167 57.0895
16.52134319004079 57.0868
16.54389378792203 57.2132
16.566445031001553 56.8177
16.588979342490088 56.8724
16.61153187824822 56.6963
16.634067483263312 56.5398
16.656621315414416 56.4801
16.679175797408888 56.1718
16.701713349928728 56.4113
16.72426913389191 56.4132
16.74680798922351 56.4733
16.76936507887444 56.4546
16.791905240734874 56.4571
16.814463639794468 56.3017
16.837022695210294 56.3479
16.859564824093756 56.5598
16.882125194503903 57.239
16.904668639217885 57.9538
16.927230328348003 58.173
16.949792678493612 58.4333
16.972338104193863 57.5862
16.994901778652235 57.3867
17.017448529496576 57.5024
17.040013531998152 57.9131
17.06257920018044 58.4796
17.0851279459922 59.5175
17.107694947817667 60.2288
17.130245028099072 61.3054
17.15281336730298 62.5981
17.17536478578733 64.2469
17.19793446610687 66.2959
17.220504818648422 68.8442
17.243058251703697 71.3016
17.265629950971032 74.8901
17.288184731571736 78.6102
17.310757781306908 82.8532
17.33333150794385 85.0276
17.355888317140174 84.3049
17.37846339986244 80.6247
17.401021565958885 74.4056
17.42359800851343 68.8533
17.44617513265564 64.72800000000001
17.468735341390783 62.1895
17.491261035594565 61.0697
17.51396340099364 60.566
17.536490463869136 60.7061
17.559018209820174 60.8573
17.58154663977963 61.0553
17.604251766089718 61.1371
17.626781572227713 61.3694
17.64931206518155 61.6131
17.671843245885103 62.1256
17.69455114821572 62.3978
17.717083712612634 62.6287
17.739616967569667 62.8196
17.762150914021706 63.2039
17.78486160749854 63.4454
17.807396945166804 64.3068
17.829932977143503 65.6073
17.85246970436452 67.664
17.875183204129467 69.9522
17.897721330097664 72.3527
17.920260154126645 75.0745
17.942799677153296 78.6626
17.9655159983646 81.9977
17.988056927677544 86.8135
18.010598558807683 93.62299999999999
18.033140892692916 101.374
18.05586005052525 109.706
18.07840379824407 119.24700000000001
18.10094825154059 130.061
18.12366954819864 139.988
18.146215420998306 144.067
18.16876200220057 138.48
18.191309292745153 126.046
18.214033452627167 111.99700000000001
18.236582170236648 98.4372
18.259131600016456 90.9835
18.281681742907335 89.2316
18.304408781233683 91.5907
18.32696035875955 94.9738
18.349512652227624 99.0826
18.372065662579683 104.31
18.394795594587553 106.912
18.41735004715306 106.147
18.43990521943684 99.9094
18.46246111238171 91.5516
18.485193953325208 80.9105
18.507751296070428 72.9316
18.530309362314178 68.22
18.552868153000343 65.7031
18.57560391815056 64.2269
18.59816416623245 63.7243
18.620725141597372 63.2013
18.643286845190268 62.6757
18.666025549835414 62.3429
18.688588718427933 61.6009
18.711152618092243 61.5246
18.73389353884365 61.2034
18.75645890921984 60.8971
18.77902501351406 60.7152
18.801591852673102 60.5508
18.824335739722738 59.8847
18.846904057212626 59.8413
18.8694731124168 59.5638
18.89204290628315 59.5339
18.914789774966803 59.395
18.937361054791623 59.0228
18.959933076131318 58.8793
18.982505839934877 58.9317
19.00525570560582 58.8615
19.027829963004184 58.50899999999999
19.05040496572238 58.7892
19.072980714710468 58.9483
19.095733592739563 59.294
19.11831084296757 59.7817
19.140888842324735 60.1802
19.16346759176222 60.4349
19.18622349753803 61.0986
19.208803755869358 61.9941
19.231384767143577 62.9575
19.253966532312948 64.2649
19.276725481241822 65.9277
19.29930876296784 67.8872
19.3218928014549 70.0332
19.34465404436217 72.7121
19.36723960516257 75.5297
19.389825925592426 77.456
19.412413006605938 77.7066
19.43517731967805 74.9764
19.457765930683355 71.0222
19.48035530514408 66.2639
19.50294544401556 62.216
19.525712842708348 58.8378
19.54830451925909 57.2242
19.570896963095727 55.8622
19.593490175174704 55.6194
19.616260674962184 55.4872
19.638855432416964 55.1945
19.661450960992624 55.5069
19.68404726164677 55.3336
19.706820878021247 54.7845
19.729418731756834 55.0804
19.752017360452857 55.0824
19.77461676506804 55.3378
19.797393513540218 55.6269
19.819994478951667 55.9701
19.84259622316767 56.6501
19.8651987471481 57.0557
19.887978643247177 57.1849
19.91058273574792 57.693000000000005
19.933187610901943 58.5115
19.955969879466828 59.6324
19.97857632894404 60.8745
20.00118356396599 61.955
20.023791585494575 63.8184
20.046577028914875 65.949
20.069186632506966 68.1082
20.091797025500632 70.138
20.114408208858933 71.5144
20.137196842715273 72.2037
20.159809615886765 71.172
20.18242318232135 68.6782
20.20503754298326 66.4259
20.227829382875154 64.461
20.250445341109344 63.7402
20.27306209647285 63.9112
20.29567964993108 64.6804
20.31847471147704 65.7156
20.34109387027612 66.7718
20.363713830075454 67.0025
20.386334591841646 66.4206
20.409132890679302 64.05199999999999
20.431755265564437 60.8282
20.454378445325528 57.6408
20.477002430930366 55.5111
20.499803982716553 54.2972
20.522429589228004 53.2554
20.54505600449589 52.7051
20.567683229489194 52.6088
20.590488049900088 52.1116
20.61311690359731 51.7035
20.63574656993626 51.7246
20.658553853717297 51.1623
20.681185154618298 51.1438
20.703817271080066 51.0328
20.72645020407368 50.7452
20.749260783967177 50.583
20.771895359337133 50.5824
20.794530754161617 50.4904
20.817166969412938 50.5186
20.83998086114876 50.3579
20.86261872660049 50.2472
20.885257415405402 50.2844
20.90789692853701 50.1411
20.930714147864748 50.1728
20.953355319030678 50.3062
20.97599731745334 50.451
20.99864014410749 50.201
21.021460706796564 50.4121
21.044105199328826 50.5933
21.06675052302631 50.6993
21.089396678865015 50.7883
21.112220600704806 51.1214
21.134868430275347 51.5269
21.15751709492456 51.5523
21.180166595629693 51.8973
21.202993892429635 52.2162
21.22564507473034 52.5579
21.24829709602816 52.7555
21.27112693608965 52.9379
21.293780644891275 53.0218
21.316435195634053 52.6063
21.339090589297417 52.0035
21.361923832041875 51.4593
21.384580921090404 50.6874
21.407238856007325 50.1143
21.429897637773326 50.0815
21.45273429906592 49.9582
21.475394784108598 49.9592
21.498056118951983 49.897
21.520718304578022 50.2461
21.543558400304388 50.2075
21.566222297108816 50.5195
21.58888704765135 50.6254
21.61155265291521 51.2396
21.63439619898156 51.8161
21.657063523335786 51.8178
21.67973170537063 52.3947
21.7024007460706 52.9339
21.72524775840385 53.527
21.747918526116475 54.5431
21.770590155457388 55.6134
21.79326264741238 57.0135
21.816113141960237 58.6572
21.838787368860547 60.0836
21.861462461341976 61.7139
21.884315579735777 63.6179
21.90699241312273 65.1243
21.92967011506078 66.3855
21.95234868653799 66.7654
21.9752053151131 66.0048
21.997885635446785 64.2264
22.020566828293532 61.9921
22.04324889464272 60.0019
22.066109049404666 58.0124
22.088792872571794 57.2036
22.111477572219204 57.2877
22.1341631493376 57.5104
22.157026846313123 57.4795
22.179714188221507 57.1095
22.202402410582668 56.2023
22.22509151438863 54.7353
22.24795876962584 53.3567
22.270649646204486 52.1913
22.293341407213727 51.4495
22.316034053646906 50.8024
22.338904883215342 50.4466
22.36159931041458 50.5678
22.38429462602756 50.5421
22.40699083104897 50.2841
22.429865251039757 50.2832
22.452563244831367 50.336999999999996
22.47526213102522 50.4289
22.49813925616515 50.4125
22.520839937143307 50.0946
22.543541513520587 50.2915
22.56624398629403 50.0679
22.589124730075895 50.0114
22.611829005656723 50.3474
22.63453418063466 50.36
22.657240256008077 50.5251
22.680124634582935 50.8215
22.70283252079775 50.9902
22.725541310413075 51.4306
22.74825100442868 51.486999999999995
22.771139033969575 52.1088
22.79385054687155 52.3182
22.81656296718292 52.9836
22.83927629590484 53.7218
22.862167992606945 54.5942
22.88488314827121 55.3888
22.907599215359284 56.123999999999995
22.93031619487366 57.1699
22.953211574954405 58.0079
22.975930389478226 59.1431
22.998650119445763 59.5789
23.02137076586092 59.2413
23.044269845560063 58.0921
23.06699233506288 56.523999999999994
23.089715744034912 54.631
23.112617610931565 52.9629
23.135342869061212 51.7676
23.158069049684816 50.8086
23.1807961538087 50.5664
23.20370174880544 50.4421
23.226430710184808 50.4629
23.249160598093425 50.6034
23.271891413539002 50.5905
23.294800752937697 50.8391
23.31753343374794 50.9059
23.340267045128353 50.9777
23.36300158808808 51.1695
23.38591468821339 51.6583
23.408651104658304 52.2171
23.431388455719986 52.7332
23.454126742409 53.1599
23.4770436196085 54.0053
23.499783787914662 54.9919
23.522524894889884 55.7096
23.54526694154616 56.6439
23.56818761219047 57.7908
23.59093154860734 58.3969
23.613676427751283 59.5134
23.636422250635754 58.918
23.659346731118656 57.6811
23.68209445191868 55.8933
23.704843119509587 53.7705
23.72759273490623 51.5679
23.750521041644767 50.0194
23.77327256312355 48.8152
23.796025035462787 48.2133
23.818956224555475 47.5989
23.841710609113413 47.4722
23.86446594758979 47.2806
23.887222241002014 47.0008
23.910157285144578 46.6919
23.932915498962537 46.6044
23.955674670778713 46.5237
23.978434801611975 46.3562
24.001373717286125 46.0504
24.024135776723917 46.13
24.046898798245582 45.8876
24.06966278287146 45.7493
24.092605586582614 45.5369
24.115371508023642 45.4254
24.1381383956401 45.4432
24.16090625045381 45.3638
24.183852958731244 45.2157
24.206622758582608 45.2293
24.229393528706886 45.0223
24.252165270127392 45.0564
24.27511589952438 44.9221
24.297889594216997 44.7798
24.32066426328598 44.6614
24.34343990775613 44.6527
24.36639447485003 44.5402
24.38917208083877 44.5611
24.41195066531332 44.5458
24.43490819850244 44.4986
24.457688750692377 44.2293
24.48047028445616 44.2586
24.503252800821233 44.3637
24.526214300784112 44.3914
24.548998793132213 44.4492
24.57178427117417 44.2872
24.59457073593893 44.3659
24.617536219319863 44.2815
24.64032466834748 44.2512
24.663114107195035 44.1007
24.685904536893013 43.9722
24.708874020360852 43.9746
24.731666442613744 43.8346
24.754459858818787 43.7131
24.777254270007962 43.6551
24.80022777025625 43.5218
24.82302418230472 43.5592
24.845821592443674 43.5443
24.86862000170663 43.5649
24.891597535453727 43.5214
24.914397953892728 43.5959
24.93719937456671 43.6059
24.96000179851076 43.7755
24.98298338249997 44.0381
25.00578782394922 44.1332
25.028593271784167 44.244
25.05157790644186 44.5673
25.07438537804115 44.666000000000004
25.097193859145293 44.9163
25.120003350792075 45.0
25.142992065061257 45.4181
25.165803588823465 45.6252
25.18861612625217 46.0318
25.211429678386736 45.9729
25.234422489079968 46.1669
25.257238081693636 45.9641
25.280054692141732 46.1137
25.3028723214652 45.9712
25.325869245420463 46.0269
25.348688923599397 46.176
25.371509623787006 46.2123
25.394331347025812 46.1804
25.41733240110666 45.8155
25.440156181590016 45.0173
25.46298098826268 44.6034
25.48580682216873 44.0736
25.50881202326435 43.4309
25.53163992281684 42.7752
25.55446885274561 42.441
25.577298814096377 42.144
25.600308179121807 42.1991
25.623140214533745 42.1335
25.64597328451537 42.0241
25.66898578564376 41.8114
25.691820936010206 41.7953
25.714657124097695 41.8572
25.737494350954734 41.9245
25.760511045684957 41.8215
25.783350361364224 41.8146
25.806190718969255 41.9377
25.82903211955018 41.9222
25.852053024868923 42.00899999999999
25.874896522722523 42.0531
25.897741066713106 41.8742
25.920586657892454 41.9524
25.943611790812668 42.1676
25.966459487728237 42.2743
25.989308234998564 42.1273
26.01215803367705 42.5265
26.03518741123814 42.6569
26.05803932412957 42.6986
26.080892291600094 42.6167
26.10374631470478 42.7228
26.12677995397268 42.8502
26.14963609978026 42.9458
26.172493304397875 42.6454
26.19535156888223 42.5234
26.218389486949604 42.2285
26.241249882640123 42.0401
26.26411134137826 41.8056
26.28715248187403 41.7091
26.31001607820869 41.4887
26.3328807407756 41.2152
26.35574647063438 41.4655
26.37879191991473 41.4424
26.401659795896734 41.4269
26.424528742360263 41.5355
26.447398760366614 41.7586
26.470448535598294 41.8431
26.49332070826805 41.9574
26.516193955675355 42.3314
26.53906827888316 42.3977
26.562122397260108 42.5846
26.584998883685063 42.7963
26.607876449110325 42.952
26.63075509460056 43.2176
26.65381357334404 43.5244
26.67669439061878 43.4094
26.699576291163382 43.3045
26.722459276044212 43.3207
26.745522132402975 43.0859
26.768407297649354 42.6279
26.791293550442003 42.3927
26.814180891848974 42.161
26.837248143099337 41.7402
26.860137673466657 41.5838
26.88302829566349 41.3948
26.90592001075963 41.2879
26.92899167420566 41.1718
26.951885586870763 40.7125
26.974780595655517 40.5942
26.99785558178161 40.4475
27.020752794605112 40.3047
27.043651106772522 40.1809
27.06655051935668 40.2014
27.089629948036183 40.0104
27.112531573292053 39.9627
27.135434302194138 39.887
27.158338135817015 39.8014
27.181422024430987 39.9264
27.204328079372566 39.7867
27.22723524226965 39.6841
27.250143514198573 39.8147
27.273231880156334 39.7348
27.296142382065014 39.6105
27.319053996245536 39.4654
27.341966723775965 39.6281
27.365059584515222 39.7423
27.38797455070062 39.6641
27.410890633481237 39.5817
27.433807833936918 39.5539
27.456905206923906 39.6431
27.47982465472398 39.6288
27.502745223449743 39.6017
27.525666914182825 39.7333
27.548768816912457 39.791
27.571692763693633 39.6013
27.59461783573812 39.5706
27.617723149491244 39.4816
27.640650484125285 39.3637
27.66357894728264 39.3149
27.686508540048052 39.2948
27.709618414237887 39.2837
27.732550278321757 39.1326
27.755483275279115 39.1043
27.778417406196485 39.0249
27.801531858397514 39.1221
27.824468269376716 39.1399
27.847405817586786 39.0202
27.870344504116094 39.1443
27.893463551932008 39.2305
27.916404527281053 39.2982
27.93934664422563 39.2937
27.962289903855886 39.5436
27.98541356491974 39.6022
28.00835912214229 39.6968
28.03130582533231 39.961
28.054253675581805 40.1415
28.077381967556104 40.1335
28.100332124185126 40.1755
28.123283431160893 40.0177
28.146235889577238 40.0127
28.169368830154156 39.8643
28.192323603752033 39.6713
28.215279532083304 39.3146
28.238415973016764 39.0584
28.261374223145094 38.9347
28.284333631303806 38.8205
28.307294198589954 38.7646
28.330435319167677 38.3172
28.353398217078915 38.1092
28.376362277420153 37.8925
28.39932750129032 37.6672
28.422473319286713 37.5228
28.44544088262495 37.6282
28.468409612800283 37.4094
28.491379510913497 37.1274
28.51453004413313 37.0209
28.53750229057244 37.0502
28.56047570826344 36.883
28.583450298308804 36.9034
28.606605564586562 36.7469
28.629582511831156 36.879
28.65256063474956 36.7885
28.675539934446338 36.7534
28.698699951647605 36.6928
28.72168161743193 36.5742
28.74466446331978 36.6506
28.767648490417624 36.5024
28.790813276438353 36.4023
28.813799678527303 36.5004
28.836787265157085 36.4492
28.859955641890075 36.4883
28.882945610203045 36.4529
28.905936766392035 36.3071
28.928929111566863 36.4523
28.952102288520145 36.4253
28.975097024308607 36.2521
28.998092952423807 36.1178
29.021090073977508 35.9609
29.04426806913204 35.9176
29.067267590245258 35.7295
29.090268308143695 35.6526
29.11327022394099 35.6188
29.13645305530891 35.5078
29.159457379627167 35.5552
29.18246290519685 35.5095
29.20546963313352 35.408
29.22865731875826 35.3923
29.25166646419296 35.3344
29.27467681535305 35.1561
29.29768837335608 35.3239
29.320880931312562 35.3644
29.34389491580634 35.3318
29.366910110507334 35.2489
29.38992651653503 35.1905
29.41312396492981 35.2925
29.436142806456754 35.2065
29.45916286268059 35.104
29.48236399319994 35.0711
29.50538649169417 34.8782
29.528410208259935 34.8811
29.55143514402014 34.5621
29.574641196749695 34.5076
29.597668583816574 34.3137
29.6206971934585 34.1127
29.64372702680042 34.2659
29.666938019934474 34.1032
29.689970313635285 33.9414
29.713003834422636 33.9677
29.73603858342347 33.961999999999996
29.759254535188578 33.9343
29.78229175361658 33.773
29.80533020365064 33.9209
29.82836988641968 33.9569
29.85159081507472 33.8352
29.874632976355343 33.7266
29.89767637376955 33.7818
29.920721008448314 33.5357
29.9439469322847 33.5687
29.96699405457564 33.5041
29.9900424175358 33.6117
30.013092022298157 33.4031
30.03632295963995 33.4387
30.059375061131373 33.509
30.08242840783577 33.5894
30.105483000888153 33.4885
30.128718970092244 33.4076
30.151776069006917 33.4081
30.17483441768648 33.4687
30.198074175317235 33.4077
30.221135036724256 33.3468
30.24419715131772 33.3024
30.267260520236203 33.2851
30.290505341942243 33.3493
30.313571232750228 33.3455
30.336638381310948 33.2618
30.35970678876503 33.2557
30.38295669299435 33.2475
30.40602763151657 33.1816
30.429099832366074 33.1308
30.452173296685572 33.0536
30.47542830191959 33.0466
30.498504306502497 33.0672
30.521581577995562 33.0855
30.544660117543582 33.1878
30.56792024229725 33.1973
30.59100133132069 33.0347
30.614083691845494 33.0259
30.637167325018545 33.0684
30.660432587840603 33.1038
30.683518779717886 33.0506
30.70660624769615 33.1694
30.729694992924372 33.1093
30.75296541239743 33.1377
30.77605672557558 33.1135
30.799149319462742 33.118
30.8224236211637 33.0397
30.845518789950724 32.9057
30.868615242910597 32.8097
30.891712981195973 32.6814
30.91499247215866 32.6852
30.938092794619365 32.5214
30.96119440587579 32.4256
30.984297307082752 32.3551
31.00758200598383 32.2129
31.030687500658694 32.205999999999996
31.053794288760695 32.1684
31.076902371446767 32.0518
31.100192296997445 32.0929
31.12330298246119 31.9292
31.14641496599209 31.8986
31.169528248749216 31.915
31.19282341969534 31.9518
31.215939314557186 31.9395
31.239056512134788 31.8318
31.262175013589378 31.831999999999997
31.28547544871168 31.761
31.30859657161541 31.7078
31.331719001892175 31.7346
31.35484274070538 31.8105
31.378148458819545 31.7428
31.401274828443725 31.7926
31.424402510106933 31.7843
31.447712205419993 31.8839
31.470842524931633 31.6952
31.493974159989783 31.7483
31.51710711176168 31.736
31.54042212308802 31.7949
31.563557722100917 31.7731
31.586694641341655 31.5492
31.609832881979628 31.5538
31.63315322823208 31.4766
31.656294125521327 31.2693
31.679436347728515 31.2079
31.70257989602529 31.1972
31.725905596152327 31.1517
31.74905181052835 30.9694
31.772199354521323 30.9991
31.79534822930507 31.0524
31.818679302290967 31.1101
31.84183085259981 30.947
31.864983737233473 31.0882
31.88813795736804 31.0747
31.911474422233013 30.8851
31.934631327356435 30.9244
31.9577895715215 30.9469
31.980949155906522 30.8991
32.004291031706956 30.9878
32.027453310562606 30.8086
32.05061693318573 30.7631
32.07396288236386 30.7188
32.09712920658542 30.5817
32.12029687812702 30.4427
32.14346589817093 30.5219
32.166817291729984 30.3481
32.18998902288583 30.2447
32.21316210610336 30.2773
32.23633654256711 30.0907
32.259693399663725 30.1764
32.282870556771144 30.0731
32.30604907069099 30.0379
32.329228942610065 29.9947
32.35259128243769 29.8191
32.375773884550505 29.76
32.398957848235646 29.8605
32.422143174682176 29.7455
32.445511016471215 29.6341
32.468699082679954 29.613000000000003
32.49188851523011 29.538
32.51507931531304 29.4341
32.538452678331 29.4894
32.56164622776311 29.4695
32.58484114831493 29.4464
32.60803744118015 29.3586
32.631416344731896 29.4001
32.654615396551876 29.3721
32.67781582427913 29.345
32.701198898634416 29.2097
32.72440209253756 29.191
32.747606665947124 29.1464
32.77081262006088 29.0086
32.79420126883317 28.9526
32.81740999876112 28.9775
32.840620112999424 28.9553
32.86383161274818 28.9946
32.88722585534586 28.892
32.91044014056596 28.982
32.933655814909734 28.8224
32.95687287957963 28.8418
32.98027273544904 28.857
33.00349259526636 28.7209
33.026713849030116 28.8071
33.04993649794511 28.729
33.073341986570746 28.5493
33.09656744032826 28.5739
33.11979429286444 28.6419
33.14302254538647 28.5924
33.166433686291185 28.5541
33.18966475336992 28.4523
33.212897224069096 28.4084
33.23613109959831 28.4994
33.259547912343415 28.4273
33.2827846121627 28.3583
33.306022720453775 28.2927
33.32926223842861 28.2314
33.352684742614166 28.2697
33.37592709463173 28.2136
33.399170859982064 28.0372
33.422597648419426 28.0611
33.44584425514446 27.9663
33.46909227885668 27.9535
33.4923417207723 27.785999999999998
33.51577423505344 27.861
33.539026528130385 27.7163
33.56228024307245 27.6814
33.585535381098246 27.6098
33.60897364093058 27.6143
33.63223163992385 27.4845
33.6554910656699 27.4788
33.678751919389796 27.5109
33.702195944520106 27.4132
33.72545966903325 27.4394
33.74872482519663 27.4255
33.771991414233746 27.4223
33.79544122444841 27.2415
33.81871069412428 27.1886
33.84198160035767 27.2108
33.86525394437455 27.283
33.88870955949969 27.1336
33.911984794020626 27.07
33.93526147001624 27.1138
33.958539588715006 27.0078
33.98200102861669 26.9236
34.0052820477047 26.8897
34.02856451319451 26.8995
34.05203033759056 26.7706
34.07531571090147 26.8591
34.09860253431845 26.7487
34.121890809074316 26.7141
34.145362493118924 26.6679
34.16865368561615 26.6359
34.191946333164054 26.6296
34.21524043699793 26.5963
34.23871800066799 26.5364
34.26201503218366 26.4509
34.28531352370466 26.3754
34.30861347646881 26.3348
34.33209693978188 26.2946
34.3553998301885 26.2729
34.378704185565205 26.22
34.402010007152356 26.1618
34.42549939016683 26.1602
34.44880815937748 26.0741
34.472118398533134 26.0697
34.49543010887669 26.0717
34.51892543169198 25.8538
34.54224009966052 25.9657
34.56555624255917 25.9184
34.58887386163339 25.8216
34.61237514439016 25.7186
34.6356957311114 25.7414
34.65901779775809 25.7453
34.68252356662995 25.6683
34.705848608458616 25.6788
34.72917513396849 25.659000000000002
34.75250314440949 25.6604
34.77601490857862 25.4783
34.799345904259795 25.4486
34.82267838863559 25.5377
34.846012362958525 25.4344
34.869530142679984 25.3837
34.89286711232212 25.3776
34.91620557568269 25.3801
34.93954553401677 25.2329
34.9630693495876 25.2116
34.986412313340814 25.1936
35.00975677584668 25.2291
35.033102738362956 25.0831
35.05663261012228 25.0958
35.0799815881786 25.0865
35.10333207003229 25.0418
35.12668405694369 25.028000000000002
35.150220005273056 25.0128
35.17357501786656 24.9961
35.19693153931268 25.0179
35.220289570874385 24.9368
35.24383161619786 24.855
35.267192683604904 24.8198
35.290555264930376 24.8653
35.314101899412165 24.8191
35.33746752422433 24.7546
35.36083466676374 24.6668
35.38420332829803 24.6459
35.407756095629054 24.7293
35.43112781085063 24.752
35.45450104888391 24.6499
35.477875810999194 24.6488
35.50143473172161 24.5873
35.52481255774625 24.6062
35.54819191167777 24.5032
35.57157279478914 24.5765
35.595137889488406 24.4676
35.61852184675279 24.4802
35.641907337029984 24.3742
35.665294361595684 24.2914
35.68886565090076 24.3111
35.7122557598848 24.2782
35.73564740699838 24.316999999999997
35.759040593519934 24.2472
35.78261809810353 24.1223
35.80601437933051 24.1095
35.829412203814705 24.013
35.85281157283719 23.9427
35.876395313415884 23.9758
35.8997977874528 23.898000000000003
35.92320180988546 23.8459
35.946790244133936 23.8094
35.97019737933222 23.8351
35.993606066789866 23.8251
36.01701630779276 23.7309
36.04061101440684 23.7135
36.06402437852291 23.6839
36.08743930005611 23.6597
36.1108557802951 23.5037
36.13445678011326 23.5456
36.15787639383515 23.5239
36.18129757014299 23.4738
36.20472031032821 23.4483
36.22832762423364 23.4148
36.25175350829375 23.4347
36.275180960119776 23.3906
36.298609981005924 23.3676
36.32222362992669 23.3436
36.34565580510207 23.304000000000002
36.36908955323448 23.1974
36.39252487562093 23.1771
36.416144880530226 23.1448
36.43958336764275 23.0645
36.463023432914625 23.0531
36.486465077645676 22.9499
36.51009145956204 23.0868
36.53353627947859 22.9694
36.55698268276811 22.9988
36.58043067073321 22.9889
36.60406345072071 22.8849
36.62751462435344 22.8765
36.65096738658405 22.8273
36.67460498210655 22.8209
36.69806093788647 22.773000000000003
36.72151848619297 22.6741
36.744977628333636 22.7527
36.76862165890998 22.5914
36.79208400512205 22.6133
36.81554794910557 22.6695
36.83901349217101 22.561999999999998
36.862663978991606 22.4722
36.88613273667352 22.3909
36.90960309738324 22.4261
36.933075062434064 22.4001
36.95673202673572 22.3612
36.98020721697122 22.2337
37.003684015502365 22.1818
37.027162423645365 22.232
37.050825886711465 22.1918
37.07430753063053 22.1659
37.09779078812467 22.171999999999997
37.121275660513014 22.1409
37.144945643673694 22.0773
37.16843376245278 22.0123
37.19192350009803 22.0526
37.215414857931435 21.95
37.239091382563885 21.9798
37.262585997426164 21.9034
37.28608223645736 21.9032
37.309763684451696 21.8276
37.33326318851098 21.8316
37.356764320726555 21.7605
37.380267082425526 21.74
37.40395510942588 21.7519
37.42746114683234 21.656
37.45096881771841 21.6263
37.474478123414166 21.6541
37.49817275092816 21.5639
37.52168534303452 21.4671
37.54519957395567 21.4067
37.568715445024665 21.4023
37.592416694607714 21.4099
37.61593586281424 21.447
37.63945667518264 21.4745
37.66297913304891 21.4307
37.68668702630454 21.3723
37.710212792059274 21.2684
37.733740207334854 21.1661
37.757269273470364 21.1695
37.780983832050374 21.2151
37.80451621684926 21.1363
37.82805025654007 21.0848
37.851585952464795 21.0197
37.8753071980695 21.0025
37.89884622345676 20.9217
37.92238690911902 20.8628
37.94611318753442 20.8668
37.969657210779765 20.8604
37.99320289834801 20.8361
38.016750251586465 20.7523
38.04048325513017 20.7094
38.06403395679343 20.724
38.087586328183946 20.6409
38.11114037065203 20.739
38.13488012115898 20.7414
38.1584375229181 20.6201
38.181996599821 20.5611
38.205557353221124 20.572
38.229303872575656 20.5194
38.2528679961576 20.500999999999998
38.27643380031219 20.456
38.30000128639589 20.4314
38.32375459653193 20.4263
38.34732546371299 20.4324
38.37089801690786 20.2533
38.39447225747609 20.2566
38.418232380377425 20.2286
38.441810012983396 20.2801
38.46538933705673 20.2335
38.488970353960084 20.222
38.51273731166058 20.1005
38.536321731567014 20.0851
38.55990784840681 20.0968
38.58367995004091 20.0368
38.60726947812959 19.9819
38.63086070726198 20.0026
38.654453638806274 20.0315
38.678232613930824 19.8468
38.70182896773327 19.8465
38.72542702806741 19.837
38.7490267963045 19.8548
38.77281266709232 19.6942
38.79641586862214 19.6448
38.8200207821842 19.6869
38.843627409152944 19.7425
38.86742019782782 19.7139
38.891030269149255 19.6907
38.914642058016156 19.6434
38.938255565806124 19.6107
38.96205529464307 19.5153
38.98567225787121 19.4783
39.00929094417078 19.4654
39.03291135492255 19.4795
39.05671804624804 19.4315
39.080341923549106 19.3982
39.103967529460334 19.3478
39.127594865365744 19.2778
39.15140854155791 19.2299
39.17503935514948 19.2651
39.19867190290282 19.2135
39.22249083587951 19.2012
39.24612686969409 19.1758
39.269764641845306 19.2179
39.293404153722804 19.0994
39.317230110864074 19.0017
39.34087311998506 18.9722
39.36451787301696 18.959
39.388164371352595 18.9392
39.41199737518003 18.8813
39.43564738196752 18.9299
39.45929913825317 18.9073
39.48295264543308 18.8398
39.506792718520884 18.838
39.530449745387216 18.7367
39.55410852735203 18.7177
39.57776906581474 18.7448
39.60161623079 18.680999999999997
39.625280300200025 18.6332
39.64894613032202 18.6231
39.67261372255866 18.6302
39.6964680021016 18.5737
39.72013913657293 18.6053
39.74381203738292 18.5366
39.76748670593756 18.5213
39.79134812278169 18.5167
39.81502634488497 18.5072
39.83870633896685 18.4221
39.862388106436654 18.405
39.88625668336918 18.3624
39.90994201572829 18.320999999999998
39.933629125719285 18.258
39.957503091207826 18.247
39.9811937746168 18.3478
40.00488623990914 18.2643
40.02858048850006 18.1978
40.05246165409549 18.1455
40.076159487492085 18.0502
40.099859108448875 18.0762
40.123560518384345 18.0178
40.1474489070226 18.0631
40.171153913178564 17.9982
40.194860712584955 17.9756
40.2185693066637 17.9474
40.242464941335314 17.8909
40.26617714307655 17.9528
40.289891143772046 17.8965
40.3136069448471 17.8955
40.33750984859743 17.8252
40.3612292688043 17.8185
40.3849504936829 17.8171
40.40867352466194 17.7582
40.43258372059144 17.6914
40.45631038219906 17.6683
40.48003885420956 17.5739
40.503769138055105 17.5701
40.52768664931955 17.5746
40.55142057531802 17.5722
40.57515631746428 17.5457
40.599079334038514 17.5242
40.62281872700477 17.4638
40.64655994043941 17.4191
40.67030297578061 17.3773
40.69423334835778 17.4177
40.71798004609188 17.3434
40.74172857006355 17.3758
40.76547892171441 17.3272
40.7894166736039 17.2939
40.813170699248566 17.2646
40.83692655691388 17.2038
40.86068424804498 17.2466
40.884629402612525 17.214000000000002
40.908390779366385 17.211
40.932153993938 17.1198
40.95591904777605 17.1223
40.979871628443995 17.1139
41.003640379561936 17.0339
41.02741097430883 17.0246
41.05118341413683 16.9939
41.075143444384416 16.9837
41.098919593177826 16.9803
41.1226975914255 16.9147
41.14647744058318 16.8251
41.170444943946755 16.8311
41.19422851378379 16.8295
41.218013938914645 16.7866
41.24198706625173 16.7186
41.26577622087193 16.6841
41.289567235177785 16.6753
41.31336011063129 16.6406
41.337340752422875 16.6328
41.361137369129835 16.6185
41.38493585138705 16.6061
41.40873620066004 16.5569
41.43272438060107 16.5024
41.45652848292052 16.4708
41.48033445666918 16.4442
41.50414230331616 16.4169
41.528138045159764 16.4394
41.551949656675205 16.3635
41.575763145513235 16.3242
41.59957851314666 16.3441
41.62358184070442 16.288
41.64740098505737 16.2567
41.6712220126409 16.2825
41.69504492493139 16.2103
41.71905586207357 16.256
41.74288256296395 16.1821
41.766711153007456 16.1334
41.79054163368412 16.1007
41.814560204340054 16.160999999999998
41.838394485526365 16.1245
41.86223066180303 16.0385
41.88625497706819 15.9984
41.910094962812 15.9665
41.93393684811168 15.9544
41.95778063445365 15.9404
41.981812625263366 15.8889
42.00566023303407 15.8422
42.029509746323676 15.8197
42.05336116662236 15.8318
42.077400857069705 15.8072
42.10125611078846 15.7587
42.12511327600405 15.6941
42.14897235421036 15.7199
42.173019768448455 15.6945
42.19688269209613 15.652000000000001
42.22074753323349 15.6125
42.24461429335818 15.6024
42.268669455600495 15.6039
42.292540073217886 15.5957
42.31641261433284 15.5308
42.34028708044675 15.495
42.36435001496739 15.502
42.38822835065557 15.4247
42.41210861586426 15.4684
42.4359908120986 15.3895
42.46006154323262 15.34
42.48394762115317 15.3567
42.507835634632315 15.3395
42.531912233047436 15.311
42.55580413732265 15.2585
42.579697981698 15.272
42.60359376768525 15.2863
42.62767820545945 15.1975
42.65157789440821 15.2166
42.67547952952185 15.1863
42.699383112316 15.1516
42.72347541395347 15.1408
42.74738291190531 15.0212
42.771292362102166 15.0438
42.795203766063516 15.0359
42.819303956130405 15.0309
42.843219287476536 14.9911
42.86713657716324 14.9269
42.89105582671383 14.9127
42.91516392983864 14.9115
42.939087119032166 14.8843
42.963012272677304 14.8353
42.98693939230129 14.8431
43.01105543317513 14.7696
43.034986504731386 14.7579
43.05891954686589 14.7586
43.08285456110972 14.6963
43.10697856448665 14.6761
43.130917542983475 14.7187
43.15485849820081 14.625
43.17880143167367 14.5626
43.20293342237094 14.5192
43.226880332449 14.5515
43.25082922540554 14.5731
43.27496722682525 14.5041
43.29892010567796 14.5031
43.32287497204102 14.5002
43.34683182745632 14.4265
43.370977859791836 14.333
43.39493871351105 14.3855
43.41890156092628 14.3763
43.44286640358341 14.3255
43.46702049182749 14.3152
43.49098934522816 14.2724
43.51496019852649 14.2176
43.5389330532723 14.2002
43.56309522248204 14.2611
43.58707210044314 14.2025
43.61105098451946 14.1132
43.63503187626491 14.1594
43.659202151562134 14.1526
43.68318707902681 14.1027
43.70717401884041 14.0828
43.731162972560874 14.0367
43.75534137913236 14.0252
43.779334381108384 14.0026
43.803329401683186 13.9765
43.82732644241872 13.9668
43.8515130055166 13.9387
43.87551410707659 13.8729
43.89951723350145 13.8742
43.923709934595614 13.8695
43.94771713129917 13.8921
43.97172635758096 13.8248
43.99573761501002 13.8085
44.0199385169922 13.7437
44.04395385732619 13.7599
44.067971233533086 13.7682
44.09199064718605 13.6815
44.11619977548961 13.6264
44.14022328470671 13.6438
44.16424883610785 13.6282
44.18827643127035 13.6595
44.21249381139513 13.5783
44.236525514814076 13.505999999999998
44.26055926674478 13.5141
44.28459506876863 13.5635
44.3088207262813 13.464
44.33286064928722 13.4356
44.35690262714919 13.395
44.38094666145278 13.3925
44.4051806219871 13.4275
44.42922879003185 13.3576
44.45327901929361 13.3349
44.477331311362136 13.3228
44.501573600619416 13.2409
44.525630039221795 13.2443
44.54968854541895 13.2144
44.573937102200176 13.2408
44.5979997645541 13.23
44.622064499300315 13.2212
44.64613130803592 13.0952
44.67038823869318 13.1179
44.69445921643748 13.0904
44.718532272981385 13.0465
44.742607409926194 13.0865
44.76687274034801 13.0697
44.79095205918753 12.9532
44.81503346325094 12.9753
44.839116954143876 13.0092
44.86339071028742 12.9729
44.88747839599524 12.9426
44.91156817336837 12.9025
44.93566004401666 12.8954
44.959942251908146 12.8364
44.984038330325966 12.8283
45.00813650686762 12.7962
45.03223678314731 12.7824
45.05652746888232 12.7825
45.08063196592069 12.7487
45.104738567558705 12.7192
45.128847275414856 12.695
45.15314646515866 12.6342
45.17725940679741 12.6689
45.20137445952892 12.6058
45.22568004865265 12.6082
45.24979934496396 12.5906
45.27392075725247 12.6193
45.29804428714431 12.5582
45.322358426247604 12.5101
45.346486212804315 12.5435
45.370616121861914 12.4798
45.39474815505086 12.4068
45.41907087049246 12.4168
45.4432071734666 12.3843
45.46734560548283 12.392000000000001
45.49148616817604 12.4052
45.51581748638564 12.3422
45.5399623320197 12.3491
45.56410931325473 12.3234
45.58825843173002 12.3169
45.61259837920865 12.2912
45.636751793816 12.2244
45.66090735060093 12.2078
45.68506505120716 12.1524
45.7094136545275 12.1467
45.73357566449271 12.1425
45.75773982322992 12.0937
45.78190613238733 12.1228
45.806263418194064 12.0451
45.83043404997326 12.0542
45.85460683713677 12.0714
45.87897065658495 12.0076
45.90314777634752 11.9678
45.92732705646868 11.9959
45.9515084986045 11.9477
45.97588104735473 11.9393
46.00006683541565 11.9359
46.02425479047904 11.8995
46.04844491420549 11.8532
46.0728262191024 11.8439
46.09702070211635 11.8101
46.12121735879483 11.8235
46.14541619080294 11.8373
46.169806278764455 11.7892
46.194009483459034 11.7336
46.21821486849841 11.6922
46.24242243555223 11.6789
46.266821333570014 11.6533
46.29103328674601 11.6611
46.31524742696538 11.649000000000001
46.33946375590237 11.5744
46.36387149104216 11.5404
46.38809221957392 11.5599
46.41231514186606 11.5477
46.436540259597464 11.5497
46.460956858999374 11.5077
46.48518638983522 11.437000000000001
46.509418121166966 11.4332
46.533652054678114 11.4151
46.55807754555709 11.4018
46.58231590571962 11.4118
46.60655647313217 11.3548
46.630988654873654 11.3792
46.655233659129024 11.3668
46.67948087571551 11.3342
46.70373030632484 11.3022
46.72817142736393 11.2801
46.752425308428684 11.2752
46.77668140861147 11.2093
46.80093972960865 11.1664
46.82538981736788 11.1467
46.849652602470904 11.1425
46.87391761349769 11.1247
46.8981848521493 11.0755
46.9226439341274 11.0793
46.946915650573224 11.0518
46.97118959976749 11.0526
46.99546578341598 11.0522
47.019933887188216 11.0264
47.04421456235744 11.0345
47.06849747711879 10.9714
47.09278263318286 10.9804
47.11725978640143 10.9338
47.14154944775105 10.9176
47.165841355555656 10.8909
47.1901355115306 10.8945
47.214621741924994 10.8522
47.23892041698887 10.8487
47.26322134538975 10.8063
47.28771440635075 10.7918
47.31201986422527 10.7737
47.33632758061436 10.7643
47.360637557241866 10.7073
47.38513974410611 10.73
47.40945426407847 10.6944
47.43377104948137 10.6569
47.45809010204344 10.6528
47.48260144275502 10.6528
47.506925052572285 10.6325
47.53125093475548 10.5754
47.55557909103813 10.5632
47.58009961361992 10.5429
47.60443234110732 10.5351
47.62876734791564 10.5315
47.65310463578333 10.4969
47.6776343683373 10.4548
47.7019762413987 10.4492
47.72632040075572 10.4319
47.75066684815169 10.4295
47.77520581885936 10.3898
47.799556865477655 10.3713
47.823910205386 10.3574
47.84826584033272 10.3489
47.87281407745551 10.3035
47.89717432569297 10.3268
47.92153687423484 10.2742
47.94609208429692 10.2933
47.97045925671401 10.2617
47.99482873471275 10.2357
48.01920052005013 10.2172
48.04376504619224 10.1867
48.068141469543484 10.2151
48.09252020552573 10.2011
48.11690125590099 10.1765
48.1414751266064 10.1271
48.16586082917454 10.1078
48.19024885144316 10.061
48.2146391951793 10.0756
48.239222439012764 10.0981
48.26361744916137 10.0313
48.28801478610016 10.0339
48.31241445160131 10.0263
48.337007097209366 9.9698
48.36141144338331 9.97777
48.38581812345755 9.98751
48.41022713920929 9.99623
48.434829215320704 9.93442
48.45924292604658 9.88585
48.48365897780325 9.912180000000001
48.50807737237308 9.88844
48.532688907799276 9.87538
48.55711201168574 9.82947
48.581537463754074 9.77634
48.60615611725119 9.81104
48.63058628942721 9.78696
48.65501881516546 9.776480000000001
48.6794536962573 9.75035
48.70408185970339 9.70919
48.72852147531801 9.689630000000001
48.75296345168211 9.67389
48.77740779059232 9.68776
48.80204549302823 9.70448
48.82649458091802 9.682939999999999
48.85094603676547 9.60215
48.87539986237231 9.5708
48.90004713292306 9.55335
48.92450572200832 9.57175
48.94896668628025 9.55954
48.97343002754588 9.49213
48.99808689542115 9.49421
49.02255501470614 9.47818
49.04702551642794 9.433869999999999
49.0714984023988 9.44709
49.096164896893235 9.39782
49.120642575466796 9.41918
49.145122643748394 9.42728
49.16960510355558 9.38822
49.19428125404938 9.34868
49.2187685210852 9.35771
49.243258185121555 9.34962
49.26794160167084 9.320110000000001
49.2924360839405 9.29884
49.31693296869764 9.26031
49.34143225776915 9.26493
49.36612538195438 9.231860000000001
49.39062950396021 9.21707
49.41513603578346 9.18774
49.4396449792564 9.149989999999999
49.46434784069503 9.159139999999999
49.488861631846454 9.14626
49.513377840166804 9.133239999999999
49.537896467493745 9.08943
49.56260909589029 9.09762
49.587132585683285 9.070260000000001
49.611658500018365 9.0574
49.636186840738596 8.98497
49.66090926588511 9.0268
49.685442483902584 9.034989999999999
49.70997813385706 8.98437
49.734516217597076 8.93879
49.75924846937352 8.97686
49.7837914452858 8.91282
49.80833686055187 8.87807
49.83288471702571 8.88563
49.85762682540054 8.89188
49.882179588965734 8.8495
49.9067347993235 8.82289
49.93129245833333 8.856069999999999
49.95604445336378 8.80765
49.98060703442832 8.80366
50.005172069746266 8.797189999999999
50.02993150438364 8.77827
50.05450147301533 8.72764
50.07907390151433 8.72667
50.10364879174981 8.71095
50.12841816587289 8.71283
50.1529980044635 8.69774
50.17758031042124 8.682039999999999
50.20216508562089 8.66426
50.22694442953363 8.646230000000001
50.25153416817468 8.607280000000001
50.27612638170508 8.61394
50.300721072005196 8.57809
50.325510416102105 8.56148
50.350110084975064 8.550360000000001
50.37471223628208 8.59063
50.39931687190919 8.50165
50.424116246675766 8.460289999999999
50.44872587605249 8.49584
50.47333799543065 8.46734
50.49795260670191 8.46358
50.52276204271512 8.41902
50.54738166295838 8.43035
50.57200378079314 8.423919999999999
50.596628398116835 8.38838
50.62144792604559 8.33193
50.646077567609396 8.327869999999999
50.670709714377715 8.36478
50.69553683636198 8.28273
50.72017401885922 8.30381
50.7448137122895 8.29677
50.76945591856022 8.26988
50.79429318636823 8.247819999999999
50.818940443716784 8.24512
50.84359021965163 8.22264
50.868242516085964 8.1912
50.893089960641895 8.187710000000001
50.917747323549435 8.17108
50.94240721271973 8.17497
50.96706963007175 8.14605
50.99192728239342 8.14757
51.01659478166073 8.11197
51.04126481489051 8.10408
51.06593738400761 8.06851
51.090805275207074 8.06274
51.11548294172845 8.04547
51.14016314993547 8.02139
51.164845901758845 8.029580000000001
51.18972406304274 7.99627
51.21441192780656 8.00859
51.23910234200271 7.991510000000001
51.2637953075678 7.96842
51.288683770237945 7.9417
51.31338186432707 7.887569999999999
51.33808251561888 7.859560000000001
51.362978729967345 7.904730000000001
51.387684521509755 7.87062
51.41239287610203 7.827660000000001
51.437103795691165 7.8151
51.46201036644977 7.80841
51.486726441956634 7.82063
51.51144508832545 7.79738
51.536166307509156 7.75378
51.56108326624387 7.77313
51.58580965706056 7.7568
51.61053862657523 7.70527
51.635270176746864 7.70746
51.66019755512065 7.69406
51.68493429268881 7.68182
51.70967361681515 7.670489999999999
51.73441552946465 7.654389999999999
51.759353359237934 7.617360000000001
51.7841004750961 7.601960000000001
51.80885018539685 7.57665
51.833602492111254 7.58414
51.8585508051424 7.56837
51.883308330926425 7.534860000000001
51.90806845906181 7.55125
51.932831191525715 7.491739999999999
51.95779001977161 7.4607600000000005
51.98255798721516 7.4436
52.00732856494335 7.46701
52.03229530577543 7.43721
52.057071130455945 7.44049
52.081849571391054 7.39199
52.106630630568695 7.39098
52.13160794279417 7.3678
52.15639426492067 7.3657
52.18118321127822 7.343260000000001
52.205974783860896 7.35438
52.23096269971011 7.36885
52.255759551287994 7.28804
52.280559035098186 7.26387
52.30536115314103 7.296819999999999
52.33035970494467 7.2382800000000005
52.35516711807904 7.25253
52.37997717147198 7.25643
52.40478986713005 7.2146
52.42979908731974 7.21334
52.454617094216 7.20745
52.47943774942214 7.1696100000000005
52.50426105495102 7.157260000000001
52.529280976059844 7.12518
52.554109609024096 7.13753
52.57894089837482 7.13287
52.60377484613117 7.1243
52.62880550079408 7.0749
52.65364479223379 7.06597
52.67848674816189 7.05024
52.70352547971946 7.023389999999999
52.72837279155837 6.986510000000001
52.753222773982785 7.02688
52.778075429022984 6.9912600000000005
52.80312495150885 7.01192
52.827982978797436 6.96518
52.85284368481815 6.937880000000001
52.87770707160767 6.9089100000000006
52.90276741793998 6.9412899999999995
52.92763619336701 6.91993
52.952507655698504 6.885610000000001
52.977381806977576 6.860130000000001
53.00245301017842 6.86952
53.02733256653592 6.86782
53.052214817996074 6.81885
53.077099766608484 6.81573
53.102181859804446 6.79908
53.127072229988265 6.78262
53.15196530349892 6.806889999999999
53.17686108239249 6.784160000000001
53.20195409881522 6.74368
53.22685531582556 6.77158
53.25175924441303 6.72863
53.27666588664027 6.730860000000001
53.30176985962693 6.70322
53.3266819565689 6.6950199999999995
53.35159677336455 6.69147
53.376514312083096 6.68288
53.40162927507703 6.67807
53.42655228516116 6.66448
53.45147802340193 6.61228
53.47660125628886 6.5761899999999995
53.50153247842639 6.542669999999999
53.52646643496923 6.545730000000001
53.55140312799818 6.565760000000001
53.576537409691696 6.49693
53.60147960336152 6.559760000000001
53.626424539786164 6.50079
53.65137222105307 6.49519
53.67651758529126 6.49929
53.70147078399681 6.479430000000001
53.72642673383343 6.46455
53.75138543689533 6.41793
53.776541917524526 6.44477
53.801506154876755 6.40906
53.826473151763246 6.3683
53.851442910284916 6.40605
53.87661054126026 6.38532
53.9015858509782 6.353
53.92656392866066 6.33937
53.95154477641532 6.35604
53.976723591801296 6.33526
54.00171000771266 6.32391
54.02669920004598 6.29906
54.051691170915745 6.29857
54.076881204886796 6.24351
54.101878760928514 6.25718
54.12687910187696 6.24299
54.152077577768296 6.20424
54.1770835166946 6.17154
54.20209224691339 6.1683900000000005
54.22710377055121 6.17439
54.25231352511594 6.16365
54.27733066384342 6.13857
54.30235060239643 6.1487099999999995
54.32737334290836 6.12046
54.35259441062629 6.03875
54.377622783395324 6.06174
54.40265396455061 6.06936
54.42768795623251 6.04673
54.45292037169559 6.03081
54.477960012857906 5.99481
54.50300247099511 5.97056
54.52804774825457 5.95295
54.55329154616743 5.89203
54.57834249018678 5.86966
54.6033962597977 5.87826
54.6284528571545 5.88168
54.653708072335164 5.86265
54.67877035378786 5.86051
54.70383546947698 5.81032
54.72890342156389 5.77618
54.7541700889442 5.74301
54.77924374251975 5.75481
54.8043202390049 5.727040000000001
54.82959552413022 5.72313
54.8546777351945 5.71738
54.87976279569621 5.6771400000000005
54.90485070780914 5.625319999999999
54.930137506558005 5.6078
54.95523115074295 5.64722
54.98032765308844 5.5608900000000006
55.005427015775496 5.5506400000000005
55.03072536339621 5.56094
55.05583047570572 5.55919
55.080938454927676 5.52294
55.10604930325027 5.505380000000001
55.131359235107396 5.47699
55.15647585066083 5.46413
55.181595341907496 5.49841
55.20671771104285 5.42479
55.232039262617704 5.42489
55.25716741665048 5.32045
55.28229845518636 5.34696
55.30743238042802 5.31312
55.33276558731939 5.27246
55.357905315183636 5.25858
55.383047936390035 5.2175199999999995
55.40819345314859 5.21017
55.433538351073295 5.24014
55.458689688238415 5.24376
55.483843927614096 5.150530000000001
55.509197623043605 5.15126
55.53435769621134 5.09759
55.55952067826466 5.1107
55.5846865714265 5.10391
55.61005202069737 5.07375
55.63522376553902 5.04493
55.66039842818645 5.0219
55.68557601087004 5.039540000000001
55.7109532500271 4.95806
55.73613670233794 4.9734
