TT I
1.2716486653135266 7.24206
1.2939594142134223 7.128769999999999
1.3162702121660406 7.36804
1.3385810600174564 7.59991
1.3608919586137629 6.890389999999999
1.383202908801069 6.72438
1.405513911425503 6.42849
1.4278249673332093 5.7486
1.4501343378461518 6.28266
1.4724455028545926 6.04841
1.4947567236847858 5.79286
1.517068001182951 5.861219999999999
1.5393793361953272 5.75436
1.5616907295681737 6.12847
1.5840021821477681 5.4558599999999995
1.60631369478041 5.92577
1.6286252683124185 5.2556
1.6509369035901333 4.8473
1.6732468618895553 5.0723400000000005
1.695558623192809 5.31318
1.7178704487808514 5.26932
1.7401823395001077 5.0627699999999995
1.7625012545597203 4.670030000000001
1.7848028405262486 5.0817
1.8071218901122095 4.80015
1.8294236121921872 4.91046
1.8517427996910911 4.71269
1.8740620574440425 5.11266
1.8963639900671978 4.66046
1.9186833908139995 5.07801
1.9409854680117449 4.61913
1.9633050151394713 5.29059
1.9856246367570705 4.81369
2.0079269371922672 4.87247
2.03024671027244 5.12441
2.0525491637446027 4.65355
2.074869091674931 4.7724400000000005
2.097171701569106 4.6887099999999995
2.1194917877373847 5.64216
2.141811954326636 5.180969999999999
2.164114805233074 4.3033
2.186435135143035 5.5673900000000005
2.208738150935709 11.7416
2.231058647554722 23.075
2.2533792288321184 17.8296
2.275682498336085 8.09212
2.298003251406138 4.9316699999999996
2.3203066942619714 5.12371
2.3426276225136022 5.16901
2.3649486396617507 5.1795800000000005
2.387252348930071 5.44209
2.4095735463442893 4.6230199999999995
2.4318774374315884 5.04309
2.4541988185014043 5.7264
2.476502894794693 5.86916
2.498824462909887 5.97169
2.521146125856138 6.0861
2.5434504863470337 6.13289
2.5657723414244717 6.55364
2.588076895590662 6.94008
2.610398946189713 7.31157
2.6327210958598384 6.44902
2.6550259469304716 6.82145
2.6773482972090137 7.38647
2.6996533504259 7.19908
2.7219759047039602 7.155139999999999
2.744298562293959 7.22535
2.7666039251246595 7.822760000000001
2.7889267918020164 7.413460000000001
2.8112323652516555 8.1
2.833555444408179 8.09397
2.8558786311183852 7.76105
2.8781845268938557 8.55452
2.9005079311721484 8.9457
2.9228140460410397 9.01547
2.9451376712799635 9.6414
2.967444008632326 9.53842
2.9897678582247247 9.901639999999999
3.0120918213106695 10.7126
3.0343984987899373 10.4865
3.0567226913198637 11.1495
3.079029599759726 11.62
3.101354025127254 11.9472
3.123678568232338 12.5382
3.145985829517914 13.192
3.16831061055229 13.4561
3.1906181112775593 14.2959
3.212943133635653 14.7992
3.2352682779763207 15.1698
3.2575761442691227 15.6942
3.2799015350264273 15.8221
3.302209649240067 16.4144
3.3245352898092655 17.004
3.3468436553365257 17.6216
3.369169549113219 18.0796
3.3914955708171384 18.9645
3.413804319727358 19.452
3.4361305997334863 19.2307
3.4584396084414553 19.8182
3.4807661501462652 20.3266
3.503092824025881 20.9266
3.5254022288463154 21.4836
3.5477291695206588 21.7662
3.5700388426251948 22.6265
3.5923660534916446 24.1628
3.6146934007816114 36.0035
3.637003482731501 76.6103
3.6593311053109985 82.8064
3.681641464033634 50.0009
3.7039693653009733 29.5282
3.726297407241705 26.2729
3.7486081875460804 26.2497
3.7709365132734978 26.4076
3.793247578841633 26.6291
3.8155761917550093 27.1318
3.8378875459837216 27.6394
3.8602164494827234 28.0943
3.882545499606844 28.7279
3.9048572932539183 29.125999999999998
3.9271866390645718 29.3173
3.9494987298666713 30.1564
3.971828374764527 31.5332
3.9941581705403255 31.7711
4.016470713506008 32.0695
4.038800813471445 32.7897
4.061113662089144 33.4656
4.0834440696459176 34.1951
4.105774632334751 34.2811
4.128087945865126 34.9801
4.150418821249301 36.2675
4.172732448931298 37.7116
4.195063640413578 39.0802
4.2173775856475215 42.9086
4.239709096631102 68.831
4.262040768704612 199.79
4.284355196706267 261.244
4.306687193387355 171.611
4.329001947444346 74.1828
4.35133427213731 47.4549
4.373666762177566 44.8968
4.395982011761091 44.8494
4.418314834921175 46.0867
4.44063041906622 52.9149
4.4629635787515625 62.3855
4.4852969080429785 62.2047
4.5076130004776225 54.7254
4.529946671403969 52.2644
4.552263106909177 52.6937
4.574597122877047 53.2907
4.596931312711224 53.7397
4.619248269273446 54.4343
4.6415828092605835 55.5105
4.663900117405352 57.0355
4.686235010953232 58.4124
4.708552674085913 59.511
4.730887924602802 61.4623
4.753223354952695 62.8793
4.775541557023902 64.5446
4.797877349456786 65.8774
4.820195915032126 68.3669
4.842532072957498 69.1275
4.864868414979744 71.4126
4.88718753227192 74.2085
4.909524244902505 75.6935
4.931843734218147 77.8646
4.954180820867835 80.9985
4.976518095879839 84.1607
4.998838149695359 87.2338
5.021175803844231 91.2814
5.043496238205739 95.3798
5.065834274903528 101.26799999999999
5.088172504230693 107.448
5.1104935158799565 115.35600000000001
5.132832132875765 139.286
5.155153533596801 182.481
5.1774925416746225 242.665
5.199814334878411 557.091
5.2221537374521505 1521.99
5.244493338631803 3526.42
5.266815727034316 7283.05
5.289155727832427 11365.7
5.311478517248165 9162.62
5.333818921080011 3540.48
5.356159527788849 764.0260000000001
5.3784829252032536 227.847
5.400823940070432 162.75799999999998
5.423147747031976 140.303
5.445489173474152 127.37700000000001
5.467830807066149 120.391
5.490155234831516 115.72
5.512497285125229 111.53299999999999
5.534822130975162 108.863
5.557164601388673 106.447
5.579489868738879 103.359
5.601832762690846 102.304
5.6241758697774475 101.369
5.646501775867269 100.749
5.668845311622074 99.1039
5.691171647754637 98.1718
5.713515615597765 97.4045
5.735859800852677 96.5104
5.758186788542988 95.9942
5.780531411018185 96.3421
5.802858837297399 95.9316
5.825203900414495 95.9593
5.8475491852224 97.1069
5.869877275883075 97.7659
5.892223006467101 99.1639
5.914551544266608 101.098
5.936897724049891 105.613
5.959244129804903 114.54
5.981573344815301 148.237
6.0039202049061 297.025
6.026249875609095 633.7669999999999
6.04859719346037 1232.08
6.070927323278297 2276.45
6.093275102315365 4037.09
6.115623113320588 4797.76
6.137953938319995 3471.79
6.160302415650845 1208.37
6.182633708324452 292.884
6.2049826554078376 129.621
6.227331838745022 100.85
6.249663839443684 90.7032
6.27201349767565 86.4961
6.294345974611799 90.2076
6.316696111167083 98.3556
6.339046488263839 93.0262
6.361379686074702 80.2677
6.383730546639482 73.7396
6.406064229255215 71.3837
6.428415576718203 70.4795
6.450749747566656 69.5427
6.47310158535871 68.4129
6.495453669698332 67.0141
6.517788579421056 66.3558
6.540141159237969 65.404
6.562476565766648 65.2377
6.5848296444934045 64.7839
6.607182974060425 64.3544
6.6295191323281015 64.2329
6.651872965955752 66.3518
6.6742096296068985 86.6143
6.6965639707294615 123.07799999999999
6.71891856698715 123.514
6.741255995248479 88.9211
6.763611104154477 67.3921
6.785949046381137 61.5111
6.808304671371482 60.2785
6.8306605557940046 59.451
6.852999275508618 58.8681
6.875355681171544 58.6063
6.897694923437771 57.8497
6.92005185377892 57.9894
6.9423916220322655 57.8855
6.964749080490181 57.3576
6.987106804399774 57.261
7.009447368180821 57.2119
7.031805625367033 57.0435
7.054146723727803 56.8524
7.076505517631004 56.4788
7.098864581288365 56.6004
7.121206488070854 56.3086
7.143566093607822 56.2678
7.165908543567245 56.5854
7.188268694426048 56.6112
7.2106291193438095 56.7164
7.232972390625943 57.778
7.255333366030969 67.1682
7.277677189091925 108.97200000000001
7.300038718428332 148.144
7.322400526130865 127.556
7.344745183422596 84.1498
7.367107550224791 62.1979
7.389452767901992 57.3831
7.411815697249891 56.6262
7.434161478756298 55.7305
7.456524974096713 55.443000000000005
7.478888753837185 55.2055
7.501235387657368 55.9403
7.523599738562711 55.9418
7.545946944825532 56.2584
7.568311870344528 56.4621
7.5906770845765665 56.6384
7.613025156078678 58.0053
7.635390950099687 59.0868
7.657739602662809 58.3364
7.680105979923558 57.1919
7.702472650212829 57.6012
7.724822180948224 57.3093
7.747189439655568 57.3751
7.769539560075357 57.4708
7.791907410653562 57.948
7.81425812420825 58.0089
7.836626570110925 58.327
7.858995315087906 59.0021
7.881346924933401 59.1419
7.903716270417482 60.1964
7.926068482028405 60.5462
7.948438431475253 60.9009
7.9708086843180235 61.4075
7.993161805171116 62.0801
8.015532667162402 62.5256
8.037886398416653 63.777
8.060257873014221 63.9507
8.082629655331942 64.67
8.104984308787587 65.4272
8.127356708900503 68.4747
8.149711981398308 73.2747
8.172085002766314 75.7185
8.194458336181368 72.9903
8.216814543847752 71.1304
8.23918850371002 71.5122
8.26154533906492 72.2413
8.283919928836452 74.2597
8.306277395339652 75.4995
8.328652618483376 76.9636
8.351028159736202 78.8421
8.373386579575245 81.3192
8.395762759396959 83.605
8.418121819038275 88.3234
8.440498640894003 101.042
8.462875785192262 116.6
8.485235811156207 141.651
8.507613602688501 211.65200000000002
8.529974277114228 330.069
8.552352719347912 482.06199999999995
8.574731488360351 732.755
8.59709314210385 1157.73
8.619472567021075 1677.23
8.64183487789147 2125.79
8.664214962183097 1864.01
8.686577933647762 1085.78
8.708958680784317 444.54900000000004
8.731339760774953 186.571
8.753703729764451 119.34100000000001
8.77608547780821 104.602
8.798450116065078 100.163
8.820832535634787 96.2954
8.843215292401656 94.3278
8.865580941199045 93.0841
8.887964374703538 91.4695
8.910330701447199 92.0032
8.932714815164482 93.7299
8.955099270424924 92.8133
8.977466620733543 89.7848
8.999851761421976 87.7078
9.022219798361645 85.9567
9.04460562795561 86.1835
9.066991803441677 85.5747
9.089360876979615 85.2565
9.111747746589993 85.2653
9.13411751544971 84.5135
9.156505082664324 84.0992
9.178875550323522 84.4725
9.20126381862328 84.4448
9.223652438908596 84.7765
9.246023961427412 84.7501
9.26841328802173 84.7319
9.290785518039224 84.7612
9.313175554425882 85.78299999999999
9.335565947154315 85.6358
9.357939245086508 85.5459
9.380330352834827 85.8875
9.40270436697103 85.8402
9.425096193225055 85.5858
9.447488380180165 86.3763
9.469863475295412 86.4062
9.492256385987508 87.1652
9.514632206018318 87.6889
9.537025843935714 87.941
9.559402392368193 88.9826
9.581796761000229 90.7251
9.604191496441521 91.3213
9.626569144158516 94.2487
9.648964615551032 97.8201
9.671343000390081 99.7131
9.693739211225699 97.9935
9.716135793237463 95.6664
9.738515290448102 95.8495
9.760912617143402 97.1833
9.783292860202891 98.3429
9.805690935076182 99.954
9.828089385495742 101.038
9.850470754023561 103.695
9.872869957865444 110.37299999999999
9.89525208097539 123.36399999999999
9.917652041736662 135.36700000000002
9.940052382417589 140.138
9.962435644102392 163.626
9.984836746950979 220.813
10.007220771957746 304.14599999999996
10.029622640473708 422.671
10.052007432299963 600.2230000000001
10.074410069984072 848.6080000000001
10.096813093716005 1197.96
10.119199042482517 1612.85
10.141602840636468 1875.59
10.163989564971628 1685.8
10.186394141051062 1060.61
10.208799107559706 495.26
10.231187001965623 226.9
10.253592751657669 139.517
10.275981430388155 119.554
10.298387966769793 116.77600000000001
10.320794897965431 117.92200000000001
10.343184759907361 116.697
10.36559248305461 112.11
10.387983138083852 109.189
10.410391656691655 115.671
10.432800574501677 132.81
10.455192425893369 154.355
10.47760214443012 182.94
10.499994797678786 225.523
10.522405320453982 289.996
10.54479877906917 382.11800000000005
10.567210109595656 480.647
10.5896218454736 543.935
10.612016518879773 526.4540000000001
10.634429067781074 374.148
10.656824555333241 219.623
10.679237920773568 133.64
10.701651695961992 101.059
10.724048411481384 92.6707
10.746463008485165 89.4517
10.768860546937125 87.6024
10.791275969274796 85.5318
10.81369180576079 84.7454
10.836090585366925 83.4681
10.858507252467449 82.0501
10.88090686379991 81.1798
10.903324365036394 80.5043
10.925724811614439 80.2252
10.948143150509463 81.2121
10.970561909719066 80.3197
10.992963615930844 78.6852
11.015383218085756 76.8655
11.037785768347074 75.3127
11.06020621697282 74.8938
11.082627090322113 74.3204
11.105030913430326 73.5472
11.12745263854165 73.9279
11.149857314510728 76.3978
11.172279894912576 81.1211
11.194702904450653 81.7657
11.217108866490921 78.6759
11.239532736615194 74.6787
11.26193956033512 72.8519
11.284364294577085 71.8387
11.306789462371718 70.0748
11.329197585398376 69.2497
11.351623622610898 68.878
11.37403261614354 67.9128
11.396459526308487 67.843
11.418869393879497 67.3925
11.441297180532617 66.9486
11.463725406927658 66.7236
11.486136592353875 66.5764
11.508565700543707 66.7812
11.530977768845315 68.4305
11.553407762368774 68.8041
11.575838200059769 68.5949
11.598251599479612 67.0917
11.620682927815501 65.4735
11.64309721895548 65.4016
11.665529441478206 64.6274
11.687962112597958 64.5629
11.710377748130886 65.0762
11.732811318753434 64.7373
11.755227854859067 64.4863
11.777662328529495 64.4373
11.800079768750786 64.649
11.822515149015453 64.5525
11.844950984084935 64.6719
11.867369787303163 64.1432
11.889806534289491 64.4991
11.912226250487029 64.9529
11.934663912939751 64.8824
11.9571020346363 64.6948
11.979523127133968 64.8667
12.001962169624331 66.0397
12.024384183972964 68.2274
12.046824150809913 72.6378
12.069264581333726 79.0002
12.091687985297767 85.5961
12.11412934550045 95.0359
12.136553680195208 108.82799999999999
12.158995973632788 126.616
12.181438735204349 148.438
12.20386447284199 175.96
12.226308172985636 199.803
12.24873485024193 206.574
12.271179492516982 178.74599999999998
12.293607112949127 134.7
12.316052700916226 100.559
12.338498763250042 80.7944
12.360927805303868 71.7285
12.383374818673879 68.1512
12.405804812803074 66.2867
12.428252780773262 66.1363
12.45070122756722 66.3594
12.473132656675375 65.9415
12.49558206341869 65.9601
12.518014453510101 66.2672
12.540464823770117 66.3652
12.562915677315177 66.637
12.58534951575545 67.2547
12.607801338171472 68.8144
12.630236146511358 73.1252
12.652688941369085 77.0319
12.675124723177234 77.6224
12.697578494048786 75.0256
12.720032754458185 71.5862
12.742470003354093 70.0854
12.764925245138771 69.8381
12.787363476431278 69.9156
12.809819703166806 70.1843
12.83227642391173 71.1044
12.854716135692716 71.5263
12.877173846755147 72.9162
12.899614549869717 73.2909
12.9220732548287 74.1255
12.94453245827299 74.5986
12.966974655289818 75.8558
12.989434858002571 76.7615
13.011878055298721 77.6926
13.034339260862497 78.4646
13.056800969391883 79.7153
13.079245674017244 82.3912
13.101708390774869 86.1948
13.12415410463411 96.41799999999999
13.146617833206086 111.369
13.169064559883248 125.586
13.191529303857127 142.046
13.213994557076367 164.52599999999998
13.236442809902437 197.226
13.258909083908291 242.514
13.28135835851934 291.183
13.30382565690295 349.75300000000004
13.326293469022952 404.341
13.348744283242008 426.483
13.371213125129904 378.32199999999995
13.39366497011003 285.936
13.416134845360597 192.28
13.438605238843131 134.082
13.46105863690397 115.27
13.483530069144786 116.37100000000001
13.505984506951902 123.266
13.528456981549432 134.15200000000002
13.550929978879088 149.28
13.573385983253365 170.96400000000003
13.595860028340867 202.248
13.618317081455832 240.07
13.64079217790333 284.966
13.663250283359057 329.666
13.685726434770173 358.26199999999994
13.708203115221277 344.564
13.730662806148091 282.086
13.75314054697177 204.78900000000002
13.775601299246777 138.921
13.798080104050406 103.11200000000001
13.820559442405358 88.7825
13.843021793671388 84.6635
13.865502201420897 82.605
13.887965623051947 82.0813
13.910447103807167 81.1992
13.932929122629764 79.1936
13.955394156785959 78.9942
13.977877254034569 78.074
14.000343367582113 77.2881
14.022827546871707 76.5603
14.045294743423524 75.7881
14.06778000837062 75.1555
14.090265817715476 75.0555
14.112734645763819 74.7957
14.13522154619454 74.4741
14.157691466286913 74.5418
14.180179461423874 74.1907
14.202668005486178 73.2931
14.22513957064374 72.9497
14.247629214846473 72.516
14.270101881097517 72.3225
14.29259262906496 72.4436
14.315083930490205 72.9359
14.337558255389705 73.225
14.360050666019726 73.2166
14.382526101071944 72.3126
14.405019624534942 71.4136
14.427513705993134 70.9496
14.449990813291825 70.8301
14.47248601302899 70.8693
14.49496423954951 70.8022
14.517460561197822 71.042
14.539939910570322 70.7787
14.562437357763558 71.0968
14.58493536931253 71.9655
14.607416409993311 72.9129
14.62991555254159 73.8742
14.652397725157423 73.3759
14.674898002342799 73.0795
14.697398848433282 72.7292
14.719882725991326 73.8472
14.74238471217934 75.7711
14.764869730765593 80.6833
14.787372860692983 85.4905
14.809876564079925 90.2999
14.83236330125751 96.7735
14.854868153850365 105.73899999999999
14.877356041159485 117.984
14.899862046604186 133.303
14.922351087688757 152.721
14.944858249632887 174.50599999999997
14.967365991421232 198.87599999999998
14.989856770231246 216.297
15.012365673994204 219.37099999999998
15.03485761569738 195.979
15.05736768508665 157.474
15.07987833888692 121.984
15.102372032001655 95.1045
15.124883856909658 79.8919
15.14737872204565 74.9797
15.169891721717274 72.7569
15.192405310371893 72.5288
15.214901940621196 72.7675
15.237416709527137 72.6613
15.259914520936249 72.7042
15.282430473753607 71.9357
15.304947020131227 70.6692
15.327446610371178 69.8338
15.349964346154254 69.017
15.372465126703139 68.9098
15.394984055556009 68.3068
15.417486030076159 68.3611
15.44000615566487 68.2378
15.462526881230803 68.0276
15.485030653812652 68.1142
15.507552581617434 68.0116
15.530057557334603 68.1109
15.55258069104857 68.2104
15.575104429329837 68.3187
15.597611216864632 67.7992
15.620136166564563 68.475
15.6426441664095 70.4195
15.665170331202765 73.708
15.687697105158826 77.7215
15.710206930593545 81.7967
15.732734925158933 86.5642
15.755245972089478 92.7818
15.77777519094324 101.39399999999999
15.800287463046663 112.499
15.822817909869592 127.321
15.84534897229804 143.591
15.867863089299354 162.72899999999998
15.890395385222186 180.308
15.912910736597423 192.304
15.935444269699861 189.46900000000002
15.957978423016485 166.34599999999998
15.980495633101265 134.611
16.003031029129367 103.661
16.02554948280019 81.0136
16.048086125229432 70.3964
16.070623392487107 67.2505
16.09314371869582 66.2018
16.11568223789321 65.0815
16.13820381691126 64.2379
16.160743591742527 63.1329
16.183283996022084 62.3502
16.205807461423195 61.3653
16.228349126881973 60.7144
16.25087385432698 60.7643
16.27341678466365 60.1533
16.29594277784926 59.9827
16.31848697676433 60.0669
16.341031811604868 60.3018
16.36355971058487 60.5651
16.3861058195587 60.3693
16.40863499352978 59.2206
16.431182380342005 58.3846
16.453730407713202 57.8438
16.476261501364792 57.5202
16.498810812136167 57.1656
16.52134319004079 57.2871
16.54389378792203 57.2173
16.566445031001553 56.7971
16.588979342490088 56.8999
16.61153187824822 56.6362
16.634067483263312 56.5752
16.656621315414416 56.619
16.679175797408888 56.1922
16.701713349928728 56.3019
16.72426913389191 56.3516
16.74680798922351 56.3767
16.76936507887444 56.5
16.791905240734874 56.5163
16.814463639794468 56.533
16.837022695210294 56.3681
16.859564824093756 56.8129
16.882125194503903 57.3509
16.904668639217885 57.9175
16.927230328348003 58.0958
16.949792678493612 58.2998
16.972338104193863 57.6096
16.994901778652235 57.278
17.017448529496576 57.2806
17.040013531998152 57.6654
17.06257920018044 58.3653
17.0851279459922 59.5342
17.107694947817667 60.4474
17.130245028099072 61.4448
17.15281336730298 62.7944
17.17536478578733 64.4267
17.19793446610687 66.4141
17.220504818648422 69.0709
17.243058251703697 71.4367
17.265629950971032 74.71300000000001
17.288184731571736 78.5567
17.310757781306908 82.9162
17.33333150794385 85.0266
17.355888317140174 84.2198
17.37846339986244 80.7444
17.401021565958885 74.4671
17.42359800851343 68.6369
17.44617513265564 64.3615
17.468735341390783 62.1989
17.491261035594565 61.1375
17.51396340099364 60.666000000000004
17.536490463869136 60.876999999999995
17.559018209820174 60.9402
17.58154663977963 61.0648
17.604251766089718 61.0967
17.626781572227713 61.3383
17.64931206518155 61.7613
17.671843245885103 62.1941
17.69455114821572 62.2955
17.717083712612634 62.8014
17.739616967569667 62.903
17.762150914021706 63.0596
17.78486160749854 63.4185
17.807396945166804 64.1583
17.829932977143503 65.6216
17.85246970436452 67.9218
17.875183204129467 70.0523
17.897721330097664 72.2799
17.920260154126645 75.3448
17.942799677153296 78.685
17.9655159983646 82.0841
17.988056927677544 87.0948
18.010598558807683 93.6144
18.033140892692916 101.415
18.05586005052525 109.78200000000001
18.07840379824407 119.301
18.10094825154059 129.994
18.12366954819864 140.154
18.146215420998306 144.061
18.16876200220057 138.651
18.191309292745153 126.166
18.214033452627167 111.912
18.236582170236648 98.6845
18.259131600016456 91.2724
18.281681742907335 89.3272
18.304408781233683 91.4377
18.32696035875955 95.0419
18.349512652227624 99.1098
18.372065662579683 104.305
18.394795594587553 106.93700000000001
18.41735004715306 105.77799999999999
18.43990521943684 99.8109
18.46246111238171 91.3038
18.485193953325208 80.7773
18.507751296070428 72.9306
18.530309362314178 68.2443
18.552868153000343 65.4933
18.57560391815056 63.8827
18.59816416623245 63.7096
18.620725141597372 63.2666
18.643286845190268 62.7967
18.666025549835414 62.2295
18.688588718427933 61.5899
18.711152618092243 61.5365
18.73389353884365 61.1338
18.75645890921984 60.7692
18.77902501351406 60.4626
18.801591852673102 60.416000000000004
18.824335739722738 59.894
18.846904057212626 59.791000000000004
18.8694731124168 59.5959
18.89204290628315 59.7553
18.914789774966803 59.418
18.937361054791623 58.9751
18.959933076131318 58.6985
18.982505839934877 58.8689
19.00525570560582 58.9986
19.027829963004184 58.6313
19.05040496572238 58.9301
19.072980714710468 58.9628
19.095733592739563 59.3057
19.11831084296757 59.6427
19.140888842324735 60.1512
19.16346759176222 60.4708
19.18622349753803 61.011
19.208803755869358 62.0413
19.231384767143577 62.9208
19.253966532312948 64.2571
19.276725481241822 65.7155
19.29930876296784 67.4598
19.3218928014549 70.0856
19.34465404436217 72.7654
19.36723960516257 75.372
19.389825925592426 77.425
19.412413006605938 77.5055
19.43517731967805 74.9213
19.457765930683355 70.8976
19.48035530514408 66.289
19.50294544401556 62.1658
19.525712842708348 58.7909
19.54830451925909 57.2636
19.570896963095727 55.982
19.593490175174704 55.6609
19.616260674962184 55.5258
19.638855432416964 55.2573
19.661450960992624 55.5702
19.68404726164677 55.3399
19.706820878021247 55.0627
19.729418731756834 55.1548
19.752017360452857 54.9995
19.77461676506804 55.2096
19.797393513540218 55.6259
19.819994478951667 55.9899
19.84259622316767 56.3949
19.8651987471481 56.8238
19.887978643247177 57.2655
19.91058273574792 57.7992
19.933187610901943 58.2633
19.955969879466828 59.347
19.97857632894404 60.8109
20.00118356396599 62.1249
20.023791585494575 63.8851
20.046577028914875 66.0898
20.069186632506966 67.7607
20.091797025500632 69.7456
20.114408208858933 71.307
20.137196842715273 71.9452
20.159809615886765 71.2259
20.18242318232135 68.8325
20.20503754298326 66.454
20.227829382875154 64.3696
20.250445341109344 63.4398
20.27306209647285 63.6996
20.29567964993108 64.5602
20.31847471147704 65.5839
20.34109387027612 66.6587
20.363713830075454 66.9347
20.386334591841646 66.0838
20.409132890679302 63.7885
20.431755265564437 60.79
20.454378445325528 57.6405
20.477002430930366 55.4245
20.499803982716553 53.9427
20.522429589228004 53.0521
20.54505600449589 52.5567
20.567683229489194 52.4269
20.590488049900088 52.1869
20.61311690359731 51.9827
20.63574656993626 51.6651
20.658553853717297 51.3421
20.681185154618298 51.2794
20.703817271080066 51.1519
20.72645020407368 50.7552
20.749260783967177 50.6165
20.771895359337133 50.4366
20.794530754161617 50.4108
20.817166969412938 50.3693
20.83998086114876 50.2775
20.86261872660049 50.2258
20.885257415405402 50.2787
20.90789692853701 50.1214
20.930714147864748 50.0673
20.953355319030678 50.1825
20.97599731745334 50.3338
20.99864014410749 50.1298
21.021460706796564 50.3077
21.044105199328826 50.4584
21.06675052302631 50.7048
21.089396678865015 50.7223
21.112220600704806 51.0571
21.134868430275347 51.4186
21.15751709492456 51.4831
21.180166595629693 51.747
21.202993892429635 52.0675
21.22564507473034 52.4977
21.24829709602816 52.7515
21.27112693608965 52.9836
21.293780644891275 53.1238
21.316435195634053 52.5833
21.339090589297417 51.8269
21.361923832041875 51.5054
21.384580921090404 50.5857
21.407238856007325 50.1043
21.429897637773326 50.1058
21.45273429906592 49.9349
21.475394784108598 50.1116
21.498056118951983 49.8723
21.520718304578022 50.1282
21.543558400304388 50.3534
21.566222297108816 50.5368
21.58888704765135 50.574
21.61155265291521 51.0951
21.63439619898156 51.4997
21.657063523335786 51.7055
21.67973170537063 52.4352
21.7024007460706 52.9261
21.72524775840385 53.6708
21.747918526116475 54.5423
21.770590155457388 55.617
21.79326264741238 56.9783
21.816113141960237 58.4086
21.838787368860547 60.1416
21.861462461341976 61.7777
21.884315579735777 63.5872
21.90699241312273 65.149
21.92967011506078 66.479
21.95234868653799 66.6992
21.9752053151131 65.6135
21.997885635446785 63.9799
22.020566828293532 61.8803
22.04324889464272 59.6613
22.066109049404666 57.9895
22.088792872571794 57.3873
22.111477572219204 57.3166
22.1341631493376 57.4205
22.157026846313123 57.5446
22.179714188221507 57.1313
22.202402410582668 56.1799
22.22509151438863 54.7195
22.24795876962584 53.1399
22.270649646204486 52.3421
22.293341407213727 51.5832
22.316034053646906 50.9361
22.338904883215342 50.687
22.36159931041458 50.6557
22.38429462602756 50.4495
22.40699083104897 50.3688
22.429865251039757 50.3291
22.452563244831367 50.4103
22.47526213102522 50.3745
22.49813925616515 50.1924
22.520839937143307 50.178000000000004
22.543541513520587 50.2188
22.56624398629403 50.007
22.589124730075895 50.0781
22.611829005656723 50.3633
22.63453418063466 50.357
22.657240256008077 50.8057
22.680124634582935 50.8335
22.70283252079775 51.1165
22.725541310413075 51.2295
22.74825100442868 51.551
22.771139033969575 52.0775
22.79385054687155 52.3082
22.81656296718292 52.9916
22.83927629590484 53.6622
22.862167992606945 54.4824
22.88488314827121 55.2457
22.907599215359284 56.1247
22.93031619487366 57.0622
22.953211574954405 57.9799
22.975930389478226 58.933
22.998650119445763 59.4281
23.02137076586092 59.0573
23.044269845560063 58.1484
23.06699233506288 56.7127
23.089715744034912 54.6708
23.112617610931565 53.0178
23.135342869061212 51.7243
23.158069049684816 50.8728
23.1807961538087 50.4798
23.20370174880544 50.2402
23.226430710184808 50.4802
23.249160598093425 50.7887
23.271891413539002 50.8039
23.294800752937697 50.6161
23.31753343374794 50.7732
23.340267045128353 50.9234
23.36300158808808 51.3471
23.38591468821339 51.4992
23.408651104658304 52.1339
23.431388455719986 52.6297
23.454126742409 53.2347
23.4770436196085 54.0882
23.499783787914662 55.0527
23.522524894889884 55.7932
23.54526694154616 56.6266
23.56818761219047 57.6869
23.59093154860734 58.5288
23.613676427751283 59.1495
23.636422250635754 58.7881
23.659346731118656 57.68899999999999
23.68209445191868 55.9732
23.704843119509587 53.6429
23.72759273490623 51.5664
23.750521041644767 49.9336
23.77327256312355 48.777
23.796025035462787 48.0676
23.818956224555475 47.5753
23.841710609113413 47.5082
23.86446594758979 47.1464
23.887222241002014 46.9524
23.910157285144578 46.6382
23.932915498962537 46.7389
23.955674670778713 46.49100000000001
23.978434801611975 46.1906
24.001373717286125 46.1989
24.024135776723917 46.1123
24.046898798245582 45.9139
24.06966278287146 45.62
24.092605586582614 45.6434
24.115371508023642 45.5046
24.1381383956401 45.3351
24.16090625045381 45.2879
24.183852958731244 45.2761
24.206622758582608 45.3735
24.229393528706886 45.0069
24.252165270127392 45.0681
24.27511589952438 45.0966
24.297889594216997 44.95
24.32066426328598 44.6692
24.34343990775613 44.7705
24.36639447485003 44.5181
24.38917208083877 44.5467
24.41195066531332 44.3996
24.43490819850244 44.4016
24.457688750692377 44.2695
24.48047028445616 44.1862
24.503252800821233 44.2019
24.526214300784112 44.4472
24.548998793132213 44.3181
24.57178427117417 44.0861
24.59457073593893 44.2727
24.617536219319863 44.2879
24.64032466834748 44.2247
24.663114107195035 44.2019
24.685904536893013 43.8625
24.708874020360852 43.8125
24.731666442613744 43.8145
24.754459858818787 43.6486
24.777254270007962 43.6531
24.80022777025625 43.6227
24.82302418230472 43.593
24.845821592443674 43.5595
24.86862000170663 43.6129
24.891597535453727 43.3246
24.914397953892728 43.6626
24.93719937456671 43.5965
24.96000179851076 43.7515
24.98298338249997 43.8733
25.00578782394922 44.06100000000001
25.028593271784167 44.211000000000006
25.05157790644186 44.4385
25.07438537804115 44.5517
25.097193859145293 44.858000000000004
25.120003350792075 45.0961
25.142992065061257 45.3063
25.165803588823465 45.6216
25.18861612625217 45.9706
25.211429678386736 46.0101
25.234422489079968 46.0767
25.257238081693636 46.0083
25.280054692141732 46.0141
25.3028723214652 46.0402
25.325869245420463 46.0565
25.348688923599397 45.9881
25.371509623787006 46.0924
25.394331347025812 46.0459
25.41733240110666 45.8093
25.440156181590016 45.1789
25.46298098826268 44.4875
25.48580682216873 43.956
25.50881202326435 43.3454
25.53163992281684 42.7783
25.55446885274561 42.5983
25.577298814096377 42.1907
25.600308179121807 42.0875
25.623140214533745 42.1733
25.64597328451537 41.9619
25.66898578564376 41.836999999999996
25.691820936010206 41.8075
25.714657124097695 41.7579
25.737494350954734 41.7096
25.760511045684957 41.7793
25.783350361364224 41.81399999999999
25.806190718969255 41.8019
25.82903211955018 41.9533
25.852053024868923 41.8973
25.874896522722523 41.9063
25.897741066713106 41.8181
25.920586657892454 42.0168
25.943611790812668 42.123999999999995
25.966459487728237 42.1762
25.989308234998564 42.122
26.01215803367705 42.5063
26.03518741123814 42.6185
26.05803932412957 42.5992
26.080892291600094 42.5977
26.10374631470478 42.7424
26.12677995397268 42.9199
26.14963609978026 43.0486
26.172493304397875 42.772
26.19535156888223 42.5001
26.218389486949604 42.2403
26.241249882640123 42.1285
26.26411134137826 41.7299
26.28715248187403 41.6495
26.31001607820869 41.413000000000004
26.3328807407756 41.3189
26.35574647063438 41.385
26.37879191991473 41.3824
26.401659795896734 41.5242
26.424528742360263 41.6266
26.447398760366614 41.6708
26.470448535598294 41.7962
26.49332070826805 42.02
26.516193955675355 42.2547
26.53906827888316 42.342
26.562122397260108 42.537
26.584998883685063 42.6713
26.607876449110325 42.9469
26.63075509460056 43.1286
26.65381357334404 43.3246
26.67669439061878 43.3743
26.699576291163382 43.3171
26.722459276044212 43.3087
26.745522132402975 43.0323
26.768407297649354 42.6094
26.791293550442003 42.2104
26.814180891848974 41.9624
26.837248143099337 41.7684
26.860137673466657 41.621
26.88302829566349 41.3066
26.90592001075963 41.2669
26.92899167420566 41.2311
26.951885586870763 40.7757
26.974780595655517 40.5942
26.99785558178161 40.375
27.020752794605112 40.1663
27.043651106772522 39.9969
27.06655051935668 40.0622
27.089629948036183 39.9492
27.112531573292053 39.9448
27.135434302194138 39.8752
27.158338135817015 39.7626
27.181422024430987 39.8301
27.204328079372566 39.7275
27.22723524226965 39.8112
27.250143514198573 39.7547
27.273231880156334 39.711999999999996
27.296142382065014 39.5214
27.319053996245536 39.4761
27.341966723775965 39.5621
27.365059584515222 39.5793
27.38797455070062 39.6444
27.410890633481237 39.6153
27.433807833936918 39.5882
27.456905206923906 39.6472
27.47982465472398 39.5771
27.502745223449743 39.5114
27.525666914182825 39.8341
27.548768816912457 39.8551
27.571692763693633 39.5148
27.59461783573812 39.5239
27.617723149491244 39.4214
27.640650484125285 39.4131
27.66357894728264 39.3168
27.686508540048052 39.2239
27.709618414237887 39.2211
27.732550278321757 39.0811
27.755483275279115 39.0096
27.778417406196485 39.0731
27.801531858397514 39.1728
27.824468269376716 39.0187
27.847405817586786 38.9661
27.870344504116094 39.1069
27.893463551932008 39.1942
27.916404527281053 39.4349
27.93934664422563 39.5364
27.962289903855886 39.54
27.98541356491974 39.6675
28.00835912214229 39.7946
28.03130582533231 40.0749
28.054253675581805 40.2512
28.077381967556104 40.0601
28.100332124185126 40.2189
28.123283431160893 40.0526
28.146235889577238 39.9536
28.169368830154156 39.6952
28.192323603752033 39.628
28.215279532083304 39.3155
28.238415973016764 39.1019
28.261374223145094 39.0012
28.284333631303806 38.838
28.307294198589954 38.7633
28.330435319167677 38.3598
28.353398217078915 38.1356
28.376362277420153 37.8799
28.39932750129032 37.7222
28.422473319286713 37.5152
28.44544088262495 37.5418
28.468409612800283 37.3661
28.491379510913497 37.1722
28.51453004413313 36.9988
28.53750229057244 37.0212
28.56047570826344 36.96
28.583450298308804 37.006
28.606605564586562 36.6888
28.629582511831156 36.7845
28.65256063474956 36.6552
28.675539934446338 36.6781
28.698699951647605 36.72
28.72168161743193 36.5464
28.74466446331978 36.6151
28.767648490417624 36.6164
28.790813276438353 36.4357
28.813799678527303 36.5478
28.836787265157085 36.5093
28.859955641890075 36.5357
28.882945610203045 36.4856
28.905936766392035 36.4336
28.928929111566863 36.3926
28.952102288520145 36.4305
28.975097024308607 36.1631
28.998092952423807 36.0556
29.021090073977508 36.1108
29.04426806913204 35.9524
29.067267590245258 35.6739
29.090268308143695 35.6332
29.11327022394099 35.4793
29.13645305530891 35.483000000000004
29.159457379627167 35.4893
29.18246290519685 35.383
29.20546963313352 35.4269
29.22865731875826 35.2628
29.25166646419296 35.2383
29.27467681535305 35.1601
29.29768837335608 35.3105
29.320880931312562 35.2473
29.34389491580634 35.1471
29.366910110507334 35.2182
29.38992651653503 35.1021
29.41312396492981 35.205
29.436142806456754 35.0923
29.45916286268059 35.107
29.48236399319994 35.0074
29.50538649169417 34.8567
29.528410208259935 34.7145
29.55143514402014 34.5651
29.574641196749695 34.3979
29.597668583816574 34.263000000000005
29.6206971934585 34.0736
29.64372702680042 34.2384
29.666938019934474 34.0258
29.689970313635285 34.0261
29.713003834422636 34.0318
29.73603858342347 33.9829
29.759254535188578 33.9629
29.78229175361658 33.8453
29.80533020365064 33.8918
29.82836988641968 33.9025
29.85159081507472 33.8057
29.874632976355343 33.4702
29.89767637376955 33.7059
29.920721008448314 33.5921
29.9439469322847 33.5892
29.96699405457564 33.5378
29.9900424175358 33.639
30.013092022298157 33.4822
30.03632295963995 33.3349
30.059375061131373 33.4479
30.08242840783577 33.5206
30.105483000888153 33.4446
30.128718970092244 33.3662
30.151776069006917 33.2932
30.17483441768648 33.4053
30.198074175317235 33.3329
30.221135036724256 33.303000000000004
30.24419715131772 33.4078
30.267260520236203 33.2356
30.290505341942243 33.2812
30.313571232750228 33.2857
30.336638381310948 33.3292
30.35970678876503 33.1745
30.38295669299435 33.1756
30.40602763151657 33.2325
30.429099832366074 33.0971
30.452173296685572 32.9632
30.47542830191959 33.013000000000005
30.498504306502497 32.9006
30.521581577995562 33.0463
30.544660117543582 33.0668
30.56792024229725 33.1512
30.59100133132069 33.0905
30.614083691845494 33.1682
30.637167325018545 33.1694
30.660432587840603 33.1491
30.683518779717886 33.0841
30.70660624769615 33.093
30.729694992924372 33.1771
30.75296541239743 33.1133
30.77605672557558 33.0496
30.799149319462742 33.1378
30.8224236211637 32.9542
30.845518789950724 32.8951
30.868615242910597 32.7413
30.891712981195973 32.6361
30.91499247215866 32.5995
30.938092794619365 32.5098
30.96119440587579 32.4796
30.984297307082752 32.3724
31.00758200598383 32.2198
31.030687500658694 32.2215
31.053794288760695 32.0542
31.076902371446767 32.0378
31.100192296997445 32.1024
31.12330298246119 32.0198
31.14641496599209 31.8864
31.169528248749216 31.8715
31.19282341969534 31.8283
31.215939314557186 31.8941
31.239056512134788 31.9842
31.262175013589378 31.8181
31.28547544871168 31.9537
31.30859657161541 31.7439
31.331719001892175 31.8585
31.35484274070538 31.7791
31.378148458819545 31.7979
31.401274828443725 31.7799
31.424402510106933 31.793000000000003
31.447712205419993 31.8575
31.470842524931633 31.6281
31.493974159989783 31.6712
31.51710711176168 31.6968
31.54042212308802 31.6057
31.563557722100917 31.7494
31.586694641341655 31.628
31.609832881979628 31.384
31.63315322823208 31.3828
31.656294125521327 31.24
31.679436347728515 31.3094
31.70257989602529 31.1483
31.725905596152327 31.0749
31.74905181052835 30.9763
31.772199354521323 31.0979
31.79534822930507 31.1348
31.818679302290967 31.0668
31.84183085259981 30.9477
31.864983737233473 30.9172
31.88813795736804 31.0011
31.911474422233013 30.9777
31.934631327356435 31.0858
31.9577895715215 30.9357
31.980949155906522 30.99
32.004291031706956 30.9086
32.027453310562606 30.9016
32.05061693318573 30.7062
32.07396288236386 30.6694
32.09712920658542 30.6372
32.12029687812702 30.5936
32.14346589817093 30.3608
32.166817291729984 30.4499
32.18998902288583 30.3134
32.21316210610336 30.2268
32.23633654256711 30.1731
32.259693399663725 30.1458
32.282870556771144 30.1092
32.30604907069099 30.0052
32.329228942610065 29.9256
32.35259128243769 29.8808
32.375773884550505 29.9023
32.398957848235646 29.7877
32.422143174682176 29.7058
32.445511016471215 29.6432
32.468699082679954 29.6054
32.49188851523011 29.5224
32.51507931531304 29.4731
32.538452678331 29.3906
32.56164622776311 29.4024
32.58484114831493 29.1867
32.60803744118015 29.2915
32.631416344731896 29.3844
32.654615396551876 29.3863
32.67781582427913 29.3557
32.701198898634416 29.1653
32.72440209253756 29.119
32.747606665947124 29.1169
32.77081262006088 29.0808
32.79420126883317 29.0727
32.81740999876112 28.9669
32.840620112999424 28.8391
32.86383161274818 28.8362
32.88722585534586 28.895
32.91044014056596 28.8816
32.933655814909734 28.9031
32.95687287957963 28.8815
32.98027273544904 28.8101
33.00349259526636 28.7349
33.026713849030116 28.7442
33.04993649794511 28.7192
33.073341986570746 28.5879
33.09656744032826 28.5171
33.11979429286444 28.5717
33.14302254538647 28.6451
33.166433686291185 28.5453
33.18966475336992 28.4561
33.212897224069096 28.4806
33.23613109959831 28.3412
33.259547912343415 28.3434
33.2827846121627 28.4181
33.306022720453775 28.3983
33.32926223842861 28.2595
33.352684742614166 28.2951
33.37592709463173 28.2078
33.399170859982064 28.0512
33.422597648419426 27.94
33.44584425514446 27.9707
33.46909227885668 27.8945
33.4923417207723 27.8137
33.51577423505344 27.7744
33.539026528130385 27.6885
33.56228024307245 27.6991
33.585535381098246 27.5552
33.60897364093058 27.5428
33.63223163992385 27.5845
33.6554910656699 27.4703
33.678751919389796 27.4994
33.702195944520106 27.4149
33.72545966903325 27.3723
33.74872482519663 27.2752
33.771991414233746 27.2912
33.79544122444841 27.2594
33.81871069412428 27.1625
33.84198160035767 27.1574
33.86525394437455 27.1965
33.88870955949969 27.1082
33.911984794020626 27.0942
33.93526147001624 27.0175
33.958539588715006 26.9847
33.98200102861669 26.9696
34.0052820477047 26.8431
34.02856451319451 26.9226
34.05203033759056 26.7779
34.07531571090147 26.7406
34.09860253431845 26.6536
34.121890809074316 26.5655
34.145362493118924 26.612
34.16865368561615 26.6146
34.191946333164054 26.5927
34.21524043699793 26.5611
34.23871800066799 26.573
34.26201503218366 26.3273
34.28531352370466 26.3932
34.30861347646881 26.2694
34.33209693978188 26.2247
34.3553998301885 26.3259
34.378704185565205 26.1544
34.402010007152356 26.0873
34.42549939016683 26.087
34.44880815937748 26.0676
34.472118398533134 26.0218
34.49543010887669 25.9577
34.51892543169198 25.8768
34.54224009966052 25.9182
34.56555624255917 25.8874
34.58887386163339 25.8052
34.61237514439016 25.7622
34.6356957311114 25.7717
34.65901779775809 25.6889
34.68252356662995 25.6662
34.705848608458616 25.6252
34.72917513396849 25.5607
34.75250314440949 25.4913
34.77601490857862 25.4343
34.799345904259795 25.4329
34.82267838863559 25.4293
34.846012362958525 25.4654
34.869530142679984 25.3775
34.89286711232212 25.3
34.91620557568269 25.2936
34.93954553401677 25.2785
34.9630693495876 25.1796
34.986412313340814 25.2042
35.00975677584668 25.1194
35.033102738362956 25.0553
35.05663261012228 25.0396
35.0799815881786 25.1221
35.10333207003229 24.94
35.12668405694369 25.0112
35.150220005273056 24.9557
35.17357501786656 25.0047
35.19693153931268 24.8857
35.220289570874385 24.9052
35.24383161619786 24.9583
35.267192683604904 24.789
35.290555264930376 24.6961
35.314101899412165 24.7748
35.33746752422433 24.7337
35.36083466676374 24.73
35.38420332829803 24.6015
35.407756095629054 24.7236
35.43112781085063 24.6734
35.45450104888391 24.5494
35.477875810999194 24.6091
35.50143473172161 24.5457
35.52481255774625 24.5595
35.54819191167777 24.5139
35.57157279478914 24.444000000000003
35.595137889488406 24.424
35.61852184675279 24.4176
35.641907337029984 24.2708
35.665294361595684 24.2692
35.68886565090076 24.2081
35.7122557598848 24.1546
35.73564740699838 24.1624
35.759040593519934 24.1454
35.78261809810353 24.1942
35.80601437933051 24.0149
35.829412203814705 23.9096
35.85281157283719 23.8724
35.876395313415884 23.9895
35.8997977874528 23.8486
35.92320180988546 23.8767
35.946790244133936 23.86
35.97019737933222 23.894000000000002
35.993606066789866 23.8443
36.01701630779276 23.7773
36.04061101440684 23.6008
36.06402437852291 23.5995
36.08743930005611 23.6306
36.1108557802951 23.5714
36.13445678011326 23.5533
36.15787639383515 23.4732
36.18129757014299 23.4589
36.20472031032821 23.4066
36.22832762423364 23.340999999999998
36.25175350829375 23.3723
36.275180960119776 23.3106
36.298609981005924 23.4195
36.32222362992669 23.2995
36.34565580510207 23.3345
36.36908955323448 23.2633
36.39252487562093 23.1422
36.416144880530226 23.0717
36.43958336764275 23.0917
36.463023432914625 23.081
36.486465077645676 22.9531
36.51009145956204 23.0514
36.53353627947859 23.0215
36.55698268276811 23.0657
36.58043067073321 22.9641
36.60406345072071 22.8693
36.62751462435344 22.8308
36.65096738658405 22.8097
36.67460498210655 22.774
36.69806093788647 22.7457
36.72151848619297 22.7521
36.744977628333636 22.6833
36.76862165890998 22.5222
36.79208400512205 22.5775
36.81554794910557 22.6671
36.83901349217101 22.5152
36.862663978991606 22.4402
36.88613273667352 22.4208
36.90960309738324 22.4454
36.933075062434064 22.4011
36.95673202673572 22.3756
36.98020721697122 22.2785
37.003684015502365 22.2421
37.027162423645365 22.1526
37.050825886711465 22.186999999999998
37.07430753063053 22.0807
37.09779078812467 22.0951
37.121275660513014 22.1051
37.144945643673694 22.0839
37.16843376245278 21.9635
37.19192350009803 22.0025
37.215414857931435 21.9944
37.239091382563885 21.878
37.262585997426164 21.889
37.28608223645736 21.9215
37.309763684451696 21.7902
37.33326318851098 21.826999999999998
37.356764320726555 21.8162
37.380267082425526 21.7656
37.40395510942588 21.7196
37.42746114683234 21.6636
37.45096881771841 21.6482
37.474478123414166 21.5601
37.49817275092816 21.569000000000003
37.52168534303452 21.569000000000003
37.54519957395567 21.43
37.568715445024665 21.445
37.592416694607714 21.3831
37.61593586281424 21.453000000000003
37.63945667518264 21.3615
37.66297913304891 21.3006
37.68668702630454 21.2973
37.710212792059274 21.2232
37.733740207334854 21.1986
37.757269273470364 21.1856
37.780983832050374 21.103
37.80451621684926 21.1155
37.82805025654007 21.0633
37.851585952464795 20.9854
37.8753071980695 20.9744
37.89884622345676 20.9831
37.92238690911902 20.9142
37.94611318753442 20.8959
37.969657210779765 20.840999999999998
37.99320289834801 20.8683
38.016750251586465 20.7404
38.04048325513017 20.6927
38.06403395679343 20.7038
38.087586328183946 20.6685
38.11114037065203 20.6794
38.13488012115898 20.6496
38.1584375229181 20.6155
38.181996599821 20.5004
38.205557353221124 20.4883
38.229303872575656 20.4887
38.2528679961576 20.5113
38.27643380031219 20.5137
38.30000128639589 20.4103
38.32375459653193 20.352999999999998
38.34732546371299 20.317
38.37089801690786 20.3061
38.39447225747609 20.2685
38.418232380377425 20.2666
38.441810012983396 20.27
38.46538933705673 20.2004
38.488970353960084 20.1792
38.51273731166058 20.137
38.536321731567014 20.0994
38.55990784840681 20.0116
38.58367995004091 20.0755
38.60726947812959 20.0097
38.63086070726198 19.935
38.654453638806274 19.9824
38.678232613930824 19.8854
38.70182896773327 19.8557
38.72542702806741 19.746
38.7490267963045 19.7718
38.77281266709232 19.7515
38.79641586862214 19.7467
38.8200207821842 19.7352
38.843627409152944 19.7195
38.86742019782782 19.7006
38.891030269149255 19.6074
38.914642058016156 19.5947
38.938255565806124 19.4823
38.96205529464307 19.5353
38.98567225787121 19.5167
39.00929094417078 19.5126
39.03291135492255 19.4767
39.05671804624804 19.4411
39.080341923549106 19.3983
39.103967529460334 19.3589
39.127594865365744 19.2598
39.15140854155791 19.2537
39.17503935514948 19.2271
39.19867190290282 19.1696
39.22249083587951 19.2213
39.24612686969409 19.2467
39.269764641845306 19.1662
39.293404153722804 19.1153
39.317230110864074 19.0836
39.34087311998506 19.0412
39.36451787301696 19.0581
39.388164371352595 18.9107
39.41199737518003 18.9318
39.43564738196752 18.88
39.45929913825317 18.9219
39.48295264543308 18.8908
39.506792718520884 18.8514
39.530449745387216 18.7817
39.55410852735203 18.7311
39.57776906581474 18.7938
39.60161623079 18.7214
39.625280300200025 18.7485
39.64894613032202 18.6329
39.67261372255866 18.5914
39.6964680021016 18.6056
39.72013913657293 18.5846
39.74381203738292 18.5819
39.76748670593756 18.4521
39.79134812278169 18.4728
39.81502634488497 18.4296
39.83870633896685 18.373
39.862388106436654 18.31
39.88625668336918 18.3106
39.90994201572829 18.2965
39.933629125719285 18.2417
39.957503091207826 18.2804
39.9811937746168 18.2404
40.00488623990914 18.1918
40.02858048850006 18.1458
40.05246165409549 18.1734
40.076159487492085 18.1125
40.099859108448875 18.1421
40.123560518384345 18.0394
40.1474489070226 18.052
40.171153913178564 18.0044
40.194860712584955 17.9814
40.2185693066637 17.9465
40.242464941335314 17.8801
40.26617714307655 17.9123
40.289891143772046 17.877
40.3136069448471 17.8613
40.33750984859743 17.8677
40.3612292688043 17.7392
40.3849504936829 17.7453
40.40867352466194 17.7824
40.43258372059144 17.6955
40.45631038219906 17.6783
40.48003885420956 17.5881
40.503769138055105 17.6303
40.52768664931955 17.5945
40.55142057531802 17.5533
40.57515631746428 17.4843
40.599079334038514 17.5112
40.62281872700477 17.3863
40.64655994043941 17.4611
40.67030297578061 17.3966
40.69423334835778 17.3805
40.71798004609188 17.4097
40.74172857006355 17.3043
40.76547892171441 17.3045
40.7894166736039 17.227
40.813170699248566 17.2386
40.83692655691388 17.2205
40.86068424804498 17.2306
40.884629402612525 17.1759
40.908390779366385 17.1534
40.932153993938 17.1557
40.95591904777605 17.1061
40.979871628443995 17.083
41.003640379561936 17.0297
41.02741097430883 16.9961
41.05118341413683 17.0156
41.075143444384416 16.9983
41.098919593177826 17.0084
41.1226975914255 16.8778
41.14647744058318 16.8434
41.170444943946755 16.8163
41.19422851378379 16.8448
41.218013938914645 16.7787
41.24198706625173 16.7582
41.26577622087193 16.7532
41.289567235177785 16.7367
41.31336011063129 16.6502
41.337340752422875 16.554000000000002
41.361137369129835 16.5907
41.38493585138705 16.5871
41.40873620066004 16.5798
41.43272438060107 16.496
41.45652848292052 16.4728
41.48033445666918 16.4148
41.50414230331616 16.4215
41.528138045159764 16.3958
41.551949656675205 16.3687
41.575763145513235 16.3224
41.59957851314666 16.3458
41.62358184070442 16.2814
41.64740098505737 16.2843
41.6712220126409 16.209
41.69504492493139 16.2263
41.71905586207357 16.2223
41.74288256296395 16.1651
41.766711153007456 16.1559
41.79054163368412 16.1338
41.814560204340054 16.0972
41.838394485526365 16.0902
41.86223066180303 16.0398
41.88625497706819 16.0098
41.910094962812 15.9652
41.93393684811168 15.958
41.95778063445365 15.8935
41.981812625263366 15.8716
42.00566023303407 15.8666
42.029509746323676 15.8519
42.05336116662236 15.7988
42.077400857069705 15.8248
42.10125611078846 15.7794
42.12511327600405 15.7212
42.14897235421036 15.7507
42.173019768448455 15.6735
42.19688269209613 15.6056
42.22074753323349 15.6785
42.24461429335818 15.6453
42.268669455600495 15.5531
42.292540073217886 15.5114
42.31641261433284 15.5545
42.34028708044675 15.5229
42.36435001496739 15.4787
42.38822835065557 15.3764
42.41210861586426 15.4343
42.4359908120986 15.4159
42.46006154323262 15.3479
42.48394762115317 15.3129
42.507835634632315 15.3158
42.531912233047436 15.3185
42.55580413732265 15.2804
42.579697981698 15.258
42.60359376768525 15.1827
42.62767820545945 15.1923
42.65157789440821 15.1452
42.67547952952185 15.1242
42.699383112316 15.1317
42.72347541395347 15.0751
42.74738291190531 15.0173
42.771292362102166 15.0106
42.795203766063516 14.9847
42.819303956130405 14.9418
42.843219287476536 14.9796
42.86713657716324 14.9463
42.89105582671383 14.8491
42.91516392983864 14.8763
42.939087119032166 14.8408
42.963012272677304 14.8875
42.98693939230129 14.7998
43.01105543317513 14.7447
43.034986504731386 14.7392
43.05891954686589 14.6965
43.08285456110972 14.7513
43.10697856448665 14.7203
43.130917542983475 14.6691
43.15485849820081 14.6467
43.17880143167367 14.614
43.20293342237094 14.5797
43.226880332449 14.515999999999998
43.25082922540554 14.5591
43.27496722682525 14.5117
43.29892010567796 14.5281
43.32287497204102 14.4445
43.34683182745632 14.3846
43.370977859791836 14.4415
43.39493871351105 14.3818
43.41890156092628 14.4091
43.44286640358341 14.3569
43.46702049182749 14.332
43.49098934522816 14.3117
43.51496019852649 14.3134
43.5389330532723 14.2572
43.56309522248204 14.1842
43.58707210044314 14.1999
43.61105098451946 14.1105
43.63503187626491 14.142999999999999
43.659202151562134 14.1345
43.68318707902681 14.0914
43.70717401884041 14.0871
43.731162972560874 14.0295
43.75534137913236 14.0301
43.779334381108384 13.9801
43.803329401683186 13.97
43.82732644241872 13.9655
43.8515130055166 13.9023
43.87551410707659 13.8531
43.89951723350145 13.8782
43.923709934595614 13.8945
43.94771713129917 13.8301
43.97172635758096 13.7767
43.99573761501002 13.6991
44.0199385169922 13.6656
44.04395385732619 13.6988
44.067971233533086 13.7265
44.09199064718605 13.6918
44.11619977548961 13.610999999999999
44.14022328470671 13.6189
44.16424883610785 13.6914
44.18827643127035 13.5962
44.21249381139513 13.5625
44.236525514814076 13.5838
44.26055926674478 13.5207
44.28459506876863 13.5501
44.3088207262813 13.4709
44.33286064928722 13.3987
44.35690262714919 13.4148
44.38094666145278 13.4301
44.4051806219871 13.4012
44.42922879003185 13.397
44.45327901929361 13.3492
44.477331311362136 13.2949
44.501573600619416 13.2174
44.525630039221795 13.2462
44.54968854541895 13.2438
44.573937102200176 13.2392
44.5979997645541 13.1721
44.622064499300315 13.1388
44.64613130803592 13.2139
44.67038823869318 13.1178
44.69445921643748 13.0803
44.718532272981385 13.0821
44.742607409926194 13.0857
44.76687274034801 13.0877
44.79095205918753 13.0214
44.81503346325094 12.9841
44.839116954143876 12.9388
44.86339071028742 12.8886
44.88747839599524 12.8732
44.91156817336837 12.8489
44.93566004401666 12.8999
44.959942251908146 12.8506
44.984038330325966 12.8038
45.00813650686762 12.7987
45.03223678314731 12.7693
45.05652746888232 12.7129
45.08063196592069 12.7225
45.104738567558705 12.7007
45.128847275414856 12.6802
45.15314646515866 12.6395
45.17725940679741 12.6041
45.20137445952892 12.604000000000001
45.22568004865265 12.5962
45.24979934496396 12.5564
45.27392075725247 12.5266
45.29804428714431 12.5374
45.322358426247604 12.5267
45.346486212804315 12.4795
45.370616121861914 12.4617
45.39474815505086 12.4246
45.41907087049246 12.4081
45.4432071734666 12.3811
45.46734560548283 12.3526
45.49148616817604 12.3448
45.51581748638564 12.3468
45.5399623320197 12.3384
45.56410931325473 12.2663
45.58825843173002 12.2784
45.61259837920865 12.2295
45.636751793816 12.2529
45.66090735060093 12.2041
45.68506505120716 12.2083
45.7094136545275 12.1381
45.73357566449271 12.1195
45.75773982322992 12.0832
45.78190613238733 12.0826
45.806263418194064 12.0258
45.83043404997326 12.0456
45.85460683713677 12.0211
45.87897065658495 12.0442
45.90314777634752 12.0025
45.92732705646868 11.9407
45.9515084986045 11.9301
45.97588104735473 11.8907
46.00006683541565 11.8987
46.02425479047904 11.886
46.04844491420549 11.8472
46.0728262191024 11.8215
46.09702070211635 11.8215
46.12121735879483 11.7851
46.14541619080294 11.7826
46.169806278764455 11.7532
46.194009483459034 11.7157
46.21821486849841 11.6909
46.24242243555223 11.675
46.266821333570014 11.6681
46.29103328674601 11.6679
46.31524742696538 11.6325
46.33946375590237 11.5929
46.36387149104216 11.6041
46.38809221957392 11.5472
46.41231514186606 11.5667
46.436540259597464 11.544
46.460956858999374 11.5202
46.48518638983522 11.4903
46.509418121166966 11.4353
46.533652054678114 11.4517
46.55807754555709 11.4279
46.58231590571962 11.4348
46.60655647313217 11.3609
46.630988654873654 11.3239
46.655233659129024 11.318
46.67948087571551 11.2907
46.70373030632484 11.2668
46.72817142736393 11.2898
46.752425308428684 11.2308
46.77668140861147 11.2086
46.80093972960865 11.155999999999999
46.82538981736788 11.1591
46.849652602470904 11.1608
46.87391761349769 11.1468
46.8981848521493 11.1017
46.9226439341274 11.0664
46.946915650573224 11.0318
46.97118959976749 11.0288
46.99546578341598 11.0301
47.019933887188216 10.9908
47.04421456235744 10.9883
47.06849747711879 10.9398
47.09278263318286 10.9449
47.11725978640143 10.9281
47.14154944775105 10.8944
47.165841355555656 10.8979
47.1901355115306 10.8618
47.214621741924994 10.8756
47.23892041698887 10.8346
47.26322134538975 10.8391
47.28771440635075 10.7616
47.31201986422527 10.7567
47.33632758061436 10.7359
47.360637557241866 10.7386
47.38513974410611 10.7227
47.40945426407847 10.6875
47.43377104948137 10.6867
47.45809010204344 10.6485
47.48260144275502 10.6153
47.506925052572285 10.6199
47.53125093475548 10.5813
47.55557909103813 10.5633
47.58009961361992 10.5076
47.60443234110732 10.5181
47.62876734791564 10.5144
47.65310463578333 10.5067
47.6776343683373 10.4709
47.7019762413987 10.4284
47.72632040075572 10.460999999999999
47.75066684815169 10.4298
47.77520581885936 10.4099
47.799556865477655 10.3701
47.823910205386 10.3872
47.84826584033272 10.3806
47.87281407745551 10.2926
47.89717432569297 10.2923
47.92153687423484 10.3049
47.94609208429692 10.2876
47.97045925671401 10.2471
47.99482873471275 10.2036
48.01920052005013 10.2087
48.04376504619224 10.1792
48.068141469543484 10.1808
48.09252020552573 10.1923
48.11690125590099 10.1202
48.1414751266064 10.1561
48.16586082917454 10.1068
48.19024885144316 10.0853
48.2146391951793 10.044
48.239222439012764 10.0672
48.26361744916137 10.0345
48.28801478610016 10.0544
48.31241445160131 10.0412
48.337007097209366 9.97846
48.36141144338331 9.96533
48.38581812345755 9.949060000000001
48.41022713920929 9.95452
48.434829215320704 9.87433
48.45924292604658 9.88625
48.48365897780325 9.92286
48.50807737237308 9.9039
48.532688907799276 9.86475
48.55711201168574 9.792860000000001
48.581537463754074 9.80317
48.60615611725119 9.78383
48.63058628942721 9.76238
48.65501881516546 9.766010000000001
48.6794536962573 9.70813
48.70408185970339 9.72514
48.72852147531801 9.68498
48.75296345168211 9.68095
48.77740779059232 9.67251
48.80204549302823 9.67448
48.82649458091802 9.6476
48.85094603676547 9.60573
48.87539986237231 9.58382
48.90004713292306 9.54632
48.92450572200832 9.566
48.94896668628025 9.501669999999999
48.97343002754588 9.49564
48.99808689542115 9.48807
49.02255501470614 9.459769999999999
49.04702551642794 9.45118
49.0714984023988 9.42618
49.096164896893235 9.42482
49.120642575466796 9.39039
49.145122643748394 9.381310000000001
49.16960510355558 9.37513
49.19428125404938 9.379380000000001
49.2187685210852 9.369710000000001
49.243258185121555 9.319289999999999
49.26794160167084 9.29367
49.2924360839405 9.27759
49.31693296869764 9.20573
49.34143225776915 9.21538
49.36612538195438 9.17742
49.39062950396021 9.20151
49.41513603578346 9.15967
49.4396449792564 9.17004
49.46434784069503 9.19159
49.488861631846454 9.11008
49.513377840166804 9.12021
49.537896467493745 9.10977
49.56260909589029 9.03032
49.587132585683285 9.06836
49.611658500018365 9.05187
49.636186840738596 9.0304
49.66090926588511 9.01886
49.685442483902584 8.98568
49.70997813385706 8.939960000000001
49.734516217597076 8.96712
49.75924846937352 8.95725
49.7837914452858 8.94458
49.80833686055187 8.87808
49.83288471702571 8.8754
49.85762682540054 8.8857
49.882179588965734 8.84532
49.9067347993235 8.84807
49.93129245833333 8.80749
49.95604445336378 8.83106
49.98060703442832 8.80509
50.005172069746266 8.754430000000001
50.02993150438364 8.77759
50.05450147301533 8.74593
50.07907390151433 8.75005
50.10364879174981 8.715689999999999
50.12841816587289 8.66051
50.1529980044635 8.68342
50.17758031042124 8.65123
50.20216508562089 8.61253
50.22694442953363 8.62882
50.25153416817468 8.61107
50.27612638170508 8.59719
50.300721072005196 8.54398
50.325510416102105 8.55236
50.350110084975064 8.527239999999999
50.37471223628208 8.50201
50.39931687190919 8.515360000000001
50.424116246675766 8.519110000000001
50.44872587605249 8.49233
50.47333799543065 8.46875
50.49795260670191 8.43233
50.52276204271512 8.41751
50.54738166295838 8.39637
50.57200378079314 8.37343
50.596628398116835 8.33482
50.62144792604559 8.33953
50.646077567609396 8.29984
50.670709714377715 8.33527
50.69553683636198 8.30915
50.72017401885922 8.337819999999999
50.7448137122895 8.29058
50.76945591856022 8.28774
50.79429318636823 8.25526
50.818940443716784 8.24808
50.84359021965163 8.2523
50.868242516085964 8.24511
50.893089960641895 8.1943
50.917747323549435 8.178889999999999
50.94240721271973 8.19432
50.96706963007175 8.18982
50.99192728239342 8.1334
51.01659478166073 8.12374
51.04126481489051 8.08714
51.06593738400761 8.099310000000001
51.090805275207074 8.052589999999999
51.11548294172845 8.069519999999999
51.14016314993547 8.00959
51.164845901758845 7.9774199999999995
51.18972406304274 7.99419
51.21441192780656 7.988910000000001
51.23910234200271 7.9981800000000005
51.2637953075678 7.959110000000001
51.288683770237945 7.90809
51.31338186432707 7.89186
51.33808251561888 7.88108
51.362978729967345 7.86645
51.387684521509755 7.8684
51.41239287610203 7.85981
51.437103795691165 7.83667
51.46201036644977 7.80535
51.486726441956634 7.799519999999999
51.51144508832545 7.78395
51.536166307509156 7.75212
51.56108326624387 7.731139999999999
51.58580965706056 7.736669999999999
51.61053862657523 7.7413300000000005
51.635270176746864 7.67245
51.66019755512065 7.68265
51.68493429268881 7.67806
51.70967361681515 7.6719800000000005
51.73441552946465 7.62185
51.759353359237934 7.639480000000001
51.7841004750961 7.618360000000001
51.80885018539685 7.57735
51.833602492111254 7.589460000000001
51.8585508051424 7.5679300000000005
51.883308330926425 7.50975
51.90806845906181 7.511839999999999
51.932831191525715 7.49708
51.95779001977161 7.466080000000001
51.98255798721516 7.50208
52.00732856494335 7.46243
52.03229530577543 7.42523
52.057071130455945 7.402410000000001
52.081849571391054 7.42174
52.106630630568695 7.415489999999999
52.13160794279417 7.38932
52.15639426492067 7.41035
52.18118321127822 7.33553
52.205974783860896 7.31885
52.23096269971011 7.3147899999999995
52.255759551287994 7.288130000000001
52.280559035098186 7.336110000000001
52.30536115314103 7.31613
52.33035970494467 7.2687800000000005
52.35516711807904 7.269019999999999
52.37997717147198 7.261660000000001
52.40478986713005 7.231789999999999
52.42979908731974 7.20689
52.454617094216 7.14111
52.47943774942214 7.137110000000001
52.50426105495102 7.1512
52.529280976059844 7.13284
52.554109609024096 7.11152
52.57894089837482 7.09408
52.60377484613117 7.092969999999999
52.62880550079408 7.11142
52.65364479223379 7.079160000000001
52.67848674816189 7.04997
52.70352547971946 7.0244
52.72837279155837 7.05468
52.753222773982785 7.008030000000001
52.778075429022984 7.025689999999999
52.80312495150885 6.990489999999999
52.827982978797436 6.98412
52.85284368481815 6.98073
52.87770707160767 6.955419999999999
52.90276741793998 6.90675
52.92763619336701 6.895569999999999
52.952507655698504 6.883839999999999
52.977381806977576 6.868189999999999
53.00245301017842 6.841589999999999
53.02733256653592 6.85474
53.052214817996074 6.83533
53.077099766608484 6.842289999999999
53.102181859804446 6.795669999999999
53.127072229988265 6.817660000000001
53.15196530349892 6.767939999999999
53.17686108239249 6.741789999999999
53.20195409881522 6.72915
53.22685531582556 6.72668
53.25175924441303 6.73004
53.27666588664027 6.72703
53.30176985962693 6.6852100000000005
53.3266819565689 6.64721
53.35159677336455 6.72049
53.376514312083096 6.69308
53.40162927507703 6.615239999999999
53.42655228516116 6.59858
53.45147802340193 6.58224
53.47660125628886 6.583130000000001
53.50153247842639 6.57028
53.52646643496923 6.57125
53.55140312799818 6.55998
53.576537409691696 6.54703
53.60147960336152 6.54539
53.626424539786164 6.504980000000001
53.65137222105307 6.50665
53.67651758529126 6.52706
53.70147078399681 6.48798
53.72642673383343 6.41985
53.75138543689533 6.416930000000001
53.776541917524526 6.43302
53.801506154876755 6.40163
53.826473151763246 6.4210199999999995
53.851442910284916 6.36952
53.87661054126026 6.33645
53.9015858509782 6.32178
53.92656392866066 6.330509999999999
53.95154477641532 6.30702
53.976723591801296 6.3154
54.00171000771266 6.31338
54.02669920004598 6.29546
54.051691170915745 6.27997
54.076881204886796 6.27294
54.101878760928514 6.25209
54.12687910187696 6.21365
54.152077577768296 6.2154
54.1770835166946 6.2175199999999995
54.20209224691339 6.19959
54.22710377055121 6.14286
54.25231352511594 6.15716
54.27733066384342 6.154059999999999
54.30235060239643 6.12148
54.32737334290836 6.10037
54.35259441062629 6.06695
54.377622783395324 6.05705
54.40265396455061 6.03199
54.42768795623251 6.04197
54.45292037169559 6.00477
54.477960012857906 6.01237
54.50300247099511 5.99134
54.52804774825457 5.93511
54.55329154616743 5.9139
54.57834249018678 5.9448
54.6033962597977 5.9173599999999995
54.6284528571545 5.88362
54.653708072335164 5.82779
54.67877035378786 5.872240000000001
54.70383546947698 5.82289
54.72890342156389 5.8080300000000005
54.7541700889442 5.71805
54.77924374251975 5.764069999999999
54.8043202390049 5.7375300000000005
54.82959552413022 5.67071
54.8546777351945 5.693980000000001
54.87976279569621 5.6810599999999996
54.90485070780914 5.70399
54.930137506558005 5.64403
54.95523115074295 5.5650699999999995
54.98032765308844 5.605
55.005427015775496 5.620340000000001
55.03072536339621 5.6316
55.05583047570572 5.56343
55.080938454927676 5.53261
55.10604930325027 5.51238
55.131359235107396 5.49758
55.15647585066083 5.46256
55.181595341907496 5.4839
55.20671771104285 5.41084
55.232039262617704 5.44139
55.25716741665048 5.33327
55.28229845518636 5.35326
55.30743238042802 5.2596099999999995
55.33276558731939 5.31406
55.357905315183636 5.30145
55.383047936390035 5.22626
55.40819345314859 5.16945
55.433538351073295 5.1842
55.458689688238415 5.184019999999999
55.483843927614096 5.12408
55.509197623043605 5.16643
55.53435769621134 5.11895
55.55952067826466 5.05387
55.5846865714265 5.05893
55.61005202069737 5.01558
55.63522376553902 4.98424
55.66039842818645 4.9433
55.68557601087004 4.94189
55.7109532500271 4.93731
55.73613670233794 4.921530000000001
