TT I
1.2716486653135266 7.51509
1.2939594142134223 7.06745
1.3162702121660406 6.4015
1.3385810600174564 6.6816
1.3608919586137629 6.50186
1.383202908801069 6.22467
1.405513911425503 5.371659999999999
1.4278249673332093 6.33254
1.4501343378461518 6.36506
1.4724455028545926 6.08057
1.4947567236847858 6.2727
1.517068001182951 6.31251
1.5393793361953272 5.99239
1.5616907295681737 5.64016
1.5840021821477681 4.91254
1.60631369478041 4.83186
1.6286252683124185 5.46845
1.6509369035901333 5.06114
1.6732468618895553 5.3692
1.695558623192809 5.4701699999999995
1.7178704487808514 4.97398
1.7401823395001077 5.08758
1.7625012545597203 4.8973
1.7848028405262486 5.38234
1.8071218901122095 5.93241
1.8294236121921872 5.2872
1.8517427996910911 5.15665
1.8740620574440425 5.2438199999999995
1.8963639900671978 5.07567
1.9186833908139995 4.71301
1.9409854680117449 5.360580000000001
1.9633050151394713 4.88892
1.9856246367570705 4.36682
2.0079269371922672 4.699730000000001
2.03024671027244 4.57397
2.0525491637446027 4.93053
2.074869091674931 4.71506
2.097171701569106 4.664
2.1194917877373847 5.04738
2.141811954326636 5.1045300000000005
2.164114805233074 5.35896
2.186435135143035 5.786580000000001
2.208738150935709 14.2533
2.231058647554722 28.6968
2.2533792288321184 22.3339
2.275682498336085 10.7941
2.298003251406138 6.43153
2.3203066942619714 5.59117
2.3426276225136022 5.59417
2.3649486396617507 6.04014
2.387252348930071 6.37148
2.4095735463442893 5.84282
2.4318774374315884 5.85499
2.4541988185014043 6.30759
2.476502894794693 6.90636
2.498824462909887 6.80055
2.521146125856138 6.680510000000001
2.5434504863470337 6.95517
2.5657723414244717 7.57405
2.588076895590662 7.8886
2.610398946189713 7.756410000000001
2.6327210958598384 7.8677
2.6550259469304716 7.561160000000001
2.6773482972090137 7.41896
2.6996533504259 7.35428
2.7219759047039602 7.39164
2.744298562293959 8.10988
2.7666039251246595 8.03531
2.7889267918020164 8.15807
2.8112323652516555 7.648689999999999
2.833555444408179 7.7796899999999996
2.8558786311183852 8.27161
2.8781845268938557 8.60557
2.9005079311721484 9.10962
2.9228140460410397 8.63294
2.9451376712799635 9.251610000000001
2.967444008632326 9.49468
2.9897678582247247 9.790460000000001
3.0120918213106695 10.3877
3.0343984987899373 10.9287
3.0567226913198637 11.1601
3.079029599759726 11.2305
3.101354025127254 12.3465
3.123678568232338 12.9995
3.145985829517914 12.607999999999999
3.16831061055229 13.3362
3.1906181112775593 14.3074
3.212943133635653 14.6548
3.2352682779763207 15.190999999999999
3.2575761442691227 15.5908
3.2799015350264273 15.9117
3.302209649240067 16.7468
3.3245352898092655 16.9392
3.3468436553365257 17.3821
3.369169549113219 17.9613
3.3914955708171384 18.8916
3.413804319727358 18.8485
3.4361305997334863 19.2949
3.4584396084414553 20.3013
3.4807661501462652 20.6783
3.503092824025881 20.901999999999997
3.5254022288463154 21.2253
3.5477291695206588 21.9005
3.5700388426251948 22.5234
3.5923660534916446 24.5934
3.6146934007816114 39.67
3.637003482731501 90.8288
3.6593311053109985 101.676
3.681641464033634 57.619
3.7039693653009733 30.9701
3.726297407241705 26.2209
3.7486081875460804 25.463
3.7709365132734978 25.9528
3.793247578841633 26.9593
3.8155761917550093 26.8974
3.8378875459837216 27.2007
3.8602164494827234 27.8547
3.882545499606844 28.706
3.9048572932539183 29.0161
3.9271866390645718 29.7185
3.9494987298666713 30.3358
3.971828374764527 31.0042
3.9941581705403255 31.0546
4.016470713506008 31.592
4.038800813471445 32.4871
4.061113662089144 32.7951
4.0834440696459176 33.5292
4.105774632334751 33.9152
4.128087945865126 34.8085
4.150418821249301 35.9782
4.172732448931298 37.3384
4.195063640413578 39.126999999999995
4.2173775856475215 43.7622
4.239709096631102 76.0318
4.262040768704612 242.40400000000002
4.284355196706267 324.824
4.306687193387355 209.63
4.329001947444346 82.3642
4.35133427213731 48.8399
4.373666762177566 45.0601
4.395982011761091 44.6903
4.418314834921175 46.3212
4.44063041906622 54.1878
4.4629635787515625 65.3543
4.4852969080429785 65.0542
4.5076130004776225 54.7504
4.529946671403969 50.6307
4.552263106909177 50.1856
4.574597122877047 51.4036
4.596931312711224 52.5787
4.619248269273446 53.6676
4.6415828092605835 54.8376
4.663900117405352 55.8407
4.686235010953232 57.3222
4.708552674085913 58.6332
4.730887924602802 59.8596
4.753223354952695 61.1531
4.775541557023902 62.8055
4.797877349456786 64.4265
4.820195915032126 66.2912
4.842532072957498 67.6112
4.864868414979744 69.862
4.88718753227192 71.8363
4.909524244902505 73.5214
4.931843734218147 75.5535
4.954180820867835 78.1813
4.976518095879839 80.5669
4.998838149695359 83.9069
5.021175803844231 87.4433
5.043496238205739 90.4928
5.065834274903528 94.4512
5.088172504230693 99.5476
5.1104935158799565 106.62899999999999
5.132832132875765 129.82
5.155153533596801 173.239
5.1774925416746225 208.497
5.199814334878411 353.921
5.2221537374521505 1005.07
5.244493338631803 2934.11
5.266815727034316 7515.79
5.289155727832427 12621.1
5.311478517248165 8799.54
5.333818921080011 3001.59
5.356159527788849 614.181
5.3784829252032536 194.857
5.400823940070432 147.404
5.423147747031976 130.967
5.445489173474152 120.54899999999999
5.467830807066149 114.79799999999999
5.490155234831516 110.56
5.512497285125229 106.86200000000001
5.534822130975162 105.29799999999999
5.557164601388673 102.69
5.579489868738879 99.7929
5.601832762690846 98.8076
5.6241758697774475 97.9677
5.646501775867269 97.3445
5.668845311622074 95.9187
5.691171647754637 95.0869
5.713515615597765 93.758
5.735859800852677 92.8695
5.758186788542988 92.1885
5.780531411018185 92.4096
5.802858837297399 91.3855
5.825203900414495 91.5702
5.8475491852224 91.8393
5.869877275883075 92.54299999999999
5.892223006467101 93.6711
5.914551544266608 94.6149
5.936897724049891 97.1609
5.959244129804903 102.681
5.981573344815301 119.773
6.0039202049061 205.14
6.026249875609095 456.533
6.04859719346037 976.8389999999999
6.070927323278297 2183.3
6.093275102315365 4331.32
6.115623113320588 5257.62
6.137953938319995 3482.81
6.160302415650845 1071.48
6.182633708324452 252.733
6.2049826554078376 118.74
6.227331838745022 94.6042
6.249663839443684 86.6391
6.27201349767565 83.9729
6.294345974611799 90.0539
6.316696111167083 101.40100000000001
6.339046488263839 95.6283
6.361379686074702 80.7531
6.383730546639482 72.5546
6.406064229255215 69.4455
6.428415576718203 68.7594
6.450749747566656 68.0655
6.47310158535871 66.955
6.495453669698332 66.4841
6.517788579421056 65.4311
6.540141159237969 64.3454
6.562476565766648 63.8814
6.5848296444934045 63.3052
6.607182974060425 63.0739
6.6295191323281015 63.1458
6.651872965955752 67.0147
6.6742096296068985 93.8726
6.6965639707294615 140.916
6.71891856698715 141.701
6.741255995248479 96.0829
6.763611104154477 68.6812
6.785949046381137 60.9779
6.808304671371482 58.781000000000006
6.8306605557940046 58.2955
6.852999275508618 57.6626
6.875355681171544 57.6235
6.897694923437771 57.063
6.92005185377892 56.7554
6.9423916220322655 57.1934
6.964749080490181 56.3216
6.987106804399774 56.1368
7.009447368180821 56.3614
7.031805625367033 55.8907
7.054146723727803 56.0909
7.076505517631004 55.876000000000005
7.098864581288365 55.8238
7.121206488070854 55.5881
7.143566093607822 55.2044
7.165908543567245 55.6144
7.188268694426048 55.3133
7.2106291193438095 55.5883
7.232972390625943 57.294
7.255333366030969 70.7452
7.277677189091925 128.037
7.300038718428332 176.34599999999998
7.322400526130865 147.589
7.344745183422596 90.1461
7.367107550224791 62.6817
7.389452767901992 56.9806
7.411815697249891 55.9931
7.434161478756298 54.7562
7.456524974096713 54.7434
7.478888753837185 54.8982
7.501235387657368 55.3
7.523599738562711 55.2026
7.545946944825532 55.3932
7.568311870344528 55.7706
7.5906770845765665 55.9799
7.613025156078678 57.5986
7.635390950099687 58.5975
7.657739602662809 57.4343
7.680105979923558 56.2465
7.702472650212829 56.4114
7.724822180948224 56.3963
7.747189439655568 56.4819
7.769539560075357 56.543
7.791907410653562 56.906000000000006
7.81425812420825 56.6095
7.836626570110925 57.188
7.858995315087906 58.2392
7.881346924933401 58.1762
7.903716270417482 58.8644
7.926068482028405 58.8548
7.948438431475253 59.7896
7.9708086843180235 60.4491
7.993161805171116 61.1809
8.015532667162402 61.1852
8.037886398416653 62.0202
8.060257873014221 62.787
8.082629655331942 63.3933
8.104984308787587 64.3935
8.127356708900503 68.0295
8.149711981398308 73.6956
8.172085002766314 75.7953
8.194458336181368 72.6841
8.216814543847752 70.1878
8.23918850371002 70.0876
8.26154533906492 70.4882
8.283919928836452 72.0497
8.306277395339652 72.7065
8.328652618483376 74.2951
8.351028159736202 76.66199999999999
8.373386579575245 78.6943
8.395762759396959 80.828
8.418121819038275 85.4277
8.440498640894003 99.6211
8.462875785192262 113.669
8.485235811156207 124.427
8.507613602688501 162.836
8.529974277114228 249.44099999999997
8.552352719347912 389.195
8.574731488360351 655.528
8.59709314210385 1189.68
8.619472567021075 1852.56
8.64183487789147 2192.05
8.664214962183097 1794.9
8.686577933647762 993.205
8.708958680784317 403.483
8.731339760774953 173.762
8.753703729764451 114.595
8.77608547780821 100.4
8.798450116065078 96.4783
8.820832535634787 93.2941
8.843215292401656 91.8053
8.865580941199045 90.1956
8.887964374703538 88.9608
8.910330701447199 90.2577
8.932714815164482 93.0958
8.955099270424924 91.882
8.977466620733543 88.3109
8.999851761421976 85.9649
9.022219798361645 84.21799999999999
9.04460562795561 83.5236
9.066991803441677 83.52799999999999
9.089360876979615 83.4643
9.111747746589993 82.896
9.13411751544971 82.8726
9.156505082664324 82.6064
9.178875550323522 82.5874
9.20126381862328 83.0082
9.223652438908596 83.1792
9.246023961427412 82.9789
9.26841328802173 82.3149
9.290785518039224 82.2032
9.313175554425882 83.0297
9.335565947154315 83.0113
9.357939245086508 83.2411
9.380330352834827 83.221
9.40270436697103 83.71600000000001
9.425096193225055 83.2994
9.447488380180165 84.2766
9.469863475295412 84.6243
9.492256385987508 84.9946
9.514632206018318 85.6339
9.537025843935714 85.9229
9.559402392368193 86.4672
9.581796761000229 87.4897
9.604191496441521 88.4724
9.626569144158516 92.5204
9.648964615551032 97.2152
9.671343000390081 98.9792
9.693739211225699 96.5919
9.716135793237463 93.9175
9.738515290448102 93.4883
9.760912617143402 94.7628
9.783292860202891 95.6418
9.805690935076182 97.0256
9.828089385495742 97.7255
9.850470754023561 100.419
9.872869957865444 108.149
9.89525208097539 124.15100000000001
9.917652041736662 136.88
9.940052382417589 136.03799999999998
9.962435644102392 140.914
9.984836746950979 174.696
10.007220771957746 236.921
10.029622640473708 340.208
10.052007432299963 519.328
10.074410069984072 824.1110000000001
10.096813093716005 1256.02
10.119199042482517 1724.51
10.141602840636468 1895.41
10.163989564971628 1584.32
10.186394141051062 933.217
10.208799107559706 419.356
10.231187001965623 196.334
10.253592751657669 129.125
10.275981430388155 114.897
10.298387966769793 113.97
10.320794897965431 116.24700000000001
10.343184759907361 114.941
10.36559248305461 109.76700000000001
10.387983138083852 105.605
10.410391656691655 107.584
10.432800574501677 117.53299999999999
10.455192425893369 134.012
10.47760214443012 160.244
10.499994797678786 204.956
10.522405320453982 283.096
10.54479877906917 399.199
10.567210109595656 501.52
10.5896218454736 567.6669999999999
10.612016518879773 494.93800000000005
10.634429067781074 343.76
10.656824555333241 205.195
10.679237920773568 126.48200000000001
10.701651695961992 97.2517
10.724048411481384 90.2163
10.746463008485165 87.0984
10.768860546937125 85.0761
10.791275969274796 83.6237
10.81369180576079 82.7587
10.836090585366925 81.6912
10.858507252467449 80.5403
10.88090686379991 79.2575
10.903324365036394 78.9611
10.925724811614439 78.8637
10.948143150509463 80.0806
10.970561909719066 79.5234
10.992963615930844 77.553
11.015383218085756 75.2673
11.037785768347074 73.9176
11.06020621697282 73.45
11.082627090322113 72.8821
11.105030913430326 72.4738
11.12745263854165 73.3046
11.149857314510728 76.7406
11.172279894912576 83.1219
11.194702904450653 83.2867
11.217108866490921 79.4321
11.239532736615194 74.7229
11.26193956033512 72.6032
11.284364294577085 70.8712
11.306789462371718 68.9303
11.329197585398376 67.7163
11.351623622610898 67.4731
11.37403261614354 66.5433
11.396459526308487 66.4627
11.418869393879497 66.146
11.441297180532617 65.7431
11.463725406927658 65.2944
11.486136592353875 65.1518
11.508565700543707 65.8879
11.530977768845315 67.8725
11.553407762368774 68.7594
11.575838200059769 67.8178
11.598251599479612 65.9558
11.620682927815501 64.5931
11.64309721895548 63.9712
11.665529441478206 63.4053
11.687962112597958 63.3888
11.710377748130886 63.3759
11.732811318753434 63.3111
11.755227854859067 63.3934
11.777662328529495 63.2683
11.800079768750786 63.0033
11.822515149015453 62.9519
11.844950984084935 62.923
11.867369787303163 62.7326
11.889806534289491 62.7003
11.912226250487029 63.092
11.934663912939751 63.3248
11.9571020346363 63.3022
11.979523127133968 63.3372
12.001962169624331 63.858999999999995
12.024384183972964 64.8665
12.046824150809913 67.7139
12.069264581333726 73.1278
12.091687985297767 79.3693
12.11412934550045 88.8842
12.136553680195208 103.977
12.158995973632788 126.67299999999999
12.181438735204349 154.46
12.20386447284199 182.521
12.226308172985636 201.17700000000002
12.24873485024193 197.34599999999998
12.271179492516982 167.783
12.293607112949127 131.27700000000002
12.316052700916226 98.1249
12.338498763250042 80.3205
12.360927805303868 71.0138
12.383374818673879 67.2121
12.405804812803074 65.1886
12.428252780773262 64.8953
12.45070122756722 64.7375
12.473132656675375 64.5573
12.49558206341869 64.7085
12.518014453510101 64.8652
12.540464823770117 65.1278
12.562915677315177 65.1491
12.58534951575545 65.8852
12.607801338171472 68.2862
12.630236146511358 73.48
12.652688941369085 78.6582
12.675124723177234 78.536
12.697578494048786 74.8039
12.720032754458185 70.1476
12.742470003354093 68.32300000000001
12.764925245138771 68.078
12.787363476431278 68.3403
12.809819703166806 68.9364
12.83227642391173 69.417
12.854716135692716 69.9169
12.877173846755147 71.0376
12.899614549869717 71.3347
12.9220732548287 72.0769
12.94453245827299 72.5008
12.966974655289818 73.5888
12.989434858002571 74.2007
13.011878055298721 75.3184
13.034339260862497 76.2865
13.056800969391883 77.1292
13.079245674017244 79.2346
13.101708390774869 81.2408
13.12415410463411 87.9103
13.146617833206086 99.1975
13.169064559883248 111.52799999999999
13.191529303857127 126.853
13.213994557076367 149.47299999999998
13.236442809902437 185.826
13.258909083908291 239.54
13.28135835851934 302.393
13.30382565690295 366.046
13.326293469022952 413.906
13.348744283242008 419.369
13.371213125129904 362.835
13.39366497011003 271.18
13.416134845360597 180.65099999999998
13.438605238843131 127.95
13.46105863690397 107.36200000000001
13.483530069144786 105.80799999999999
13.505984506951902 110.99799999999999
13.528456981549432 120.98200000000001
13.550929978879088 135.643
13.573385983253365 159.898
13.595860028340867 198.007
13.618317081455832 249.65200000000002
13.64079217790333 302.51099999999997
13.663250283359057 345.392
13.685726434770173 365.902
13.708203115221277 339.358
13.730662806148091 265.195
13.75314054697177 192.11
13.775601299246777 132.422
13.798080104050406 99.9866
13.820559442405358 86.4367
13.843021793671388 82.6707
13.865502201420897 80.8879
13.887965623051947 80.3087
13.910447103807167 79.0768
13.932929122629764 77.7431
13.955394156785959 77.2426
13.977877254034569 76.3028
14.000343367582113 75.2709
14.022827546871707 74.7247
14.045294743423524 73.9011
14.06778000837062 73.5677
14.090265817715476 73.4296
14.112734645763819 73.1663
14.13522154619454 73.0664
14.157691466286913 72.9072
14.180179461423874 72.7547
14.202668005486178 72.0941
14.22513957064374 71.1951
14.247629214846473 70.6582
14.270101881097517 70.562
14.29259262906496 71.055
14.315083930490205 71.7732
14.337558255389705 72.1504
14.360050666019726 71.7311
14.382526101071944 70.7104
14.405019624534942 69.5359
14.427513705993134 69.1978
14.449990813291825 69.1442
14.47248601302899 69.0577
14.49496423954951 69.0442
14.517460561197822 69.111
14.539939910570322 68.8563
14.562437357763558 69.2156
14.58493536931253 70.6135
14.607416409993311 71.47
14.62991555254159 72.2067
14.652397725157423 72.15899999999999
14.674898002342799 71.6095
14.697398848433282 71.0685
14.719882725991326 71.2467
14.74238471217934 72.0136
14.764869730765593 75.1005
14.787372860692983 78.7381
14.809876564079925 83.3577
14.83236330125751 88.9674
14.854868153850365 97.5758
14.877356041159485 111.365
14.899862046604186 130.086
14.922351087688757 154.504
14.944858249632887 181.303
14.967365991421232 205.39
14.989856770231246 216.60299999999998
15.012365673994204 214.908
15.03485761569738 187.237
15.05736768508665 151.092
15.07987833888692 117.149
15.102372032001655 92.9835
15.124883856909658 78.4592
15.14737872204565 73.0673
15.169891721717274 71.1529
15.192405310371893 70.923
15.214901940621196 71.51100000000001
15.237416709527137 71.6538
15.259914520936249 71.5582
15.282430473753607 70.6594
15.304947020131227 69.4771
15.327446610371178 68.5676
15.349964346154254 67.55
15.372465126703139 67.1973
15.394984055556009 67.02199999999999
15.417486030076159 66.6517
15.44000615566487 66.6477
15.462526881230803 66.2194
15.485030653812652 66.5855
15.507552581617434 66.6536
15.530057557334603 66.703
15.55258069104857 66.4692
15.575104429329837 66.6535
15.597611216864632 66.3167
15.620136166564563 66.0917
15.6426441664095 67.1389
15.665170331202765 69.12899999999999
15.687697105158826 72.1816
15.710206930593545 75.8376
15.732734925158933 79.8647
15.755245972089478 85.9419
15.77777519094324 95.4433
15.800287463046663 108.361
15.822817909869592 126.541
15.84534897229804 147.362
15.867863089299354 168.731
15.890395385222186 184.452
15.912910736597423 191.02
15.935444269699861 180.362
15.957978423016485 155.572
15.980495633101265 125.475
16.003031029129367 98.3921
16.02554948280019 78.5885
16.048086125229432 69.0288
16.070623392487107 65.9996
16.09314371869582 65.0383
16.11568223789321 64.2472
16.13820381691126 63.0836
16.160743591742527 62.1299
16.183283996022084 61.1966
16.205807461423195 60.0073
16.228349126881973 59.5738
16.25087385432698 59.3775
16.27341678466365 58.9728
16.29594277784926 58.7337
16.31848697676433 59.0343
16.341031811604868 59.4619
16.36355971058487 59.7415
16.3861058195587 59.448
16.40863499352978 58.1556
16.431182380342005 57.3622
16.453730407713202 56.6492
16.476261501364792 56.1309
16.498810812136167 55.7399
16.52134319004079 56.0228
16.54389378792203 55.7857
16.566445031001553 55.6578
16.588979342490088 55.3536
16.61153187824822 55.4209
16.634067483263312 55.2926
16.656621315414416 55.2373
16.679175797408888 54.9364
16.701713349928728 54.9477
16.72426913389191 55.2361
16.74680798922351 55.3153
16.76936507887444 55.2238
16.791905240734874 55.2953
16.814463639794468 55.3223
16.837022695210294 55.3845
16.859564824093756 55.8131
16.882125194503903 56.47
16.904668639217885 57.1764
16.927230328348003 57.2005
16.949792678493612 57.2675
16.972338104193863 56.7143
16.994901778652235 56.0224
17.017448529496576 56.108000000000004
17.040013531998152 56.2234
17.06257920018044 56.6275
17.0851279459922 57.3234
17.107694947817667 58.0303
17.130245028099072 58.7917
17.15281336730298 60.2036
17.17536478578733 62.1724
17.19793446610687 64.3279
17.220504818648422 67.3138
17.243058251703697 70.5013
17.265629950971032 74.6407
17.288184731571736 78.8248
17.310757781306908 82.2331
17.33333150794385 83.6021
17.355888317140174 82.6764
17.37846339986244 78.4979
17.401021565958885 72.8353
17.42359800851343 67.4609
17.44617513265564 63.3201
17.468735341390783 60.8593
17.491261035594565 59.7298
17.51396340099364 59.4538
17.536490463869136 59.3796
17.559018209820174 59.455
17.58154663977963 59.5344
17.604251766089718 59.6447
17.626781572227713 59.8863
17.64931206518155 60.2171
17.671843245885103 60.751999999999995
17.69455114821572 60.9868
17.717083712612634 61.233999999999995
17.739616967569667 61.5203
17.762150914021706 61.7131
17.78486160749854 61.5162
17.807396945166804 62.1933
17.829932977143503 62.861999999999995
17.85246970436452 64.2944
17.875183204129467 66.4784
17.897721330097664 68.5829
17.920260154126645 70.9363
17.942799677153296 73.8935
17.9655159983646 77.5472
17.988056927677544 82.9779
18.010598558807683 90.5711
18.033140892692916 100.381
18.05586005052525 111.005
18.07840379824407 121.462
18.10094825154059 132.10399999999998
18.12366954819864 138.205
18.146215420998306 138.72899999999998
18.16876200220057 131.093
18.191309292745153 118.522
18.214033452627167 105.036
18.236582170236648 93.7994
18.259131600016456 87.9881
18.281681742907335 87.5091
18.304408781233683 91.0147
18.32696035875955 95.5735
18.349512652227624 100.094
18.372065662579683 104.58
18.394795594587553 105.615
18.41735004715306 103.10700000000001
18.43990521943684 97.0052
18.46246111238171 88.1786
18.485193953325208 78.6413
18.507751296070428 71.2701
18.530309362314178 67.0347
18.552868153000343 64.2171
18.57560391815056 62.6636
18.59816416623245 62.0403
18.620725141597372 61.7229
18.643286845190268 61.1987
18.666025549835414 60.9316
18.688588718427933 60.2562
18.711152618092243 60.0341
18.73389353884365 59.6461
18.75645890921984 59.2492
18.77902501351406 58.9451
18.801591852673102 58.9045
18.824335739722738 58.4639
18.846904057212626 58.3992
18.8694731124168 57.9811
18.89204290628315 57.8781
18.914789774966803 57.7849
18.937361054791623 57.4862
18.959933076131318 57.3217
18.982505839934877 57.3441
19.00525570560582 57.445
19.027829963004184 57.33
19.05040496572238 57.39
19.072980714710468 57.4136
19.095733592739563 57.5541
19.11831084296757 57.7928
19.140888842324735 58.2014
19.16346759176222 58.5393
19.18622349753803 58.966
19.208803755869358 59.9422
19.231384767143577 60.7237
19.253966532312948 62.3639
19.276725481241822 64.5506
19.29930876296784 67.1426
19.3218928014549 69.9586
19.34465404436217 73.0296
19.36723960516257 75.2451
19.389825925592426 76.36399999999999
19.412413006605938 75.3533
19.43517731967805 72.6796
19.457765930683355 68.3259
19.48035530514408 64.18
19.50294544401556 60.2516
19.525712842708348 57.3685
19.54830451925909 55.7295
19.570896963095727 54.5689
19.593490175174704 54.216
19.616260674962184 54.3107
19.638855432416964 53.9483
19.661450960992624 54.0323
19.68404726164677 54.0396
19.706820878021247 53.6191
19.729418731756834 53.922
19.752017360452857 53.6196
19.77461676506804 53.6047
19.797393513540218 53.7239
19.819994478951667 54.1928
19.84259622316767 54.853
19.8651987471481 55.0331
19.887978643247177 55.3874
19.91058273574792 55.7578
19.933187610901943 56.4778
19.955969879466828 57.8307
19.97857632894404 59.1421
20.00118356396599 60.5647
20.023791585494575 62.6783
20.046577028914875 65.3346
20.069186632506966 67.1775
20.091797025500632 69.1127
20.114408208858933 69.8609
20.137196842715273 69.5658
20.159809615886765 68.3171
20.18242318232135 65.9687
20.20503754298326 64.0733
20.227829382875154 62.881
20.250445341109344 62.6575
20.27306209647285 63.1874
20.29567964993108 64.3458
20.31847471147704 65.3003
20.34109387027612 66.0076
20.363713830075454 65.7914
20.386334591841646 64.3074
20.409132890679302 62.1141
20.431755265564437 58.946000000000005
20.454378445325528 56.2561
20.477002430930366 54.2268
20.499803982716553 52.9592
20.522429589228004 52.1282
20.54505600449589 51.5883
20.567683229489194 51.2172
20.590488049900088 50.803000000000004
20.61311690359731 50.6221
20.63574656993626 50.4455
20.658553853717297 50.0688
20.681185154618298 50.1146
20.703817271080066 49.8293
20.72645020407368 49.4127
20.749260783967177 49.3588
20.771895359337133 49.4864
20.794530754161617 49.2558
20.817166969412938 49.1548
20.83998086114876 49.1669
20.86261872660049 49.0242
20.885257415405402 49.028999999999996
20.90789692853701 48.802
20.930714147864748 48.8601
20.953355319030678 48.883
20.97599731745334 48.9423
20.99864014410749 48.8095
21.021460706796564 48.8781
21.044105199328826 49.1129
21.06675052302631 49.3112
21.089396678865015 49.3802
21.112220600704806 49.7569
21.134868430275347 50.0267
21.15751709492456 50.32899999999999
21.180166595629693 50.6177
21.202993892429635 51.0872
21.22564507473034 51.3763
21.24829709602816 51.5537
21.27112693608965 51.5765
21.293780644891275 51.6266
21.316435195634053 50.9212
21.339090589297417 50.3346
21.361923832041875 49.8979
21.384580921090404 49.2943
21.407238856007325 48.9755
21.429897637773326 48.7417
21.45273429906592 48.6775
21.475394784108598 48.6947
21.498056118951983 48.6588
21.520718304578022 49.0045
21.543558400304388 48.8154
21.566222297108816 49.1456
21.58888704765135 49.0698
21.61155265291521 49.4397
21.63439619898156 49.9855
21.657063523335786 50.2141
21.67973170537063 50.5173
21.7024007460706 51.1901
21.72524775840385 51.7694
21.747918526116475 52.84
21.770590155457388 54.2344
21.79326264741238 55.6603
21.816113141960237 57.586999999999996
21.838787368860547 59.4014
21.861462461341976 60.9703
21.884315579735777 62.7172
21.90699241312273 64.0245
21.92967011506078 64.7382
21.95234868653799 64.4276
21.9752053151131 63.6119
21.997885635446785 62.0356
22.020566828293532 60.0826
22.04324889464272 58.5403
22.066109049404666 57.0013
22.088792872571794 56.5273
22.111477572219204 56.4698
22.1341631493376 56.2738
22.157026846313123 55.9634
22.179714188221507 55.452
22.202402410582668 54.4034
22.22509151438863 53.1264
22.24795876962584 51.9603
22.270649646204486 50.8305
22.293341407213727 50.2554
22.316034053646906 49.773999999999994
22.338904883215342 49.3806
22.36159931041458 49.2577
22.38429462602756 49.3574
22.40699083104897 49.1292
22.429865251039757 49.2899
22.452563244831367 49.2038
22.47526213102522 49.2255
22.49813925616515 49.0343
22.520839937143307 48.9178
22.543541513520587 48.9599
22.56624398629403 48.7833
22.589124730075895 48.6828
22.611829005656723 48.7966
22.63453418063466 48.7783
22.657240256008077 49.0956
22.680124634582935 49.1559
22.70283252079775 49.4127
22.725541310413075 49.7353
22.74825100442868 50.0607
22.771139033969575 50.4739
22.79385054687155 50.8214
22.81656296718292 51.2421
22.83927629590484 52.3513
22.862167992606945 53.2263
22.88488314827121 54.3301
22.907599215359284 55.3501
22.93031619487366 56.3654
22.953211574954405 57.1212
22.975930389478226 57.8761
22.998650119445763 57.9904
23.02137076586092 57.6156
23.044269845560063 56.3197
23.06699233506288 54.9175
23.089715744034912 53.3111
23.112617610931565 51.6692
23.135342869061212 50.5002
23.158069049684816 49.5787
23.1807961538087 49.0472
23.20370174880544 49.0471
23.226430710184808 49.1874
23.249160598093425 49.2274
23.271891413539002 49.0105
23.294800752937697 49.2052
23.31753343374794 49.2703
23.340267045128353 49.4933
23.36300158808808 49.6364
23.38591468821339 49.933
23.408651104658304 50.5302
23.431388455719986 51.1949
23.454126742409 51.7335
23.4770436196085 53.0351
23.499783787914662 54.08
23.522524894889884 55.1156
23.54526694154616 55.9905
23.56818761219047 56.977
23.59093154860734 57.6033
23.613676427751283 57.9332
23.636422250635754 57.1461
23.659346731118656 55.7621
23.68209445191868 54.2153
23.704843119509587 52.0942
23.72759273490623 50.1766
23.750521041644767 48.6939
23.77327256312355 47.5833
23.796025035462787 47.0114
23.818956224555475 46.4362
23.841710609113413 46.2039
23.86446594758979 46.0861
23.887222241002014 45.7917
23.910157285144578 45.4889
23.932915498962537 45.5091
23.955674670778713 45.3274
23.978434801611975 45.037
24.001373717286125 44.9999
24.024135776723917 45.0725
24.046898798245582 44.7776
24.06966278287146 44.6672
24.092605586582614 44.5789
24.115371508023642 44.3588
24.1381383956401 44.3317
24.16090625045381 44.2844
24.183852958731244 44.2428
24.206622758582608 44.2029
24.229393528706886 43.9321
24.252165270127392 43.8371
24.27511589952438 44.0314
24.297889594216997 43.7522
24.32066426328598 43.4682
24.34343990775613 43.6473
24.36639447485003 43.6697
24.38917208083877 43.486999999999995
24.41195066531332 43.3313
24.43490819850244 43.3433
24.457688750692377 43.2607
24.48047028445616 43.1354
24.503252800821233 43.3393
24.526214300784112 43.4286
24.548998793132213 43.2235
24.57178427117417 43.1521
24.59457073593893 43.2261
24.617536219319863 43.1097
24.64032466834748 43.277
24.663114107195035 43.1115
24.685904536893013 42.835
24.708874020360852 42.772
24.731666442613744 42.7238
24.754459858818787 42.7976
24.777254270007962 42.6708
24.80022777025625 42.5095
24.82302418230472 42.521
24.845821592443674 42.531000000000006
24.86862000170663 42.6079
24.891597535453727 42.2416
24.914397953892728 42.4404
24.93719937456671 42.4514
24.96000179851076 42.6105
24.98298338249997 42.7884
25.00578782394922 42.9158
25.028593271784167 43.036
25.05157790644186 43.4461
25.07438537804115 43.4846
25.097193859145293 43.8663
25.120003350792075 44.0372
25.142992065061257 44.2786
25.165803588823465 44.5607
25.18861612625217 44.7017
25.211429678386736 44.8242
25.234422489079968 44.8791
25.257238081693636 45.105
25.280054692141732 45.0787
25.3028723214652 45.0542
25.325869245420463 45.1403
25.348688923599397 45.2012
25.371509623787006 45.1
25.394331347025812 44.7861
25.41733240110666 44.3598
25.440156181590016 43.6898
25.46298098826268 43.3297
25.48580682216873 42.6432
25.50881202326435 42.0092
25.53163992281684 41.6386
25.55446885274561 41.4906
25.577298814096377 41.0781
25.600308179121807 41.0982
25.623140214533745 41.2249
25.64597328451537 41.0338
25.66898578564376 40.8045
25.691820936010206 40.8782
25.714657124097695 40.8409
25.737494350954734 40.8099
25.760511045684957 40.5956
25.783350361364224 40.6518
25.806190718969255 40.7798
25.82903211955018 40.8982
25.852053024868923 40.9566
25.874896522722523 40.7958
25.897741066713106 40.7154
25.920586657892454 40.7981
25.943611790812668 41.0865
25.966459487728237 41.223
25.989308234998564 41.2295
26.01215803367705 41.6202
26.03518741123814 41.6675
26.05803932412957 41.7137
26.080892291600094 41.6219
26.10374631470478 41.7853
26.12677995397268 41.8392
26.14963609978026 41.8401
26.172493304397875 41.5711
26.19535156888223 41.4163
26.218389486949604 41.1242
26.241249882640123 40.8091
26.26411134137826 40.4921
26.28715248187403 40.5328
26.31001607820869 40.3499
26.3328807407756 40.2648
26.35574647063438 40.3564
26.37879191991473 40.4766
26.401659795896734 40.36
26.424528742360263 40.4352
26.447398760366614 40.6255
26.470448535598294 40.7238
26.49332070826805 40.8422
26.516193955675355 41.2703
26.53906827888316 41.5419
26.562122397260108 41.56100000000001
26.584998883685063 41.8163
26.607876449110325 42.0684
26.63075509460056 42.2028
26.65381357334404 42.3841
26.67669439061878 42.335
26.699576291163382 42.1848
26.722459276044212 42.0871
26.745522132402975 41.7847
26.768407297649354 41.6744
26.791293550442003 41.34
26.814180891848974 41.1573
26.837248143099337 40.8781
26.860137673466657 40.6616
26.88302829566349 40.3387
26.90592001075963 40.2824
26.92899167420566 40.1062
26.951885586870763 39.7317
26.974780595655517 39.6676
26.99785558178161 39.5036
27.020752794605112 39.2498
27.043651106772522 39.1487
27.06655051935668 39.0765
27.089629948036183 38.8478
27.112531573292053 38.7538
27.135434302194138 38.9449
27.158338135817015 38.7893
27.181422024430987 38.8291
27.204328079372566 38.7835
27.22723524226965 38.7202
27.250143514198573 38.9371
27.273231880156334 38.9171
27.296142382065014 38.6514
27.319053996245536 38.5649
27.341966723775965 38.5203
27.365059584515222 38.6805
27.38797455070062 38.8488
27.410890633481237 38.7051
27.433807833936918 38.7525
27.456905206923906 38.8922
27.47982465472398 38.7828
27.502745223449743 38.7855
27.525666914182825 38.8995
27.548768816912457 38.8318
27.571692763693633 38.5975
27.59461783573812 38.6125
27.617723149491244 38.4909
27.640650484125285 38.3578
27.66357894728264 38.3257
27.686508540048052 38.1932
27.709618414237887 38.3207
27.732550278321757 38.1176
27.755483275279115 38.0686
27.778417406196485 38.2026
27.801531858397514 38.1626
27.824468269376716 37.9586
27.847405817586786 37.9608
27.870344504116094 38.2183
27.893463551932008 38.3403
27.916404527281053 38.3495
27.93934664422563 38.5487
27.962289903855886 38.5525
27.98541356491974 38.8356
28.00835912214229 38.9278
28.03130582533231 39.1466
28.054253675581805 39.2506
28.077381967556104 39.1939
28.100332124185126 39.1273
28.123283431160893 39.2052
28.146235889577238 39.0818
28.169368830154156 38.9032
28.192323603752033 38.7313
28.215279532083304 38.3688
28.238415973016764 38.1751
28.261374223145094 38.0937
28.284333631303806 37.8305
28.307294198589954 37.6846
28.330435319167677 37.2973
28.353398217078915 37.1145
28.376362277420153 36.9036
28.39932750129032 36.738
28.422473319286713 36.5953
28.44544088262495 36.7245
28.468409612800283 36.4653
28.491379510913497 36.4223
28.51453004413313 36.2757
28.53750229057244 36.132
28.56047570826344 35.9714
28.583450298308804 36.19
28.606605564586562 35.911
28.629582511831156 36.0046
28.65256063474956 35.8204
28.675539934446338 35.806999999999995
28.698699951647605 35.8159
28.72168161743193 35.7858
28.74466446331978 35.7216
28.767648490417624 35.6223
28.790813276438353 35.5801
28.813799678527303 35.643
28.836787265157085 35.6658
28.859955641890075 35.6389
28.882945610203045 35.5719
28.905936766392035 35.3581
28.928929111566863 35.486999999999995
28.952102288520145 35.4445
28.975097024308607 35.311
28.998092952423807 35.168
29.021090073977508 35.1918
29.04426806913204 35.0823
29.067267590245258 34.848
29.090268308143695 34.6972
29.11327022394099 34.6211
29.13645305530891 34.6134
29.159457379627167 34.6627
29.18246290519685 34.6026
29.20546963313352 34.5574
29.22865731875826 34.558
29.25166646419296 34.5324
29.27467681535305 34.4061
29.29768837335608 34.4339
29.320880931312562 34.4906
29.34389491580634 34.5408
29.366910110507334 34.4922
29.38992651653503 34.4789
29.41312396492981 34.3296
29.436142806456754 34.366
29.45916286268059 34.2535
29.48236399319994 34.2379
29.50538649169417 34.0017
29.528410208259935 34.0115
29.55143514402014 33.7261
29.574641196749695 33.6197
29.597668583816574 33.4617
29.6206971934585 33.2513
29.64372702680042 33.39
29.666938019934474 33.4096
29.689970313635285 33.23
29.713003834422636 33.2909
29.73603858342347 33.2221
29.759254535188578 33.1338
29.78229175361658 33.0033
29.80533020365064 33.0971
29.82836988641968 33.1616
29.85159081507472 32.9522
29.874632976355343 32.9257
29.89767637376955 32.9852
29.920721008448314 32.7993
29.9439469322847 32.8258
29.96699405457564 32.7766
29.9900424175358 32.7435
30.013092022298157 32.7048
30.03632295963995 32.677
30.059375061131373 32.7287
30.08242840783577 32.6796
30.105483000888153 32.6722
30.128718970092244 32.5807
30.151776069006917 32.5884
30.17483441768648 32.5896
30.198074175317235 32.6204
30.221135036724256 32.6858
30.24419715131772 32.5225
30.267260520236203 32.4755
30.290505341942243 32.5821
30.313571232750228 32.5418
30.336638381310948 32.5282
30.35970678876503 32.3756
30.38295669299435 32.3283
30.40602763151657 32.3273
30.429099832366074 32.3088
30.452173296685572 32.2383
30.47542830191959 32.1896
30.498504306502497 32.1669
30.521581577995562 32.2415
30.544660117543582 32.3301
30.56792024229725 32.4165
30.59100133132069 32.2972
30.614083691845494 32.2929
30.637167325018545 32.3629
30.660432587840603 32.3157
30.683518779717886 32.2748
30.70660624769615 32.3792
30.729694992924372 32.4448
30.75296541239743 32.3497
30.77605672557558 32.3582
30.799149319462742 32.2766
30.8224236211637 32.1727
30.845518789950724 31.975
30.868615242910597 31.9188
30.891712981195973 31.747
30.91499247215866 31.7522
30.938092794619365 31.8337
30.96119440587579 31.6546
30.984297307082752 31.5267
31.00758200598383 31.471999999999998
31.030687500658694 31.3315
31.053794288760695 31.2746
31.076902371446767 31.2537
31.100192296997445 31.2276
31.12330298246119 31.1468
31.14641496599209 31.0779
31.169528248749216 31.1432
31.19282341969534 31.114
31.215939314557186 31.2257
31.239056512134788 31.1717
31.262175013589378 31.0316
31.28547544871168 30.9901
31.30859657161541 30.9741
31.331719001892175 30.9809
31.35484274070538 31.0904
31.378148458819545 31.1487
31.401274828443725 31.101
31.424402510106933 31.0148
31.447712205419993 31.1643
31.470842524931633 30.9217
31.493974159989783 31.0336
31.51710711176168 30.9784
31.54042212308802 31.0666
31.563557722100917 30.965
31.586694641341655 30.818
31.609832881979628 30.7477
31.63315322823208 30.6856
31.656294125521327 30.5583
31.679436347728515 30.5277
31.70257989602529 30.4145
31.725905596152327 30.2876
31.74905181052835 30.3135
31.772199354521323 30.3612
31.79534822930507 30.3742
31.818679302290967 30.2822
31.84183085259981 30.3094
31.864983737233473 30.2315
31.88813795736804 30.2455
31.911474422233013 30.1331
31.934631327356435 30.2144
31.9577895715215 30.1746
31.980949155906522 30.1916
32.004291031706956 30.143
32.027453310562606 30.1258
32.05061693318573 29.8983
32.07396288236386 29.9498
32.09712920658542 29.9138
32.12029687812702 29.7366
32.14346589817093 29.7048
32.166817291729984 29.6416
32.18998902288583 29.6093
32.21316210610336 29.5158
32.23633654256711 29.3748
32.259693399663725 29.4062
32.282870556771144 29.3811
32.30604907069099 29.3702
32.329228942610065 29.2392
32.35259128243769 29.1446
32.375773884550505 29.1408
32.398957848235646 29.0522
32.422143174682176 29.0231
32.445511016471215 28.8881
32.468699082679954 28.8713
32.49188851523011 28.8188
32.51507931531304 28.8135
32.538452678331 28.761999999999997
32.56164622776311 28.7316
32.58484114831493 28.6549
32.60803744118015 28.7376
32.631416344731896 28.6555
32.654615396551876 28.6276
32.67781582427913 28.5787
32.701198898634416 28.4343
32.72440209253756 28.4879
32.747606665947124 28.4373
32.77081262006088 28.285
32.79420126883317 28.3644
32.81740999876112 28.3259
32.840620112999424 28.2307
32.86383161274818 28.1687
32.88722585534586 28.1682
32.91044014056596 28.1942
32.933655814909734 28.134
32.95687287957963 28.1021
32.98027273544904 28.0638
33.00349259526636 28.0156
33.026713849030116 28.0969
33.04993649794511 27.9907
33.073341986570746 27.9566
33.09656744032826 27.9382
33.11979429286444 27.8898
33.14302254538647 27.9828
33.166433686291185 27.901
33.18966475336992 27.8124
33.212897224069096 27.7061
33.23613109959831 27.7342
33.259547912343415 27.7207
33.2827846121627 27.8111
33.306022720453775 27.7633
33.32926223842861 27.5826
33.352684742614166 27.6192
33.37592709463173 27.5851
33.399170859982064 27.4788
33.422597648419426 27.4091
33.44584425514446 27.3383
33.46909227885668 27.2757
33.4923417207723 27.1679
33.51577423505344 27.2127
33.539026528130385 27.1629
33.56228024307245 27.1024
33.585535381098246 26.9443
33.60897364093058 26.8908
33.63223163992385 26.9576
33.6554910656699 26.8844
33.678751919389796 26.8337
33.702195944520106 26.6985
33.72545966903325 26.7218
33.74872482519663 26.6879
33.771991414233746 26.708000000000002
33.79544122444841 26.7143
33.81871069412428 26.6554
33.84198160035767 26.502
33.86525394437455 26.5001
33.88870955949969 26.4607
33.911984794020626 26.4617
33.93526147001624 26.4301
33.958539588715006 26.2662
33.98200102861669 26.2526
34.0052820477047 26.1629
34.02856451319451 26.2087
34.05203033759056 26.1328
34.07531571090147 26.072
34.09860253431845 26.1208
34.121890809074316 26.144000000000002
34.145362493118924 26.0849
34.16865368561615 25.9993
34.191946333164054 25.9987
34.21524043699793 25.9763
34.23871800066799 25.9185
34.26201503218366 25.8517
34.28531352370466 25.7783
34.30861347646881 25.6484
34.33209693978188 25.7444
34.3553998301885 25.7365
34.378704185565205 25.6084
34.402010007152356 25.5856
34.42549939016683 25.4756
34.44880815937748 25.4157
34.472118398533134 25.3837
34.49543010887669 25.3681
34.51892543169198 25.250999999999998
34.54224009966052 25.3198
34.56555624255917 25.3489
34.58887386163339 25.2889
34.61237514439016 25.136999999999997
34.6356957311114 25.1334
34.65901779775809 25.0796
34.68252356662995 25.0602
34.705848608458616 25.0529
34.72917513396849 24.994
34.75250314440949 24.9434
34.77601490857862 24.8405
34.799345904259795 24.8253
34.82267838863559 24.8536
34.846012362958525 24.8191
34.869530142679984 24.7684
34.89286711232212 24.723000000000003
34.91620557568269 24.7186
34.93954553401677 24.7379
34.9630693495876 24.5918
34.986412313340814 24.6312
35.00975677584668 24.5996
35.033102738362956 24.5883
35.05663261012228 24.5039
35.0799815881786 24.5444
35.10333207003229 24.3757
35.12668405694369 24.4128
35.150220005273056 24.3695
35.17357501786656 24.394000000000002
35.19693153931268 24.3993
35.220289570874385 24.2834
35.24383161619786 24.2261
35.267192683604904 24.2796
35.290555264930376 24.2078
35.314101899412165 24.2144
35.33746752422433 24.1093
35.36083466676374 24.1115
35.38420332829803 24.1459
35.407756095629054 24.1819
35.43112781085063 24.1179
35.45450104888391 23.9981
35.477875810999194 24.064
35.50143473172161 23.9906
35.52481255774625 24.0659
35.54819191167777 24.0073
35.57157279478914 23.8574
35.595137889488406 23.8414
35.61852184675279 23.9225
35.641907337029984 23.8174
35.665294361595684 23.7408
35.68886565090076 23.7373
35.7122557598848 23.7577
35.73564740699838 23.7189
35.759040593519934 23.6361
35.78261809810353 23.6299
35.80601437933051 23.601999999999997
35.829412203814705 23.5256
35.85281157283719 23.385
35.876395313415884 23.4141
35.8997977874528 23.3401
35.92320180988546 23.2845
35.946790244133936 23.2512
35.97019737933222 23.2146
35.993606066789866 23.1959
36.01701630779276 23.2005
36.04061101440684 23.0797
36.06402437852291 23.0616
36.08743930005611 23.0923
36.1108557802951 23.0106
36.13445678011326 22.9802
36.15787639383515 22.9813
36.18129757014299 22.9725
36.20472031032821 22.8945
36.22832762423364 22.8433
36.25175350829375 22.8664
36.275180960119776 22.8077
36.298609981005924 22.7962
36.32222362992669 22.8098
36.34565580510207 22.6554
36.36908955323448 22.6823
36.39252487562093 22.5856
36.416144880530226 22.5964
36.43958336764275 22.585
36.463023432914625 22.6313
36.486465077645676 22.5189
36.51009145956204 22.5636
36.53353627947859 22.5562
36.55698268276811 22.5235
36.58043067073321 22.4657
36.60406345072071 22.3456
36.62751462435344 22.3406
36.65096738658405 22.320999999999998
36.67460498210655 22.3131
36.69806093788647 22.2404
36.72151848619297 22.1806
36.744977628333636 22.1644
36.76862165890998 22.0886
36.79208400512205 22.0865
36.81554794910557 22.109
36.83901349217101 21.9655
36.862663978991606 22.0189
36.88613273667352 21.9533
36.90960309738324 21.9039
36.933075062434064 21.8568
36.95673202673572 21.8577
36.98020721697122 21.7649
37.003684015502365 21.7586
37.027162423645365 21.7712
37.050825886711465 21.6785
37.07430753063053 21.5959
37.09779078812467 21.6119
37.121275660513014 21.5475
37.144945643673694 21.5498
37.16843376245278 21.5091
37.19192350009803 21.5497
37.215414857931435 21.4025
37.239091382563885 21.3448
37.262585997426164 21.3492
37.28608223645736 21.3895
37.309763684451696 21.3971
37.33326318851098 21.2997
37.356764320726555 21.2887
37.380267082425526 21.2216
37.40395510942588 21.2054
37.42746114683234 21.2035
37.45096881771841 21.1004
37.474478123414166 21.0508
37.49817275092816 21.0617
37.52168534303452 21.0251
37.54519957395567 20.9523
37.568715445024665 20.9522
37.592416694607714 20.9389
37.61593586281424 20.9133
37.63945667518264 20.9259
37.66297913304891 20.8465
37.68668702630454 20.8194
37.710212792059274 20.7257
37.733740207334854 20.6776
37.757269273470364 20.6651
37.780983832050374 20.6566
37.80451621684926 20.5857
37.82805025654007 20.579
37.851585952464795 20.5447
37.8753071980695 20.4749
37.89884622345676 20.4534
37.92238690911902 20.4053
37.94611318753442 20.3686
37.969657210779765 20.4359
37.99320289834801 20.3959
38.016750251586465 20.3472
38.04048325513017 20.2964
38.06403395679343 20.25
38.087586328183946 20.2014
38.11114037065203 20.2848
38.13488012115898 20.2003
38.1584375229181 20.1299
38.181996599821 20.1053
38.205557353221124 20.0392
38.229303872575656 20.0697
38.2528679961576 20.0097
38.27643380031219 20.0229
38.30000128639589 20.0472
38.32375459653193 20.0142
38.34732546371299 19.9235
38.37089801690786 19.8093
38.39447225747609 19.7498
38.418232380377425 19.7776
38.441810012983396 19.7612
38.46538933705673 19.7793
38.488970353960084 19.6928
38.51273731166058 19.6453
38.536321731567014 19.6169
38.55990784840681 19.5916
38.58367995004091 19.53
38.60726947812959 19.4501
38.63086070726198 19.5488
38.654453638806274 19.5381
38.678232613930824 19.4474
38.70182896773327 19.4273
38.72542702806741 19.3822
38.7490267963045 19.3478
38.77281266709232 19.327
38.79641586862214 19.3056
38.8200207821842 19.2309
38.843627409152944 19.2482
38.86742019782782 19.1703
38.891030269149255 19.1651
38.914642058016156 19.165
38.938255565806124 19.1062
38.96205529464307 19.1019
38.98567225787121 19.1227
39.00929094417078 19.0314
39.03291135492255 19.0294
39.05671804624804 18.9636
39.080341923549106 18.9944
39.103967529460334 18.9396
39.127594865365744 18.8674
39.15140854155791 18.8704
39.17503935514948 18.7818
39.19867190290282 18.7406
39.22249083587951 18.8438
39.24612686969409 18.7707
39.269764641845306 18.7645
39.293404153722804 18.6887
39.317230110864074 18.5904
39.34087311998506 18.5646
39.36451787301696 18.5735
39.388164371352595 18.4744
39.41199737518003 18.4684
39.43564738196752 18.4777
39.45929913825317 18.4581
39.48295264543308 18.4411
39.506792718520884 18.3504
39.530449745387216 18.3215
39.55410852735203 18.3249
39.57776906581474 18.3184
39.60161623079 18.3044
39.625280300200025 18.2869
39.64894613032202 18.2327
39.67261372255866 18.1921
39.6964680021016 18.2132
39.72013913657293 18.1713
39.74381203738292 18.098
39.76748670593756 18.1205
39.79134812278169 18.0369
39.81502634488497 18.0523
39.83870633896685 17.9971
39.862388106436654 17.9388
39.88625668336918 17.9647
39.90994201572829 17.9191
39.933629125719285 17.8949
39.957503091207826 17.8815
39.9811937746168 17.878
40.00488623990914 17.7898
40.02858048850006 17.7316
40.05246165409549 17.6833
40.076159487492085 17.6803
40.099859108448875 17.6474
40.123560518384345 17.6677
40.1474489070226 17.6428
40.171153913178564 17.6221
40.194860712584955 17.5704
40.2185693066637 17.5245
40.242464941335314 17.4841
40.26617714307655 17.4833
40.289891143772046 17.4192
40.3136069448471 17.3792
40.33750984859743 17.4154
40.3612292688043 17.3864
40.3849504936829 17.3661
40.40867352466194 17.3323
40.43258372059144 17.3443
40.45631038219906 17.3609
40.48003885420956 17.2076
40.503769138055105 17.2272
40.52768664931955 17.2442
40.55142057531802 17.198
40.57515631746428 17.1429
40.599079334038514 17.131
40.62281872700477 17.0584
40.64655994043941 17.0265
40.67030297578061 17.0015
40.69423334835778 17.0053
40.71798004609188 16.9541
40.74172857006355 16.8942
40.76547892171441 16.9165
40.7894166736039 16.8737
40.813170699248566 16.8117
40.83692655691388 16.7865
40.86068424804498 16.8347
40.884629402612525 16.7756
40.908390779366385 16.7524
40.932153993938 16.7232
40.95591904777605 16.7132
40.979871628443995 16.7489
41.003640379561936 16.678
41.02741097430883 16.6504
41.05118341413683 16.6061
41.075143444384416 16.5766
41.098919593177826 16.5755
41.1226975914255 16.5417
41.14647744058318 16.4678
41.170444943946755 16.4665
41.19422851378379 16.4305
41.218013938914645 16.4443
41.24198706625173 16.3439
41.26577622087193 16.3321
41.289567235177785 16.2832
41.31336011063129 16.3152
41.337340752422875 16.2371
41.361137369129835 16.2341
41.38493585138705 16.2097
41.40873620066004 16.1753
41.43272438060107 16.1556
41.45652848292052 16.1355
41.48033445666918 16.0688
41.50414230331616 16.0466
41.528138045159764 16.0416
41.551949656675205 15.9806
41.575763145513235 15.979000000000001
41.59957851314666 15.9468
41.62358184070442 15.9155
41.64740098505737 15.9193
41.6712220126409 15.8976
41.69504492493139 15.9048
41.71905586207357 15.8576
41.74288256296395 15.8331
41.766711153007456 15.8087
41.79054163368412 15.7276
41.814560204340054 15.752
41.838394485526365 15.7269
41.86223066180303 15.6929
41.88625497706819 15.6566
41.910094962812 15.6339
41.93393684811168 15.6569
41.95778063445365 15.5176
41.981812625263366 15.5346
42.00566023303407 15.4977
42.029509746323676 15.5215
42.05336116662236 15.4652
42.077400857069705 15.4317
42.10125611078846 15.4521
42.12511327600405 15.3569
42.14897235421036 15.3425
42.173019768448455 15.3218
42.19688269209613 15.2947
42.22074753323349 15.2562
42.24461429335818 15.2589
42.268669455600495 15.2343
42.292540073217886 15.2231
42.31641261433284 15.2582
42.34028708044675 15.1748
42.36435001496739 15.1469
42.38822835065557 15.0552
42.41210861586426 15.1571
42.4359908120986 15.0856
42.46006154323262 15.0109
42.48394762115317 14.9874
42.507835634632315 15.0082
42.531912233047436 14.9719
42.55580413732265 14.9254
42.579697981698 14.9158
42.60359376768525 14.9099
42.62767820545945 14.8418
42.65157789440821 14.82
42.67547952952185 14.8203
42.699383112316 14.8528
42.72347541395347 14.7709
42.74738291190531 14.6917
42.771292362102166 14.7473
42.795203766063516 14.7057
42.819303956130405 14.6593
42.843219287476536 14.6308
42.86713657716324 14.5506
42.89105582671383 14.6055
42.91516392983864 14.5373
42.939087119032166 14.5309
42.963012272677304 14.574000000000002
42.98693939230129 14.489
43.01105543317513 14.4648
43.034986504731386 14.4572
43.05891954686589 14.3973
43.08285456110972 14.3438
43.10697856448665 14.3363
43.130917542983475 14.3174
43.15485849820081 14.3216
43.17880143167367 14.2528
43.20293342237094 14.2488
43.226880332449 14.2296
43.25082922540554 14.2833
43.27496722682525 14.1961
43.29892010567796 14.1558
43.32287497204102 14.1785
43.34683182745632 14.1151
43.370977859791836 14.0736
43.39493871351105 14.1129
43.41890156092628 14.0176
43.44286640358341 14.0243
43.46702049182749 13.9771
43.49098934522816 13.9867
43.51496019852649 13.9472
43.5389330532723 13.925
43.56309522248204 13.8445
43.58707210044314 13.8544
43.61105098451946 13.832
43.63503187626491 13.7959
43.659202151562134 13.8507
43.68318707902681 13.7971
43.70717401884041 13.7671
43.731162972560874 13.7052
43.75534137913236 13.6882
43.779334381108384 13.6555
43.803329401683186 13.663
43.82732644241872 13.6508
43.8515130055166 13.6291
43.87551410707659 13.574000000000002
43.89951723350145 13.5894
43.923709934595614 13.4642
43.94771713129917 13.5067
43.97172635758096 13.4916
43.99573761501002 13.4625
44.0199385169922 13.4343
44.04395385732619 13.4349
44.067971233533086 13.4422
44.09199064718605 13.3663
44.11619977548961 13.3365
44.14022328470671 13.2904
44.16424883610785 13.3695
44.18827643127035 13.2877
44.21249381139513 13.3014
44.236525514814076 13.2893
44.26055926674478 13.2368
44.28459506876863 13.1649
44.3088207262813 13.1694
44.33286064928722 13.1443
44.35690262714919 13.1102
44.38094666145278 13.1128
44.4051806219871 13.0898
44.42922879003185 13.0758
44.45327901929361 13.0149
44.477331311362136 12.9546
44.501573600619416 12.9579
44.525630039221795 12.9501
44.54968854541895 12.9793
44.573937102200176 12.8875
44.5979997645541 12.9157
44.622064499300315 12.9076
44.64613130803592 12.8574
44.67038823869318 12.8568
44.69445921643748 12.8255
44.718532272981385 12.7407
44.742607409926194 12.8104
44.76687274034801 12.7812
44.79095205918753 12.7344
44.81503346325094 12.7066
44.839116954143876 12.6963
44.86339071028742 12.6083
44.88747839599524 12.6146
44.91156817336837 12.615
44.93566004401666 12.6065
44.959942251908146 12.5405
44.984038330325966 12.5198
45.00813650686762 12.5627
45.03223678314731 12.5254
45.05652746888232 12.4551
45.08063196592069 12.4307
45.104738567558705 12.38
45.128847275414856 12.4428
45.15314646515866 12.3861
45.17725940679741 12.3461
45.20137445952892 12.3045
45.22568004865265 12.2923
45.24979934496396 12.2772
45.27392075725247 12.2491
45.29804428714431 12.2588
45.322358426247604 12.2508
45.346486212804315 12.2064
45.370616121861914 12.1751
45.39474815505086 12.1658
45.41907087049246 12.1199
45.4432071734666 12.1016
45.46734560548283 12.0969
45.49148616817604 12.11
45.51581748638564 12.0807
45.5399623320197 12.015999999999998
45.56410931325473 12.0257
45.58825843173002 12.0409
45.61259837920865 11.9468
45.636751793816 11.9258
45.66090735060093 11.9144
45.68506505120716 11.9222
45.7094136545275 11.8781
45.73357566449271 11.8284
45.75773982322992 11.8034
45.78190613238733 11.8416
45.806263418194064 11.7761
45.83043404997326 11.7973
45.85460683713677 11.8022
45.87897065658495 11.7608
45.90314777634752 11.759
45.92732705646868 11.7209
45.9515084986045 11.6887
45.97588104735473 11.6893
46.00006683541565 11.6505
46.02425479047904 11.6277
46.04844491420549 11.6018
46.0728262191024 11.5975
46.09702070211635 11.5562
46.12121735879483 11.5256
46.14541619080294 11.4888
46.169806278764455 11.4997
46.194009483459034 11.4997
46.21821486849841 11.47
46.24242243555223 11.436
46.266821333570014 11.4038
46.29103328674601 11.4175
46.31524742696538 11.408
46.33946375590237 11.355
46.36387149104216 11.3471
46.38809221957392 11.2387
46.41231514186606 11.2791
46.436540259597464 11.322000000000001
46.460956858999374 11.2507
46.48518638983522 11.1917
46.509418121166966 11.1781
46.533652054678114 11.1864
46.55807754555709 11.2006
46.58231590571962 11.1598
46.60655647313217 11.0823
46.630988654873654 11.075
46.655233659129024 11.0603
46.67948087571551 11.0426
46.70373030632484 11.0607
46.72817142736393 11.0401
46.752425308428684 11.0251
46.77668140861147 10.972000000000001
46.80093972960865 10.9609
46.82538981736788 10.9242
46.849652602470904 10.9361
46.87391761349769 10.8858
46.8981848521493 10.8714
46.9226439341274 10.8577
46.946915650573224 10.8337
46.97118959976749 10.8307
46.99546578341598 10.7359
47.019933887188216 10.7576
47.04421456235744 10.7493
47.06849747711879 10.7689
47.09278263318286 10.6933
47.11725978640143 10.6805
47.14154944775105 10.6574
47.165841355555656 10.6542
47.1901355115306 10.6275
47.214621741924994 10.6429
47.23892041698887 10.6011
47.26322134538975 10.5501
47.28771440635075 10.5413
47.31201986422527 10.582
47.33632758061436 10.5283
47.360637557241866 10.4936
47.38513974410611 10.4899
47.40945426407847 10.467
47.43377104948137 10.4455
47.45809010204344 10.4267
47.48260144275502 10.4032
47.506925052572285 10.3655
47.53125093475548 10.3596
47.55557909103813 10.3458
47.58009961361992 10.2725
47.60443234110732 10.2946
47.62876734791564 10.2603
47.65310463578333 10.2921
47.6776343683373 10.2551
47.7019762413987 10.1824
47.72632040075572 10.2124
47.75066684815169 10.1805
47.77520581885936 10.1897
47.799556865477655 10.119
47.823910205386 10.1461
47.84826584033272 10.1493
47.87281407745551 10.1194
47.89717432569297 10.1148
47.92153687423484 10.052
47.94609208429692 10.024
47.97045925671401 10.0409
47.99482873471275 9.98664
48.01920052005013 9.9777
48.04376504619224 9.94576
48.068141469543484 9.95705
48.09252020552573 9.92511
48.11690125590099 9.87279
48.1414751266064 9.89067
48.16586082917454 9.88228
48.19024885144316 9.84545
48.2146391951793 9.79067
48.239222439012764 9.871039999999999
48.26361744916137 9.853530000000001
48.28801478610016 9.80954
48.31241445160131 9.77614
48.337007097209366 9.77261
48.36141144338331 9.75583
48.38581812345755 9.72532
48.41022713920929 9.690660000000001
48.434829215320704 9.70047
48.45924292604658 9.66789
48.48365897780325 9.67188
48.50807737237308 9.62777
48.532688907799276 9.62297
48.55711201168574 9.60927
48.581537463754074 9.58027
48.60615611725119 9.59075
48.63058628942721 9.53558
48.65501881516546 9.51736
48.6794536962573 9.518939999999999
48.70408185970339 9.46363
48.72852147531801 9.458839999999999
48.75296345168211 9.43184
48.77740779059232 9.43851
48.80204549302823 9.48141
48.82649458091802 9.457410000000001
48.85094603676547 9.396560000000001
48.87539986237231 9.34036
48.90004713292306 9.3723
48.92450572200832 9.358310000000001
48.94896668628025 9.3037
48.97343002754588 9.29086
48.99808689542115 9.24574
49.02255501470614 9.255289999999999
49.04702551642794 9.25034
49.0714984023988 9.244439999999999
49.096164896893235 9.22223
49.120642575466796 9.21975
49.145122643748394 9.21716
49.16960510355558 9.17488
49.19428125404938 9.17782
49.2187685210852 9.172880000000001
49.243258185121555 9.12017
49.26794160167084 9.09941
49.2924360839405 9.03222
49.31693296869764 9.04305
49.34143225776915 9.090589999999999
49.36612538195438 9.03558
49.39062950396021 8.96924
49.41513603578346 8.95165
49.4396449792564 8.95009
49.46434784069503 8.96076
49.488861631846454 8.93773
49.513377840166804 8.931289999999999
49.537896467493745 8.87898
49.56260909589029 8.82358
49.587132585683285 8.853489999999999
49.611658500018365 8.867510000000001
49.636186840738596 8.83205
49.66090926588511 8.83949
49.685442483902584 8.80166
49.70997813385706 8.74593
49.734516217597076 8.75148
49.75924846937352 8.731860000000001
49.7837914452858 8.73823
49.80833686055187 8.681569999999999
49.83288471702571 8.72066
49.85762682540054 8.71331
49.882179588965734 8.67665
49.9067347993235 8.64428
49.93129245833333 8.6429
49.95604445336378 8.62528
49.98060703442832 8.56682
50.005172069746266 8.60175
50.02993150438364 8.60042
50.05450147301533 8.60725
50.07907390151433 8.53852
50.10364879174981 8.52594
50.12841816587289 8.50582
50.1529980044635 8.462539999999999
50.17758031042124 8.45403
50.20216508562089 8.45261
50.22694442953363 8.410639999999999
50.25153416817468 8.433010000000001
50.27612638170508 8.39682
50.300721072005196 8.362919999999999
50.325510416102105 8.34549
50.350110084975064 8.33195
50.37471223628208 8.34506
50.39931687190919 8.35058
50.424116246675766 8.32783
50.44872587605249 8.266910000000001
50.47333799543065 8.25413
50.49795260670191 8.25919
50.52276204271512 8.21393
50.54738166295838 8.213
50.57200378079314 8.20233
50.596628398116835 8.19568
50.62144792604559 8.18212
50.646077567609396 8.15873
50.670709714377715 8.13767
50.69553683636198 8.11506
50.72017401885922 8.11973
50.7448137122895 8.137780000000001
50.76945591856022 8.11091
50.79429318636823 8.05304
50.818940443716784 8.06821
50.84359021965163 8.04948
50.868242516085964 8.04113
50.893089960641895 7.991619999999999
50.917747323549435 7.9543
50.94240721271973 7.97554
50.96706963007175 7.93765
50.99192728239342 7.92444
51.01659478166073 7.926819999999999
51.04126481489051 7.88465
51.06593738400761 7.89633
51.090805275207074 7.90112
51.11548294172845 7.84059
51.14016314993547 7.83627
51.164845901758845 7.8233
51.18972406304274 7.83133
51.21441192780656 7.790369999999999
51.23910234200271 7.79064
51.2637953075678 7.78735
51.288683770237945 7.74622
51.31338186432707 7.72279
51.33808251561888 7.67259
51.362978729967345 7.6893
51.387684521509755 7.7119
51.41239287610203 7.6703600000000005
51.437103795691165 7.64664
51.46201036644977 7.630039999999999
51.486726441956634 7.620369999999999
51.51144508832545 7.61912
51.536166307509156 7.6107
51.56108326624387 7.58593
51.58580965706056 7.5725
51.61053862657523 7.57707
51.635270176746864 7.507619999999999
51.66019755512065 7.52614
51.68493429268881 7.4744
51.70967361681515 7.48212
51.73441552946465 7.48468
51.759353359237934 7.43928
51.7841004750961 7.4334
51.80885018539685 7.443810000000001
51.833602492111254 7.3975
51.8585508051424 7.39877
51.883308330926425 7.37815
51.90806845906181 7.3375
51.932831191525715 7.317889999999999
51.95779001977161 7.306369999999999
51.98255798721516 7.313039999999999
52.00732856494335 7.25594
52.03229530577543 7.2885100000000005
52.057071130455945 7.2613
52.081849571391054 7.26704
52.106630630568695 7.27244
52.13160794279417 7.21868
52.15639426492067 7.24325
52.18118321127822 7.225630000000001
52.205974783860896 7.18728
52.23096269971011 7.15751
52.255759551287994 7.1646399999999995
52.280559035098186 7.099760000000001
52.30536115314103 7.0904300000000005
52.33035970494467 7.1201300000000005
52.35516711807904 7.0706
52.37997717147198 7.06102
52.40478986713005 7.03715
52.42979908731974 7.03291
52.454617094216 7.01836
52.47943774942214 7.05243
52.50426105495102 7.02577
52.529280976059844 7.007219999999999
52.554109609024096 6.99115
52.57894089837482 6.92537
52.60377484613117 6.95436
52.62880550079408 6.967630000000001
52.65364479223379 6.90596
52.67848674816189 6.9017
52.70352547971946 6.89965
52.72837279155837 6.89532
52.753222773982785 6.825939999999999
52.778075429022984 6.86543
52.80312495150885 6.827189999999999
52.827982978797436 6.83443
52.85284368481815 6.766030000000001
52.87770707160767 6.77279
52.90276741793998 6.759580000000001
52.92763619336701 6.7493300000000005
52.952507655698504 6.758039999999999
52.977381806977576 6.743589999999999
53.00245301017842 6.735810000000001
53.02733256653592 6.715669999999999
53.052214817996074 6.71818
53.077099766608484 6.714060000000001
53.102181859804446 6.69402
53.127072229988265 6.65137
53.15196530349892 6.6433800000000005
53.17686108239249 6.6059
53.20195409881522 6.60428
53.22685531582556 6.64577
53.25175924441303 6.60262
53.27666588664027 6.542730000000001
53.30176985962693 6.54895
53.3266819565689 6.520980000000001
53.35159677336455 6.51081
53.376514312083096 6.507680000000001
53.40162927507703 6.491680000000001
53.42655228516116 6.49196
53.45147802340193 6.44168
53.47660125628886 6.4318800000000005
53.50153247842639 6.44773
53.52646643496923 6.42983
53.55140312799818 6.38492
53.576537409691696 6.40276
53.60147960336152 6.43815
53.626424539786164 6.40509
53.65137222105307 6.34342
53.67651758529126 6.3304800000000006
53.70147078399681 6.31447
53.72642673383343 6.31197
53.75138543689533 6.30467
53.776541917524526 6.29994
53.801506154876755 6.26054
53.826473151763246 6.23756
53.851442910284916 6.229080000000001
53.87661054126026 6.23869
53.9015858509782 6.198169999999999
53.92656392866066 6.17191
53.95154477641532 6.217569999999999
53.976723591801296 6.20035
54.00171000771266 6.17274
54.02669920004598 6.1593800000000005
54.051691170915745 6.12413
54.076881204886796 6.12111
54.101878760928514 6.10804
54.12687910187696 6.08517
54.152077577768296 6.12223
54.1770835166946 6.07041
54.20209224691339 6.09542
54.22710377055121 6.04824
54.25231352511594 6.00295
54.27733066384342 6.00568
54.30235060239643 5.99656
54.32737334290836 5.99425
54.35259441062629 5.97933
54.377622783395324 5.94177
54.40265396455061 5.922999999999999
54.42768795623251 5.88382
54.45292037169559 5.885619999999999
54.477960012857906 5.889069999999999
54.50300247099511 5.84887
54.52804774825457 5.83723
54.55329154616743 5.82644
54.57834249018678 5.80808
54.6033962597977 5.76858
54.6284528571545 5.73187
54.653708072335164 5.74115
54.67877035378786 5.7268300000000005
54.70383546947698 5.68329
54.72890342156389 5.71146
54.7541700889442 5.64944
54.77924374251975 5.64675
54.8043202390049 5.593719999999999
54.82959552413022 5.55248
54.8546777351945 5.6018
54.87976279569621 5.54895
54.90485070780914 5.57479
54.930137506558005 5.50345
54.95523115074295 5.51235
54.98032765308844 5.49983
55.005427015775496 5.46732
55.03072536339621 5.47118
55.05583047570572 5.40111
55.080938454927676 5.38592
55.10604930325027 5.388380000000001
55.131359235107396 5.38596
55.15647585066083 5.32263
55.181595341907496 5.34165
55.20671771104285 5.27606
55.232039262617704 5.32076
55.25716741665048 5.26285
55.28229845518636 5.269769999999999
55.30743238042802 5.19753
55.33276558731939 5.15943
55.357905315183636 5.18029
55.383047936390035 5.1620099999999995
55.40819345314859 5.09299
55.433538351073295 5.13234
55.458689688238415 5.11915
55.483843927614096 5.04247
55.509197623043605 5.01291
55.53435769621134 4.98125
55.55952067826466 4.94929
55.5846865714265 4.9528
55.61005202069737 4.91916
55.63522376553902 4.90411
55.66039842818645 4.91064
55.68557601087004 4.89694
55.7109532500271 4.8141099999999994
55.73613670233794 4.83739
