TT I
1.2716486653135266 7.709039999999999
1.2939594142134223 7.09523
1.3162702121660406 6.8194300000000005
1.3385810600174564 6.89165
1.3608919586137629 6.856510000000001
1.383202908801069 6.44343
1.405513911425503 6.10329
1.4278249673332093 6.575639999999999
1.4501343378461518 6.80721
1.4724455028545926 6.36033
1.4947567236847858 6.47929
1.517068001182951 6.8337699999999995
1.5393793361953272 6.47127
1.5616907295681737 5.77474
1.5840021821477681 5.6871
1.60631369478041 5.50756
1.6286252683124185 5.733280000000001
1.6509369035901333 4.9487
1.6732468618895553 5.40755
1.695558623192809 5.17288
1.7178704487808514 5.9333
1.7401823395001077 5.25535
1.7625012545597203 5.110580000000001
1.7848028405262486 5.45263
1.8071218901122095 5.57849
1.8294236121921872 5.15755
1.8517427996910911 4.94626
1.8740620574440425 4.86479
1.8963639900671978 4.644880000000001
1.9186833908139995 4.78912
1.9409854680117449 5.24423
1.9633050151394713 4.7989
1.9856246367570705 5.1671
2.0079269371922672 4.76795
2.03024671027244 4.4981
2.0525491637446027 4.63997
2.074869091674931 5.06171
2.097171701569106 4.82543
2.1194917877373847 5.0027099999999995
2.141811954326636 4.9684
2.164114805233074 4.30715
2.186435135143035 4.16064
2.208738150935709 4.54823
2.231058647554722 4.55348
2.2533792288321184 4.67483
2.275682498336085 3.93791
2.298003251406138 4.00047
2.3203066942619714 4.488569999999999
2.3426276225136022 4.34813
2.3649486396617507 4.23779
2.387252348930071 4.1012699999999995
2.4095735463442893 3.5685599999999997
2.4318774374315884 3.92962
2.4541988185014043 4.5647400000000005
2.476502894794693 4.22243
2.498824462909887 4.5628400000000005
2.521146125856138 4.32754
2.5434504863470337 4.83426
2.5657723414244717 4.62079
2.588076895590662 4.70547
2.610398946189713 5.351430000000001
2.6327210958598384 5.33869
2.6550259469304716 5.41293
2.6773482972090137 5.79927
2.6996533504259 5.10827
2.7219759047039602 6.30385
2.744298562293959 6.6531199999999995
2.7666039251246595 6.50756
2.7889267918020164 6.32016
2.8112323652516555 6.6434
2.833555444408179 7.47167
2.8558786311183852 7.76178
2.8781845268938557 7.951280000000001
2.9005079311721484 8.65738
2.9228140460410397 8.57108
2.9451376712799635 8.72379
2.967444008632326 9.329369999999999
2.9897678582247247 10.0451
3.0120918213106695 10.7841
3.0343984987899373 10.8868
3.0567226913198637 11.6961
3.079029599759726 12.109000000000002
3.101354025127254 12.2468
3.123678568232338 12.6181
3.145985829517914 12.9849
3.16831061055229 13.3873
3.1906181112775593 13.8503
3.212943133635653 14.8023
3.2352682779763207 14.9759
3.2575761442691227 15.4149
3.2799015350264273 15.7399
3.302209649240067 16.5841
3.3245352898092655 16.8187
3.3468436553365257 17.5103
3.369169549113219 17.4277
3.3914955708171384 18.5857
3.413804319727358 19.1677
3.4361305997334863 18.9072
3.4584396084414553 19.6511
3.4807661501462652 20.2675
3.503092824025881 20.8388
3.5254022288463154 20.5924
3.5477291695206588 21.0973
3.5700388426251948 21.52
3.5923660534916446 21.9907
3.6146934007816114 22.2779
3.637003482731501 22.4132
3.6593311053109985 22.8128
3.681641464033634 23.1567
3.7039693653009733 23.4045
3.726297407241705 23.9908
3.7486081875460804 24.4081
3.7709365132734978 24.7632
3.793247578841633 25.4708
3.8155761917550093 26.1027
3.8378875459837216 25.7589
3.8602164494827234 26.5238
3.882545499606844 26.8966
3.9048572932539183 28.0256
3.9271866390645718 28.1024
3.9494987298666713 28.7047
3.971828374764527 29.0353
3.9941581705403255 29.7288
4.016470713506008 30.4734
4.038800813471445 30.6949
4.061113662089144 31.1313
4.0834440696459176 31.4756
4.105774632334751 31.7951
4.128087945865126 32.5981
4.150418821249301 33.2666
4.172732448931298 33.8815
4.195063640413578 34.5578
4.2173775856475215 35.7831
4.239709096631102 36.0349
4.262040768704612 36.7231
4.284355196706267 37.0712
4.306687193387355 37.4369
4.329001947444346 38.9629
4.35133427213731 39.6665
4.373666762177566 40.4749
4.395982011761091 41.2865
4.418314834921175 42.1025
4.44063041906622 43.3679
4.4629635787515625 43.9666
4.4852969080429785 44.7173
4.5076130004776225 46.0863
4.529946671403969 47.1477
4.552263106909177 47.8675
4.574597122877047 49.4114
4.596931312711224 50.9684
4.619248269273446 51.5522
4.6415828092605835 52.2341
4.663900117405352 53.5303
4.686235010953232 55.2261
4.708552674085913 56.5203
4.730887924602802 57.7665
4.753223354952695 59.6599
4.775541557023902 60.6661
4.797877349456786 61.9818
4.820195915032126 64.3704
4.842532072957498 65.8924
4.864868414979744 68.0661
4.88718753227192 70.4639
4.909524244902505 72.7367
4.931843734218147 75.1852
4.954180820867835 78.7677
4.976518095879839 82.53200000000001
4.998838149695359 86.2608
5.021175803844231 90.45700000000001
5.043496238205739 94.9564
5.065834274903528 100.92200000000001
5.088172504230693 108.227
5.1104935158799565 117.12
5.132832132875765 130.624
5.155153533596801 153.797
5.1774925416746225 208.325
5.199814334878411 545.115
5.2221537374521505 1930.82
5.244493338631803 3767.62
5.266815727034316 5400.59
5.289155727832427 8239.36
5.311478517248165 9587.66
5.333818921080011 6319.99
5.356159527788849 1967.86
5.3784829252032536 452.64
5.400823940070432 212.04
5.423147747031976 162.656
5.445489173474152 139.844
5.467830807066149 127.15100000000001
5.490155234831516 119.455
5.512497285125229 113.785
5.534822130975162 110.89
5.557164601388673 107.5
5.579489868738879 103.98100000000001
5.601832762690846 101.37200000000001
5.6241758697774475 99.4385
5.646501775867269 98.9787
5.668845311622074 97.6982
5.691171647754637 97.162
5.713515615597765 96.0867
5.735859800852677 94.9679
5.758186788542988 94.7265
5.780531411018185 95.2566
5.802858837297399 94.7356
5.825203900414495 95.4414
5.8475491852224 96.6432
5.869877275883075 98.1747
5.892223006467101 101.18799999999999
5.914551544266608 104.902
5.936897724049891 112.01
5.959244129804903 123.757
5.981573344815301 154.58700000000002
6.0039202049061 287.303
6.026249875609095 745.586
6.04859719346037 1383.76
6.070927323278297 1918.65
6.093275102315365 2721.71
6.115623113320588 3811.26
6.137953938319995 3987.89
6.160302415650845 2230.07
6.182633708324452 749.847
6.2049826554078376 225.69400000000002
6.227331838745022 121.976
6.249663839443684 99.1215
6.27201349767565 88.9691
6.294345974611799 82.8697
6.316696111167083 78.3625
6.339046488263839 75.0767
6.361379686074702 72.8632
6.383730546639482 70.9817
6.406064229255215 68.442
6.428415576718203 67.271
6.450749747566656 66.1454
6.47310158535871 64.8968
6.495453669698332 63.9734
6.517788579421056 63.3322
6.540141159237969 62.0756
6.562476565766648 61.7683
6.5848296444934045 60.8796
6.607182974060425 60.2318
6.6295191323281015 59.4319
6.651872965955752 58.9571
6.6742096296068985 58.2782
6.6965639707294615 58.4544
6.71891856698715 58.0569
6.741255995248479 57.0965
6.763611104154477 56.6565
6.785949046381137 56.0087
6.808304671371482 55.4669
6.8306605557940046 55.1704
6.852999275508618 54.7117
6.875355681171544 54.6331
6.897694923437771 54.6319
6.92005185377892 54.6286
6.9423916220322655 54.1977
6.964749080490181 53.3058
6.987106804399774 53.2993
7.009447368180821 53.4082
7.031805625367033 53.0994
7.054146723727803 52.7698
7.076505517631004 52.7407
7.098864581288365 52.4583
7.121206488070854 52.3986
7.143566093607822 52.1738
7.165908543567245 52.1734
7.188268694426048 52.2582
7.2106291193438095 51.5061
7.232972390625943 51.786
7.255333366030969 51.8081
7.277677189091925 51.7048
7.300038718428332 51.8497
7.322400526130865 51.5874
7.344745183422596 51.9926
7.367107550224791 51.8636
7.389452767901992 52.1997
7.411815697249891 52.2846
7.434161478756298 51.742
7.456524974096713 51.8003
7.478888753837185 51.995
7.501235387657368 53.1057
7.523599738562711 55.8834
7.545946944825532 61.6653
7.568311870344528 63.0672
7.5906770845765665 58.4627
7.613025156078678 54.6994
7.635390950099687 53.7814
7.657739602662809 53.1356
7.680105979923558 53.2702
7.702472650212829 53.8919
7.724822180948224 53.845
7.747189439655568 54.2965
7.769539560075357 54.4165
7.791907410653562 54.8295
7.81425812420825 54.7321
7.836626570110925 54.8675
7.858995315087906 56.157
7.881346924933401 56.2788
7.903716270417482 56.3102
7.926068482028405 56.878
7.948438431475253 57.3946
7.9708086843180235 58.1053
7.993161805171116 58.7701
8.015532667162402 59.2186
8.037886398416653 60.617
8.060257873014221 60.4116
8.082629655331942 61.2027
8.104984308787587 61.6195
8.127356708900503 62.5073
8.149711981398308 63.6094
8.172085002766314 64.2656
8.194458336181368 65.3706
8.216814543847752 66.317
8.23918850371002 67.7537
8.26154533906492 68.8631
8.283919928836452 70.6826
8.306277395339652 71.6411
8.328652618483376 73.2633
8.351028159736202 75.4947
8.373386579575245 77.9272
8.395762759396959 80.2152
8.418121819038275 83.3996
8.440498640894003 87.7124
8.462875785192262 95.3016
8.485235811156207 109.88
8.507613602688501 171.778
8.529974277114228 365.907
8.552352719347912 600.387
8.574731488360351 771.3960000000001
8.59709314210385 888.928
8.619472567021075 1109.67
8.64183487789147 1490.52
8.664214962183097 1862.59
8.686577933647762 1636.71
8.708958680784317 927.1289999999999
8.731339760774953 392.462
8.753703729764451 173.57299999999998
8.77608547780821 116.194
8.798450116065078 103.42200000000001
8.820832535634787 96.96700000000001
8.843215292401656 93.4945
8.865580941199045 91.0036
8.887964374703538 88.8642
8.910330701447199 87.6549
8.932714815164482 86.4193
8.955099270424924 85.07700000000001
8.977466620733543 84.2374
8.999851761421976 83.8565
9.022219798361645 83.2519
9.04460562795561 82.9413
9.066991803441677 82.7275
9.089360876979615 81.9627
9.111747746589993 81.7681
9.13411751544971 81.3925
9.156505082664324 81.5282
9.178875550323522 81.1823
9.20126381862328 81.8088
9.223652438908596 87.0222
9.246023961427412 95.8731
9.26841328802173 96.8985
9.290785518039224 91.7386
9.313175554425882 86.3488
9.335565947154315 82.9077
9.357939245086508 82.1358
9.380330352834827 81.9795
9.40270436697103 82.1801
9.425096193225055 81.6138
9.447488380180165 82.8517
9.469863475295412 83.0757
9.492256385987508 83.2987
9.514632206018318 84.0385
9.537025843935714 84.48899999999999
9.559402392368193 85.0597
9.581796761000229 86.2445
9.604191496441521 86.1428
9.626569144158516 86.4051
9.648964615551032 87.5072
9.671343000390081 88.3713
9.693739211225699 89.3027
9.716135793237463 90.4454
9.738515290448102 91.7212
9.760912617143402 92.8553
9.783292860202891 93.9072
9.805690935076182 95.4723
9.828089385495742 96.4081
9.850470754023561 98.8133
9.872869957865444 100.786
9.89525208097539 103.831
9.917652041736662 107.594
9.940052382417589 113.82700000000001
9.962435644102392 129.849
9.984836746950979 184.907
10.007220771957746 340.749
10.029622640473708 543.469
10.052007432299963 674.997
10.074410069984072 734.679
10.096813093716005 828.294
10.119199042482517 1034.09
10.141602840636468 1383.26
10.163989564971628 1656.13
10.186394141051062 1537.63
10.208799107559706 983.498
10.231187001965623 481.42
10.253592751657669 214.235
10.275981430388155 133.64600000000002
10.298387966769793 115.919
10.320794897965431 110.846
10.343184759907361 107.44200000000001
10.36559248305461 105.154
10.387983138083852 104.194
10.410391656691655 106.54899999999999
10.432800574501677 121.14299999999999
10.455192425893369 163.672
10.47760214443012 214.90400000000002
10.499994797678786 248.12599999999998
10.522405320453982 262.807
10.54479877906917 284.601
10.567210109595656 329.63699999999994
10.5896218454736 407.339
10.612016518879773 485.241
10.634429067781074 482.231
10.656824555333241 366.657
10.679237920773568 227.69099999999997
10.701651695961992 134.683
10.724048411481384 100.66
10.746463008485165 90.6518
10.768860546937125 86.3439
10.791275969274796 83.5618
10.81369180576079 82.0573
10.836090585366925 80.428
10.858507252467449 79.1806
10.88090686379991 77.8765
10.903324365036394 77.0558
10.925724811614439 75.7853
10.948143150509463 75.3771
10.970561909719066 74.4745
10.992963615930844 73.4408
11.015383218085756 72.6196
11.037785768347074 71.6168
11.06020621697282 71.0554
11.082627090322113 70.8963
11.105030913430326 70.1676
11.12745263854165 69.3774
11.149857314510728 68.5538
11.172279894912576 68.4935
11.194702904450653 67.6095
11.217108866490921 66.8747
11.239532736615194 66.5167
11.26193956033512 66.5061
11.284364294577085 66.0172
11.306789462371718 65.4116
11.329197585398376 65.2477
11.351623622610898 65.3703
11.37403261614354 64.6931
11.396459526308487 64.6162
11.418869393879497 63.8681
11.441297180532617 63.5138
11.463725406927658 63.4171
11.486136592353875 62.9597
11.508565700543707 62.5043
11.530977768845315 62.7353
11.553407762368774 62.5452
11.575838200059769 62.2072
11.598251599479612 61.9835
11.620682927815501 61.9764
11.64309721895548 62.0853
11.665529441478206 61.6644
11.687962112597958 61.2011
11.710377748130886 61.5643
11.732811318753434 61.3525
11.755227854859067 61.4249
11.777662328529495 61.2398
11.800079768750786 61.2497
11.822515149015453 61.0331
11.844950984084935 61.47
11.867369787303163 60.875
11.889806534289491 61.3469
11.912226250487029 62.2227
11.934663912939751 63.9025
11.9571020346363 65.8619
11.979523127133968 65.3824
12.001962169624331 65.3184
12.024384183972964 64.9472
12.046824150809913 67.4296
12.069264581333726 77.3417
12.091687985297767 90.2685
12.11412934550045 101.507
12.136553680195208 107.80799999999999
12.158995973632788 111.87100000000001
12.181438735204349 117.772
12.20386447284199 129.839
12.226308172985636 151.019
12.24873485024193 177.09
12.271179492516982 190.976
12.293607112949127 177.213
12.316052700916226 138.04
12.338498763250042 98.5378
12.360927805303868 75.0187
12.383374818673879 66.7016
12.405804812803074 63.934
12.428252780773262 63.338
12.45070122756722 63.2432
12.473132656675375 62.8079
12.49558206341869 63.0051
12.518014453510101 62.9095
12.540464823770117 62.9044
12.562915677315177 63.0234
12.58534951575545 63.6008
12.607801338171472 63.3993
12.630236146511358 63.9183
12.652688941369085 64.1128
12.675124723177234 64.2215
12.697578494048786 65.0463
12.720032754458185 64.9465
12.742470003354093 65.5209
12.764925245138771 65.9346
12.787363476431278 66.3852
12.809819703166806 66.6573
12.83227642391173 67.6839
12.854716135692716 68.1764
12.877173846755147 69.3496
12.899614549869717 69.6138
12.9220732548287 70.9513
12.94453245827299 70.9772
12.966974655289818 72.3403
12.989434858002571 73.0498
13.011878055298721 73.9158
13.034339260862497 74.92699999999999
13.056800969391883 76.3505
13.079245674017244 79.0929
13.101708390774869 80.9545
13.12415410463411 86.1181
13.146617833206086 102.551
13.169064559883248 132.362
13.191529303857127 163.351
13.213994557076367 186.58
13.236442809902437 197.21900000000002
13.258909083908291 204.72299999999998
13.28135835851934 218.075
13.30382565690295 245.25099999999998
13.326293469022952 291.353
13.348744283242008 348.961
13.371213125129904 393.82800000000003
13.39366497011003 381.226
13.416134845360597 306.491
13.438605238843131 212.139
13.46105863690397 143.45600000000002
13.483530069144786 119.531
13.505984506951902 129.483
13.528456981549432 154.093
13.550929978879088 172.67700000000002
13.573385983253365 182.101
13.595860028340867 184.993
13.618317081455832 192.78
13.64079217790333 209.775
13.663250283359057 237.95
13.685726434770173 282.24
13.708203115221277 333.04400000000004
13.730662806148091 344.559
13.75314054697177 308.312
13.775601299246777 230.55900000000003
13.798080104050406 152.441
13.820559442405358 106.234
13.843021793671388 88.3152
13.865502201420897 82.1296
13.887965623051947 80.4438
13.910447103807167 79.1015
13.932929122629764 77.4518
13.955394156785959 76.8016
13.977877254034569 75.9065
14.000343367582113 75.0685
14.022827546871707 74.3341
14.045294743423524 73.4633
14.06778000837062 72.7432
14.090265817715476 72.5991
14.112734645763819 72.6835
14.13522154619454 73.346
14.157691466286913 74.0173
14.180179461423874 73.5416
14.202668005486178 72.6939
14.22513957064374 71.5283
14.247629214846473 70.4969
14.270101881097517 69.4184
14.29259262906496 69.1233
14.315083930490205 69.08
14.337558255389705 69.043
14.360050666019726 68.5997
14.382526101071944 68.3532
14.405019624534942 68.2268
14.427513705993134 68.0822
14.449990813291825 67.9117
14.47248601302899 67.8115
14.49496423954951 68.42699999999999
14.517460561197822 68.4297
14.539939910570322 67.854
14.562437357763558 68.0364
14.58493536931253 68.2537
14.607416409993311 68.587
14.62991555254159 68.8421
14.652397725157423 69.1188
14.674898002342799 69.4419
14.697398848433282 69.5759
14.719882725991326 70.6199
14.74238471217934 71.1899
14.764869730765593 73.9096
14.787372860692983 80.3572
14.809876564079925 93.4512
14.83236330125751 106.63600000000001
14.854868153850365 116.185
14.877356041159485 120.734
14.899862046604186 122.82
14.922351087688757 126.552
14.944858249632887 134.933
14.967365991421232 148.261
14.989856770231246 166.641
15.012365673994204 191.987
15.03485761569738 209.497
15.05736768508665 203.548
15.07987833888692 176.695
15.102372032001655 138.69
15.124883856909658 102.039
15.14737872204565 81.9024
15.169891721717274 73.7727
15.192405310371893 71.2221
15.214901940621196 70.1931
15.237416709527137 69.0005
15.259914520936249 68.6368
15.282430473753607 67.6659
15.304947020131227 67.1076
15.327446610371178 66.9269
15.349964346154254 66.5927
15.372465126703139 66.3595
15.394984055556009 66.1752
15.417486030076159 66.1334
15.44000615566487 65.6924
15.462526881230803 65.5579
15.485030653812652 65.6664
15.507552581617434 65.3544
15.530057557334603 65.2073
15.55258069104857 65.5116
15.575104429329837 65.5915
15.597611216864632 65.5067
15.620136166564563 65.9528
15.6426441664095 66.1271
15.665170331202765 67.9349
15.687697105158826 73.5058
15.710206930593545 83.9464
15.732734925158933 94.7231
15.755245972089478 102.84100000000001
15.77777519094324 107.29799999999999
15.800287463046663 108.76100000000001
15.822817909869592 110.758
15.84534897229804 115.43799999999999
15.867863089299354 124.887
15.890395385222186 137.097
15.912910736597423 154.382
15.935444269699861 174.524
15.957978423016485 184.69299999999998
15.980495633101265 175.403
16.003031029129367 151.653
16.02554948280019 116.279
16.048086125229432 88.4265
16.070623392487107 73.0436
16.09314371869582 65.9544
16.11568223789321 62.9842
16.13820381691126 61.6459
16.160743591742527 60.9949
16.183283996022084 60.0891
16.205807461423195 59.2228
16.228349126881973 58.7518
16.25087385432698 58.7486
16.27341678466365 57.8123
16.29594277784926 57.6546
16.31848697676433 57.0969
16.341031811604868 56.5596
16.36355971058487 56.3492
16.3861058195587 56.3549
16.40863499352978 55.8705
16.431182380342005 55.7955
16.453730407713202 55.4302
16.476261501364792 55.3774
16.498810812136167 54.9687
16.52134319004079 54.9508
16.54389378792203 54.726000000000006
16.566445031001553 54.5142
16.588979342490088 54.7504
16.61153187824822 54.7292
16.634067483263312 54.4183
16.656621315414416 54.2429
16.679175797408888 53.7773
16.701713349928728 53.9853
16.72426913389191 53.9936
16.74680798922351 54.0958
16.76936507887444 54.1021
16.791905240734874 54.0718
16.814463639794468 54.0482
16.837022695210294 53.9774
16.859564824093756 54.1267
16.882125194503903 54.1284
16.904668639217885 54.4309
16.927230328348003 54.5425
16.949792678493612 54.8431
16.972338104193863 54.8384
16.994901778652235 54.955
17.017448529496576 54.9453
17.040013531998152 55.2027
17.06257920018044 55.6738
17.0851279459922 56.6201
17.107694947817667 58.8129
17.130245028099072 61.0288
17.15281336730298 62.9962
17.17536478578733 64.0656
17.19793446610687 64.7768
17.220504818648422 65.2489
17.243058251703697 65.3598
17.265629950971032 67.1534
17.288184731571736 68.9881
17.310757781306908 72.0845
17.33333150794385 75.7496
17.355888317140174 79.2242
17.37846339986244 81.718
17.401021565958885 80.5449
17.42359800851343 76.4126
17.44617513265564 70.9188
17.468735341390783 65.4552
17.491261035594565 61.4425
17.51396340099364 59.4905
17.536490463869136 59.1866
17.559018209820174 58.7716
17.58154663977963 58.8313
17.604251766089718 59.074
17.626781572227713 59.2275
17.64931206518155 59.427
17.671843245885103 59.7315
17.69455114821572 59.6826
17.717083712612634 60.0685
17.739616967569667 60.5268
17.762150914021706 61.1935
17.78486160749854 61.45399999999999
17.807396945166804 62.0509
17.829932977143503 62.8156
17.85246970436452 63.7195
17.875183204129467 66.373
17.897721330097664 71.8537
17.920260154126645 78.41199999999999
17.942799677153296 83.3123
17.9655159983646 86.7634
17.988056927677544 88.4627
18.010598558807683 89.6127
18.033140892692916 91.0414
18.05586005052525 93.3697
18.07840379824407 98.2858
18.10094825154059 105.111
18.12366954819864 115.18
18.146215420998306 127.742
18.16876200220057 140.827
18.191309292745153 146.762
18.214033452627167 141.982
18.236582170236648 128.194
18.259131600016456 110.35600000000001
18.281681742907335 96.0162
18.304408781233683 88.1888
18.32696035875955 85.8297
18.349512652227624 86.3052
18.372065662579683 90.0477
18.394795594587553 94.8457
18.41735004715306 100.236
18.43990521943684 103.587
18.46246111238171 101.777
18.485193953325208 94.9415
18.507751296070428 85.3759
18.530309362314178 76.3021
18.552868153000343 69.3379
18.57560391815056 64.9948
18.59816416623245 63.2619
18.620725141597372 62.1567
18.643286845190268 61.3298
18.666025549835414 60.8745
18.688588718427933 60.1656
18.711152618092243 59.9058
18.73389353884365 59.4635
18.75645890921984 58.8714
18.77902501351406 58.7634
18.801591852673102 58.6853
18.824335739722738 58.1518
18.846904057212626 58.1068
18.8694731124168 57.8412
18.89204290628315 57.8121
18.914789774966803 57.4409
18.937361054791623 57.1276
18.959933076131318 57.2302
18.982505839934877 56.9503
19.00525570560582 56.9957
19.027829963004184 56.6704
19.05040496572238 56.7096
19.072980714710468 56.6751
19.095733592739563 56.7385
19.11831084296757 57.1258
19.140888842324735 58.3012
19.16346759176222 59.5825
19.18622349753803 60.5428
19.208803755869358 61.6573
19.231384767143577 62.4174
19.253966532312948 62.3665
19.276725481241822 62.5752
19.29930876296784 62.9578
19.3218928014549 63.9239
19.34465404436217 65.2291
19.36723960516257 66.9013
19.389825925592426 69.0459
19.412413006605938 71.5324
19.43517731967805 73.47
19.457765930683355 74.2306
19.48035530514408 72.2653
19.50294544401556 68.4821
19.525712842708348 63.7106
19.54830451925909 59.8011
19.570896963095727 56.2764
19.593490175174704 54.6655
19.616260674962184 54.2796
19.638855432416964 53.644
19.661450960992624 53.6049
19.68404726164677 53.6549
19.706820878021247 53.3641
19.729418731756834 53.4953
19.752017360452857 53.2141
19.77461676506804 53.4275
19.797393513540218 53.532
19.819994478951667 53.6903
19.84259622316767 54.5796
19.8651987471481 55.7308
19.887978643247177 56.5412
19.91058273574792 57.5762
19.933187610901943 58.16
19.955969879466828 58.4951
19.97857632894404 58.5407
20.00118356396599 58.7798
20.023791585494575 59.2196
20.046577028914875 60.2351
20.069186632506966 61.9051
20.091797025500632 64.0376
20.114408208858933 66.533
20.137196842715273 69.8635
20.159809615886765 72.3805
20.18242318232135 72.5751
20.20503754298326 71.0587
20.227829382875154 68.2154
20.250445341109344 65.3026
20.27306209647285 62.6349
20.29567964993108 60.9266
20.31847471147704 60.7271
20.34109387027612 61.4857
20.363713830075454 62.8043
20.386334591841646 64.4822
20.409132890679302 65.1809
20.431755265564437 64.4415
20.454378445325528 61.9013
20.477002430930366 58.7884
20.499803982716553 55.7543
20.522429589228004 53.2815
20.54505600449589 51.6872
20.567683229489194 50.8449
20.590488049900088 50.5364
20.61311690359731 50.2516
20.63574656993626 50.0944
20.658553853717297 49.842
20.681185154618298 49.8254
20.703817271080066 49.5689
20.72645020407368 49.2289
20.749260783967177 49.2267
20.771895359337133 49.1005
20.794530754161617 49.2275
20.817166969412938 48.9177
20.83998086114876 48.9462
20.86261872660049 48.894
20.885257415405402 48.7321
20.90789692853701 48.5709
20.930714147864748 48.5319
20.953355319030678 48.5212
20.97599731745334 48.7624
20.99864014410749 48.7769
21.021460706796564 48.9059
21.044105199328826 49.263000000000005
21.06675052302631 49.4152
21.089396678865015 49.3223
21.112220600704806 49.361000000000004
21.134868430275347 49.7318
21.15751709492456 49.5004
21.180166595629693 49.6149
21.202993892429635 49.8007
21.22564507473034 49.8441
21.24829709602816 50.1422
21.27112693608965 50.7187
21.293780644891275 51.4402
21.316435195634053 51.5881
21.339090589297417 51.3148
21.361923832041875 51.1823
21.384580921090404 50.3004
21.407238856007325 49.6258
21.429897637773326 49.1997
21.45273429906592 49.001000000000005
21.475394784108598 48.7272
21.498056118951983 48.5383
21.520718304578022 48.5913
21.543558400304388 48.8304
21.566222297108816 48.8678
21.58888704765135 48.9688
21.61155265291521 49.2718
21.63439619898156 50.1761
21.657063523335786 51.1742
21.67973170537063 52.2983
21.7024007460706 53.0162
21.72524775840385 53.5945
21.747918526116475 54.0305
21.770590155457388 54.1737
21.79326264741238 54.4362
21.816113141960237 54.9613
21.838787368860547 55.8136
21.861462461341976 56.8973
21.884315579735777 58.4745
21.90699241312273 60.1974
21.92967011506078 62.0732
21.95234868653799 64.2161
21.9752053151131 65.9344
21.997885635446785 66.3204
22.020566828293532 65.702
22.04324889464272 63.4864
22.066109049404666 60.5982
22.088792872571794 57.9391
22.111477572219204 56.2778
22.1341631493376 55.5542
22.157026846313123 55.4603
22.179714188221507 56.1013
22.202402410582668 56.5281
22.22509151438863 56.0313
22.24795876962584 55.263000000000005
22.270649646204486 53.9286
22.293341407213727 52.4787
22.316034053646906 50.9505
22.338904883215342 50.0496
22.36159931041458 49.4727
22.38429462602756 49.2229
22.40699083104897 48.7908
22.429865251039757 48.7653
22.452563244831367 48.6981
22.47526213102522 48.8052
22.49813925616515 48.769
22.520839937143307 48.7034
22.543541513520587 48.6826
22.56624398629403 48.6498
22.589124730075895 48.6161
22.611829005656723 48.8356
22.63453418063466 48.8493
22.657240256008077 49.1119
22.680124634582935 49.4325
22.70283252079775 50.2101
22.725541310413075 51.0129
22.74825100442868 51.4802
22.771139033969575 51.9034
22.79385054687155 51.9464
22.81656296718292 51.8553
22.83927629590484 52.1373
22.862167992606945 52.3221
22.88488314827121 52.525
22.907599215359284 52.8121
22.93031619487366 53.4544
22.953211574954405 53.9972
22.975930389478226 55.0875
22.998650119445763 56.2362
23.02137076586092 57.1367
23.044269845560063 58.0663
23.06699233506288 58.2394
23.089715744034912 57.5742
23.112617610931565 55.8587
23.135342869061212 54.0324
23.158069049684816 52.016999999999996
23.1807961538087 50.632
23.20370174880544 49.7055
23.226430710184808 49.3634
23.249160598093425 49.2406
23.271891413539002 49.1713
23.294800752937697 49.5307
23.31753343374794 50.4638
23.340267045128353 50.865
23.36300158808808 51.3897
23.38591468821339 51.7005
23.408651104658304 51.8374
23.431388455719986 51.721000000000004
23.454126742409 51.7355
23.4770436196085 51.8942
23.499783787914662 52.2509
23.522524894889884 52.4309
23.54526694154616 52.7421
23.56818761219047 53.434
23.59093154860734 54.3321
23.613676427751283 55.7615
23.636422250635754 56.9581
23.659346731118656 57.8653
23.68209445191868 58.0674
23.704843119509587 57.1369
23.72759273490623 55.3592
23.750521041644767 53.2813
23.77327256312355 51.0351
23.796025035462787 49.0832
23.818956224555475 47.5027
23.841710609113413 47.0298
23.86446594758979 46.4586
23.887222241002014 46.1712
23.910157285144578 45.7564
23.932915498962537 45.6804
23.955674670778713 45.5096
23.978434801611975 45.2482
24.001373717286125 45.0023
24.024135776723917 44.9446
24.046898798245582 44.8543
24.06966278287146 44.7328
24.092605586582614 44.3716
24.115371508023642 44.3067
24.1381383956401 44.3347
24.16090625045381 44.2409
24.183852958731244 44.1907
24.206622758582608 44.0331
24.229393528706886 43.8786
24.252165270127392 43.9082
24.27511589952438 43.7369
24.297889594216997 43.606
24.32066426328598 43.4225
24.34343990775613 43.5174
24.36639447485003 43.4168
24.38917208083877 43.2806
24.41195066531332 43.205
24.43490819850244 43.1955
24.457688750692377 43.0674
24.48047028445616 42.9368
24.503252800821233 43.1562
24.526214300784112 43.2153
24.548998793132213 43.0238
24.57178427117417 42.8138
24.59457073593893 43.0189
24.617536219319863 43.0369
24.64032466834748 43.2256
24.663114107195035 43.1323
24.685904536893013 42.9569
24.708874020360852 42.8716
24.731666442613744 42.9363
24.754459858818787 42.8398
24.777254270007962 42.7139
24.80022777025625 42.5386
24.82302418230472 42.3982
24.845821592443674 42.3437
24.86862000170663 42.5142
24.891597535453727 42.4316
24.914397953892728 42.6616
24.93719937456671 42.7782
24.96000179851076 42.9025
24.98298338249997 42.8607
25.00578782394922 43.0338
25.028593271784167 43.1342
25.05157790644186 43.4585
25.07438537804115 43.4756
25.097193859145293 43.794
25.120003350792075 43.7823
25.142992065061257 44.0401
25.165803588823465 44.3704
25.18861612625217 44.5296
25.211429678386736 44.5733
25.234422489079968 44.835
25.257238081693636 44.9785
25.280054692141732 45.0819
25.3028723214652 44.8866
25.325869245420463 44.9067
25.348688923599397 44.8295
25.371509623787006 44.7665
25.394331347025812 44.7826
25.41733240110666 44.8229
25.440156181590016 44.8919
25.46298098826268 44.9541
25.48580682216873 44.4957
25.50881202326435 43.7468
25.53163992281684 43.038000000000004
25.55446885274561 42.3862
25.577298814096377 41.6968
25.600308179121807 41.4044
25.623140214533745 41.3388
25.64597328451537 41.1024
25.66898578564376 40.8403
25.691820936010206 40.9029
25.714657124097695 40.8345
25.737494350954734 40.6987
25.760511045684957 40.7563
25.783350361364224 40.8798
25.806190718969255 40.9337
25.82903211955018 41.0624
25.852053024868923 41.1349
25.874896522722523 41.2467
25.897741066713106 41.016999999999996
25.920586657892454 41.08
25.943611790812668 40.9241
25.966459487728237 40.9431
25.989308234998564 40.8877
26.01215803367705 41.1608
26.03518741123814 41.1489
26.05803932412957 41.2053
26.080892291600094 41.1202
26.10374631470478 41.3268
26.12677995397268 41.6333
26.14963609978026 41.9611
26.172493304397875 42.0479
26.19535156888223 42.2372
26.218389486949604 42.1123
26.241249882640123 41.8322
26.26411134137826 41.4874
26.28715248187403 41.2793
26.31001607820869 41.0225
26.3328807407756 40.7155
26.35574647063438 40.8635
26.37879191991473 40.7668
26.401659795896734 40.7056
26.424528742360263 40.721
26.447398760366614 40.912
26.470448535598294 40.9337
26.49332070826805 40.8499
26.516193955675355 41.1898
26.53906827888316 41.1864
26.562122397260108 41.1331
26.584998883685063 41.3857
26.607876449110325 41.7039
26.63075509460056 41.8678
26.65381357334404 41.9684
26.67669439061878 42.013999999999996
26.699576291163382 42.3512
26.722459276044212 42.5168
26.745522132402975 42.7714
26.768407297649354 42.6827
26.791293550442003 42.4604
26.814180891848974 41.9507
26.837248143099337 41.5294
26.860137673466657 41.2617
26.88302829566349 40.8325
26.90592001075963 40.7732
26.92899167420566 40.6549
26.951885586870763 40.3441
26.974780595655517 40.135999999999996
26.99785558178161 40.0791
27.020752794605112 39.8385
27.043651106772522 39.4613
27.06655051935668 39.3643
27.089629948036183 39.1154
27.112531573292053 39.1641
27.135434302194138 39.1725
27.158338135817015 38.898
27.181422024430987 38.9775
27.204328079372566 38.9338
27.22723524226965 38.92
27.250143514198573 38.9373
27.273231880156334 38.9875
27.296142382065014 38.8696
27.319053996245536 38.6367
27.341966723775965 38.7949
27.365059584515222 38.821
27.38797455070062 38.8574
27.410890633481237 38.6134
27.433807833936918 38.4662
27.456905206923906 38.6063
27.47982465472398 38.635
27.502745223449743 38.6315
27.525666914182825 38.7308
27.548768816912457 38.6353
27.571692763693633 38.7005
27.59461783573812 38.7389
27.617723149491244 38.6233
27.640650484125285 38.7285
27.66357894728264 38.8038
27.686508540048052 38.6463
27.709618414237887 38.7345
27.732550278321757 38.5596
27.755483275279115 38.4782
27.778417406196485 38.4165
27.801531858397514 38.4825
27.824468269376716 38.3298
27.847405817586786 38.141999999999996
27.870344504116094 38.4255
27.893463551932008 38.457
27.916404527281053 38.6442
27.93934664422563 38.6118
27.962289903855886 38.4346
27.98541356491974 38.6877
28.00835912214229 38.7746
28.03130582533231 38.8707
28.054253675581805 38.9128
28.077381967556104 39.0505
28.100332124185126 39.2081
28.123283431160893 39.3082
28.146235889577238 39.4283
28.169368830154156 39.4062
28.192323603752033 39.4521
28.215279532083304 39.0837
28.238415973016764 38.8734
28.261374223145094 38.65
28.284333631303806 38.2934
28.307294198589954 38.3648
28.330435319167677 38.0925
28.353398217078915 37.7682
28.376362277420153 37.6532
28.39932750129032 37.426
28.422473319286713 37.1916
28.44544088262495 37.0049
28.468409612800283 36.8503
28.491379510913497 36.473
28.51453004413313 36.3013
28.53750229057244 36.2755
28.56047570826344 36.129
28.583450298308804 36.246
28.606605564586562 35.9474
28.629582511831156 36.2478
28.65256063474956 36.0824
28.675539934446338 36.0631
28.698699951647605 35.9581
28.72168161743193 35.6997
28.74466446331978 35.7022
28.767648490417624 35.63
28.790813276438353 35.5721
28.813799678527303 35.5648
28.836787265157085 35.5762
28.859955641890075 35.5361
28.882945610203045 35.6032
28.905936766392035 35.4898
28.928929111566863 35.5618
28.952102288520145 35.5427
28.975097024308607 35.4136
28.998092952423807 35.2858
29.021090073977508 35.4337
29.04426806913204 35.2635
29.067267590245258 35.2105
29.090268308143695 35.1335
29.11327022394099 35.1115
29.13645305530891 34.9344
29.159457379627167 34.696
29.18246290519685 34.6698
29.20546963313352 34.597
29.22865731875826 34.5592
29.25166646419296 34.491
29.27467681535305 34.3982
29.29768837335608 34.3854
29.320880931312562 34.4321
29.34389491580634 34.260999999999996
29.366910110507334 34.2393
29.38992651653503 34.3323
29.41312396492981 34.3392
29.436142806456754 34.3793
29.45916286268059 34.3336
29.48236399319994 34.3982
29.50538649169417 34.2468
29.528410208259935 34.1928
29.55143514402014 34.0434
29.574641196749695 33.8673
29.597668583816574 33.7876
29.6206971934585 33.4827
29.64372702680042 33.4481
29.666938019934474 33.3737
29.689970313635285 33.255
29.713003834422636 33.2149
29.73603858342347 33.1627
29.759254535188578 32.9382
29.78229175361658 32.9582
29.80533020365064 32.9997
29.82836988641968 33.0792
29.85159081507472 32.9255
29.874632976355343 32.9032
29.89767637376955 32.907
29.920721008448314 32.7304
29.9439469322847 32.7638
29.96699405457564 32.7276
29.9900424175358 32.7312
30.013092022298157 32.7595
30.03632295963995 32.6274
30.059375061131373 32.7272
30.08242840783577 32.6168
30.105483000888153 32.6523
30.128718970092244 32.5642
30.151776069006917 32.5425
30.17483441768648 32.5609
30.198074175317235 32.4912
30.221135036724256 32.5901
30.24419715131772 32.4774
30.267260520236203 32.4712
30.290505341942243 32.5193
30.313571232750228 32.6701
30.336638381310948 32.6757
30.35970678876503 32.6231
30.38295669299435 32.5694
30.40602763151657 32.6319
30.429099832366074 32.6077
30.452173296685572 32.575
30.47542830191959 32.3787
30.498504306502497 32.2223
30.521581577995562 32.3368
30.544660117543582 32.3338
30.56792024229725 32.2893
30.59100133132069 32.2361
30.614083691845494 32.2725
30.637167325018545 32.3664
30.660432587840603 32.3528
30.683518779717886 32.3091
30.70660624769615 32.3698
30.729694992924372 32.336999999999996
30.75296541239743 32.3477
30.77605672557558 32.4339
30.799149319462742 32.5075
30.8224236211637 32.4376
30.845518789950724 32.3901
30.868615242910597 32.306999999999995
30.891712981195973 32.2347
30.91499247215866 32.1138
30.938092794619365 32.0242
30.96119440587579 31.9689
30.984297307082752 31.7861
31.00758200598383 31.6891
31.030687500658694 31.5958
31.053794288760695 31.5956
31.076902371446767 31.4286
31.100192296997445 31.5348
31.12330298246119 31.3608
31.14641496599209 31.2695
31.169528248749216 31.3187
31.19282341969534 31.3044
31.215939314557186 31.2579
31.239056512134788 31.2654
31.262175013589378 31.111
31.28547544871168 31.141
31.30859657161541 30.9865
31.331719001892175 31.0939
31.35484274070538 31.1564
31.378148458819545 31.0716
31.401274828443725 31.081
31.424402510106933 31.0192
31.447712205419993 31.1038
31.470842524931633 31.026
31.493974159989783 31.1145
31.51710711176168 31.073
31.54042212308802 31.0294
31.563557722100917 31.070999999999998
31.586694641341655 30.980999999999998
31.609832881979628 30.8971
31.63315322823208 30.9441
31.656294125521327 30.9547
31.679436347728515 30.8115
31.70257989602529 30.7234
31.725905596152327 30.5948
31.74905181052835 30.4253
31.772199354521323 30.4642
31.79534822930507 30.4327
31.818679302290967 30.423000000000002
31.84183085259981 30.3725
31.864983737233473 30.2724
31.88813795736804 30.3845
31.911474422233013 30.2912
31.934631327356435 30.1997
31.9577895715215 30.2237
31.980949155906522 30.2772
32.004291031706956 30.2458
32.027453310562606 30.1909
32.05061693318573 30.2364
32.07396288236386 30.2135
32.09712920658542 30.1631
32.12029687812702 30.0584
32.14346589817093 29.9711
32.166817291729984 29.9231
32.18998902288583 29.7821
32.21316210610336 29.7654
32.23633654256711 29.5892
32.259693399663725 29.6016
32.282870556771144 29.4797
32.30604907069099 29.5391
32.329228942610065 29.4829
32.35259128243769 29.294
32.375773884550505 29.2277
32.398957848235646 29.1693
32.422143174682176 29.1433
32.445511016471215 29.0033
32.468699082679954 28.9317
32.49188851523011 28.8283
32.51507931531304 28.8741
32.538452678331 28.896
32.56164622776311 28.7604
32.58484114831493 28.6968
32.60803744118015 28.7661
32.631416344731896 28.7776
32.654615396551876 28.6849
32.67781582427913 28.6481
32.701198898634416 28.5604
32.72440209253756 28.4592
32.747606665947124 28.4778
32.77081262006088 28.3673
32.79420126883317 28.3583
32.81740999876112 28.3952
32.840620112999424 28.3179
32.86383161274818 28.211
32.88722585534586 28.2385
32.91044014056596 28.2492
32.933655814909734 28.2818
32.95687287957963 28.3108
32.98027273544904 28.1054
33.00349259526636 28.0481
33.026713849030116 28.2072
33.04993649794511 28.0514
33.073341986570746 28.0034
33.09656744032826 27.9678
33.11979429286444 27.9649
33.14302254538647 27.9964
33.166433686291185 27.9398
33.18966475336992 27.8835
33.212897224069096 27.8228
33.23613109959831 27.86
33.259547912343415 27.8096
33.2827846121627 27.8745
33.306022720453775 27.7119
33.32926223842861 27.6138
33.352684742614166 27.6089
33.37592709463173 27.6161
33.399170859982064 27.5603
33.422597648419426 27.4974
33.44584425514446 27.4842
33.46909227885668 27.5114
33.4923417207723 27.3011
33.51577423505344 27.3498
33.539026528130385 27.2206
33.56228024307245 27.1568
33.585535381098246 27.0092
33.60897364093058 27.1127
33.63223163992385 26.985
33.6554910656699 26.9351
33.678751919389796 26.9537
33.702195944520106 26.8166
33.72545966903325 26.8403
33.74872482519663 26.7655
33.771991414233746 26.8041
33.79544122444841 26.706
33.81871069412428 26.5371
33.84198160035767 26.5798
33.86525394437455 26.5738
33.88870955949969 26.4937
33.911984794020626 26.5395
33.93526147001624 26.4337
33.958539588715006 26.3676
33.98200102861669 26.3156
34.0052820477047 26.2976
34.02856451319451 26.3164
34.05203033759056 26.2003
34.07531571090147 26.1948
34.09860253431845 26.1725
34.121890809074316 26.1222
34.145362493118924 26.0518
34.16865368561615 26.004
34.191946333164054 26.0162
34.21524043699793 25.9103
34.23871800066799 25.8039
34.26201503218366 25.7264
34.28531352370466 25.8411
34.30861347646881 25.7232
34.33209693978188 25.7397
34.3553998301885 25.7424
34.378704185565205 25.58
34.402010007152356 25.5987
34.42549939016683 25.6319
34.44880815937748 25.4834
34.472118398533134 25.3943
34.49543010887669 25.4203
34.51892543169198 25.3315
34.54224009966052 25.3653
34.56555624255917 25.3126
34.58887386163339 25.2561
34.61237514439016 25.2107
34.6356957311114 25.1696
34.65901779775809 25.1548
34.68252356662995 25.0764
34.705848608458616 25.1035
34.72917513396849 25.0235
34.75250314440949 25.0295
34.77601490857862 24.9124
34.799345904259795 24.8194
34.82267838863559 24.7806
34.846012362958525 24.8801
34.869530142679984 24.8016
34.89286711232212 24.7569
34.91620557568269 24.8203
34.93954553401677 24.7474
34.9630693495876 24.6206
34.986412313340814 24.6678
35.00975677584668 24.6342
35.033102738362956 24.5377
35.05663261012228 24.5226
35.0799815881786 24.6012
35.10333207003229 24.4954
35.12668405694369 24.4791
35.150220005273056 24.4797
35.17357501786656 24.4013
35.19693153931268 24.3527
35.220289570874385 24.4093
35.24383161619786 24.3513
35.267192683604904 24.3145
35.290555264930376 24.269000000000002
35.314101899412165 24.2731
35.33746752422433 24.1964
35.36083466676374 24.2443
35.38420332829803 24.1665
35.407756095629054 24.1485
35.43112781085063 24.096
35.45450104888391 24.0856
35.477875810999194 24.0633
35.50143473172161 24.0028
35.52481255774625 24.0281
35.54819191167777 23.9034
35.57157279478914 23.9447
35.595137889488406 23.8942
35.61852184675279 23.8912
35.641907337029984 23.8467
35.665294361595684 23.7772
35.68886565090076 23.7205
35.7122557598848 23.7559
35.73564740699838 23.7519
35.759040593519934 23.7063
35.78261809810353 23.6655
35.80601437933051 23.5343
35.829412203814705 23.5106
35.85281157283719 23.3976
35.876395313415884 23.4507
35.8997977874528 23.3773
35.92320180988546 23.3397
35.946790244133936 23.3299
35.97019737933222 23.2597
35.993606066789866 23.2413
36.01701630779276 23.2519
36.04061101440684 23.1749
36.06402437852291 23.1507
36.08743930005611 23.1101
36.1108557802951 22.97
36.13445678011326 23.006999999999998
36.15787639383515 23.029
36.18129757014299 22.955
36.20472031032821 22.9765
36.22832762423364 22.9287
36.25175350829375 22.8915
36.275180960119776 22.8723
36.298609981005924 22.91
36.32222362992669 22.8433
36.34565580510207 22.7881
36.36908955323448 22.755
36.39252487562093 22.6587
36.416144880530226 22.5959
36.43958336764275 22.64
36.463023432914625 22.6523
36.486465077645676 22.5605
36.51009145956204 22.5532
36.53353627947859 22.5928
36.55698268276811 22.5423
36.58043067073321 22.4785
36.60406345072071 22.3447
36.62751462435344 22.365
36.65096738658405 22.3381
36.67460498210655 22.2838
36.69806093788647 22.2781
36.72151848619297 22.2219
36.744977628333636 22.2793
36.76862165890998 22.2137
36.79208400512205 22.1314
36.81554794910557 22.088
36.83901349217101 21.9917
36.862663978991606 22.0816
36.88613273667352 21.9817
36.90960309738324 22.0268
36.933075062434064 21.9047
36.95673202673572 21.8556
36.98020721697122 21.8001
37.003684015502365 21.8443
37.027162423645365 21.7578
37.050825886711465 21.7063
37.07430753063053 21.5933
37.09779078812467 21.6544
37.121275660513014 21.6368
37.144945643673694 21.6218
37.16843376245278 21.5971
37.19192350009803 21.5321
37.215414857931435 21.423000000000002
37.239091382563885 21.3973
37.262585997426164 21.3224
37.28608223645736 21.4044
37.309763684451696 21.3552
37.33326318851098 21.3023
37.356764320726555 21.3416
37.380267082425526 21.2939
37.40395510942588 21.2534
37.42746114683234 21.1886
37.45096881771841 21.1234
37.474478123414166 21.0939
37.49817275092816 21.0725
37.52168534303452 21.139
37.54519957395567 21.0029
37.568715445024665 20.9706
37.592416694607714 20.8976
37.61593586281424 20.9983
37.63945667518264 21.0271
37.66297913304891 20.930999999999997
37.68668702630454 20.8939
37.710212792059274 20.7778
37.733740207334854 20.7924
37.757269273470364 20.7019
37.780983832050374 20.7189
37.80451621684926 20.6941
37.82805025654007 20.6857
37.851585952464795 20.6122
37.8753071980695 20.5409
37.89884622345676 20.5094
37.92238690911902 20.5281
37.94611318753442 20.4089
37.969657210779765 20.4472
37.99320289834801 20.4555
38.016750251586465 20.4531
38.04048325513017 20.3276
38.06403395679343 20.2643
38.087586328183946 20.2177
38.11114037065203 20.2198
38.13488012115898 20.1976
38.1584375229181 20.1219
38.181996599821 20.0446
38.205557353221124 20.0991
38.229303872575656 20.0355
38.2528679961576 20.0473
38.27643380031219 20.0041
38.30000128639589 19.9979
38.32375459653193 19.9367
38.34732546371299 19.9644
38.37089801690786 19.8756
38.39447225747609 19.8474
38.418232380377425 19.785
38.441810012983396 19.8021
38.46538933705673 19.7151
38.488970353960084 19.6746
38.51273731166058 19.6648
38.536321731567014 19.6353
38.55990784840681 19.6324
38.58367995004091 19.6126
38.60726947812959 19.4804
38.63086070726198 19.5236
38.654453638806274 19.5607
38.678232613930824 19.4289
38.70182896773327 19.430999999999997
38.72542702806741 19.4199
38.7490267963045 19.3836
38.77281266709232 19.3608
38.79641586862214 19.3169
38.8200207821842 19.2839
38.843627409152944 19.3168
38.86742019782782 19.3106
38.891030269149255 19.1724
38.914642058016156 19.1529
38.938255565806124 19.1677
38.96205529464307 19.1235
38.98567225787121 19.0274
39.00929094417078 19.0234
39.03291135492255 19.059
39.05671804624804 18.9889
39.080341923549106 18.9866
39.103967529460334 18.9121
39.127594865365744 18.9426
39.15140854155791 18.8448
39.17503935514948 18.8153
39.19867190290282 18.7681
39.22249083587951 18.7648
39.24612686969409 18.7465
39.269764641845306 18.6888
39.293404153722804 18.6817
39.317230110864074 18.58
39.34087311998506 18.5634
39.36451787301696 18.6276
39.388164371352595 18.5396
39.41199737518003 18.5194
39.43564738196752 18.476
39.45929913825317 18.4516
39.48295264543308 18.4257
39.506792718520884 18.3881
39.530449745387216 18.3522
39.55410852735203 18.3217
39.57776906581474 18.373
39.60161623079 18.3072
39.625280300200025 18.2463
39.64894613032202 18.262
39.67261372255866 18.2053
39.6964680021016 18.1848
39.72013913657293 18.1936
39.74381203738292 18.1375
39.76748670593756 18.1654
39.79134812278169 18.1538
39.81502634488497 18.0747
39.83870633896685 18.0304
39.862388106436654 17.9584
39.88625668336918 17.9702
39.90994201572829 17.9879
39.933629125719285 17.9123
39.957503091207826 17.8407
39.9811937746168 17.9102
40.00488623990914 17.8494
40.02858048850006 17.8248
40.05246165409549 17.7993
40.076159487492085 17.7322
40.099859108448875 17.711
40.123560518384345 17.6569
40.1474489070226 17.6694
40.171153913178564 17.6066
40.194860712584955 17.5841
40.2185693066637 17.5761
40.242464941335314 17.4996
40.26617714307655 17.4575
40.289891143772046 17.5013
40.3136069448471 17.4253
40.33750984859743 17.4428
40.3612292688043 17.4165
40.3849504936829 17.3486
40.40867352466194 17.4003
40.43258372059144 17.3241
40.45631038219906 17.302
40.48003885420956 17.3052
40.503769138055105 17.2919
40.52768664931955 17.2556
40.55142057531802 17.2318
40.57515631746428 17.1492
40.599079334038514 17.1222
40.62281872700477 17.0707
40.64655994043941 17.0603
40.67030297578061 17.0757
40.69423334835778 17.041
40.71798004609188 16.9351
40.74172857006355 16.9119
40.76547892171441 16.9353
40.7894166736039 16.9497
40.813170699248566 16.8445
40.83692655691388 16.8615
40.86068424804498 16.8879
40.884629402612525 16.8216
40.908390779366385 16.7981
40.932153993938 16.817999999999998
40.95591904777605 16.755
40.979871628443995 16.7318
41.003640379561936 16.7209
41.02741097430883 16.6667
41.05118341413683 16.5934
41.075143444384416 16.6236
41.098919593177826 16.6317
41.1226975914255 16.5062
41.14647744058318 16.514
41.170444943946755 16.4981
41.19422851378379 16.5163
41.218013938914645 16.4061
41.24198706625173 16.3564
41.26577622087193 16.3779
41.289567235177785 16.3172
41.31336011063129 16.3698
41.337340752422875 16.2774
41.361137369129835 16.2445
41.38493585138705 16.2558
41.40873620066004 16.2014
41.43272438060107 16.1439
41.45652848292052 16.1172
41.48033445666918 16.0902
41.50414230331616 16.1092
41.528138045159764 16.1134
41.551949656675205 16.0483
41.575763145513235 16.0088
41.59957851314666 15.9752
41.62358184070442 15.9745
41.64740098505737 15.9395
41.6712220126409 15.9147
41.69504492493139 15.8671
41.71905586207357 15.8517
41.74288256296395 15.8423
41.766711153007456 15.785
41.79054163368412 15.7883
41.814560204340054 15.7854
41.838394485526365 15.8193
41.86223066180303 15.6859
41.88625497706819 15.6475
41.910094962812 15.6477
41.93393684811168 15.6285
41.95778063445365 15.5287
41.981812625263366 15.5799
42.00566023303407 15.5002
42.029509746323676 15.4754
42.05336116662236 15.5021
42.077400857069705 15.4989
42.10125611078846 15.4154
42.12511327600405 15.4203
42.14897235421036 15.3957
42.173019768448455 15.3596
42.19688269209613 15.3427
42.22074753323349 15.2623
42.24461429335818 15.2323
42.268669455600495 15.231
42.292540073217886 15.2365
42.31641261433284 15.1859
42.34028708044675 15.1597
42.36435001496739 15.1708
42.38822835065557 15.1556
42.41210861586426 15.0586
42.4359908120986 15.0736
42.46006154323262 15.0612
42.48394762115317 15.0104
42.507835634632315 14.9955
42.531912233047436 14.9951
42.55580413732265 14.9603
42.579697981698 14.9132
42.60359376768525 14.9041
42.62767820545945 14.8899
42.65157789440821 14.905999999999999
42.67547952952185 14.8533
42.699383112316 14.8324
42.72347541395347 14.787
42.74738291190531 14.7435
42.771292362102166 14.7328
42.795203766063516 14.6885
42.819303956130405 14.6744
42.843219287476536 14.6556
42.86713657716324 14.6567
42.89105582671383 14.6537
42.91516392983864 14.5737
42.939087119032166 14.5524
42.963012272677304 14.54
42.98693939230129 14.5223
43.01105543317513 14.4494
43.034986504731386 14.4353
43.05891954686589 14.3812
43.08285456110972 14.4146
43.10697856448665 14.319
43.130917542983475 14.3519
43.15485849820081 14.3218
43.17880143167367 14.2786
43.20293342237094 14.3242
43.226880332449 14.2399
43.25082922540554 14.2423
43.27496722682525 14.1886
43.29892010567796 14.2121
43.32287497204102 14.1443
43.34683182745632 14.1361
43.370977859791836 14.0735
43.39493871351105 14.1158
43.41890156092628 14.0852
43.44286640358341 14.0693
43.46702049182749 14.0095
43.49098934522816 13.9732
43.51496019852649 13.9217
43.5389330532723 13.9434
43.56309522248204 13.9127
43.58707210044314 13.9303
43.61105098451946 13.8327
43.63503187626491 13.8463
43.659202151562134 13.7549
43.68318707902681 13.8127
43.70717401884041 13.742
43.731162972560874 13.7508
43.75534137913236 13.7457
43.779334381108384 13.7082
43.803329401683186 13.6487
43.82732644241872 13.6447
43.8515130055166 13.6379
43.87551410707659 13.573
43.89951723350145 13.575999999999999
43.923709934595614 13.5707
43.94771713129917 13.5104
43.97172635758096 13.5434
43.99573761501002 13.5039
44.0199385169922 13.5114
44.04395385732619 13.4528
44.067971233533086 13.3826
44.09199064718605 13.3877
44.11619977548961 13.2996
44.14022328470671 13.3124
44.16424883610785 13.3247
44.18827643127035 13.2546
44.21249381139513 13.2688
44.236525514814076 13.2563
44.26055926674478 13.2426
44.28459506876863 13.2335
44.3088207262813 13.1383
44.33286064928722 13.1074
44.35690262714919 13.1361
44.38094666145278 13.0487
44.4051806219871 13.1335
44.42922879003185 13.0667
44.45327901929361 13.0263
44.477331311362136 12.9899
44.501573600619416 12.9604
44.525630039221795 12.9653
44.54968854541895 12.9871
44.573937102200176 12.9657
44.5979997645541 12.9331
44.622064499300315 12.9025
44.64613130803592 12.8803
44.67038823869318 12.8451
44.69445921643748 12.815
44.718532272981385 12.7801
44.742607409926194 12.7761
44.76687274034801 12.7078
44.79095205918753 12.6838
44.81503346325094 12.7101
44.839116954143876 12.7081
44.86339071028742 12.6391
44.88747839599524 12.6251
44.91156817336837 12.5535
44.93566004401666 12.5395
44.959942251908146 12.5743
44.984038330325966 12.5586
45.00813650686762 12.5241
45.03223678314731 12.5194
45.05652746888232 12.4864
45.08063196592069 12.4606
45.104738567558705 12.4336
45.128847275414856 12.3608
45.15314646515866 12.3145
45.17725940679741 12.3256
45.20137445952892 12.3205
45.22568004865265 12.2687
45.24979934496396 12.2409
45.27392075725247 12.2543
45.29804428714431 12.2466
45.322358426247604 12.2717
45.346486212804315 12.2322
45.370616121861914 12.2244
45.39474815505086 12.1907
45.41907087049246 12.1261
45.4432071734666 12.0731
45.46734560548283 12.1287
45.49148616817604 12.1235
45.51581748638564 12.0794
45.5399623320197 12.0165
45.56410931325473 11.9979
45.58825843173002 12.0251
45.61259837920865 11.9951
45.636751793816 11.9831
45.66090735060093 11.9183
45.68506505120716 11.8731
45.7094136545275 11.8571
45.73357566449271 11.8103
45.75773982322992 11.8534
45.78190613238733 11.8389
45.806263418194064 11.7717
45.83043404997326 11.8369
45.85460683713677 11.7891
45.87897065658495 11.742
45.90314777634752 11.7307
45.92732705646868 11.7089
45.9515084986045 11.6765
45.97588104735473 11.6467
46.00006683541565 11.6461
46.02425479047904 11.5994
46.04844491420549 11.6083
46.0728262191024 11.5829
46.09702070211635 11.5758
46.12121735879483 11.5222
46.14541619080294 11.4943
46.169806278764455 11.5372
46.194009483459034 11.5101
46.21821486849841 11.4396
46.24242243555223 11.4256
46.266821333570014 11.4072
46.29103328674601 11.3916
46.31524742696538 11.3542
46.33946375590237 11.3265
46.36387149104216 11.296
46.38809221957392 11.3101
46.41231514186606 11.3031
46.436540259597464 11.2629
46.460956858999374 11.2328
46.48518638983522 11.2351
46.509418121166966 11.2053
46.533652054678114 11.1734
46.55807754555709 11.1745
46.58231590571962 11.1948
46.60655647313217 11.126
46.630988654873654 11.0785
46.655233659129024 11.0709
46.67948087571551 11.0475
46.70373030632484 11.0252
46.72817142736393 11.0243
46.752425308428684 11.0103
46.77668140861147 11.0028
46.80093972960865 10.9216
46.82538981736788 10.9182
46.849652602470904 10.8674
46.87391761349769 10.8892
46.8981848521493 10.9185
46.9226439341274 10.8368
46.946915650573224 10.8392
46.97118959976749 10.8198
46.99546578341598 10.805
47.019933887188216 10.7916
47.04421456235744 10.7791
47.06849747711879 10.7002
47.09278263318286 10.7189
47.11725978640143 10.677
47.14154944775105 10.6344
47.165841355555656 10.672
47.1901355115306 10.591
47.214621741924994 10.6061
47.23892041698887 10.6032
47.26322134538975 10.5461
47.28771440635075 10.5716
47.31201986422527 10.5664
47.33632758061436 10.517999999999999
47.360637557241866 10.5163
47.38513974410611 10.4624
47.40945426407847 10.4603
47.43377104948137 10.4456
47.45809010204344 10.4209
47.48260144275502 10.4048
47.506925052572285 10.3929
47.53125093475548 10.3576
47.55557909103813 10.3906
47.58009961361992 10.3277
47.60443234110732 10.3033
47.62876734791564 10.302999999999999
47.65310463578333 10.261
47.6776343683373 10.2335
47.7019762413987 10.1886
47.72632040075572 10.2044
47.75066684815169 10.2255
47.77520581885936 10.2052
47.799556865477655 10.1665
47.823910205386 10.1469
47.84826584033272 10.1262
47.87281407745551 10.0768
47.89717432569297 10.092
47.92153687423484 10.0748
47.94609208429692 10.0092
47.97045925671401 10.0064
47.99482873471275 10.0039
48.01920052005013 9.99115
48.04376504619224 9.94731
48.068141469543484 9.97786
48.09252020552573 9.92192
48.11690125590099 9.9115
48.1414751266064 9.88546
48.16586082917454 9.887139999999999
48.19024885144316 9.88631
48.2146391951793 9.82209
48.239222439012764 9.8163
48.26361744916137 9.81635
48.28801478610016 9.8023
48.31241445160131 9.79669
48.337007097209366 9.78877
48.36141144338331 9.75348
48.38581812345755 9.73109
48.41022713920929 9.7456
48.434829215320704 9.694180000000001
48.45924292604658 9.68822
48.48365897780325 9.68276
48.50807737237308 9.69287
48.532688907799276 9.63689
48.55711201168574 9.6086
48.581537463754074 9.58855
48.60615611725119 9.59382
48.63058628942721 9.56352
48.65501881516546 9.5353
48.6794536962573 9.54911
48.70408185970339 9.47035
48.72852147531801 9.47444
48.75296345168211 9.44961
48.77740779059232 9.466380000000001
48.80204549302823 9.46279
48.82649458091802 9.442219999999999
48.85094603676547 9.4205
48.87539986237231 9.38908
48.90004713292306 9.3755
48.92450572200832 9.35645
48.94896668628025 9.31977
48.97343002754588 9.30743
48.99808689542115 9.316230000000001
49.02255501470614 9.2913
49.04702551642794 9.2645
49.0714984023988 9.24961
49.096164896893235 9.25484
49.120642575466796 9.2185
49.145122643748394 9.23453
49.16960510355558 9.1793
49.19428125404938 9.12584
49.2187685210852 9.14755
49.243258185121555 9.121889999999999
49.26794160167084 9.08705
49.2924360839405 9.06513
49.31693296869764 9.08029
49.34143225776915 9.010660000000001
49.36612538195438 9.00603
49.39062950396021 8.989189999999999
49.41513603578346 8.98405
49.4396449792564 8.98168
49.46434784069503 8.977
49.488861631846454 8.93426
49.513377840166804 8.94975
49.537896467493745 8.90391
49.56260909589029 8.891589999999999
49.587132585683285 8.89799
49.611658500018365 8.874089999999999
49.636186840738596 8.82296
49.66090926588511 8.829080000000001
49.685442483902584 8.80719
49.70997813385706 8.80237
49.734516217597076 8.778360000000001
49.75924846937352 8.71822
49.7837914452858 8.712760000000001
49.80833686055187 8.68149
49.83288471702571 8.65996
49.85762682540054 8.68406
49.882179588965734 8.67132
49.9067347993235 8.63518
49.93129245833333 8.64979
49.95604445336378 8.64429
49.98060703442832 8.62299
50.005172069746266 8.59631
50.02993150438364 8.56223
50.05450147301533 8.5502
50.07907390151433 8.5644
50.10364879174981 8.51764
50.12841816587289 8.50972
50.1529980044635 8.47973
50.17758031042124 8.45689
50.20216508562089 8.439010000000001
50.22694442953363 8.43655
50.25153416817468 8.4252
50.27612638170508 8.39514
50.300721072005196 8.35421
50.325510416102105 8.3854
50.350110084975064 8.37454
50.37471223628208 8.35977
50.39931687190919 8.328619999999999
50.424116246675766 8.34479
50.44872587605249 8.33266
50.47333799543065 8.31988
50.49795260670191 8.24798
50.52276204271512 8.2408
50.54738166295838 8.2651
50.57200378079314 8.25575
50.596628398116835 8.22279
50.62144792604559 8.22765
50.646077567609396 8.20384
50.670709714377715 8.16184
50.69553683636198 8.121260000000001
50.72017401885922 8.132489999999999
50.7448137122895 8.09879
50.76945591856022 8.107439999999999
50.79429318636823 8.08414
50.818940443716784 8.07315
50.84359021965163 8.03753
50.868242516085964 8.0416
50.893089960641895 8.03663
50.917747323549435 7.977119999999999
50.94240721271973 7.96709
50.96706963007175 7.94745
50.99192728239342 7.9469199999999995
51.01659478166073 7.93146
51.04126481489051 7.908360000000001
51.06593738400761 7.9172
51.090805275207074 7.911289999999999
51.11548294172845 7.90907
51.14016314993547 7.863689999999999
51.164845901758845 7.8355
51.18972406304274 7.84484
51.21441192780656 7.84295
51.23910234200271 7.8197
51.2637953075678 7.78942
51.288683770237945 7.79294
51.31338186432707 7.72814
51.33808251561888 7.71695
51.362978729967345 7.74985
51.387684521509755 7.72958
51.41239287610203 7.6935
51.437103795691165 7.660810000000001
51.46201036644977 7.65072
51.486726441956634 7.6597800000000005
51.51144508832545 7.639530000000001
51.536166307509156 7.622330000000001
51.56108326624387 7.595439999999999
51.58580965706056 7.60957
51.61053862657523 7.55828
51.635270176746864 7.535260000000001
51.66019755512065 7.49145
51.68493429268881 7.51063
51.70967361681515 7.50978
51.73441552946465 7.46333
51.759353359237934 7.458810000000001
51.7841004750961 7.448589999999999
51.80885018539685 7.4648
51.833602492111254 7.40861
51.8585508051424 7.43025
51.883308330926425 7.421860000000001
51.90806845906181 7.374410000000001
51.932831191525715 7.369330000000001
51.95779001977161 7.352410000000001
51.98255798721516 7.31533
52.00732856494335 7.325489999999999
52.03229530577543 7.288939999999999
52.057071130455945 7.28235
52.081849571391054 7.25807
52.106630630568695 7.25899
52.13160794279417 7.216639999999999
52.15639426492067 7.25143
52.18118321127822 7.2255
52.205974783860896 7.21583
52.23096269971011 7.19635
52.255759551287994 7.173369999999999
52.280559035098186 7.14635
52.30536115314103 7.13837
52.33035970494467 7.148860000000001
52.35516711807904 7.113119999999999
52.37997717147198 7.08343
52.40478986713005 7.09588
52.42979908731974 7.075019999999999
52.454617094216 7.020630000000001
52.47943774942214 7.03262
52.50426105495102 6.996919999999999
52.529280976059844 7.003419999999999
52.554109609024096 6.983639999999999
52.57894089837482 6.9755
52.60377484613117 6.972689999999999
52.62880550079408 6.918939999999999
52.65364479223379 6.91167
52.67848674816189 6.92347
52.70352547971946 6.92369
52.72837279155837 6.88753
52.753222773982785 6.86419
52.778075429022984 6.870360000000001
52.80312495150885 6.875089999999999
52.827982978797436 6.84536
52.85284368481815 6.8195
52.87770707160767 6.7914699999999995
52.90276741793998 6.81407
52.92763619336701 6.77797
52.952507655698504 6.76196
52.977381806977576 6.73278
53.00245301017842 6.75587
53.02733256653592 6.6978100000000005
53.052214817996074 6.72053
53.077099766608484 6.68193
53.102181859804446 6.654739999999999
53.127072229988265 6.66633
53.15196530349892 6.644189999999999
53.17686108239249 6.65797
53.20195409881522 6.60244
53.22685531582556 6.59912
53.25175924441303 6.55012
53.27666588664027 6.583480000000001
53.30176985962693 6.58392
53.3266819565689 6.585089999999999
53.35159677336455 6.51768
53.376514312083096 6.512919999999999
53.40162927507703 6.5006900000000005
53.42655228516116 6.48841
53.45147802340193 6.46224
53.47660125628886 6.47508
53.50153247842639 6.49207
53.52646643496923 6.42666
53.55140312799818 6.45337
53.576537409691696 6.378369999999999
53.60147960336152 6.40709
53.626424539786164 6.3807599999999995
53.65137222105307 6.37631
53.67651758529126 6.3546
53.70147078399681 6.32695
53.72642673383343 6.34825
53.75138543689533 6.29539
53.776541917524526 6.31454
53.801506154876755 6.28678
53.826473151763246 6.2628900000000005
53.851442910284916 6.21991
53.87661054126026 6.15752
53.9015858509782 6.2035800000000005
53.92656392866066 6.24484
53.95154477641532 6.18949
53.976723591801296 6.17975
54.00171000771266 6.19064
54.02669920004598 6.16862
54.051691170915745 6.11587
54.076881204886796 6.14116
54.101878760928514 6.12793
54.12687910187696 6.10958
54.152077577768296 6.09054
54.1770835166946 6.007709999999999
54.20209224691339 6.072830000000001
54.22710377055121 6.044969999999999
54.25231352511594 6.0037199999999995
54.27733066384342 6.00517
54.30235060239643 6.0225599999999995
54.32737334290836 5.9585099999999995
54.35259441062629 5.90287
54.377622783395324 5.90784
54.40265396455061 5.92091
54.42768795623251 5.89999
54.45292037169559 5.85701
54.477960012857906 5.84204
54.50300247099511 5.8136
54.52804774825457 5.78279
54.55329154616743 5.75171
54.57834249018678 5.7678
54.6033962597977 5.708880000000001
54.6284528571545 5.69289
54.653708072335164 5.71442
54.67877035378786 5.63401
54.70383546947698 5.56573
54.72890342156389 5.613980000000001
54.7541700889442 5.62624
54.77924374251975 5.5837900000000005
54.8043202390049 5.55342
54.82959552413022 5.56383
54.8546777351945 5.5560599999999996
54.87976279569621 5.51809
54.90485070780914 5.51875
54.930137506558005 5.4450400000000005
54.95523115074295 5.47507
54.98032765308844 5.4842
55.005427015775496 5.44134
55.03072536339621 5.3788
55.05583047570572 5.365880000000001
55.080938454927676 5.32528
55.10604930325027 5.30986
55.131359235107396 5.312880000000001
55.15647585066083 5.25888
55.181595341907496 5.2777
55.20671771104285 5.20904
55.232039262617704 5.19905
55.25716741665048 5.15946
55.28229845518636 5.19488
55.30743238042802 5.0869
55.33276558731939 5.05898
55.357905315183636 5.05313
55.383047936390035 4.99909
55.40819345314859 4.97691
55.433538351073295 5.01842
55.458689688238415 5.00397
55.483843927614096 4.9477199999999995
55.509197623043605 4.890969999999999
55.53435769621134 4.89634
55.55952067826466 4.87804
55.5846865714265 4.86599
55.61005202069737 4.82396
55.63522376553902 4.8714
55.66039842818645 4.811380000000001
55.68557601087004 4.80575
55.7109532500271 4.75854
55.73613670233794 4.79639
