TT I
1.2716486653135266 6.99436
1.2939594142134223 6.95948
1.3162702121660406 6.06435
1.3385810600174564 6.306430000000001
1.3608919586137629 6.37237
1.383202908801069 6.34545
1.405513911425503 5.32231
1.4278249673332093 6.10489
1.4501343378461518 5.50181
1.4724455028545926 5.0329
1.4947567236847858 4.95268
1.517068001182951 6.019880000000001
1.5393793361953272 5.4695599999999995
1.5616907295681737 5.82679
1.5840021821477681 5.27221
1.60631369478041 4.48865
1.6286252683124185 4.99325
1.6509369035901333 4.48846
1.6732468618895553 4.65203
1.695558623192809 4.41212
1.7178704487808514 4.65099
1.7401823395001077 4.50296
1.7625012545597203 4.82716
1.7848028405262486 4.7182
1.8071218901122095 3.97284
1.8294236121921872 4.11067
1.8517427996910911 4.02524
1.8740620574440425 4.39856
1.8963639900671978 4.37047
1.9186833908139995 4.34756
1.9409854680117449 4.35249
1.9633050151394713 4.03214
1.9856246367570705 4.17986
2.0079269371922672 3.89299
2.03024671027244 3.92475
2.0525491637446027 4.06061
2.074869091674931 3.82652
2.097171701569106 3.8683
2.1194917877373847 4.60083
2.141811954326636 3.90737
2.164114805233074 3.75125
2.186435135143035 4.46462
2.208738150935709 4.92214
2.231058647554722 6.70415
2.2533792288321184 5.92105
2.275682498336085 5.00146
2.298003251406138 4.86596
2.3203066942619714 5.42396
2.3426276225136022 5.4516800000000005
2.3649486396617507 5.6020199999999996
2.387252348930071 5.76385
2.4095735463442893 6.05943
2.4318774374315884 5.9816400000000005
2.4541988185014043 6.39842
2.476502894794693 7.03863
2.498824462909887 7.30209
2.521146125856138 7.861219999999999
2.5434504863470337 7.504110000000001
2.5657723414244717 7.6138
2.588076895590662 8.55335
2.610398946189713 8.64964
2.6327210958598384 8.23736
2.6550259469304716 7.71139
2.6773482972090137 8.40131
2.6996533504259 8.84327
2.7219759047039602 8.55916
2.744298562293959 8.61373
2.7666039251246595 8.35914
2.7889267918020164 8.44921
2.8112323652516555 8.31974
2.833555444408179 8.639510000000001
2.8558786311183852 8.248610000000001
2.8781845268938557 8.93388
2.9005079311721484 9.11776
2.9228140460410397 8.92941
2.9451376712799635 9.32722
2.967444008632326 9.521930000000001
2.9897678582247247 9.77533
3.0120918213106695 10.2605
3.0343984987899373 10.6533
3.0567226913198637 10.9867
3.079029599759726 11.5344
3.101354025127254 11.1967
3.123678568232338 11.9597
3.145985829517914 12.61
3.16831061055229 12.9539
3.1906181112775593 14.2217
3.212943133635653 13.6437
3.2352682779763207 14.6975
3.2575761442691227 14.4863
3.2799015350264273 14.9922
3.302209649240067 15.5976
3.3245352898092655 16.0554
3.3468436553365257 16.236
3.369169549113219 16.5647
3.3914955708171384 17.9346
3.413804319727358 18.3134
3.4361305997334863 17.9967
3.4584396084414553 18.9601
3.4807661501462652 19.3398
3.503092824025881 19.7516
3.5254022288463154 20.1313
3.5477291695206588 20.2199
3.5700388426251948 20.9925
3.5923660534916446 21.0793
3.6146934007816114 22.5003
3.637003482731501 27.4958
3.6593311053109985 29.5143
3.681641464033634 26.3891
3.7039693653009733 23.7067
3.726297407241705 23.9101
3.7486081875460804 24.1618
3.7709365132734978 24.6968
3.793247578841633 25.4568
3.8155761917550093 25.5513
3.8378875459837216 25.5113
3.8602164494827234 25.6435
3.882545499606844 26.9041
3.9048572932539183 27.6139
3.9271866390645718 27.5813
3.9494987298666713 28.2809
3.971828374764527 28.5068
3.9941581705403255 29.1768
4.016470713506008 29.6816
4.038800813471445 30.3647
4.061113662089144 30.6038
4.0834440696459176 31.432
4.105774632334751 32.1328
4.128087945865126 32.8771
4.150418821249301 32.6251
4.172732448931298 33.5713
4.195063640413578 34.3421
4.2173775856475215 35.5622
4.239709096631102 37.758
4.262040768704612 52.2389
4.284355196706267 63.3315
4.306687193387355 55.3141
4.329001947444346 43.9041
4.35133427213731 40.5083
4.373666762177566 40.6697
4.395982011761091 40.8566
4.418314834921175 41.5971
4.44063041906622 43.4733
4.4629635787515625 45.1287
4.4852969080429785 46.2165
4.5076130004776225 46.2566
4.529946671403969 46.8449
4.552263106909177 47.7919
4.574597122877047 48.9711
4.596931312711224 50.2444
4.619248269273446 51.1216
4.6415828092605835 51.6664
4.663900117405352 52.9739
4.686235010953232 54.5017
4.708552674085913 55.5501
4.730887924602802 56.5472
4.753223354952695 58.3461
4.775541557023902 59.5917
4.797877349456786 60.8847
4.820195915032126 63.0266
4.842532072957498 64.3404
4.864868414979744 66.3675
4.88718753227192 68.0295
4.909524244902505 69.9379
4.931843734218147 71.8996
4.954180820867835 74.2639
4.976518095879839 77.2802
4.998838149695359 79.7613
5.021175803844231 82.959
5.043496238205739 86.1001
5.065834274903528 89.6051
5.088172504230693 94.3148
5.1104935158799565 98.1378
5.132832132875765 105.493
5.155153533596801 118.811
5.1774925416746225 138.469
5.199814334878411 232.808
5.2221537374521505 821.9010000000001
5.244493338631803 2569.04
5.266815727034316 7321.27
5.289155727832427 13925.7
5.311478517248165 9820.27
5.333818921080011 3277.96
5.356159527788849 645.43
5.3784829252032536 198.271
5.400823940070432 141.566
5.423147747031976 123.206
5.445489173474152 113.601
5.467830807066149 108.287
5.490155234831516 104.78299999999999
5.512497285125229 101.666
5.534822130975162 99.6954
5.557164601388673 97.9211
5.579489868738879 95.1434
5.601832762690846 93.1644
5.6241758697774475 91.721
5.646501775867269 91.3057
5.668845311622074 90.8294
5.691171647754637 90.2213
5.713515615597765 88.4455
5.735859800852677 87.7666
5.758186788542988 87.0678
5.780531411018185 87.7573
5.802858837297399 86.809
5.825203900414495 86.8729
5.8475491852224 86.9623
5.869877275883075 87.1823
5.892223006467101 88.104
5.914551544266608 89.15
5.936897724049891 91.1207
5.959244129804903 94.9995
5.981573344815301 106.523
6.0039202049061 165.226
6.026249875609095 397.745
6.04859719346037 896.508
6.070927323278297 2058.21
6.093275102315365 4500.2
6.115623113320588 5490.71
6.137953938319995 3547.44
6.160302415650845 1073.25
6.182633708324452 240.644
6.2049826554078376 109.587
6.227331838745022 87.3347
6.249663839443684 80.2013
6.27201349767565 75.4834
6.294345974611799 74.0004
6.316696111167083 73.1502
6.339046488263839 71.6733
6.361379686074702 69.1263
6.383730546639482 66.9812
6.406064229255215 65.0746
6.428415576718203 64.5093
6.450749747566656 63.6061
6.47310158535871 62.4873
6.495453669698332 62.302
6.517788579421056 61.1801
6.540141159237969 60.2512
6.562476565766648 59.7547
6.5848296444934045 59.4187
6.607182974060425 58.8667
6.6295191323281015 58.1226
6.651872965955752 57.6709
6.6742096296068985 58.8965
6.6965639707294615 63.211999999999996
6.71891856698715 64.0521
6.741255995248479 59.9411
6.763611104154477 56.7073
6.785949046381137 55.3852
6.808304671371482 54.7636
6.8306605557940046 54.4538
6.852999275508618 53.701
6.875355681171544 53.6594
6.897694923437771 53.9061
6.92005185377892 53.7684
6.9423916220322655 53.2465
6.964749080490181 53.0261
6.987106804399774 52.6681
7.009447368180821 52.8617
7.031805625367033 52.4772
7.054146723727803 52.678000000000004
7.076505517631004 51.9308
7.098864581288365 52.1975
7.121206488070854 51.8101
7.143566093607822 51.7173
7.165908543567245 51.7875
7.188268694426048 51.4134
7.2106291193438095 51.284
7.232972390625943 51.5461
7.255333366030969 52.0935
7.277677189091925 55.4834
7.300038718428332 61.7138
7.322400526130865 61.2222
7.344745183422596 55.8837
7.367107550224791 52.146
7.389452767901992 51.742
7.411815697249891 51.854
7.434161478756298 51.2956
7.456524974096713 51.4689
7.478888753837185 51.4029
7.501235387657368 52.6958
7.523599738562711 57.6143
7.545946944825532 65.837
7.568311870344528 69.0601
7.5906770845765665 62.0345
7.613025156078678 55.5752
7.635390950099687 53.6356
7.657739602662809 52.898999999999994
7.680105979923558 52.8974
7.702472650212829 53.4261
7.724822180948224 53.3591
7.747189439655568 53.5463
7.769539560075357 53.3718
7.791907410653562 54.0192
7.81425812420825 53.8757
7.836626570110925 54.2799
7.858995315087906 54.8823
7.881346924933401 54.9024
7.903716270417482 55.2605
7.926068482028405 55.6599
7.948438431475253 56.063
7.9708086843180235 56.8092
7.993161805171116 57.3711
8.015532667162402 57.778
8.037886398416653 58.799
8.060257873014221 59.1916
8.082629655331942 59.9804
8.104984308787587 60.4377
8.127356708900503 61.1402
8.149711981398308 62.5309
8.172085002766314 63.7571
8.194458336181368 64.1196
8.216814543847752 64.7776
8.23918850371002 66.0137
8.26154533906492 66.8158
8.283919928836452 68.3832
8.306277395339652 69.3039
8.328652618483376 70.6785
8.351028159736202 72.6329
8.373386579575245 74.2482
8.395762759396959 75.808
8.418121819038275 78.2998
8.440498640894003 81.4822
8.462875785192262 86.6282
8.485235811156207 94.6618
8.507613602688501 129.696
8.529974277114228 234.38299999999998
8.552352719347912 385.676
8.574731488360351 629.636
8.59709314210385 1116.05
8.619472567021075 1877.35
8.64183487789147 2338.94
8.664214962183097 2009.64
8.686577933647762 1123.05
8.708958680784317 420.971
8.731339760774953 171.502
8.753703729764451 108.43
8.77608547780821 95.0409
8.798450116065078 91.3532
8.820832535634787 88.7606
8.843215292401656 87.3182
8.865580941199045 86.0114
8.887964374703538 84.8384
8.910330701447199 83.8056
8.932714815164482 83.115
8.955099270424924 82.6463
8.977466620733543 81.9379
8.999851761421976 81.3226
9.022219798361645 80.5752
9.04460562795561 80.5341
9.066991803441677 80.095
9.089360876979615 79.9105
9.111747746589993 79.8215
9.13411751544971 79.14
9.156505082664324 79.0252
9.178875550323522 79.48
9.20126381862328 81.2289
9.223652438908596 89.109
9.246023961427412 101.471
9.26841328802173 105.90299999999999
9.290785518039224 97.5326
9.313175554425882 86.7169
9.335565947154315 81.1052
9.357939245086508 80.3698
9.380330352834827 80.2052
9.40270436697103 80.2826
9.425096193225055 79.5847
9.447488380180165 80.8869
9.469863475295412 81.0013
9.492256385987508 81.1122
9.514632206018318 81.906
9.537025843935714 82.0745
9.559402392368193 82.5136
9.581796761000229 83.5344
9.604191496441521 84.0137
9.626569144158516 84.5405
9.648964615551032 85.5474
9.671343000390081 86.8605
9.693739211225699 87.7952
9.716135793237463 88.4126
9.738515290448102 88.9339
9.760912617143402 90.0123
9.783292860202891 91.3477
9.805690935076182 92.0273
9.828089385495742 92.7837
9.850470754023561 94.4531
9.872869957865444 96.5924
9.89525208097539 99.5522
9.917652041736662 103.257
9.940052382417589 106.78399999999999
9.962435644102392 115.581
9.984836746950979 147.414
10.007220771957746 229.976
10.029622640473708 354.24199999999996
10.052007432299963 527.3
10.074410069984072 782.0939999999999
10.096813093716005 1208.37
10.119199042482517 1773.72
10.141602840636468 2114.01
10.163989564971628 1723.12
10.186394141051062 998.949
10.208799107559706 438.839
10.231187001965623 196.842
10.253592751657669 124.90100000000001
10.275981430388155 107.75299999999999
10.298387966769793 103.557
10.320794897965431 102.568
10.343184759907361 101.22
10.36559248305461 99.3048
10.387983138083852 98.2452
10.410391656691655 99.54700000000001
10.432800574501677 108.75399999999999
10.455192425893369 131.605
10.47760214443012 163.636
10.499994797678786 206.84400000000002
10.522405320453982 277.084
10.54479877906917 392.413
10.567210109595656 513.857
10.5896218454736 596.2080000000001
10.612016518879773 578.137
10.634429067781074 404.95
10.656824555333241 237.21900000000002
10.679237920773568 143.082
10.701651695961992 103.37200000000001
10.724048411481384 92.2013
10.746463008485165 85.8575
10.768860546937125 82.5317
10.791275969274796 80.4123
10.81369180576079 79.244
10.836090585366925 77.9955
10.858507252467449 77.0013
10.88090686379991 75.609
10.903324365036394 74.6491
10.925724811614439 73.7014
10.948143150509463 73.6343
10.970561909719066 72.6221
10.992963615930844 72.4708
11.015383218085756 71.2452
11.037785768347074 70.4067
11.06020621697282 69.8342
11.082627090322113 69.1781
11.105030913430326 68.5587
11.12745263854165 67.9892
11.149857314510728 67.282
11.172279894912576 68.0699
11.194702904450653 67.4621
11.217108866490921 66.53
11.239532736615194 65.7521
11.26193956033512 65.4766
11.284364294577085 65.3166
11.306789462371718 64.1733
11.329197585398376 63.6731
11.351623622610898 64.1376
11.37403261614354 63.1642
11.396459526308487 63.175
11.418869393879497 62.7838
11.441297180532617 62.4618
11.463725406927658 62.2731
11.486136592353875 62.0566
11.508565700543707 61.6019
11.530977768845315 61.6892
11.553407762368774 61.5741
11.575838200059769 61.4392
11.598251599479612 60.9373
11.620682927815501 60.9231
11.64309721895548 60.8467
11.665529441478206 60.4759
11.687962112597958 60.2952
11.710377748130886 60.6057
11.732811318753434 60.2461
11.755227854859067 60.2135
11.777662328529495 59.9662
11.800079768750786 59.6894
11.822515149015453 59.7844
11.844950984084935 60.2382
11.867369787303163 59.8965
11.889806534289491 60.0494
11.912226250487029 61.5488
11.934663912939751 64.4367
11.9571020346363 66.4548
11.979523127133968 66.8083
12.001962169624331 65.5706
12.024384183972964 63.2773
12.046824150809913 64.5228
12.069264581333726 69.8813
12.091687985297767 77.7074
12.11412934550045 87.3222
12.136553680195208 100.773
12.158995973632788 122.065
12.181438735204349 148.762
12.20386447284199 180.602
12.226308172985636 200.838
12.24873485024193 209.201
12.271179492516982 178.507
12.293607112949127 133.061
12.316052700916226 96.2316
12.338498763250042 73.6777
12.360927805303868 64.594
12.383374818673879 62.2783
12.405804812803074 61.4417
12.428252780773262 61.4419
12.45070122756722 61.1338
12.473132656675375 61.3102
12.49558206341869 61.6206
12.518014453510101 61.5694
12.540464823770117 61.65
12.562915677315177 61.7384
12.58534951575545 62.216
12.607801338171472 62.2052
12.630236146511358 62.8566
12.652688941369085 63.8942
12.675124723177234 64.525
12.697578494048786 64.3936
12.720032754458185 64.1038
12.742470003354093 64.5242
12.764925245138771 64.7055
12.787363476431278 65.1644
12.809819703166806 65.6446
12.83227642391173 66.4289
12.854716135692716 66.63
12.877173846755147 67.6719
12.899614549869717 68.2201
12.9220732548287 69.02
12.94453245827299 69.4515
12.966974655289818 70.5668
12.989434858002571 71.3086
13.011878055298721 71.9999
13.034339260862497 73.3358
13.056800969391883 74.6996
13.079245674017244 76.9244
13.101708390774869 78.4857
13.12415410463411 82.3761
13.146617833206086 92.9587
13.169064559883248 109.2
13.191529303857127 128.194
13.213994557076367 151.139
13.236442809902437 184.49900000000002
13.258909083908291 233.34599999999998
13.28135835851934 297.161
13.30382565690295 373.42400000000004
13.326293469022952 441.35900000000004
13.348744283242008 448.824
13.371213125129904 377.274
13.39366497011003 277.506
13.416134845360597 181.032
13.438605238843131 125.87100000000001
13.46105863690397 102.306
13.483530069144786 99.4962
13.505984506951902 108.02
13.528456981549432 121.79700000000001
13.550929978879088 137.924
13.573385983253365 159.431
13.595860028340867 191.96599999999998
13.618317081455832 239.861
13.64079217790333 302.342
13.663250283359057 361.245
13.685726434770173 388.69199999999995
13.708203115221277 361.691
13.730662806148091 285.67
13.75314054697177 202.46200000000002
13.775601299246777 136.60399999999998
13.798080104050406 99.4164
13.820559442405358 84.4072
13.843021793671388 79.5742
13.865502201420897 77.6463
13.887965623051947 77.0767
13.910447103807167 76.0996
13.932929122629764 74.8317
13.955394156785959 74.5013
13.977877254034569 73.7172
14.000343367582113 72.9245
14.022827546871707 72.3692
14.045294743423524 71.6861
14.06778000837062 71.2868
14.090265817715476 71.3502
14.112734645763819 71.7852
14.13522154619454 73.1392
14.157691466286913 74.2614
14.180179461423874 74.3186
14.202668005486178 72.7417
14.22513957064374 70.3744
14.247629214846473 68.7681
14.270101881097517 68.0931
14.29259262906496 67.804
14.315083930490205 67.6267
14.337558255389705 67.5022
14.360050666019726 67.3992
14.382526101071944 67.2274
14.405019624534942 66.8301
14.427513705993134 66.6685
14.449990813291825 66.5526
14.47248601302899 66.6245
14.49496423954951 66.7195
14.517460561197822 66.7697
14.539939910570322 66.4278
14.562437357763558 66.4521
14.58493536931253 66.6322
14.607416409993311 67.0785
14.62991555254159 67.3217
14.652397725157423 67.5177
14.674898002342799 67.6833
14.697398848433282 67.664
14.719882725991326 68.3416
14.74238471217934 68.8192
14.764869730765593 70.8345
14.787372860692983 74.8484
14.809876564079925 81.8075
14.83236330125751 89.8948
14.854868153850365 99.1369
14.877356041159485 112.214
14.899862046604186 128.194
14.922351087688757 151.30700000000002
14.944858249632887 180.856
14.967365991421232 211.136
14.989856770231246 230.355
15.012365673994204 227.58
15.03485761569738 199.583
15.05736768508665 157.906
15.07987833888692 120.116
15.102372032001655 93.49799999999999
15.124883856909658 77.1861
15.14737872204565 71.1406
15.169891721717274 69.0131
15.192405310371893 68.2063
15.214901940621196 67.6318
15.237416709527137 66.9
15.259914520936249 66.7702
15.282430473753607 66.0938
15.304947020131227 65.4195
15.327446610371178 65.104
15.349964346154254 64.7726
15.372465126703139 64.7273
15.394984055556009 64.5478
15.417486030076159 64.5203
15.44000615566487 64.0867
15.462526881230803 63.858000000000004
15.485030653812652 63.8692
15.507552581617434 63.6774
15.530057557334603 63.6655
15.55258069104857 63.6266
15.575104429329837 63.902
15.597611216864632 63.7931
15.620136166564563 63.9004
15.6426441664095 64.1549
15.665170331202765 65.4138
15.687697105158826 68.7662
15.710206930593545 74.2094
15.732734925158933 80.2663
15.755245972089478 87.7765
15.77777519094324 96.3614
15.800287463046663 107.637
15.822817909869592 124.822
15.84534897229804 144.984
15.867863089299354 169.83
15.890395385222186 191.63400000000001
15.912910736597423 202.24599999999998
15.935444269699861 195.935
15.957978423016485 167.987
15.980495633101265 133.549
16.003031029129367 103.709
16.02554948280019 80.8611
16.048086125229432 68.8601
16.070623392487107 64.5658
16.09314371869582 62.5039
16.11568223789321 61.1681
16.13820381691126 59.8559
16.160743591742527 59.1875
16.183283996022084 58.4517
16.205807461423195 57.6841
16.228349126881973 57.3591
16.25087385432698 57.1709
16.27341678466365 56.332
16.29594277784926 56.0851
16.31848697676433 55.7702
16.341031811604868 55.4398
16.36355971058487 55.2666
16.3861058195587 55.2251
16.40863499352978 54.7944
16.431182380342005 54.5717
16.453730407713202 54.1658
16.476261501364792 53.7716
16.498810812136167 53.5451
16.52134319004079 53.7888
16.54389378792203 53.6082
16.566445031001553 53.4856
16.588979342490088 53.3035
16.61153187824822 53.11
16.634067483263312 53.2598
16.656621315414416 53.1767
16.679175797408888 52.7807
16.701713349928728 52.798
16.72426913389191 52.9963
16.74680798922351 53.2458
16.76936507887444 52.9426
16.791905240734874 53.0381
16.814463639794468 52.9018
16.837022695210294 53.0609
16.859564824093756 53.1477
16.882125194503903 53.3912
16.904668639217885 53.8299
16.927230328348003 53.9116
16.949792678493612 54.3561
16.972338104193863 54.3253
16.994901778652235 53.9859
17.017448529496576 53.8757
17.040013531998152 53.9505
17.06257920018044 54.1966
17.0851279459922 55.0488
17.107694947817667 56.2586
17.130245028099072 57.316
17.15281336730298 59.0507
17.17536478578733 60.7752
17.19793446610687 62.6445
17.220504818648422 65.4129
17.243058251703697 68.2108
17.265629950971032 73.0754
17.288184731571736 78.1352
17.310757781306908 82.9494
17.33333150794385 83.831
17.355888317140174 83.3515
17.37846339986244 79.2737
17.401021565958885 72.1802
17.42359800851343 66.0193
17.44617513265564 61.74
17.468735341390783 59.1458
17.491261035594565 57.8627
17.51396340099364 57.4028
17.536490463869136 57.5053
17.559018209820174 57.5662
17.58154663977963 57.5537
17.604251766089718 57.685
17.626781572227713 57.9058
17.64931206518155 57.9673
17.671843245885103 58.4522
17.69455114821572 58.7312
17.717083712612634 59.0206
17.739616967569667 59.3796
17.762150914021706 60.0137
17.78486160749854 60.4637
17.807396945166804 61.0648
17.829932977143503 61.1775
17.85246970436452 62.1268
17.875183204129467 64.0071
17.897721330097664 67.1735
17.920260154126645 70.4437
17.942799677153296 74.1508
17.9655159983646 78.1893
17.988056927677544 83.2692
18.010598558807683 89.7068
18.033140892692916 98.6137
18.05586005052525 109.56700000000001
18.07840379824407 121.75
18.10094825154059 133.313
18.12366954819864 142.684
18.146215420998306 144.514
18.16876200220057 137.905
18.191309292745153 123.762
18.214033452627167 108.15299999999999
18.236582170236648 95.7289
18.259131600016456 88.2775
18.281681742907335 86.4199
18.304408781233683 89.6569
18.32696035875955 94.9685
18.349512652227624 100.26100000000001
18.372065662579683 105.72
18.394795594587553 107.49799999999999
18.41735004715306 104.355
18.43990521943684 98.0494
18.46246111238171 88.4964
18.485193953325208 78.3658
18.507751296070428 70.4444
18.530309362314178 65.6078
18.552868153000343 63.0707
18.57560391815056 61.5319
18.59816416623245 61.0592
18.620725141597372 60.2671
18.643286845190268 59.6374
18.666025549835414 59.2865
18.688588718427933 58.5766
18.711152618092243 58.4837
18.73389353884365 58.0779
18.75645890921984 57.7001
18.77902501351406 57.3059
18.801591852673102 57.2783
18.824335739722738 56.7199
18.846904057212626 56.7142
18.8694731124168 56.4355
18.89204290628315 56.3977
18.914789774966803 56.0209
18.937361054791623 55.8434
18.959933076131318 55.593
18.982505839934877 55.606
19.00525570560582 55.5335
19.027829963004184 55.1304
19.05040496572238 55.2822
19.072980714710468 55.2576
19.095733592739563 55.418
19.11831084296757 55.6909
19.140888842324735 56.1532
19.16346759176222 56.7401
19.18622349753803 57.2476
19.208803755869358 58.4773
19.231384767143577 59.783
19.253966532312948 61.1111
19.276725481241822 63.2117
19.29930876296784 65.9293
19.3218928014549 69.0291
19.34465404436217 71.9458
19.36723960516257 74.7148
19.389825925592426 75.9652
19.412413006605938 75.2101
19.43517731967805 72.0589
19.457765930683355 68.1902
19.48035530514408 63.4355
19.50294544401556 59.2796
19.525712842708348 56.2788
19.54830451925909 54.6095
19.570896963095727 52.948
19.593490175174704 52.5595
19.616260674962184 52.5936
19.638855432416964 52.4317
19.661450960992624 52.4579
19.68404726164677 52.3414
19.706820878021247 52.1667
19.729418731756834 52.3793
19.752017360452857 51.8772
19.77461676506804 52.1149
19.797393513540218 52.1524
19.819994478951667 52.1542
19.84259622316767 52.6916
19.8651987471481 53.443999999999996
19.887978643247177 53.9899
19.91058273574792 54.6589
19.933187610901943 55.6636
19.955969879466828 56.5809
19.97857632894404 57.9168
20.00118356396599 59.3823
20.023791585494575 61.3762
20.046577028914875 64.4084
20.069186632506966 66.8316
20.091797025500632 69.3503
20.114408208858933 70.9738
20.137196842715273 71.0648
20.159809615886765 69.245
20.18242318232135 66.9106
20.20503754298326 64.2418
20.227829382875154 62.6572
20.250445341109344 61.9625
20.27306209647285 62.3271
20.29567964993108 63.6455
20.31847471147704 64.6204
20.34109387027612 65.5923
20.363713830075454 65.4217
20.386334591841646 64.3687
20.409132890679302 61.4705
20.431755265564437 58.3666
20.454378445325528 55.388000000000005
20.477002430930366 52.82
20.499803982716553 51.3549
20.522429589228004 50.1813
20.54505600449589 49.5355
20.567683229489194 49.3163
20.590488049900088 49.1625
20.61311690359731 48.8551
20.63574656993626 48.8934
20.658553853717297 48.4634
20.681185154618298 48.4415
20.703817271080066 48.3963
20.72645020407368 48.0437
20.749260783967177 48.0705
20.771895359337133 48.3723
20.794530754161617 48.1202
20.817166969412938 48.0049
20.83998086114876 47.8506
20.86261872660049 47.6726
20.885257415405402 47.6001
20.90789692853701 47.5288
20.930714147864748 47.4431
20.953355319030678 47.4891
20.97599731745334 47.4745
20.99864014410749 47.3191
21.021460706796564 47.4316
21.044105199328826 47.70399999999999
21.06675052302631 47.9971
21.089396678865015 48.1153
21.112220600704806 48.4991
21.134868430275347 48.6603
21.15751709492456 48.9777
21.180166595629693 49.2556
21.202993892429635 49.8892
21.22564507473034 50.33
21.24829709602816 50.6415
21.27112693608965 50.6929
21.293780644891275 50.6241
21.316435195634053 50.0062
21.339090589297417 49.3222
21.361923832041875 48.8334
21.384580921090404 48.1351
21.407238856007325 47.6748
21.429897637773326 47.4846
21.45273429906592 47.4327
21.475394784108598 47.5696
21.498056118951983 47.4569
21.520718304578022 47.6311
21.543558400304388 47.6488
21.566222297108816 47.7072
21.58888704765135 47.7601
21.61155265291521 48.0815
21.63439619898156 48.7471
21.657063523335786 49.0575
21.67973170537063 49.7225
21.7024007460706 50.3667
21.72524775840385 51.2244
21.747918526116475 52.20399999999999
21.770590155457388 53.2571
21.79326264741238 54.6291
21.816113141960237 56.5287
21.838787368860547 58.7105
21.861462461341976 60.7624
21.884315579735777 63.20399999999999
21.90699241312273 64.8328
21.92967011506078 65.4008
21.95234868653799 65.4761
21.9752053151131 64.2675
21.997885635446785 62.2093
22.020566828293532 60.0946
22.04324889464272 57.8771
22.066109049404666 56.2342
22.088792872571794 55.9684
22.111477572219204 55.9508
22.1341631493376 56.3626
22.157026846313123 56.1376
22.179714188221507 55.5698
22.202402410582668 54.3173
22.22509151438863 52.6125
22.24795876962584 51.2737
22.270649646204486 50.1893
22.293341407213727 49.2579
22.316034053646906 48.6032
22.338904883215342 48.1798
22.36159931041458 48.1992
22.38429462602756 48.003
22.40699083104897 47.6163
22.429865251039757 47.8032
22.452563244831367 47.8191
22.47526213102522 47.799
22.49813925616515 47.7668
22.520839937143307 47.7093
22.543541513520587 47.6554
22.56624398629403 47.7462
22.589124730075895 47.6434
22.611829005656723 47.7029
22.63453418063466 47.7134
22.657240256008077 48.0111
22.680124634582935 48.1191
22.70283252079775 48.4881
22.725541310413075 48.9322
22.74825100442868 49.3117
22.771139033969575 49.8382
22.79385054687155 49.8616
22.81656296718292 50.6428
22.83927629590484 51.3386
22.862167992606945 52.4474
22.88488314827121 53.6613
22.907599215359284 54.6858
22.93031619487366 56.0063
22.953211574954405 56.8943
22.975930389478226 57.8097
22.998650119445763 58.1609
23.02137076586092 57.3389
23.044269845560063 56.2948
23.06699233506288 54.9566
23.089715744034912 52.7798
23.112617610931565 51.0845
23.135342869061212 49.5748
23.158069049684816 48.6873
23.1807961538087 48.1127
23.20370174880544 48.0001
23.226430710184808 48.0891
23.249160598093425 47.9319
23.271891413539002 47.9172
23.294800752937697 48.2119
23.31753343374794 48.4342
23.340267045128353 48.5943
23.36300158808808 49.1882
23.38591468821339 49.51
23.408651104658304 50.0298
23.431388455719986 50.5304
23.454126742409 51.3104
23.4770436196085 52.2274
23.499783787914662 53.6648
23.522524894889884 54.7665
23.54526694154616 55.9542
23.56818761219047 57.3018
23.59093154860734 58.3365
23.613676427751283 58.8574
23.636422250635754 58.0518
23.659346731118656 56.4342
23.68209445191868 54.5838
23.704843119509587 52.1857
23.72759273490623 49.9452
23.750521041644767 48.3705
23.77327256312355 46.9453
23.796025035462787 46.2134
23.818956224555475 45.5117
23.841710609113413 45.215
23.86446594758979 45.1039
23.887222241002014 44.7741
23.910157285144578 44.3962
23.932915498962537 44.3353
23.955674670778713 44.3806
23.978434801611975 44.1806
24.001373717286125 43.9363
24.024135776723917 43.7869
24.046898798245582 43.7868
24.06966278287146 43.7087
24.092605586582614 43.5019
24.115371508023642 43.2322
24.1381383956401 43.2835
24.16090625045381 43.17
24.183852958731244 43.0494
24.206622758582608 42.9752
24.229393528706886 42.9242
24.252165270127392 42.8084
24.27511589952438 42.89
24.297889594216997 42.6644
24.32066426328598 42.53
24.34343990775613 42.4908
24.36639447485003 42.335
24.38917208083877 42.3284
24.41195066531332 42.2591
24.43490819850244 42.2459
24.457688750692377 42.236000000000004
24.48047028445616 42.1012
24.503252800821233 42.1756
24.526214300784112 42.4194
24.548998793132213 42.3117
24.57178427117417 42.1515
24.59457073593893 42.3521
24.617536219319863 42.248000000000005
24.64032466834748 42.1964
24.663114107195035 42.2212
24.685904536893013 41.8829
24.708874020360852 41.7809
24.731666442613744 41.5566
24.754459858818787 41.4952
24.777254270007962 41.457
24.80022777025625 41.3991
24.82302418230472 41.4839
24.845821592443674 41.5
24.86862000170663 41.387
24.891597535453727 41.3017
24.914397953892728 41.5255
24.93719937456671 41.4778
24.96000179851076 41.6822
24.98298338249997 41.8645
25.00578782394922 42.0793
25.028593271784167 42.3157
25.05157790644186 42.4872
25.07438537804115 42.7988
25.097193859145293 43.1528
25.120003350792075 43.4059
25.142992065061257 43.9262
25.165803588823465 44.0895
25.18861612625217 44.3827
25.211429678386736 44.4194
25.234422489079968 44.4818
25.257238081693636 44.5653
25.280054692141732 44.6877
25.3028723214652 44.6931
25.325869245420463 44.818000000000005
25.348688923599397 44.8517
25.371509623787006 44.7713
25.394331347025812 44.5239
25.41733240110666 44.0634
25.440156181590016 43.2894
25.46298098826268 42.8074
25.48580682216873 42.1576
25.50881202326435 41.4666
25.53163992281684 40.9248
25.55446885274561 40.6443
25.577298814096377 40.3919
25.600308179121807 40.2957
25.623140214533745 40.2579
25.64597328451537 40.235
25.66898578564376 39.9614
25.691820936010206 39.8772
25.714657124097695 39.7474
25.737494350954734 39.7819
25.760511045684957 39.7671
25.783350361364224 39.8209
25.806190718969255 39.959
25.82903211955018 40.1032
25.852053024868923 40.0927
25.874896522722523 40.0924
25.897741066713106 40.0436
25.920586657892454 40.0582
25.943611790812668 40.1756
25.966459487728237 40.422
25.989308234998564 40.5106
26.01215803367705 40.8751
26.03518741123814 41.0004
26.05803932412957 41.1652
26.080892291600094 41.1566
26.10374631470478 41.3039
26.12677995397268 41.4163
26.14963609978026 41.3114
26.172493304397875 41.0046
26.19535156888223 40.9103
26.218389486949604 40.4136
26.241249882640123 40.1039
26.26411134137826 39.8297
26.28715248187403 39.6715
26.31001607820869 39.4823
26.3328807407756 39.3764
26.35574647063438 39.6794
26.37879191991473 39.6009
26.401659795896734 39.6674
26.424528742360263 39.8417
26.447398760366614 39.8489
26.470448535598294 39.9525
26.49332070826805 40.2012
26.516193955675355 40.5143
26.53906827888316 40.7477
26.562122397260108 41.0655
26.584998883685063 41.4648
26.607876449110325 41.7265
26.63075509460056 41.9476
26.65381357334404 42.2827
26.67669439061878 42.1983
26.699576291163382 42.0602
26.722459276044212 42.0101
26.745522132402975 41.6824
26.768407297649354 41.4858
26.791293550442003 41.0022
26.814180891848974 40.7136
26.837248143099337 40.3251
26.860137673466657 40.2997
26.88302829566349 40.0297
26.90592001075963 39.7116
26.92899167420566 39.5421
26.951885586870763 39.1944
26.974780595655517 38.9429
26.99785558178161 38.7972
27.020752794605112 38.5081
27.043651106772522 38.3549
27.06655051935668 38.3966
27.089629948036183 38.3095
27.112531573292053 38.2545
27.135434302194138 38.2469
27.158338135817015 38.1453
27.181422024430987 38.022
27.204328079372566 37.961999999999996
27.22723524226965 38.0057
27.250143514198573 38.0565
27.273231880156334 37.9847
27.296142382065014 37.9198
27.319053996245536 37.8014
27.341966723775965 37.9689
27.365059584515222 37.9274
27.38797455070062 37.9282
27.410890633481237 37.8261
27.433807833936918 37.9234
27.456905206923906 38.1368
27.47982465472398 37.9787
27.502745223449743 38.0286
27.525666914182825 38.2833
27.548768816912457 38.2236
27.571692763693633 38.1294
27.59461783573812 37.9693
27.617723149491244 37.8334
27.640650484125285 37.7352
27.66357894728264 37.623000000000005
27.686508540048052 37.5554
27.709618414237887 37.6098
27.732550278321757 37.5391
27.755483275279115 37.4712
27.778417406196485 37.4354
27.801531858397514 37.3701
27.824468269376716 37.4816
27.847405817586786 37.3262
27.870344504116094 37.4683
27.893463551932008 37.7313
27.916404527281053 37.806999999999995
27.93934664422563 38.0765
27.962289903855886 38.0639
27.98541356491974 38.4573
28.00835912214229 38.5638
28.03130582533231 38.9279
28.054253675581805 38.9757
28.077381967556104 38.9627
28.100332124185126 38.9969
28.123283431160893 38.857
28.146235889577238 38.8242
28.169368830154156 38.5549
28.192323603752033 38.3923
28.215279532083304 38.1214
28.238415973016764 37.8667
28.261374223145094 37.6805
28.284333631303806 37.4356
28.307294198589954 37.2658
28.330435319167677 36.9214
28.353398217078915 36.5152
28.376362277420153 36.272
28.39932750129032 36.1322
28.422473319286713 35.9888
28.44544088262495 36.0031
28.468409612800283 35.8455
28.491379510913497 35.55
28.51453004413313 35.475
28.53750229057244 35.4731
28.56047570826344 35.3248
28.583450298308804 35.3349
28.606605564586562 35.1147
28.629582511831156 35.2988
28.65256063474956 35.2542
28.675539934446338 35.2409
28.698699951647605 35.1351
28.72168161743193 34.9964
28.74466446331978 35.0937
28.767648490417624 34.9491
28.790813276438353 34.9904
28.813799678527303 35.0307
28.836787265157085 35.0604
28.859955641890075 35.0412
28.882945610203045 34.9822
28.905936766392035 34.8819
28.928929111566863 34.9282
28.952102288520145 34.9651
28.975097024308607 34.8753
28.998092952423807 34.5867
29.021090073977508 34.5829
29.04426806913204 34.4559
29.067267590245258 34.3011
29.090268308143695 34.1526
29.11327022394099 34.1821
29.13645305530891 34.0634
29.159457379627167 33.8915
29.18246290519685 33.9079
29.20546963313352 33.8847
29.22865731875826 33.8515
29.25166646419296 33.9228
29.27467681535305 33.7283
29.29768837335608 33.8297
29.320880931312562 33.9266
29.34389491580634 33.8805
29.366910110507334 33.8122
29.38992651653503 33.8535
29.41312396492981 33.9282
29.436142806456754 33.7949
29.45916286268059 33.7472
29.48236399319994 33.6147
29.50538649169417 33.4626
29.528410208259935 33.3447
29.55143514402014 33.1654
29.574641196749695 32.9617
29.597668583816574 32.8291
29.6206971934585 32.5579
29.64372702680042 32.7127
29.666938019934474 32.7296
29.689970313635285 32.6268
29.713003834422636 32.5342
29.73603858342347 32.5382
29.759254535188578 32.3833
29.78229175361658 32.3731
29.80533020365064 32.4088
29.82836988641968 32.3917
29.85159081507472 32.2555
29.874632976355343 32.2015
29.89767637376955 32.2882
29.920721008448314 32.196999999999996
29.9439469322847 32.166
29.96699405457564 32.0646
29.9900424175358 32.0578
30.013092022298157 32.0321
30.03632295963995 32.0708
30.059375061131373 32.0598
30.08242840783577 32.0538
30.105483000888153 32.1347
30.128718970092244 31.9615
30.151776069006917 31.9894
30.17483441768648 32.149
30.198074175317235 32.0563
30.221135036724256 32.0374
30.24419715131772 31.8443
30.267260520236203 31.8743
30.290505341942243 31.9496
30.313571232750228 31.9792
30.336638381310948 31.9937
30.35970678876503 31.8873
30.38295669299435 31.8131
30.40602763151657 31.8045
30.429099832366074 31.7899
30.452173296685572 31.6953
30.47542830191959 31.6502
30.498504306502497 31.6653
30.521581577995562 31.723000000000003
30.544660117543582 31.728
30.56792024229725 31.7454
30.59100133132069 31.8332
30.614083691845494 31.7033
30.637167325018545 31.9302
30.660432587840603 31.9339
30.683518779717886 31.8708
30.70660624769615 32.0333
30.729694992924372 31.9449
30.75296541239743 31.9938
30.77605672557558 31.9356
30.799149319462742 31.9172
30.8224236211637 31.7284
30.845518789950724 31.6231
30.868615242910597 31.5996
30.891712981195973 31.463
30.91499247215866 31.3624
30.938092794619365 31.2163
30.96119440587579 31.1616
30.984297307082752 31.0886
31.00758200598383 31.0851
31.030687500658694 31.0306
31.053794288760695 30.9388
31.076902371446767 30.7742
31.100192296997445 30.85
31.12330298246119 30.7233
31.14641496599209 30.4638
31.169528248749216 30.57
31.19282341969534 30.572
31.215939314557186 30.5887
31.239056512134788 30.6095
31.262175013589378 30.5439
31.28547544871168 30.5119
31.30859657161541 30.574
31.331719001892175 30.5423
31.35484274070538 30.5722
31.378148458819545 30.718000000000004
31.401274828443725 30.6113
31.424402510106933 30.5733
31.447712205419993 30.7242
31.470842524931633 30.6327
31.493974159989783 30.5067
31.51710711176168 30.4758
31.54042212308802 30.548000000000002
31.563557722100917 30.4975
31.586694641341655 30.4378
31.609832881979628 30.264
31.63315322823208 30.2152
31.656294125521327 30.0027
31.679436347728515 30.1035
31.70257989602529 29.8912
31.725905596152327 29.8552
31.74905181052835 29.8289
31.772199354521323 29.8549
31.79534822930507 29.8652
31.818679302290967 29.8331
31.84183085259981 29.909000000000002
31.864983737233473 29.8893
31.88813795736804 29.8031
31.911474422233013 29.791999999999998
31.934631327356435 29.9361
31.9577895715215 29.8474
31.980949155906522 29.8645
32.004291031706956 29.8876
32.027453310562606 29.7099
32.05061693318573 29.575
32.07396288236386 29.5817
32.09712920658542 29.5406
32.12029687812702 29.3717
32.14346589817093 29.3149
32.166817291729984 29.2238
32.18998902288583 29.2098
32.21316210610336 29.0659
32.23633654256711 28.9962
32.259693399663725 28.9445
32.282870556771144 28.877
32.30604907069099 28.8878
32.329228942610065 28.7556
32.35259128243769 28.6547
32.375773884550505 28.6537
32.398957848235646 28.6256
32.422143174682176 28.5416
32.445511016471215 28.4811
32.468699082679954 28.4129
32.49188851523011 28.3529
32.51507931531304 28.3034
32.538452678331 28.2359
32.56164622776311 28.1947
32.58484114831493 28.1632
32.60803744118015 28.2404
32.631416344731896 28.2414
32.654615396551876 28.1988
32.67781582427913 28.1115
32.701198898634416 27.9575
32.72440209253756 27.9102
32.747606665947124 28.0044
32.77081262006088 27.8453
32.79420126883317 27.8281
32.81740999876112 27.851
32.840620112999424 27.7243
32.86383161274818 27.6322
32.88722585534586 27.675
32.91044014056596 27.8074
32.933655814909734 27.6625
32.95687287957963 27.6495
32.98027273544904 27.5612
33.00349259526636 27.5541
33.026713849030116 27.5318
33.04993649794511 27.5606
33.073341986570746 27.546
33.09656744032826 27.4726
33.11979429286444 27.435
33.14302254538647 27.4862
33.166433686291185 27.4213
33.18966475336992 27.4423
33.212897224069096 27.3288
33.23613109959831 27.2452
33.259547912343415 27.2951
33.2827846121627 27.3361
33.306022720453775 27.2006
33.32926223842861 27.114
33.352684742614166 27.1549
33.37592709463173 27.0778
33.399170859982064 27.0171
33.422597648419426 26.9166
33.44584425514446 26.8519
33.46909227885668 26.7725
33.4923417207723 26.6544
33.51577423505344 26.8035
33.539026528130385 26.6549
33.56228024307245 26.6314
33.585535381098246 26.4622
33.60897364093058 26.39
33.63223163992385 26.4751
33.6554910656699 26.4125
33.678751919389796 26.3398
33.702195944520106 26.2555
33.72545966903325 26.2678
33.74872482519663 26.2454
33.771991414233746 26.2849
33.79544122444841 26.2173
33.81871069412428 26.1324
33.84198160035767 26.0957
33.86525394437455 26.1205
33.88870955949969 26.0451
33.911984794020626 26.0045
33.93526147001624 25.9744
33.958539588715006 25.8689
33.98200102861669 25.8744
34.0052820477047 25.8351
34.02856451319451 25.7864
34.05203033759056 25.7566
34.07531571090147 25.7401
34.09860253431845 25.6934
34.121890809074316 25.6425
34.145362493118924 25.6248
34.16865368561615 25.5973
34.191946333164054 25.498
34.21524043699793 25.447
34.23871800066799 25.4147
34.26201503218366 25.3117
34.28531352370466 25.3548
34.30861347646881 25.2639
34.33209693978188 25.2332
34.3553998301885 25.2765
34.378704185565205 25.1861
34.402010007152356 25.0372
34.42549939016683 25.0565
34.44880815937748 25.0074
34.472118398533134 24.99
34.49543010887669 24.8546
34.51892543169198 24.7628
34.54224009966052 24.8731
34.56555624255917 24.8663
34.58887386163339 24.7554
34.61237514439016 24.6945
34.6356957311114 24.6866
34.65901779775809 24.604
34.68252356662995 24.596
34.705848608458616 24.546999999999997
34.72917513396849 24.5748
34.75250314440949 24.4897
34.77601490857862 24.4138
34.799345904259795 24.3715
34.82267838863559 24.3803
34.846012362958525 24.307
34.869530142679984 24.3564
34.89286711232212 24.2907
34.91620557568269 24.295
34.93954553401677 24.234
34.9630693495876 24.1919
34.986412313340814 24.1551
35.00975677584668 24.1716
35.033102738362956 24.1585
35.05663261012228 24.0879
35.0799815881786 24.1122
35.10333207003229 24.0223
35.12668405694369 24.0352
35.150220005273056 23.9765
35.17357501786656 23.9736
35.19693153931268 23.8701
35.220289570874385 23.8433
35.24383161619786 23.9261
35.267192683604904 23.9388
35.290555264930376 23.7662
35.314101899412165 23.7652
35.33746752422433 23.7933
35.36083466676374 23.8099
35.38420332829803 23.7182
35.407756095629054 23.662
35.43112781085063 23.7505
35.45450104888391 23.7934
35.477875810999194 23.7852
35.50143473172161 23.6257
35.52481255774625 23.651
35.54819191167777 23.5924
35.57157279478914 23.5408
35.595137889488406 23.5453
35.61852184675279 23.4873
35.641907337029984 23.4387
35.665294361595684 23.4412
35.68886565090076 23.2812
35.7122557598848 23.2177
35.73564740699838 23.2943
35.759040593519934 23.1878
35.78261809810353 23.1751
35.80601437933051 23.1022
35.829412203814705 23.1411
35.85281157283719 22.9615
35.876395313415884 22.9371
35.8997977874528 23.0059
35.92320180988546 22.9255
35.946790244133936 22.8878
35.97019737933222 22.9361
35.993606066789866 22.8165
36.01701630779276 22.8041
36.04061101440684 22.6964
36.06402437852291 22.7313
36.08743930005611 22.7029
36.1108557802951 22.6277
36.13445678011326 22.7171
36.15787639383515 22.6104
36.18129757014299 22.5948
36.20472031032821 22.5706
36.22832762423364 22.4731
36.25175350829375 22.4271
36.275180960119776 22.3453
36.298609981005924 22.396
36.32222362992669 22.3687
36.34565580510207 22.336
36.36908955323448 22.3482
36.39252487562093 22.2151
36.416144880530226 22.1936
36.43958336764275 22.1946
36.463023432914625 22.2517
36.486465077645676 22.1362
36.51009145956204 22.1715
36.53353627947859 22.0447
36.55698268276811 22.1183
36.58043067073321 22.1128
36.60406345072071 22.0368
36.62751462435344 21.9565
36.65096738658405 21.9309
36.67460498210655 21.8883
36.69806093788647 21.8785
36.72151848619297 21.7378
36.744977628333636 21.7926
36.76862165890998 21.7564
36.79208400512205 21.8005
36.81554794910557 21.6979
36.83901349217101 21.6134
36.862663978991606 21.6066
36.88613273667352 21.5267
36.90960309738324 21.5959
36.933075062434064 21.4831
36.95673202673572 21.4276
36.98020721697122 21.3531
37.003684015502365 21.3189
37.027162423645365 21.3066
37.050825886711465 21.3365
37.07430753063053 21.2664
37.09779078812467 21.2492
37.121275660513014 21.189
37.144945643673694 21.1703
37.16843376245278 21.1593
37.19192350009803 21.1761
37.215414857931435 21.0868
37.239091382563885 21.068
37.262585997426164 21.0515
37.28608223645736 21.0978
37.309763684451696 21.0106
37.33326318851098 20.9674
37.356764320726555 20.8086
37.380267082425526 20.9043
37.40395510942588 20.8737
37.42746114683234 20.759
37.45096881771841 20.726
37.474478123414166 20.6455
37.49817275092816 20.6476
37.52168534303452 20.6615
37.54519957395567 20.5723
37.568715445024665 20.5836
37.592416694607714 20.5561
37.61593586281424 20.5919
37.63945667518264 20.6078
37.66297913304891 20.4902
37.68668702630454 20.5029
37.710212792059274 20.458
37.733740207334854 20.4199
37.757269273470364 20.3518
37.780983832050374 20.2503
37.80451621684926 20.2852
37.82805025654007 20.2779
37.851585952464795 20.1821
37.8753071980695 20.0926
37.89884622345676 20.0472
37.92238690911902 20.0197
37.94611318753442 20.0252
37.969657210779765 20.0582
37.99320289834801 20.0079
38.016750251586465 20.0311
38.04048325513017 19.9162
38.06403395679343 19.8953
38.087586328183946 19.8876
38.11114037065203 19.8953
38.13488012115898 19.8672
38.1584375229181 19.7899
38.181996599821 19.7285
38.205557353221124 19.6767
38.229303872575656 19.6245
38.2528679961576 19.6264
38.27643380031219 19.65
38.30000128639589 19.5977
38.32375459653193 19.561
38.34732546371299 19.5835
38.37089801690786 19.4646
38.39447225747609 19.4588
38.418232380377425 19.4121
38.441810012983396 19.4442
38.46538933705673 19.4315
38.488970353960084 19.3877
38.51273731166058 19.384
38.536321731567014 19.2731
38.55990784840681 19.3079
38.58367995004091 19.2258
38.60726947812959 19.1807
38.63086070726198 19.1976
38.654453638806274 19.1888
38.678232613930824 19.1035
38.70182896773327 19.0635
38.72542702806741 19.0352
38.7490267963045 19.0189
38.77281266709232 19.0028
38.79641586862214 19.0267
38.8200207821842 18.9819
38.843627409152944 18.8896
38.86742019782782 18.892
38.891030269149255 18.8456
38.914642058016156 18.8565
38.938255565806124 18.7652
38.96205529464307 18.7347
38.98567225787121 18.723
39.00929094417078 18.667
39.03291135492255 18.6634
39.05671804624804 18.6364
39.080341923549106 18.6061
39.103967529460334 18.6078
39.127594865365744 18.531
39.15140854155791 18.5078
39.17503935514948 18.5102
39.19867190290282 18.4384
39.22249083587951 18.4228
39.24612686969409 18.3838
39.269764641845306 18.4044
39.293404153722804 18.3485
39.317230110864074 18.2732
39.34087311998506 18.2443
39.36451787301696 18.3076
39.388164371352595 18.1864
39.41199737518003 18.1426
39.43564738196752 18.0963
39.45929913825317 18.1098
39.48295264543308 18.1435
39.506792718520884 18.1334
39.530449745387216 18.0398
39.55410852735203 17.9827
39.57776906581474 18.0161
39.60161623079 17.9672
39.625280300200025 17.9009
39.64894613032202 17.924
39.67261372255866 17.8696
39.6964680021016 17.8638
39.72013913657293 17.8106
39.74381203738292 17.7748
39.76748670593756 17.768
39.79134812278169 17.7517
39.81502634488497 17.777
39.83870633896685 17.7173
39.862388106436654 17.6622
39.88625668336918 17.6205
39.90994201572829 17.6837
39.933629125719285 17.5639
39.957503091207826 17.5039
39.9811937746168 17.5446
40.00488623990914 17.494
40.02858048850006 17.4267
40.05246165409549 17.3376
40.076159487492085 17.3397
40.099859108448875 17.3812
40.123560518384345 17.3331
40.1474489070226 17.2889
40.171153913178564 17.3075
40.194860712584955 17.2627
40.2185693066637 17.2721
40.242464941335314 17.1973
40.26617714307655 17.2112
40.289891143772046 17.1937
40.3136069448471 17.1056
40.33750984859743 17.129
40.3612292688043 17.0428
40.3849504936829 17.0139
40.40867352466194 17.0144
40.43258372059144 17.0058
40.45631038219906 16.9974
40.48003885420956 16.8956
40.503769138055105 16.9854
40.52768664931955 16.9003
40.55142057531802 16.8945
40.57515631746428 16.8505
40.599079334038514 16.7992
40.62281872700477 16.7698
40.64655994043941 16.7602
40.67030297578061 16.6962
40.69423334835778 16.7303
40.71798004609188 16.701
40.74172857006355 16.6701
40.76547892171441 16.6631
40.7894166736039 16.5932
40.813170699248566 16.6118
40.83692655691388 16.5267
40.86068424804498 16.5536
40.884629402612525 16.5134
40.908390779366385 16.4485
40.932153993938 16.4522
40.95591904777605 16.4364
40.979871628443995 16.4284
41.003640379561936 16.3719
41.02741097430883 16.4178
41.05118341413683 16.3331
41.075143444384416 16.3119
41.098919593177826 16.3085
41.1226975914255 16.2939
41.14647744058318 16.2191
41.170444943946755 16.1773
41.19422851378379 16.173
41.218013938914645 16.1175
41.24198706625173 16.0721
41.26577622087193 16.0095
41.289567235177785 16.0509
41.31336011063129 16.0682
41.337340752422875 16.0237
41.361137369129835 15.9533
41.38493585138705 15.9812
41.40873620066004 15.9089
41.43272438060107 15.8974
41.45652848292052 15.8384
41.48033445666918 15.794
41.50414230331616 15.8629
41.528138045159764 15.7611
41.551949656675205 15.7305
41.575763145513235 15.665999999999999
41.59957851314666 15.6635
41.62358184070442 15.6382
41.64740098505737 15.6489
41.6712220126409 15.6125
41.69504492493139 15.628
41.71905586207357 15.5497
41.74288256296395 15.537
41.766711153007456 15.435
41.79054163368412 15.4623
41.814560204340054 15.514000000000001
41.838394485526365 15.4678
41.86223066180303 15.4234
41.88625497706819 15.3989
41.910094962812 15.4161
41.93393684811168 15.3476
41.95778063445365 15.2705
41.981812625263366 15.2874
42.00566023303407 15.2896
42.029509746323676 15.247
42.05336116662236 15.2331
42.077400857069705 15.1697
42.10125611078846 15.1471
42.12511327600405 15.1249
42.14897235421036 15.1218
42.173019768448455 15.1244
42.19688269209613 15.0471
42.22074753323349 15.056
42.24461429335818 14.9689
42.268669455600495 15.036
42.292540073217886 14.9546
42.31641261433284 14.9289
42.34028708044675 14.9203
42.36435001496739 14.9022
42.38822835065557 14.8471
42.41210861586426 14.7911
42.4359908120986 14.8213
42.46006154323262 14.7739
42.48394762115317 14.7415
42.507835634632315 14.7585
42.531912233047436 14.7277
42.55580413732265 14.7052
42.579697981698 14.667
42.60359376768525 14.6265
42.62767820545945 14.6286
42.65157789440821 14.5792
42.67547952952185 14.5496
42.699383112316 14.5254
42.72347541395347 14.439
42.74738291190531 14.4215
42.771292362102166 14.448
42.795203766063516 14.4373
42.819303956130405 14.4068
42.843219287476536 14.3542
42.86713657716324 14.399000000000001
42.89105582671383 14.3468
42.91516392983864 14.3304
42.939087119032166 14.282
42.963012272677304 14.2257
42.98693939230129 14.2226
43.01105543317513 14.1657
43.034986504731386 14.1592
43.05891954686589 14.1375
43.08285456110972 14.1367
43.10697856448665 14.0839
43.130917542983475 14.0667
43.15485849820081 14.0641
43.17880143167367 14.0167
43.20293342237094 13.9877
43.226880332449 13.9575
43.25082922540554 13.9937
43.27496722682525 13.9683
43.29892010567796 13.894
43.32287497204102 13.9147
43.34683182745632 13.8815
43.370977859791836 13.8382
43.39493871351105 13.8175
43.41890156092628 13.8499
43.44286640358341 13.7778
43.46702049182749 13.731
43.49098934522816 13.7174
43.51496019852649 13.6835
43.5389330532723 13.6768
43.56309522248204 13.6319
43.58707210044314 13.6581
43.61105098451946 13.5943
43.63503187626491 13.5532
43.659202151562134 13.575
43.68318707902681 13.534
43.70717401884041 13.5005
43.731162972560874 13.5009
43.75534137913236 13.4522
43.779334381108384 13.4208
43.803329401683186 13.3962
43.82732644241872 13.374
43.8515130055166 13.3407
43.87551410707659 13.2963
43.89951723350145 13.2906
43.923709934595614 13.3044
43.94771713129917 13.2907
43.97172635758096 13.3246
43.99573761501002 13.2563
44.0199385169922 13.2517
44.04395385732619 13.2259
44.067971233533086 13.1949
44.09199064718605 13.1515
44.11619977548961 13.0862
44.14022328470671 13.0767
44.16424883610785 13.0985
44.18827643127035 13.0661
44.21249381139513 13.0168
44.236525514814076 13.0241
44.26055926674478 13.0258
44.28459506876863 12.9855
44.3088207262813 12.9647
44.33286064928722 12.8994
44.35690262714919 12.8679
44.38094666145278 12.8356
44.4051806219871 12.8736
44.42922879003185 12.815999999999999
44.45327901929361 12.8248
44.477331311362136 12.8391
44.501573600619416 12.7287
44.525630039221795 12.7249
44.54968854541895 12.7113
44.573937102200176 12.6503
44.5979997645541 12.6611
44.622064499300315 12.7075
44.64613130803592 12.6008
44.67038823869318 12.6113
44.69445921643748 12.5921
44.718532272981385 12.5336
44.742607409926194 12.5536
44.76687274034801 12.5242
44.79095205918753 12.4639
44.81503346325094 12.4506
44.839116954143876 12.4816
44.86339071028742 12.4308
44.88747839599524 12.3833
44.91156817336837 12.3825
44.93566004401666 12.3704
44.959942251908146 12.353
44.984038330325966 12.3166
45.00813650686762 12.2891
45.03223678314731 12.2697
45.05652746888232 12.276
45.08063196592069 12.2262
45.104738567558705 12.1976
45.128847275414856 12.1917
45.15314646515866 12.1501
45.17725940679741 12.1528
45.20137445952892 12.1226
45.22568004865265 12.1408
45.24979934496396 12.1176
45.27392075725247 12.0749
45.29804428714431 12.0124
45.322358426247604 12.0026
45.346486212804315 11.9721
45.370616121861914 11.9821
45.39474815505086 11.9307
45.41907087049246 11.9039
45.4432071734666 11.9172
45.46734560548283 11.91
45.49148616817604 11.8861
45.51581748638564 11.827
45.5399623320197 11.7749
45.56410931325473 11.8061
45.58825843173002 11.7837
45.61259837920865 11.7769
45.636751793816 11.7461
45.66090735060093 11.725999999999999
45.68506505120716 11.6989
45.7094136545275 11.6664
45.73357566449271 11.6656
45.75773982322992 11.6725
45.78190613238733 11.617
45.806263418194064 11.5325
45.83043404997326 11.5736
45.85460683713677 11.5793
45.87897065658495 11.5634
45.90314777634752 11.4951
45.92732705646868 11.4877
45.9515084986045 11.4794
45.97588104735473 11.4643
46.00006683541565 11.4893
46.02425479047904 11.4442
46.04844491420549 11.3902
46.0728262191024 11.3909
46.09702070211635 11.3477
46.12121735879483 11.3124
46.14541619080294 11.3033
46.169806278764455 11.331
46.194009483459034 11.2859
46.21821486849841 11.2421
46.24242243555223 11.2299
46.266821333570014 11.2052
46.29103328674601 11.2053
46.31524742696538 11.1847
46.33946375590237 11.1164
46.36387149104216 11.1214
46.38809221957392 11.0859
46.41231514186606 11.1175
46.436540259597464 11.0598
46.460956858999374 11.0478
46.48518638983522 11.0202
46.509418121166966 11.0483
46.533652054678114 11.0093
46.55807754555709 10.9462
46.58231590571962 10.9636
46.60655647313217 10.9295
46.630988654873654 10.8798
46.655233659129024 10.8829
46.67948087571551 10.8958
46.70373030632484 10.8539
46.72817142736393 10.8376
46.752425308428684 10.7995
46.77668140861147 10.7909
46.80093972960865 10.7474
46.82538981736788 10.727
46.849652602470904 10.7004
46.87391761349769 10.682
46.8981848521493 10.6802
46.9226439341274 10.6804
46.946915650573224 10.6091
46.97118959976749 10.6164
46.99546578341598 10.5798
47.019933887188216 10.552
47.04421456235744 10.540999999999999
47.06849747711879 10.5448
47.09278263318286 10.5321
47.11725978640143 10.5208
47.14154944775105 10.4788
47.165841355555656 10.4821
47.1901355115306 10.448
47.214621741924994 10.4594
47.23892041698887 10.3931
47.26322134538975 10.3495
47.28771440635075 10.3671
47.31201986422527 10.3449
47.33632758061436 10.3516
47.360637557241866 10.2866
47.38513974410611 10.2789
47.40945426407847 10.2275
47.43377104948137 10.24
47.45809010204344 10.2494
47.48260144275502 10.2282
47.506925052572285 10.1582
47.53125093475548 10.1394
47.55557909103813 10.1258
47.58009961361992 10.1241
47.60443234110732 10.0968
47.62876734791564 10.1189
47.65310463578333 10.0621
47.6776343683373 10.0787
47.7019762413987 10.0372
47.72632040075572 10.0389
47.75066684815169 10.0212
47.77520581885936 9.9969
47.799556865477655 9.9666
47.823910205386 9.949710000000001
47.84826584033272 9.9579
47.87281407745551 9.93207
47.89717432569297 9.92592
47.92153687423484 9.88453
47.94609208429692 9.8927
47.97045925671401 9.87491
47.99482873471275 9.803980000000001
48.01920052005013 9.813080000000001
48.04376504619224 9.824869999999999
48.068141469543484 9.81828
48.09252020552573 9.752419999999999
48.11690125590099 9.75123
48.1414751266064 9.7418
48.16586082917454 9.68866
48.19024885144316 9.663160000000001
48.2146391951793 9.695269999999999
48.239222439012764 9.69668
48.26361744916137 9.659289999999999
48.28801478610016 9.64003
48.31241445160131 9.59956
48.337007097209366 9.57854
48.36141144338331 9.567680000000001
48.38581812345755 9.51573
48.41022713920929 9.53181
48.434829215320704 9.50632
48.45924292604658 9.49792
48.48365897780325 9.48698
48.50807737237308 9.45584
48.532688907799276 9.43653
48.55711201168574 9.44099
48.581537463754074 9.4174
48.60615611725119 9.42351
48.63058628942721 9.38583
48.65501881516546 9.41194
48.6794536962573 9.37472
48.70408185970339 9.34127
48.72852147531801 9.313460000000001
48.75296345168211 9.30143
48.77740779059232 9.31207
48.80204549302823 9.2888
48.82649458091802 9.270430000000001
48.85094603676547 9.208210000000001
48.87539986237231 9.20633
48.90004713292306 9.20244
48.92450572200832 9.22166
48.94896668628025 9.1675
48.97343002754588 9.1605
48.99808689542115 9.15869
49.02255501470614 9.11918
49.04702551642794 9.07948
49.0714984023988 9.05642
49.096164896893235 9.02735
49.120642575466796 9.026
49.145122643748394 9.03208
49.16960510355558 9.02258
49.19428125404938 8.99912
49.2187685210852 8.97681
49.243258185121555 8.94417
49.26794160167084 8.93872
49.2924360839405 8.90672
49.31693296869764 8.8851
49.34143225776915 8.843169999999999
49.36612538195438 8.79795
49.39062950396021 8.83971
49.41513603578346 8.84614
49.4396449792564 8.80947
49.46434784069503 8.75746
49.488861631846454 8.736410000000001
49.513377840166804 8.72991
49.537896467493745 8.739930000000001
49.56260909589029 8.68854
49.587132585683285 8.67943
49.611658500018365 8.69988
49.636186840738596 8.69557
49.66090926588511 8.666360000000001
49.685442483902584 8.655489999999999
49.70997813385706 8.59174
49.734516217597076 8.58478
49.75924846937352 8.56627
49.7837914452858 8.554969999999999
49.80833686055187 8.53704
49.83288471702571 8.56621
49.85762682540054 8.52543
49.882179588965734 8.48664
49.9067347993235 8.47085
49.93129245833333 8.49487
49.95604445336378 8.50469
49.98060703442832 8.43079
50.005172069746266 8.41573
50.02993150438364 8.42558
50.05450147301533 8.41132
50.07907390151433 8.41062
50.10364879174981 8.3823
50.12841816587289 8.37801
50.1529980044635 8.32365
50.17758031042124 8.33333
50.20216508562089 8.29803
50.22694442953363 8.252839999999999
50.25153416817468 8.25802
50.27612638170508 8.23358
50.300721072005196 8.219339999999999
50.325510416102105 8.22076
50.350110084975064 8.17124
50.37471223628208 8.186869999999999
50.39931687190919 8.143939999999999
50.424116246675766 8.167019999999999
50.44872587605249 8.11467
50.47333799543065 8.12101
50.49795260670191 8.08745
50.52276204271512 8.082989999999999
50.54738166295838 8.1006
50.57200378079314 8.08804
50.596628398116835 8.06018
50.62144792604559 8.03995
50.646077567609396 8.0023
50.670709714377715 7.98912
50.69553683636198 7.974360000000001
50.72017401885922 7.9725
50.7448137122895 7.954110000000001
50.76945591856022 7.9577100000000005
50.79429318636823 7.950710000000001
50.818940443716784 7.93725
50.84359021965163 7.8963399999999995
50.868242516085964 7.8861
50.893089960641895 7.833139999999999
50.917747323549435 7.83045
50.94240721271973 7.83132
50.96706963007175 7.81015
50.99192728239342 7.824730000000001
51.01659478166073 7.81133
51.04126481489051 7.78217
51.06593738400761 7.8083800000000005
51.090805275207074 7.7655199999999995
51.11548294172845 7.7282
51.14016314993547 7.69217
51.164845901758845 7.710610000000001
51.18972406304274 7.68982
51.21441192780656 7.668880000000001
51.23910234200271 7.665960000000001
51.2637953075678 7.658639999999999
51.288683770237945 7.63673
51.31338186432707 7.6200399999999995
51.33808251561888 7.55625
51.362978729967345 7.57574
51.387684521509755 7.55007
51.41239287610203 7.53845
51.437103795691165 7.5126
51.46201036644977 7.48083
51.486726441956634 7.52988
51.51144508832545 7.501239999999999
51.536166307509156 7.457960000000001
51.56108326624387 7.46174
51.58580965706056 7.41148
51.61053862657523 7.411580000000001
51.635270176746864 7.39735
51.66019755512065 7.37678
51.68493429268881 7.37755
51.70967361681515 7.3742399999999995
51.73441552946465 7.34777
51.759353359237934 7.32666
51.7841004750961 7.3148
51.80885018539685 7.296
51.833602492111254 7.294860000000001
51.8585508051424 7.281960000000001
51.883308330926425 7.24383
51.90806845906181 7.24525
51.932831191525715 7.19645
51.95779001977161 7.208419999999999
51.98255798721516 7.184260000000001
52.00732856494335 7.14898
52.03229530577543 7.155539999999999
52.057071130455945 7.17208
52.081849571391054 7.12735
52.106630630568695 7.100789999999999
52.13160794279417 7.09386
52.15639426492067 7.10768
52.18118321127822 7.098269999999999
52.205974783860896 7.050439999999999
52.23096269971011 7.05245
52.255759551287994 7.037380000000001
52.280559035098186 7.041810000000001
52.30536115314103 7.0111
52.33035970494467 6.9836800000000006
52.35516711807904 6.960710000000001
52.37997717147198 6.9730300000000005
52.40478986713005 6.950019999999999
52.42979908731974 6.95103
52.454617094216 6.90078
52.47943774942214 6.89405
52.50426105495102 6.90715
52.529280976059844 6.89248
52.554109609024096 6.84863
52.57894089837482 6.8357
52.60377484613117 6.83935
52.62880550079408 6.82512
52.65364479223379 6.785089999999999
52.67848674816189 6.76319
52.70352547971946 6.763999999999999
52.72837279155837 6.75502
52.753222773982785 6.71192
52.778075429022984 6.712269999999999
52.80312495150885 6.73263
52.827982978797436 6.71063
52.85284368481815 6.672789999999999
52.87770707160767 6.66673
52.90276741793998 6.68186
52.92763619336701 6.63218
52.952507655698504 6.631589999999999
52.977381806977576 6.63788
53.00245301017842 6.62925
53.02733256653592 6.5994399999999995
53.052214817996074 6.57181
53.077099766608484 6.52259
53.102181859804446 6.5621100000000006
53.127072229988265 6.563960000000001
53.15196530349892 6.52997
53.17686108239249 6.49967
53.20195409881522 6.50485
53.22685531582556 6.4934199999999995
53.25175924441303 6.459
53.27666588664027 6.46352
53.30176985962693 6.42528
53.3266819565689 6.43708
53.35159677336455 6.4400699999999995
53.376514312083096 6.42359
53.40162927507703 6.41287
53.42655228516116 6.367430000000001
53.45147802340193 6.34525
53.47660125628886 6.30713
53.50153247842639 6.31171
53.52646643496923 6.2759599999999995
53.55140312799818 6.27579
53.576537409691696 6.27965
53.60147960336152 6.27649
53.626424539786164 6.25526
53.65137222105307 6.1879599999999995
53.67651758529126 6.2375
53.70147078399681 6.16499
53.72642673383343 6.1807099999999995
53.75138543689533 6.20858
53.776541917524526 6.19492
53.801506154876755 6.15174
53.826473151763246 6.163819999999999
53.851442910284916 6.1269599999999995
53.87661054126026 6.11682
53.9015858509782 6.06186
53.92656392866066 6.06436
53.95154477641532 6.07635
53.976723591801296 6.06192
54.00171000771266 6.08702
54.02669920004598 6.0625800000000005
54.051691170915745 6.02389
54.076881204886796 6.05194
54.101878760928514 6.046130000000001
54.12687910187696 5.999140000000001
54.152077577768296 5.9793199999999995
54.1770835166946 5.98835
54.20209224691339 6.00175
54.22710377055121 5.94264
54.25231352511594 5.926480000000001
54.27733066384342 5.8964300000000005
54.30235060239643 5.86664
54.32737334290836 5.913469999999999
54.35259441062629 5.80171
54.377622783395324 5.84197
54.40265396455061 5.82209
54.42768795623251 5.79703
54.45292037169559 5.757999999999999
54.477960012857906 5.75549
54.50300247099511 5.769
54.52804774825457 5.75959
54.55329154616743 5.76484
54.57834249018678 5.70999
54.6033962597977 5.68468
54.6284528571545 5.66656
54.653708072335164 5.62979
54.67877035378786 5.61722
54.70383546947698 5.6006800000000005
54.72890342156389 5.58114
54.7541700889442 5.5401
54.77924374251975 5.54787
54.8043202390049 5.55938
54.82959552413022 5.4924599999999995
54.8546777351945 5.46007
54.87976279569621 5.40485
54.90485070780914 5.47374
54.930137506558005 5.42491
54.95523115074295 5.447369999999999
54.98032765308844 5.37365
55.005427015775496 5.36734
55.03072536339621 5.40517
55.05583047570572 5.35454
55.080938454927676 5.302630000000001
55.10604930325027 5.31323
55.131359235107396 5.30661
55.15647585066083 5.252730000000001
55.181595341907496 5.22515
55.20671771104285 5.19775
55.232039262617704 5.1788
55.25716741665048 5.15929
55.28229845518636 5.147
55.30743238042802 5.064780000000001
55.33276558731939 5.10771
55.357905315183636 5.04617
55.383047936390035 5.0452
55.40819345314859 5.03633
55.433538351073295 5.0433
55.458689688238415 5.02877
55.483843927614096 4.92042
55.509197623043605 4.95005
55.53435769621134 4.91625
55.55952067826466 4.8982
55.5846865714265 4.8791199999999995
55.61005202069737 4.8368
55.63522376553902 4.86463
55.66039842818645 4.87999
55.68557601087004 4.79841
55.7109532500271 4.7499
55.73613670233794 4.84826
