TT I
1.2716486653135266 7.42099
1.2939594142134223 7.044160000000001
1.3162702121660406 6.91603
1.3385810600174564 6.740639999999999
1.3608919586137629 6.28523
1.383202908801069 6.05387
1.405513911425503 5.90524
1.4278249673332093 6.330830000000001
1.4501343378461518 6.13287
1.4724455028545926 6.04162
1.4947567236847858 5.6264400000000006
1.517068001182951 5.793069999999999
1.5393793361953272 5.313269999999999
1.5616907295681737 6.125030000000001
1.5840021821477681 5.7422699999999995
1.60631369478041 5.06251
1.6286252683124185 5.1679900000000005
1.6509369035901333 4.73778
1.6732468618895553 5.46015
1.695558623192809 5.43621
1.7178704487808514 5.45967
1.7401823395001077 4.51273
1.7625012545597203 4.93593
1.7848028405262486 4.7665
1.8071218901122095 4.69458
1.8294236121921872 4.30323
1.8517427996910911 4.685969999999999
1.8740620574440425 4.97264
1.8963639900671978 4.54151
1.9186833908139995 4.83257
1.9409854680117449 5.29646
1.9633050151394713 4.69145
1.9856246367570705 5.05934
2.0079269371922672 4.42331
2.03024671027244 4.590269999999999
2.0525491637446027 4.346830000000001
2.074869091674931 4.74899
2.097171701569106 4.87095
2.1194917877373847 4.77894
2.141811954326636 4.84054
2.164114805233074 4.65688
2.186435135143035 5.7958300000000005
2.208738150935709 14.9899
2.231058647554722 31.5672
2.2533792288321184 24.584
2.275682498336085 10.4038
2.298003251406138 5.63299
2.3203066942619714 5.841819999999999
2.3426276225136022 5.07902
2.3649486396617507 5.47039
2.387252348930071 6.3224800000000005
2.4095735463442893 5.4272599999999995
2.4318774374315884 5.526009999999999
2.4541988185014043 5.67767
2.476502894794693 5.86766
2.498824462909887 6.4621699999999995
2.521146125856138 6.94725
2.5434504863470337 6.785480000000001
2.5657723414244717 6.84737
2.588076895590662 7.787089999999999
2.610398946189713 8.018939999999999
2.6327210958598384 7.00023
2.6550259469304716 7.32302
2.6773482972090137 8.27933
2.6996533504259 7.7003699999999995
2.7219759047039602 7.494739999999999
2.744298562293959 8.22428
2.7666039251246595 7.735469999999999
2.7889267918020164 8.21325
2.8112323652516555 8.10176
2.833555444408179 8.5206
2.8558786311183852 8.36439
2.8781845268938557 8.32809
2.9005079311721484 8.67117
2.9228140460410397 8.99348
2.9451376712799635 9.13256
2.967444008632326 9.64531
2.9897678582247247 10.3531
3.0120918213106695 10.3395
3.0343984987899373 10.8628
3.0567226913198637 11.0859
3.079029599759726 11.4548
3.101354025127254 12.107000000000001
3.123678568232338 13.6845
3.145985829517914 13.1051
3.16831061055229 13.9743
3.1906181112775593 14.6021
3.212943133635653 14.5199
3.2352682779763207 14.8
3.2575761442691227 15.387
3.2799015350264273 15.937000000000001
3.302209649240067 17.0456
3.3245352898092655 17.2925
3.3468436553365257 17.5082
3.369169549113219 17.8271
3.3914955708171384 18.6802
3.413804319727358 18.7398
3.4361305997334863 19.1396
3.4584396084414553 19.9661
3.4807661501462652 20.4303
3.503092824025881 21.185
3.5254022288463154 21.4953
3.5477291695206588 22.3806
3.5700388426251948 22.646
3.5923660534916446 24.2595
3.6146934007816114 40.6623
3.637003482731501 98.6178
3.6593311053109985 109.166
3.681641464033634 61.3748
3.7039693653009733 32.1015
3.726297407241705 26.2615
3.7486081875460804 26.2466
3.7709365132734978 26.539
3.793247578841633 27.2102
3.8155761917550093 26.9007
3.8378875459837216 27.629
3.8602164494827234 27.7785
3.882545499606844 28.3732
3.9048572932539183 29.4235
3.9271866390645718 29.5298
3.9494987298666713 30.003
3.971828374764527 30.8187
3.9941581705403255 31.3728
4.016470713506008 31.5558
4.038800813471445 32.6357
4.061113662089144 33.7799
4.0834440696459176 33.959
4.105774632334751 34.4947
4.128087945865126 35.1934
4.150418821249301 36.161
4.172732448931298 37.964
4.195063640413578 39.4527
4.2173775856475215 43.9209
4.239709096631102 80.8693
4.262040768704612 266.712
4.284355196706267 359.074
4.306687193387355 227.19400000000002
4.329001947444346 86.6114
4.35133427213731 49.7157
4.373666762177566 46.1117
4.395982011761091 45.205
4.418314834921175 46.5121
4.44063041906622 55.5492
4.4629635787515625 67.941
4.4852969080429785 67.8576
4.5076130004776225 55.848
4.529946671403969 51.4299
4.552263106909177 51.1878
4.574597122877047 51.6729
4.596931312711224 52.9261
4.619248269273446 54.0589
4.6415828092605835 54.8985
4.663900117405352 56.2184
4.686235010953232 57.2722
4.708552674085913 58.7666
4.730887924602802 59.7661
4.753223354952695 61.216
4.775541557023902 62.9001
4.797877349456786 64.8447
4.820195915032126 66.571
4.842532072957498 67.9801
4.864868414979744 70.0013
4.88718753227192 72.726
4.909524244902505 74.2803
4.931843734218147 75.9848
4.954180820867835 78.7107
4.976518095879839 81.6364
4.998838149695359 84.4469
5.021175803844231 88.4507
5.043496238205739 91.5212
5.065834274903528 95.7707
5.088172504230693 100.749
5.1104935158799565 108.28299999999999
5.132832132875765 133.023
5.155153533596801 182.894
5.1774925416746225 221.075
5.199814334878411 392.463
5.2221537374521505 1099.15
5.244493338631803 2968.18
5.266815727034316 7398.62
5.289155727832427 12087.6
5.311478517248165 9099.2
5.333818921080011 3242.84
5.356159527788849 661.1519999999999
5.3784829252032536 204.275
5.400823940070432 153.1
5.423147747031976 134.097
5.445489173474152 122.835
5.467830807066149 116.648
5.490155234831516 112.531
5.512497285125229 108.444
5.534822130975162 105.898
5.557164601388673 103.574
5.579489868738879 100.90799999999999
5.601832762690846 100.45100000000001
5.6241758697774475 99.5054
5.646501775867269 98.2975
5.668845311622074 96.6663
5.691171647754637 95.9461
5.713515615597765 94.6968
5.735859800852677 93.8435
5.758186788542988 92.7068
5.780531411018185 92.8664
5.802858837297399 92.704
5.825203900414495 92.42
5.8475491852224 93.354
5.869877275883075 93.6774
5.892223006467101 94.5922
5.914551544266608 95.87799999999999
5.936897724049891 99.0617
5.959244129804903 105.00200000000001
5.981573344815301 124.39299999999999
6.0039202049061 218.00400000000002
6.026249875609095 480.32599999999996
6.04859719346037 1010.81
6.070927323278297 2190.56
6.093275102315365 4120.21
6.115623113320588 5233.02
6.137953938319995 3448.94
6.160302415650845 1211.39
6.182633708324452 294.27
6.2049826554078376 124.08200000000001
6.227331838745022 97.3299
6.249663839443684 88.1223
6.27201349767565 85.2413
6.294345974611799 92.85700000000001
6.316696111167083 106.167
6.339046488263839 99.2554
6.361379686074702 82.3263
6.383730546639482 73.6239
6.406064229255215 70.1524
6.428415576718203 69.3998
6.450749747566656 68.3642
6.47310158535871 67.0965
6.495453669698332 66.1546
6.517788579421056 65.5978
6.540141159237969 64.5477
6.562476565766648 64.30199999999999
6.5848296444934045 64.1642
6.607182974060425 63.2654
6.6295191323281015 64.0062
6.651872965955752 68.1171
6.6742096296068985 98.109
6.6965639707294615 151.513
6.71891856698715 150.489
6.741255995248479 99.8412
6.763611104154477 69.8197
6.785949046381137 61.4172
6.808304671371482 59.1551
6.8306605557940046 59.0302
6.852999275508618 58.5085
6.875355681171544 58.0973
6.897694923437771 57.611000000000004
6.92005185377892 57.4645
6.9423916220322655 57.355
6.964749080490181 56.5064
6.987106804399774 56.3708
7.009447368180821 56.7172
7.031805625367033 56.4062
7.054146723727803 56.7744
7.076505517631004 56.3856
7.098864581288365 56.2406
7.121206488070854 55.9874
7.143566093607822 56.2103
7.165908543567245 56.2047
7.188268694426048 56.2566
7.2106291193438095 56.7106
7.232972390625943 58.1024
7.255333366030969 72.1868
7.277677189091925 134.41899999999998
7.300038718428332 189.283
7.322400526130865 157.412
7.344745183422596 94.1401
7.367107550224791 63.6472
7.389452767901992 57.802
7.411815697249891 56.8092
7.434161478756298 55.5818
7.456524974096713 55.5602
7.478888753837185 55.2292
7.501235387657368 55.6393
7.523599738562711 55.5642
7.545946944825532 55.8116
7.568311870344528 55.8026
7.5906770845765665 56.1563
7.613025156078678 58.0143
7.635390950099687 59.7534
7.657739602662809 58.308
7.680105979923558 57.1422
7.702472650212829 57.2773
7.724822180948224 56.8029
7.747189439655568 57.2769
7.769539560075357 57.0504
7.791907410653562 57.861000000000004
7.81425812420825 57.3169
7.836626570110925 57.6378
7.858995315087906 58.5682
7.881346924933401 58.4153
7.903716270417482 59.0984
7.926068482028405 59.7023
7.948438431475253 59.978
7.9708086843180235 60.5724
7.993161805171116 61.6333
8.015532667162402 61.626000000000005
8.037886398416653 62.6596
8.060257873014221 62.9612
8.082629655331942 63.6028
8.104984308787587 64.5597
8.127356708900503 68.2332
8.149711981398308 74.7734
8.172085002766314 77.2587
8.194458336181368 73.4351
8.216814543847752 70.6053
8.23918850371002 70.495
8.26154533906492 71.1751
8.283919928836452 72.4981
8.306277395339652 73.509
8.328652618483376 74.8099
8.351028159736202 76.8609
8.373386579575245 79.5104
8.395762759396959 81.1089
8.418121819038275 86.7985
8.440498640894003 101.65799999999999
8.462875785192262 117.626
8.485235811156207 128.887
8.507613602688501 168.726
8.529974277114228 259.622
8.552352719347912 399.70099999999996
8.574731488360351 662.5939999999999
8.59709314210385 1149.64
8.619472567021075 1772.82
8.64183487789147 2170.15
8.664214962183097 1883.91
8.686577933647762 1063.69
8.708958680784317 412.30300000000005
8.731339760774953 181.545
8.753703729764451 117.734
8.77608547780821 102.208
8.798450116065078 97.6201
8.820832535634787 93.9206
8.843215292401656 92.4075
8.865580941199045 91.0518
8.887964374703538 90.1609
8.910330701447199 91.3174
8.932714815164482 94.0783
8.955099270424924 93.2736
8.977466620733543 89.6564
8.999851761421976 86.4087
9.022219798361645 84.7344
9.04460562795561 84.4974
9.066991803441677 84.0993
9.089360876979615 83.6416
9.111747746589993 83.8361
9.13411751544971 83.2987
9.156505082664324 83.1542
9.178875550323522 83.2438
9.20126381862328 83.4367
9.223652438908596 84.0498
9.246023961427412 83.4853
9.26841328802173 82.809
9.290785518039224 82.9118
9.313175554425882 83.7117
9.335565947154315 83.6771
9.357939245086508 83.7851
9.380330352834827 84.1394
9.40270436697103 84.1285
9.425096193225055 84.2883
9.447488380180165 85.2672
9.469863475295412 84.8142
9.492256385987508 85.3843
9.514632206018318 85.9677
9.537025843935714 86.8129
9.559402392368193 87.4767
9.581796761000229 88.8379
9.604191496441521 89.5207
9.626569144158516 93.5032
9.648964615551032 98.5375
9.671343000390081 100.557
9.693739211225699 97.7944
9.716135793237463 94.7139
9.738515290448102 94.2128
9.760912617143402 95.1776
9.783292860202891 96.3571
9.805690935076182 97.89299999999999
9.828089385495742 98.7872
9.850470754023561 101.344
9.872869957865444 109.50200000000001
9.89525208097539 127.396
9.917652041736662 141.17
9.940052382417589 139.99
9.962435644102392 144.899
9.984836746950979 181.262
10.007220771957746 247.79
10.029622640473708 354.99
10.052007432299963 526.7959999999999
10.074410069984072 800.145
10.096813093716005 1205.06
10.119199042482517 1645.0
10.141602840636468 1891.53
10.163989564971628 1640.42
10.186394141051062 982.306
10.208799107559706 446.759
10.231187001965623 211.707
10.253592751657669 134.816
10.275981430388155 117.171
10.298387966769793 116.258
10.320794897965431 118.999
10.343184759907361 117.72
10.36559248305461 110.944
10.387983138083852 106.425
10.410391656691655 108.73
10.432800574501677 119.85600000000001
10.455192425893369 137.53
10.47760214443012 162.306
10.499994797678786 205.27700000000002
10.522405320453982 280.638
10.54479877906917 391.63199999999995
10.567210109595656 501.406
10.5896218454736 555.927
10.612016518879773 512.356
10.634429067781074 376.37699999999995
10.656824555333241 224.86700000000002
10.679237920773568 133.92600000000002
10.701651695961992 99.9188
10.724048411481384 91.052
10.746463008485165 88.2837
10.768860546937125 86.4084
10.791275969274796 84.5678
10.81369180576079 83.5969
10.836090585366925 81.9845
10.858507252467449 80.7471
10.88090686379991 79.7844
10.903324365036394 79.4535
10.925724811614439 79.4785
10.948143150509463 81.0932
10.970561909719066 80.4705
10.992963615930844 78.3662
11.015383218085756 75.9858
11.037785768347074 74.1586
11.06020621697282 73.9226
11.082627090322113 73.5322
11.105030913430326 72.7442
11.12745263854165 73.7509
11.149857314510728 77.5624
11.172279894912576 84.3822
11.194702904450653 85.166
11.217108866490921 80.5129
11.239532736615194 75.6176
11.26193956033512 73.2173
11.284364294577085 71.444
11.306789462371718 69.3301
11.329197585398376 68.0121
11.351623622610898 68.1069
11.37403261614354 67.0095
11.396459526308487 66.9023
11.418869393879497 66.5277
11.441297180532617 66.1545
11.463725406927658 66.1525
11.486136592353875 65.7689
11.508565700543707 66.4966
11.530977768845315 68.4698
11.553407762368774 69.4727
11.575838200059769 68.804
11.598251599479612 66.3986
11.620682927815501 64.6832
11.64309721895548 64.6877
11.665529441478206 64.1601
11.687962112597958 63.6745
11.710377748130886 63.9335
11.732811318753434 64.0117
11.755227854859067 63.8338
11.777662328529495 63.5013
11.800079768750786 63.4373
11.822515149015453 63.3103
11.844950984084935 63.3403
11.867369787303163 63.4308
11.889806534289491 63.18
11.912226250487029 63.5273
11.934663912939751 63.5144
11.9571020346363 63.8938
11.979523127133968 63.8861
12.001962169624331 64.3091
12.024384183972964 65.3838
12.046824150809913 68.8516
12.069264581333726 74.0256
12.091687985297767 80.6871
12.11412934550045 89.9808
12.136553680195208 104.78200000000001
12.158995973632788 125.244
12.181438735204349 153.658
12.20386447284199 180.06900000000002
12.226308172985636 202.321
12.24873485024193 203.27599999999998
12.271179492516982 172.62099999999998
12.293607112949127 136.934
12.316052700916226 102.15
12.338498763250042 82.6864
12.360927805303868 72.3029
12.383374818673879 67.8757
12.405804812803074 65.8585
12.428252780773262 65.1796
12.45070122756722 65.1661
12.473132656675375 64.9655
12.49558206341869 65.1555
12.518014453510101 65.4005
12.540464823770117 65.5609
12.562915677315177 65.5212
12.58534951575545 66.4327
12.607801338171472 68.8288
12.630236146511358 74.9818
12.652688941369085 80.5469
12.675124723177234 80.5134
12.697578494048786 75.9912
12.720032754458185 71.0183
12.742470003354093 68.9806
12.764925245138771 68.8643
12.787363476431278 68.8734
12.809819703166806 69.2966
12.83227642391173 70.003
12.854716135692716 70.6191
12.877173846755147 71.7122
12.899614549869717 72.0003
12.9220732548287 72.6368
12.94453245827299 73.0984
12.966974655289818 73.9443
12.989434858002571 75.084
13.011878055298721 75.7786
13.034339260862497 76.5552
13.056800969391883 77.6839
13.079245674017244 79.8883
13.101708390774869 81.9669
13.12415410463411 89.1215
13.146617833206086 101.59200000000001
13.169064559883248 114.23200000000001
13.191529303857127 128.972
13.213994557076367 151.224
13.236442809902437 185.78400000000002
13.258909083908291 235.67700000000002
13.28135835851934 296.562
13.30382565690295 358.95099999999996
13.326293469022952 414.19199999999995
13.348744283242008 426.189
13.371213125129904 372.56800000000004
13.39366497011003 280.221
13.416134845360597 188.87099999999998
13.438605238843131 131.05200000000002
13.46105863690397 109.154
13.483530069144786 107.596
13.505984506951902 113.05
13.528456981549432 123.314
13.550929978879088 137.77100000000002
13.573385983253365 159.833
13.595860028340867 195.264
13.618317081455832 242.044
13.64079217790333 290.814
13.663250283359057 333.142
13.685726434770173 361.445
13.708203115221277 340.35699999999997
13.730662806148091 275.32599999999996
13.75314054697177 200.75400000000002
13.775601299246777 139.205
13.798080104050406 102.742
13.820559442405358 87.87100000000001
13.843021793671388 83.4041
13.865502201420897 81.4836
13.887965623051947 80.822
13.910447103807167 79.729
13.932929122629764 78.1651
13.955394156785959 77.7185
13.977877254034569 76.7215
14.000343367582113 76.0196
14.022827546871707 75.3644
14.045294743423524 74.4525
14.06778000837062 73.8282
14.090265817715476 74.0215
14.112734645763819 73.672
14.13522154619454 73.4579
14.157691466286913 73.6271
14.180179461423874 73.3039
14.202668005486178 72.5194
14.22513957064374 71.5545
14.247629214846473 71.1784
14.270101881097517 71.0538
14.29259262906496 71.4069
14.315083930490205 72.3625
14.337558255389705 72.4866
14.360050666019726 72.5822
14.382526101071944 71.3188
14.405019624534942 70.1707
14.427513705993134 69.6067
14.449990813291825 69.5992
14.47248601302899 69.5658
14.49496423954951 69.7073
14.517460561197822 69.6397
14.539939910570322 69.5733
14.562437357763558 69.8506
14.58493536931253 71.2825
14.607416409993311 72.3887
14.62991555254159 73.0268
14.652397725157423 72.8519
14.674898002342799 72.1579
14.697398848433282 71.5602
14.719882725991326 72.1298
14.74238471217934 72.9787
14.764869730765593 76.054
14.787372860692983 79.657
14.809876564079925 84.3864
14.83236330125751 90.2622
14.854868153850365 98.7599
14.877356041159485 111.34899999999999
14.899862046604186 129.186
14.922351087688757 151.44899999999998
14.944858249632887 177.239
14.967365991421232 199.683
14.989856770231246 216.885
15.012365673994204 216.06900000000002
15.03485761569738 192.40400000000002
15.05736768508665 155.563
15.07987833888692 120.40799999999999
15.102372032001655 94.8545
15.124883856909658 79.4196
15.14737872204565 73.6501
15.169891721717274 71.6744
15.192405310371893 71.5313
15.214901940621196 72.0057
15.237416709527137 72.3214
15.259914520936249 72.4862
15.282430473753607 71.4665
15.304947020131227 70.2087
15.327446610371178 69.1619
15.349964346154254 68.3003
15.372465126703139 67.8662
15.394984055556009 67.4885
15.417486030076159 67.5131
15.44000615566487 67.1106
15.462526881230803 66.8646
15.485030653812652 67.4612
15.507552581617434 67.1092
15.530057557334603 67.0826
15.55258069104857 67.1449
15.575104429329837 67.1234
15.597611216864632 66.6895
15.620136166564563 66.6837
15.6426441664095 67.4615
15.665170331202765 69.929
15.687697105158826 72.9609
15.710206930593545 76.8395
15.732734925158933 81.2277
15.755245972089478 87.2366
15.77777519094324 95.7216
15.800287463046663 107.69
15.822817909869592 125.135
15.84534897229804 144.019
15.867863089299354 166.872
15.890395385222186 181.342
15.912910736597423 191.257
15.935444269699861 182.81599999999997
15.957978423016485 159.928
15.980495633101265 130.058
16.003031029129367 102.471
16.02554948280019 80.4313
16.048086125229432 70.2752
16.070623392487107 66.7694
16.09314371869582 66.1289
16.11568223789321 65.0529
16.13820381691126 63.82
16.160743591742527 62.3009
16.183283996022084 61.5541
16.205807461423195 60.6282
16.228349126881973 59.7692
16.25087385432698 59.6966
16.27341678466365 59.0719
16.29594277784926 59.1604
16.31848697676433 59.6805
16.341031811604868 60.0343
16.36355971058487 60.5798
16.3861058195587 60.2714
16.40863499352978 58.6332
16.431182380342005 57.5856
16.453730407713202 57.042
16.476261501364792 56.7183
16.498810812136167 56.2375
16.52134319004079 56.3604
16.54389378792203 56.4698
16.566445031001553 56.1107
16.588979342490088 55.951
16.61153187824822 55.858000000000004
16.634067483263312 55.7033
16.656621315414416 55.7019
16.679175797408888 55.4104
16.701713349928728 55.3052
16.72426913389191 55.4919
16.74680798922351 55.7433
16.76936507887444 55.853
16.791905240734874 55.9046
16.814463639794468 55.7073
16.837022695210294 55.4817
16.859564824093756 56.0987
16.882125194503903 56.8632
16.904668639217885 57.6419
16.927230328348003 57.677
16.949792678493612 57.9095
16.972338104193863 57.1639
16.994901778652235 56.4023
17.017448529496576 56.3695
17.040013531998152 56.5354
17.06257920018044 56.9221
17.0851279459922 57.7481
17.107694947817667 58.4785
17.130245028099072 59.3314
17.15281336730298 60.751000000000005
17.17536478578733 62.2714
17.19793446610687 64.2738
17.220504818648422 67.2183
17.243058251703697 70.0545
17.265629950971032 74.2216
17.288184731571736 77.9462
17.310757781306908 81.5852
17.33333150794385 83.399
17.355888317140174 82.476
17.37846339986244 78.664
17.401021565958885 72.7088
17.42359800851343 67.6368
17.44617513265564 63.481
17.468735341390783 60.9496
17.491261035594565 59.9862
17.51396340099364 59.8692
17.536490463869136 59.8823
17.559018209820174 59.8737
17.58154663977963 59.949
17.604251766089718 60.1094
17.626781572227713 60.1285
17.64931206518155 60.5779
17.671843245885103 61.1803
17.69455114821572 61.5568
17.717083712612634 61.6465
17.739616967569667 61.7564
17.762150914021706 61.9176
17.78486160749854 62.1054
17.807396945166804 62.6526
17.829932977143503 63.4742
17.85246970436452 64.9955
17.875183204129467 67.164
17.897721330097664 69.2401
17.920260154126645 71.4781
17.942799677153296 74.5032
17.9655159983646 78.2976
17.988056927677544 83.0786
18.010598558807683 90.2236
18.033140892692916 99.2481
18.05586005052525 108.81700000000001
18.07840379824407 119.271
18.10094825154059 130.129
18.12366954819864 137.577
18.146215420998306 139.017
18.16876200220057 133.797
18.191309292745153 121.176
18.214033452627167 107.23100000000001
18.236582170236648 94.8709
18.259131600016456 88.7621
18.281681742907335 87.7028
18.304408781233683 91.0899
18.32696035875955 95.1288
18.349512652227624 99.3798
18.372065662579683 104.15100000000001
18.394795594587553 105.845
18.41735004715306 104.84100000000001
18.43990521943684 99.0181
18.46246111238171 90.1795
18.485193953325208 80.4809
18.507751296070428 72.6751
18.530309362314178 67.5986
18.552868153000343 64.7222
18.57560391815056 63.0057
18.59816416623245 62.5556
18.620725141597372 62.1331
18.643286845190268 61.6896
18.666025549835414 61.2233
18.688588718427933 60.7579
18.711152618092243 60.5052
18.73389353884365 60.1804
18.75645890921984 59.7314
18.77902501351406 59.4772
18.801591852673102 59.4979
18.824335739722738 58.751999999999995
18.846904057212626 58.8029
18.8694731124168 58.4561
18.89204290628315 58.4447
18.914789774966803 58.1694
18.937361054791623 58.0917
18.959933076131318 57.8077
18.982505839934877 57.7227
19.00525570560582 57.8428
19.027829963004184 57.6775
19.05040496572238 57.659
19.072980714710468 57.5927
19.095733592739563 57.9189
19.11831084296757 58.3313
19.140888842324735 58.961999999999996
19.16346759176222 59.1914
19.18622349753803 59.5073
19.208803755869358 60.4245
19.231384767143577 61.4918
19.253966532312948 62.8937
19.276725481241822 64.8336
19.29930876296784 66.9737
19.3218928014549 69.8209
19.34465404436217 72.9551
19.36723960516257 75.3463
19.389825925592426 76.5842
19.412413006605938 76.3217
19.43517731967805 73.3525
19.457765930683355 69.3864
19.48035530514408 64.9588
19.50294544401556 60.6703
19.525712842708348 58.0155
19.54830451925909 56.5543
19.570896963095727 55.1587
19.593490175174704 54.8165
19.616260674962184 54.5587
19.638855432416964 54.2905
19.661450960992624 54.3504
19.68404726164677 54.1705
19.706820878021247 53.9898
19.729418731756834 54.431999999999995
19.752017360452857 54.0247
19.77461676506804 54.3256
19.797393513540218 54.2994
19.819994478951667 54.6523
19.84259622316767 55.1589
19.8651987471481 55.6901
19.887978643247177 55.8227
19.91058273574792 56.2237
19.933187610901943 56.8358
19.955969879466828 57.9066
19.97857632894404 59.1167
20.00118356396599 60.7805
20.023791585494575 62.5858
20.046577028914875 65.3363
20.069186632506966 67.2903
20.091797025500632 69.07600000000001
20.114408208858933 70.2304
20.137196842715273 70.4415
20.159809615886765 69.3302
20.18242318232135 66.7118
20.20503754298326 64.8622
20.227829382875154 63.3858
20.250445341109344 62.8602
20.27306209647285 63.2159
20.29567964993108 64.1658
20.31847471147704 65.1605
20.34109387027612 65.9936
20.363713830075454 66.0891
20.386334591841646 65.191
20.409132890679302 62.9257
20.431755265564437 59.9233
20.454378445325528 57.0053
20.477002430930366 54.8903
20.499803982716553 53.4667
20.522429589228004 52.5728
20.54505600449589 52.0083
20.567683229489194 51.7983
20.590488049900088 51.4242
20.61311690359731 50.9903
20.63574656993626 50.7411
20.658553853717297 50.3987
20.681185154618298 50.4239
20.703817271080066 50.2604
20.72645020407368 49.8216
20.749260783967177 49.88
20.771895359337133 49.6992
20.794530754161617 49.6477
20.817166969412938 49.6131
20.83998086114876 49.5335
20.86261872660049 49.328
20.885257415405402 49.4436
20.90789692853701 49.3009
20.930714147864748 49.1483
20.953355319030678 49.2393
20.97599731745334 49.4459
20.99864014410749 49.3413
21.021460706796564 49.3306
21.044105199328826 49.696000000000005
21.06675052302631 49.8406
21.089396678865015 49.7649
21.112220600704806 50.1173
21.134868430275347 50.6156
21.15751709492456 50.6419
21.180166595629693 50.8947
21.202993892429635 51.378
21.22564507473034 51.7246
21.24829709602816 51.9308
21.27112693608965 52.0042
21.293780644891275 52.0116
21.316435195634053 51.5179
21.339090589297417 50.6894
21.361923832041875 50.4155
21.384580921090404 49.81
21.407238856007325 49.0942
21.429897637773326 48.8924
21.45273429906592 49.108000000000004
21.475394784108598 49.0348
21.498056118951983 48.9448
21.520718304578022 49.3061
21.543558400304388 49.1584
21.566222297108816 49.431000000000004
21.58888704765135 49.54600000000001
21.61155265291521 49.8733
21.63439619898156 50.3573
21.657063523335786 50.5012
21.67973170537063 51.1792
21.7024007460706 51.5913
21.72524775840385 52.3109
21.747918526116475 53.2938
21.770590155457388 54.3553
21.79326264741238 55.9108
21.816113141960237 57.3873
21.838787368860547 59.1729
21.861462461341976 60.9486
21.884315579735777 62.6237
21.90699241312273 63.8983
21.92967011506078 64.7997
21.95234868653799 64.8851
21.9752053151131 64.2726
21.997885635446785 62.8015
22.020566828293532 61.0172
22.04324889464272 59.1053
22.066109049404666 57.3813
22.088792872571794 56.6059
22.111477572219204 56.5295
22.1341631493376 56.6291
22.157026846313123 56.7126
22.179714188221507 56.0415
22.202402410582668 55.1758
22.22509151438863 53.8035
22.24795876962584 52.4807
22.270649646204486 51.6279
22.293341407213727 50.8283
22.316034053646906 50.0954
22.338904883215342 49.8556
22.36159931041458 49.7775
22.38429462602756 49.8379
22.40699083104897 49.4986
22.429865251039757 49.5604
22.452563244831367 49.643
22.47526213102522 49.5178
22.49813925616515 49.3197
22.520839937143307 49.2869
22.543541513520587 49.3363
22.56624398629403 49.1687
22.589124730075895 49.1349
22.611829005656723 49.5057
22.63453418063466 49.381
22.657240256008077 49.5352
22.680124634582935 49.6909
22.70283252079775 49.9593
22.725541310413075 50.3522
22.74825100442868 50.3307
22.771139033969575 50.7018
22.79385054687155 51.0715
22.81656296718292 51.585
22.83927629590484 52.3997
22.862167992606945 53.3514
22.88488314827121 54.372
22.907599215359284 55.3084
22.93031619487366 56.3176
22.953211574954405 57.0629
22.975930389478226 58.1494
22.998650119445763 58.6612
23.02137076586092 57.9207
23.044269845560063 56.9747
23.06699233506288 55.4421
23.089715744034912 53.8177
23.112617610931565 52.1119
23.135342869061212 50.823
23.158069049684816 50.1661
23.1807961538087 49.5934
23.20370174880544 49.3633
23.226430710184808 49.5411
23.249160598093425 49.3835
23.271891413539002 49.4806
23.294800752937697 49.5336
23.31753343374794 49.7454
23.340267045128353 49.7094
23.36300158808808 50.0504
23.38591468821339 50.4004
23.408651104658304 50.868
23.431388455719986 51.4437
23.454126742409 52.093999999999994
23.4770436196085 53.1711
23.499783787914662 54.2529
23.522524894889884 55.1022
23.54526694154616 55.8918
23.56818761219047 56.9262
23.59093154860734 57.5307
23.613676427751283 58.0944
23.636422250635754 57.6631
23.659346731118656 56.4746
23.68209445191868 54.6506
23.704843119509587 52.7491
23.72759273490623 50.733999999999995
23.750521041644767 49.1444
23.77327256312355 48.1164
23.796025035462787 47.5253
23.818956224555475 46.9176
23.841710609113413 46.6195
23.86446594758979 46.2942
23.887222241002014 46.2898
23.910157285144578 45.8714
23.932915498962537 45.9205
23.955674670778713 45.8042
23.978434801611975 45.5676
24.001373717286125 45.3267
24.024135776723917 45.3135
24.046898798245582 44.983000000000004
24.06966278287146 45.0849
24.092605586582614 44.8601
24.115371508023642 44.8036
24.1381383956401 44.6427
24.16090625045381 44.542
24.183852958731244 44.5369
24.206622758582608 44.3722
24.229393528706886 44.2103
24.252165270127392 44.2625
24.27511589952438 44.2028
24.297889594216997 44.0787
24.32066426328598 44.0317
24.34343990775613 43.922
24.36639447485003 43.9189
24.38917208083877 43.8536
24.41195066531332 43.7244
24.43490819850244 43.788000000000004
24.457688750692377 43.5481
24.48047028445616 43.4623
24.503252800821233 43.5802
24.526214300784112 43.6198
24.548998793132213 43.5288
24.57178427117417 43.3099
24.59457073593893 43.5059
24.617536219319863 43.4378
24.64032466834748 43.602
24.663114107195035 43.3651
24.685904536893013 43.0475
24.708874020360852 43.1083
24.731666442613744 42.9819
24.754459858818787 43.0336
24.777254270007962 42.8863
24.80022777025625 42.873000000000005
24.82302418230472 42.8761
24.845821592443674 42.8548
24.86862000170663 42.6834
24.891597535453727 42.7579
24.914397953892728 43.059
24.93719937456671 42.6595
24.96000179851076 42.826
24.98298338249997 42.9081
25.00578782394922 43.2133
25.028593271784167 43.2453
25.05157790644186 43.7651
25.07438537804115 43.6843
25.097193859145293 44.1078
25.120003350792075 44.2255
25.142992065061257 44.5803
25.165803588823465 44.7976
25.18861612625217 45.0217
25.211429678386736 45.2393
25.234422489079968 45.3436
25.257238081693636 45.3654
25.280054692141732 45.5171
25.3028723214652 45.3558
25.325869245420463 45.2815
25.348688923599397 45.4663
25.371509623787006 45.423
25.394331347025812 45.1964
25.41733240110666 44.8671
25.440156181590016 44.3207
25.46298098826268 43.88
25.48580682216873 43.223
25.50881202326435 42.6672
25.53163992281684 42.1028
25.55446885274561 41.9054
25.577298814096377 41.464
25.600308179121807 41.4263
25.623140214533745 41.4865
25.64597328451537 41.2651
25.66898578564376 41.1013
25.691820936010206 41.0872
25.714657124097695 41.0746
25.737494350954734 41.0916
25.760511045684957 41.0322
25.783350361364224 41.1422
25.806190718969255 41.1936
25.82903211955018 41.2742
25.852053024868923 41.0153
25.874896522722523 41.051
25.897741066713106 41.1259
25.920586657892454 41.29
25.943611790812668 41.3887
25.966459487728237 41.3962
25.989308234998564 41.5849
26.01215803367705 41.8591
26.03518741123814 41.9316
26.05803932412957 42.1072
26.080892291600094 42.0438
26.10374631470478 42.0736
26.12677995397268 42.0857
26.14963609978026 42.2034
26.172493304397875 41.8137
26.19535156888223 41.7304
26.218389486949604 41.4107
26.241249882640123 41.2245
26.26411134137826 41.0235
26.28715248187403 40.9854
26.31001607820869 40.7326
26.3328807407756 40.589
26.35574647063438 40.6837
26.37879191991473 40.5262
26.401659795896734 40.5983
26.424528742360263 40.7516
26.447398760366614 40.9663
26.470448535598294 40.9801
26.49332070826805 41.2317
26.516193955675355 41.5133
26.53906827888316 41.7611
26.562122397260108 41.7463
26.584998883685063 42.1193
26.607876449110325 42.3185
26.63075509460056 42.3416
26.65381357334404 42.6085
26.67669439061878 42.6234
26.699576291163382 42.5866
26.722459276044212 42.532
26.745522132402975 42.299
26.768407297649354 41.9695
26.791293550442003 41.6415
26.814180891848974 41.4277
26.837248143099337 41.1621
26.860137673466657 40.9664
26.88302829566349 40.7468
26.90592001075963 40.5793
26.92899167420566 40.4921
26.951885586870763 40.1099
26.974780595655517 39.8578
26.99785558178161 39.7713
27.020752794605112 39.6112
27.043651106772522 39.4469
27.06655051935668 39.3573
27.089629948036183 39.2004
27.112531573292053 39.1336
27.135434302194138 39.2699
27.158338135817015 39.0855
27.181422024430987 39.0871
27.204328079372566 38.9954
27.22723524226965 39.1143
27.250143514198573 39.2093
27.273231880156334 39.0984
27.296142382065014 38.9119
27.319053996245536 38.7928
27.341966723775965 38.8879
27.365059584515222 39.0107
27.38797455070062 39.0391
27.410890633481237 38.9438
27.433807833936918 38.8605
27.456905206923906 39.0072
27.47982465472398 38.9832
27.502745223449743 39.1
27.525666914182825 39.1914
27.548768816912457 39.1214
27.571692763693633 39.0259
27.59461783573812 38.8121
27.617723149491244 38.8906
27.640650484125285 38.8284
27.66357894728264 38.6576
27.686508540048052 38.5025
27.709618414237887 38.6008
27.732550278321757 38.3987
27.755483275279115 38.3592
27.778417406196485 38.3469
27.801531858397514 38.3676
27.824468269376716 38.3658
27.847405817586786 38.3251
27.870344504116094 38.5179
27.893463551932008 38.5591
27.916404527281053 38.7217
27.93934664422563 38.8206
27.962289903855886 38.7715
27.98541356491974 39.0358
28.00835912214229 39.1513
28.03130582533231 39.486999999999995
28.054253675581805 39.6655
28.077381967556104 39.431999999999995
28.100332124185126 39.4739
28.123283431160893 39.3809
28.146235889577238 39.2711
28.169368830154156 39.0823
28.192323603752033 38.9415
28.215279532083304 38.6407
28.238415973016764 38.4343
28.261374223145094 38.4429
28.284333631303806 38.1877
28.307294198589954 38.0276
28.330435319167677 37.6596
28.353398217078915 37.4678
28.376362277420153 37.2788
28.39932750129032 37.0868
28.422473319286713 36.8936
28.44544088262495 36.9064
28.468409612800283 36.7945
28.491379510913497 36.5065
28.51453004413313 36.3922
28.53750229057244 36.383
28.56047570826344 36.4164
28.583450298308804 36.3597
28.606605564586562 36.3003
28.629582511831156 36.2777
28.65256063474956 36.1068
28.675539934446338 36.059
28.698699951647605 36.0665
28.72168161743193 36.0224
28.74466446331978 35.9745
28.767648490417624 35.9655
28.790813276438353 35.8492
28.813799678527303 35.7989
28.836787265157085 35.8219
28.859955641890075 35.9154
28.882945610203045 35.9724
28.905936766392035 35.6104
28.928929111566863 35.6593
28.952102288520145 35.7399
28.975097024308607 35.6992
28.998092952423807 35.519
29.021090073977508 35.4607
29.04426806913204 35.3515
29.067267590245258 35.1362
29.090268308143695 35.2082
29.11327022394099 35.0527
29.13645305530891 34.9094
29.159457379627167 34.9428
29.18246290519685 34.8762
29.20546963313352 34.7497
29.22865731875826 34.8492
29.25166646419296 34.7757
29.27467681535305 34.6909
29.29768837335608 34.671
29.320880931312562 34.7624
29.34389491580634 34.6727
29.366910110507334 34.6231
29.38992651653503 34.6598
29.41312396492981 34.5803
29.436142806456754 34.5456
29.45916286268059 34.4562
29.48236399319994 34.5745
29.50538649169417 34.3467
29.528410208259935 34.2383
29.55143514402014 33.9609
29.574641196749695 33.9228
29.597668583816574 33.7908
29.6206971934585 33.6634
29.64372702680042 33.6247
29.666938019934474 33.5527
29.689970313635285 33.4303
29.713003834422636 33.4502
29.73603858342347 33.3683
29.759254535188578 33.2959
29.78229175361658 33.2138
29.80533020365064 33.2977
29.82836988641968 33.4429
29.85159081507472 33.3154
29.874632976355343 33.172
29.89767637376955 33.2816
29.920721008448314 32.9322
29.9439469322847 33.1074
29.96699405457564 32.9745
29.9900424175358 33.0184
30.013092022298157 32.9599
30.03632295963995 32.9037
30.059375061131373 32.974000000000004
30.08242840783577 32.9854
30.105483000888153 33.0334
30.128718970092244 32.7503
30.151776069006917 32.8028
30.17483441768648 32.9369
30.198074175317235 32.9204
30.221135036724256 32.8718
30.24419715131772 32.7776
30.267260520236203 32.7065
30.290505341942243 32.853
30.313571232750228 32.8114
30.336638381310948 32.7965
30.35970678876503 32.6361
30.38295669299435 32.6912
30.40602763151657 32.6695
30.429099832366074 32.6548
30.452173296685572 32.5415
30.47542830191959 32.393
30.498504306502497 32.4503
30.521581577995562 32.5422
30.544660117543582 32.5333
30.56792024229725 32.6081
30.59100133132069 32.484
30.614083691845494 32.5339
30.637167325018545 32.4866
30.660432587840603 32.5528
30.683518779717886 32.6082
30.70660624769615 32.7566
30.729694992924372 32.6954
30.75296541239743 32.5296
30.77605672557558 32.5553
30.799149319462742 32.6038
30.8224236211637 32.3626
30.845518789950724 32.2866
30.868615242910597 32.2353
30.891712981195973 32.1575
30.91499247215866 31.9766
30.938092794619365 32.0212
30.96119440587579 31.9051
30.984297307082752 31.8052
31.00758200598383 31.7086
31.030687500658694 31.6042
31.053794288760695 31.6124
31.076902371446767 31.4901
31.100192296997445 31.5798
31.12330298246119 31.458000000000002
31.14641496599209 31.4532
31.169528248749216 31.3701
31.19282341969534 31.4276
31.215939314557186 31.3947
31.239056512134788 31.425
31.262175013589378 31.2711
31.28547544871168 31.2675
31.30859657161541 31.2041
31.331719001892175 31.1868
31.35484274070538 31.3013
31.378148458819545 31.2596
31.401274828443725 31.2721
31.424402510106933 31.335
31.447712205419993 31.34
31.470842524931633 31.1626
31.493974159989783 31.2087
31.51710711176168 31.1535
31.54042212308802 31.2402
31.563557722100917 31.2447
31.586694641341655 31.0361
31.609832881979628 30.9794
31.63315322823208 30.8496
31.656294125521327 30.85
31.679436347728515 30.7093
31.70257989602529 30.6614
31.725905596152327 30.6022
31.74905181052835 30.5223
31.772199354521323 30.5597
31.79534822930507 30.5562
31.818679302290967 30.5215
31.84183085259981 30.4971
31.864983737233473 30.6227
31.88813795736804 30.6073
31.911474422233013 30.4237
31.934631327356435 30.4446
31.9577895715215 30.3732
31.980949155906522 30.4225
32.004291031706956 30.3948
32.027453310562606 30.2303
32.05061693318573 30.1815
32.07396288236386 30.2756
32.09712920658542 30.15
32.12029687812702 29.9869
32.14346589817093 29.8881
32.166817291729984 29.9425
32.18998902288583 29.8781
32.21316210610336 29.7852
32.23633654256711 29.6434
32.259693399663725 29.6564
32.282870556771144 29.4812
32.30604907069099 29.5619
32.329228942610065 29.5136
32.35259128243769 29.3029
32.375773884550505 29.2968
32.398957848235646 29.2588
32.422143174682176 29.2215
32.445511016471215 29.1549
32.468699082679954 29.1561
32.49188851523011 29.0891
32.51507931531304 29.0205
32.538452678331 29.0453
32.56164622776311 29.0099
32.58484114831493 28.9477
32.60803744118015 28.8204
32.631416344731896 28.8769
32.654615396551876 28.8001
32.67781582427913 28.8601
32.701198898634416 28.6416
32.72440209253756 28.6645
32.747606665947124 28.6268
32.77081262006088 28.5777
32.79420126883317 28.6026
32.81740999876112 28.5491
32.840620112999424 28.311999999999998
32.86383161274818 28.3827
32.88722585534586 28.3284
32.91044014056596 28.4238
32.933655814909734 28.3642
32.95687287957963 28.4349
32.98027273544904 28.3013
33.00349259526636 28.2697
33.026713849030116 28.204
33.04993649794511 28.2203
33.073341986570746 28.2528
33.09656744032826 28.1863
33.11979429286444 28.1465
33.14302254538647 28.1066
33.166433686291185 28.0701
33.18966475336992 28.1047
33.212897224069096 27.9374
33.23613109959831 27.8983
33.259547912343415 27.9684
33.2827846121627 27.9346
33.306022720453775 27.8283
33.32926223842861 27.756999999999998
33.352684742614166 27.7658
33.37592709463173 27.7418
33.399170859982064 27.7089
33.422597648419426 27.6438
33.44584425514446 27.4332
33.46909227885668 27.4258
33.4923417207723 27.3114
33.51577423505344 27.3961
33.539026528130385 27.3631
33.56228024307245 27.2689
33.585535381098246 27.1636
33.60897364093058 27.1184
33.63223163992385 27.1241
33.6554910656699 27.1209
33.678751919389796 27.0513
33.702195944520106 26.9623
33.72545966903325 26.9145
33.74872482519663 26.8636
33.771991414233746 26.8971
33.79544122444841 26.8025
33.81871069412428 26.7472
33.84198160035767 26.7815
33.86525394437455 26.7472
33.88870955949969 26.6712
33.911984794020626 26.6142
33.93526147001624 26.6439
33.958539588715006 26.5775
33.98200102861669 26.4767
34.0052820477047 26.4094
34.02856451319451 26.4544
34.05203033759056 26.4148
34.07531571090147 26.3246
34.09860253431845 26.3181
34.121890809074316 26.1727
34.145362493118924 26.2877
34.16865368561615 26.1876
34.191946333164054 26.1357
34.21524043699793 26.0934
34.23871800066799 26.076999999999998
34.26201503218366 25.9839
34.28531352370466 25.9828
34.30861347646881 25.9182
34.33209693978188 25.8682
34.3553998301885 25.8224
34.378704185565205 25.7185
34.402010007152356 25.7043
34.42549939016683 25.7582
34.44880815937748 25.65
34.472118398533134 25.5769
34.49543010887669 25.7044
34.51892543169198 25.5923
34.54224009966052 25.5439
34.56555624255917 25.4876
34.58887386163339 25.3844
34.61237514439016 25.3486
34.6356957311114 25.1718
34.65901779775809 25.244
34.68252356662995 25.294
34.705848608458616 25.241999999999997
34.72917513396849 25.1858
34.75250314440949 25.1361
34.77601490857862 25.043000000000003
34.799345904259795 25.0378
34.82267838863559 24.991
34.846012362958525 24.9611
34.869530142679984 24.9603
34.89286711232212 24.9764
34.91620557568269 24.8782
34.93954553401677 24.7936
34.9630693495876 24.8455
34.986412313340814 24.8548
35.00975677584668 24.9248
35.033102738362956 24.8057
35.05663261012228 24.7296
35.0799815881786 24.6463
35.10333207003229 24.5948
35.12668405694369 24.683000000000003
35.150220005273056 24.6026
35.17357501786656 24.5372
35.19693153931268 24.4536
35.220289570874385 24.3813
35.24383161619786 24.4457
35.267192683604904 24.5247
35.290555264930376 24.4511
35.314101899412165 24.4189
35.33746752422433 24.3154
35.36083466676374 24.3802
35.38420332829803 24.2962
35.407756095629054 24.3191
35.43112781085063 24.3534
35.45450104888391 24.2786
35.477875810999194 24.3107
35.50143473172161 24.1893
35.52481255774625 24.1994
35.54819191167777 24.1629
35.57157279478914 24.0947
35.595137889488406 24.0054
35.61852184675279 24.0693
35.641907337029984 24.0085
35.665294361595684 23.9359
35.68886565090076 23.915
35.7122557598848 23.9045
35.73564740699838 23.8627
35.759040593519934 23.7493
35.78261809810353 23.732
35.80601437933051 23.6062
35.829412203814705 23.6202
35.85281157283719 23.5698
35.876395313415884 23.6143
35.8997977874528 23.489
35.92320180988546 23.4682
35.946790244133936 23.4229
35.97019737933222 23.4036
35.993606066789866 23.3462
36.01701630779276 23.3796
36.04061101440684 23.3192
36.06402437852291 23.2432
36.08743930005611 23.256999999999998
36.1108557802951 23.136
36.13445678011326 23.1584
36.15787639383515 23.1741
36.18129757014299 23.0914
36.20472031032821 23.0816
36.22832762423364 23.029
36.25175350829375 22.9259
36.275180960119776 22.9735
36.298609981005924 22.9837
36.32222362992669 22.9266
36.34565580510207 22.8828
36.36908955323448 22.8261
36.39252487562093 22.7454
36.416144880530226 22.7894
36.43958336764275 22.8121
36.463023432914625 22.7152
36.486465077645676 22.6911
36.51009145956204 22.7458
36.53353627947859 22.6511
36.55698268276811 22.5977
36.58043067073321 22.5863
36.60406345072071 22.4805
36.62751462435344 22.4871
36.65096738658405 22.4504
36.67460498210655 22.4516
36.69806093788647 22.4827
36.72151848619297 22.343000000000004
36.744977628333636 22.2951
36.76862165890998 22.2526
36.79208400512205 22.2454
36.81554794910557 22.2717
36.83901349217101 22.1682
36.862663978991606 22.1183
36.88613273667352 22.0482
36.90960309738324 22.0633
36.933075062434064 21.9911
36.95673202673572 21.9859
36.98020721697122 21.954
37.003684015502365 21.8814
37.027162423645365 21.8087
37.050825886711465 21.8153
37.07430753063053 21.7638
37.09779078812467 21.7997
37.121275660513014 21.7924
37.144945643673694 21.7018
37.16843376245278 21.7159
37.19192350009803 21.7237
37.215414857931435 21.68
37.239091382563885 21.5372
37.262585997426164 21.5573
37.28608223645736 21.5319
37.309763684451696 21.5025
37.33326318851098 21.4415
37.356764320726555 21.4488
37.380267082425526 21.4407
37.40395510942588 21.4041
37.42746114683234 21.3545
37.45096881771841 21.2195
37.474478123414166 21.2143
37.49817275092816 21.2057
37.52168534303452 21.2315
37.54519957395567 21.1488
37.568715445024665 21.1303
37.592416694607714 21.0835
37.61593586281424 21.081999999999997
37.63945667518264 21.1415
37.66297913304891 21.0289
37.68668702630454 20.9359
37.710212792059274 20.8797
37.733740207334854 20.8773
37.757269273470364 20.7783
37.780983832050374 20.7665
37.80451621684926 20.7437
37.82805025654007 20.7565
37.851585952464795 20.6959
37.8753071980695 20.6382
37.89884622345676 20.64
37.92238690911902 20.5703
37.94611318753442 20.5107
37.969657210779765 20.5074
37.99320289834801 20.5052
38.016750251586465 20.4786
38.04048325513017 20.3879
38.06403395679343 20.3557
38.087586328183946 20.3523
38.11114037065203 20.3464
38.13488012115898 20.3697
38.1584375229181 20.2464
38.181996599821 20.2086
38.205557353221124 20.2253
38.229303872575656 20.1611
38.2528679961576 20.1711
38.27643380031219 20.1041
38.30000128639589 20.064
38.32375459653193 20.0663
38.34732546371299 20.0774
38.37089801690786 20.0018
38.39447225747609 19.9558
38.418232380377425 19.8928
38.441810012983396 19.8787
38.46538933705673 19.8403
38.488970353960084 19.8341
38.51273731166058 19.81
38.536321731567014 19.8296
38.55990784840681 19.7776
38.58367995004091 19.7566
38.60726947812959 19.67
38.63086070726198 19.666
38.654453638806274 19.6622
38.678232613930824 19.5868
38.70182896773327 19.5127
38.72542702806741 19.5069
38.7490267963045 19.5016
38.77281266709232 19.4947
38.79641586862214 19.4234
38.8200207821842 19.3904
38.843627409152944 19.3769
38.86742019782782 19.3724
38.891030269149255 19.2645
38.914642058016156 19.2449
38.938255565806124 19.3161
38.96205529464307 19.1774
38.98567225787121 19.2239
39.00929094417078 19.1654
39.03291135492255 19.203
39.05671804624804 19.1524
39.080341923549106 19.0541
39.103967529460334 19.0559
39.127594865365744 18.9548
39.15140854155791 18.9641
39.17503935514948 18.9741
39.19867190290282 18.9059
39.22249083587951 18.8851
39.24612686969409 18.8864
39.269764641845306 18.8455
39.293404153722804 18.8336
39.317230110864074 18.7498
39.34087311998506 18.7262
39.36451787301696 18.7636
39.388164371352595 18.6461
39.41199737518003 18.6392
39.43564738196752 18.6071
39.45929913825317 18.5594
39.48295264543308 18.577
39.506792718520884 18.5454
39.530449745387216 18.5329
39.55410852735203 18.4215
39.57776906581474 18.434
39.60161623079 18.3984
39.625280300200025 18.352
39.64894613032202 18.2978
39.67261372255866 18.3532
39.6964680021016 18.2596
39.72013913657293 18.2352
39.74381203738292 18.2487
39.76748670593756 18.2202
39.79134812278169 18.1832
39.81502634488497 18.1691
39.83870633896685 18.1113
39.862388106436654 18.0427
39.88625668336918 18.025
39.90994201572829 18.0688
39.933629125719285 18.0079
39.957503091207826 18.0228
39.9811937746168 17.9411
40.00488623990914 17.9512
40.02858048850006 17.8872
40.05246165409549 17.8013
40.076159487492085 17.8561
40.099859108448875 17.8863
40.123560518384345 17.7813
40.1474489070226 17.7271
40.171153913178564 17.7184
40.194860712584955 17.7038
40.2185693066637 17.6994
40.242464941335314 17.6185
40.26617714307655 17.6238
40.289891143772046 17.6764
40.3136069448471 17.5868
40.33750984859743 17.4838
40.3612292688043 17.4569
40.3849504936829 17.4675
40.40867352466194 17.4683
40.43258372059144 17.4482
40.45631038219906 17.4384
40.48003885420956 17.34
40.503769138055105 17.331
40.52768664931955 17.2961
40.55142057531802 17.315
40.57515631746428 17.317
40.599079334038514 17.2886
40.62281872700477 17.1945
40.64655994043941 17.1385
40.67030297578061 17.14
40.69423334835778 17.1228
40.71798004609188 17.1008
40.74172857006355 17.0167
40.76547892171441 17.0053
40.7894166736039 17.0122
40.813170699248566 16.9699
40.83692655691388 16.9232
40.86068424804498 17.0381
40.884629402612525 16.8723
40.908390779366385 16.8343
40.932153993938 16.8446
40.95591904777605 16.8227
40.979871628443995 16.8258
41.003640379561936 16.8306
41.02741097430883 16.7852
41.05118341413683 16.7357
41.075143444384416 16.7279
41.098919593177826 16.715999999999998
41.1226975914255 16.6749
41.14647744058318 16.5859
41.170444943946755 16.553
41.19422851378379 16.5548
41.218013938914645 16.5607
41.24198706625173 16.4616
41.26577622087193 16.3779
41.289567235177785 16.4602
41.31336011063129 16.4299
41.337340752422875 16.3737
41.361137369129835 16.4094
41.38493585138705 16.3008
41.40873620066004 16.3011
41.43272438060107 16.2828
41.45652848292052 16.2288
41.48033445666918 16.2156
41.50414230331616 16.1811
41.528138045159764 16.1845
41.551949656675205 16.0979
41.575763145513235 16.0962
41.59957851314666 16.0213
41.62358184070442 16.0273
41.64740098505737 16.049
41.6712220126409 15.9369
41.69504492493139 15.9722
41.71905586207357 15.9274
41.74288256296395 15.8774
41.766711153007456 15.8646
41.79054163368412 15.8242
41.814560204340054 15.7926
41.838394485526365 15.8471
41.86223066180303 15.8269
41.88625497706819 15.7619
41.910094962812 15.767000000000001
41.93393684811168 15.7146
41.95778063445365 15.6404
41.981812625263366 15.6742
42.00566023303407 15.6397
42.029509746323676 15.6227
42.05336116662236 15.594000000000001
42.077400857069705 15.5463
42.10125611078846 15.5261
42.12511327600405 15.5246
42.14897235421036 15.4903
42.173019768448455 15.4475
42.19688269209613 15.3949
42.22074753323349 15.364
42.24461429335818 15.3507
42.268669455600495 15.3566
42.292540073217886 15.2916
42.31641261433284 15.3551
42.34028708044675 15.2819
42.36435001496739 15.1851
42.38822835065557 15.1936
42.41210861586426 15.1907
42.4359908120986 15.2279
42.46006154323262 15.087
42.48394762115317 15.0882
42.507835634632315 15.067
42.531912233047436 15.085
42.55580413732265 15.0863
42.579697981698 15.0108
42.60359376768525 14.9762
42.62767820545945 14.9511
42.65157789440821 14.9525
42.67547952952185 14.9299
42.699383112316 14.9275
42.72347541395347 14.8648
42.74738291190531 14.8385
42.771292362102166 14.8276
42.795203766063516 14.795
42.819303956130405 14.7751
42.843219287476536 14.7138
42.86713657716324 14.6979
42.89105582671383 14.7585
42.91516392983864 14.6617
42.939087119032166 14.6406
42.963012272677304 14.6374
42.98693939230129 14.6358
43.01105543317513 14.56
43.034986504731386 14.4862
43.05891954686589 14.4668
43.08285456110972 14.4444
43.10697856448665 14.4738
43.130917542983475 14.4285
43.15485849820081 14.4524
43.17880143167367 14.3742
43.20293342237094 14.3396
43.226880332449 14.2982
43.25082922540554 14.3497
43.27496722682525 14.2771
43.29892010567796 14.2413
43.32287497204102 14.2504
43.34683182745632 14.2146
43.370977859791836 14.1899
43.39493871351105 14.206
43.41890156092628 14.1587
43.44286640358341 14.1324
43.46702049182749 14.1099
43.49098934522816 14.0622
43.51496019852649 14.0544
43.5389330532723 14.015999999999998
43.56309522248204 13.96
43.58707210044314 13.9796
43.61105098451946 13.9677
43.63503187626491 13.9364
43.659202151562134 13.9229
43.68318707902681 13.8715
43.70717401884041 13.8522
43.731162972560874 13.8264
43.75534137913236 13.7553
43.779334381108384 13.7726
43.803329401683186 13.772
43.82732644241872 13.7945
43.8515130055166 13.6994
43.87551410707659 13.6558
43.89951723350145 13.6628
43.923709934595614 13.6803
43.94771713129917 13.6147
43.97172635758096 13.5829
43.99573761501002 13.5585
44.0199385169922 13.5056
44.04395385732619 13.5118
44.067971233533086 13.526
44.09199064718605 13.4902
44.11619977548961 13.4509
44.14022328470671 13.3955
44.16424883610785 13.3943
44.18827643127035 13.3688
44.21249381139513 13.3091
44.236525514814076 13.2545
44.26055926674478 13.3006
44.28459506876863 13.3264
44.3088207262813 13.2585
44.33286064928722 13.2788
44.35690262714919 13.2371
44.38094666145278 13.1785
44.4051806219871 13.1859
44.42922879003185 13.1256
44.45327901929361 13.0894
44.477331311362136 13.0989
44.501573600619416 13.030999999999999
44.525630039221795 13.0437
44.54968854541895 13.0774
44.573937102200176 13.0666
44.5979997645541 12.9902
44.622064499300315 12.9351
44.64613130803592 12.9332
44.67038823869318 12.9244
44.69445921643748 12.9027
44.718532272981385 12.863
44.742607409926194 12.8136
44.76687274034801 12.8265
44.79095205918753 12.8182
44.81503346325094 12.739
44.839116954143876 12.7822
44.86339071028742 12.708
44.88747839599524 12.7435
44.91156817336837 12.6892
44.93566004401666 12.7412
44.959942251908146 12.6593
44.984038330325966 12.6039
45.00813650686762 12.55
45.03223678314731 12.5587
45.05652746888232 12.5284
45.08063196592069 12.5628
45.104738567558705 12.5067
45.128847275414856 12.4556
45.15314646515866 12.3777
45.17725940679741 12.4087
45.20137445952892 12.427
45.22568004865265 12.4387
45.24979934496396 12.3756
45.27392075725247 12.3852
45.29804428714431 12.345999999999998
45.322358426247604 12.342
45.346486212804315 12.2651
45.370616121861914 12.2549
45.39474815505086 12.2727
45.41907087049246 12.1575
45.4432071734666 12.1552
45.46734560548283 12.1976
45.49148616817604 12.1828
45.51581748638564 12.1539
45.5399623320197 12.1141
45.56410931325473 12.1015
45.58825843173002 12.0865
45.61259837920865 12.0461
45.636751793816 12.0636
45.66090735060093 12.0006
45.68506505120716 11.9812
45.7094136545275 11.9364
45.73357566449271 11.9553
45.75773982322992 11.9724
45.78190613238733 11.8503
45.806263418194064 11.8556
45.83043404997326 11.8589
45.85460683713677 11.842
45.87897065658495 11.8136
45.90314777634752 11.7818
45.92732705646868 11.7574
45.9515084986045 11.7733
45.97588104735473 11.7607
46.00006683541565 11.7105
46.02425479047904 11.6642
46.04844491420549 11.6716
46.0728262191024 11.6576
46.09702070211635 11.6681
46.12121735879483 11.6703
46.14541619080294 11.5812
46.169806278764455 11.5635
46.194009483459034 11.5921
46.21821486849841 11.5171
46.24242243555223 11.4956
46.266821333570014 11.4414
46.29103328674601 11.469000000000001
46.31524742696538 11.4739
46.33946375590237 11.4472
46.36387149104216 11.4295
46.38809221957392 11.3664
46.41231514186606 11.3994
46.436540259597464 11.4063
46.460956858999374 11.3203
46.48518638983522 11.2972
46.509418121166966 11.2731
46.533652054678114 11.275
46.55807754555709 11.2578
46.58231590571962 11.2102
46.60655647313217 11.21
46.630988654873654 11.2028
46.655233659129024 11.1746
46.67948087571551 11.1704
46.70373030632484 11.1279
46.72817142736393 11.1036
46.752425308428684 11.0713
46.77668140861147 11.0645
46.80093972960865 10.9904
46.82538981736788 10.9624
46.849652602470904 10.9707
46.87391761349769 10.9622
46.8981848521493 10.9455
46.9226439341274 10.9056
46.946915650573224 10.8804
46.97118959976749 10.8807
46.99546578341598 10.84
47.019933887188216 10.8061
47.04421456235744 10.8452
47.06849747711879 10.8622
47.09278263318286 10.7723
47.11725978640143 10.745
47.14154944775105 10.715
47.165841355555656 10.7462
47.1901355115306 10.6785
47.214621741924994 10.698
47.23892041698887 10.6742
47.26322134538975 10.6434
47.28771440635075 10.6171
47.31201986422527 10.5962
47.33632758061436 10.5762
47.360637557241866 10.546
47.38513974410611 10.5455
47.40945426407847 10.5161
47.43377104948137 10.5447
47.45809010204344 10.5055
47.48260144275502 10.4748
47.506925052572285 10.4763
47.53125093475548 10.4274
47.55557909103813 10.3881
47.58009961361992 10.3759
47.60443234110732 10.4012
47.62876734791564 10.402999999999999
47.65310463578333 10.3383
47.6776343683373 10.3486
47.7019762413987 10.3437
47.72632040075572 10.2838
47.75066684815169 10.2437
47.77520581885936 10.2391
47.799556865477655 10.1945
47.823910205386 10.2075
47.84826584033272 10.209
47.87281407745551 10.1578
47.89717432569297 10.164
47.92153687423484 10.1649
47.94609208429692 10.1525
47.97045925671401 10.125
47.99482873471275 10.0946
48.01920052005013 10.0764
48.04376504619224 10.0187
48.068141469543484 10.0664
48.09252020552573 10.0216
48.11690125590099 9.98352
48.1414751266064 9.9596
48.16586082917454 9.94701
48.19024885144316 9.91266
48.2146391951793 9.915289999999999
48.239222439012764 9.88123
48.26361744916137 9.863010000000001
48.28801478610016 9.86619
48.31241445160131 9.86105
48.337007097209366 9.848889999999999
48.36141144338331 9.8414
48.38581812345755 9.78936
48.41022713920929 9.82906
48.434829215320704 9.75987
48.45924292604658 9.7666
48.48365897780325 9.72875
48.50807737237308 9.70848
48.532688907799276 9.70861
48.55711201168574 9.6795
48.581537463754074 9.6604
48.60615611725119 9.63468
48.63058628942721 9.65681
48.65501881516546 9.572000000000001
48.6794536962573 9.61945
48.70408185970339 9.58641
48.72852147531801 9.54037
48.75296345168211 9.51898
48.77740779059232 9.53501
48.80204549302823 9.52475
48.82649458091802 9.48771
48.85094603676547 9.43707
48.87539986237231 9.44678
48.90004713292306 9.39113
48.92450572200832 9.40368
48.94896668628025 9.39531
48.97343002754588 9.40065
48.99808689542115 9.380139999999999
49.02255501470614 9.390839999999999
49.04702551642794 9.31668
49.0714984023988 9.30782
49.096164896893235 9.2764
49.120642575466796 9.25769
49.145122643748394 9.279919999999999
49.16960510355558 9.22546
49.19428125404938 9.22255
49.2187685210852 9.17595
49.243258185121555 9.20337
49.26794160167084 9.18994
49.2924360839405 9.17159
49.31693296869764 9.12082
49.34143225776915 9.077060000000001
49.36612538195438 9.09328
49.39062950396021 9.11261
49.41513603578346 9.06385
49.4396449792564 9.05162
49.46434784069503 9.05232
49.488861631846454 9.02318
49.513377840166804 8.99775
49.537896467493745 8.97977
49.56260909589029 8.94554
49.587132585683285 8.92699
49.611658500018365 8.88977
49.636186840738596 8.897780000000001
49.66090926588511 8.90705
49.685442483902584 8.87545
49.70997813385706 8.829360000000001
49.734516217597076 8.83023
49.75924846937352 8.81657
49.7837914452858 8.79155
49.80833686055187 8.76807
49.83288471702571 8.72963
49.85762682540054 8.78229
49.882179588965734 8.72697
49.9067347993235 8.70164
49.93129245833333 8.71348
49.95604445336378 8.69404
49.98060703442832 8.664589999999999
50.005172069746266 8.62785
50.02993150438364 8.605369999999999
50.05450147301533 8.61992
50.07907390151433 8.61709
50.10364879174981 8.60489
50.12841816587289 8.54668
50.1529980044635 8.5354
50.17758031042124 8.50279
50.20216508562089 8.51362
50.22694442953363 8.4741
50.25153416817468 8.49297
50.27612638170508 8.48054
50.300721072005196 8.44665
50.325510416102105 8.412939999999999
50.350110084975064 8.39785
50.37471223628208 8.40279
50.39931687190919 8.4251
50.424116246675766 8.34407
50.44872587605249 8.352260000000001
50.47333799543065 8.33952
50.49795260670191 8.31537
50.52276204271512 8.29752
50.54738166295838 8.3049
50.57200378079314 8.286760000000001
50.596628398116835 8.2614
50.62144792604559 8.23816
50.646077567609396 8.215860000000001
50.670709714377715 8.17535
50.69553683636198 8.18336
50.72017401885922 8.19259
50.7448137122895 8.20159
50.76945591856022 8.14333
50.79429318636823 8.114889999999999
50.818940443716784 8.11466
50.84359021965163 8.13152
50.868242516085964 8.08193
50.893089960641895 8.079080000000001
50.917747323549435 8.04997
50.94240721271973 8.07158
50.96706963007175 8.01389
50.99192728239342 7.974080000000001
51.01659478166073 7.9882100000000005
51.04126481489051 7.974889999999999
51.06593738400761 7.95235
51.090805275207074 7.9283
51.11548294172845 7.943010000000001
51.14016314993547 7.91427
51.164845901758845 7.89285
51.18972406304274 7.88435
51.21441192780656 7.88628
51.23910234200271 7.86056
51.2637953075678 7.82751
51.288683770237945 7.799239999999999
51.31338186432707 7.76837
51.33808251561888 7.7438
51.362978729967345 7.78598
51.387684521509755 7.7549600000000005
51.41239287610203 7.738980000000001
51.437103795691165 7.720260000000001
51.46201036644977 7.70852
51.486726441956634 7.637919999999999
51.51144508832545 7.64005
51.536166307509156 7.67123
51.56108326624387 7.632739999999999
51.58580965706056 7.62781
51.61053862657523 7.5772
51.635270176746864 7.58489
51.66019755512065 7.611330000000001
51.68493429268881 7.56751
51.70967361681515 7.56716
51.73441552946465 7.529669999999999
51.759353359237934 7.5077
51.7841004750961 7.49075
51.80885018539685 7.50214
51.833602492111254 7.5007399999999995
51.8585508051424 7.474080000000001
51.883308330926425 7.422210000000001
51.90806845906181 7.4076
51.932831191525715 7.35647
51.95779001977161 7.35677
51.98255798721516 7.3785
52.00732856494335 7.38057
52.03229530577543 7.344310000000001
52.057071130455945 7.33292
52.081849571391054 7.29983
52.106630630568695 7.3094
52.13160794279417 7.27617
52.15639426492067 7.28862
52.18118321127822 7.2823199999999995
52.205974783860896 7.217910000000001
52.23096269971011 7.232360000000001
52.255759551287994 7.22273
52.280559035098186 7.19221
52.30536115314103 7.19539
52.33035970494467 7.17001
52.35516711807904 7.15497
52.37997717147198 7.110519999999999
52.40478986713005 7.12673
52.42979908731974 7.107539999999999
52.454617094216 7.0763
52.47943774942214 7.0759300000000005
52.50426105495102 7.05359
52.529280976059844 7.04095
52.554109609024096 7.021160000000001
52.57894089837482 6.99682
52.60377484613117 6.988980000000001
52.62880550079408 7.018510000000001
52.65364479223379 6.9358699999999995
52.67848674816189 6.88536
52.70352547971946 6.915210000000001
52.72837279155837 6.9280800000000005
52.753222773982785 6.865710000000001
52.778075429022984 6.88133
52.80312495150885 6.880439999999999
52.827982978797436 6.85902
52.85284368481815 6.850169999999999
52.87770707160767 6.838760000000001
52.90276741793998 6.82343
52.92763619336701 6.8202
52.952507655698504 6.79131
52.977381806977576 6.827660000000001
53.00245301017842 6.78225
53.02733256653592 6.790189999999999
53.052214817996074 6.744389999999999
53.077099766608484 6.70228
53.102181859804446 6.70443
53.127072229988265 6.76613
53.15196530349892 6.741289999999999
53.17686108239249 6.69727
53.20195409881522 6.63823
53.22685531582556 6.636419999999999
53.25175924441303 6.623289999999999
53.27666588664027 6.62087
53.30176985962693 6.61758
53.3266819565689 6.601539999999999
53.35159677336455 6.57349
53.376514312083096 6.584689999999999
53.40162927507703 6.544630000000001
53.42655228516116 6.52501
53.45147802340193 6.49841
53.47660125628886 6.50473
53.50153247842639 6.493530000000001
53.52646643496923 6.44255
53.55140312799818 6.423080000000001
53.576537409691696 6.456519999999999
53.60147960336152 6.44857
53.626424539786164 6.40595
53.65137222105307 6.41059
53.67651758529126 6.37681
53.70147078399681 6.366630000000001
53.72642673383343 6.3619900000000005
53.75138543689533 6.34793
53.776541917524526 6.32186
53.801506154876755 6.32929
53.826473151763246 6.28867
53.851442910284916 6.27193
53.87661054126026 6.25609
53.9015858509782 6.25809
53.92656392866066 6.29625
53.95154477641532 6.24833
53.976723591801296 6.17242
54.00171000771266 6.15942
54.02669920004598 6.17663
54.051691170915745 6.21773
54.076881204886796 6.2028099999999995
54.101878760928514 6.13112
54.12687910187696 6.13181
54.152077577768296 6.14276
54.1770835166946 6.06075
54.20209224691339 6.08355
54.22710377055121 6.05468
54.25231352511594 6.03242
54.27733066384342 6.06496
54.30235060239643 6.05463
54.32737334290836 6.06586
54.35259441062629 6.02393
54.377622783395324 6.00251
54.40265396455061 5.99354
54.42768795623251 5.93635
54.45292037169559 5.91962
54.477960012857906 5.8865300000000005
54.50300247099511 5.920780000000001
54.52804774825457 5.8724300000000005
54.55329154616743 5.87938
54.57834249018678 5.86324
54.6033962597977 5.87219
54.6284528571545 5.78589
54.653708072335164 5.76396
54.67877035378786 5.75727
54.70383546947698 5.721030000000001
54.72890342156389 5.70789
54.7541700889442 5.67455
54.77924374251975 5.72334
54.8043202390049 5.633780000000001
54.82959552413022 5.61428
54.8546777351945 5.6068
54.87976279569621 5.58392
54.90485070780914 5.63093
54.930137506558005 5.53084
54.95523115074295 5.58826
54.98032765308844 5.51738
55.005427015775496 5.49372
55.03072536339621 5.51045
55.05583047570572 5.4529
55.080938454927676 5.42927
55.10604930325027 5.38216
55.131359235107396 5.47126
55.15647585066083 5.39875
55.181595341907496 5.34745
55.20671771104285 5.3520900000000005
55.232039262617704 5.3301
55.25716741665048 5.32009
55.28229845518636 5.31611
55.30743238042802 5.25439
55.33276558731939 5.237830000000001
55.357905315183636 5.17686
55.383047936390035 5.1753
55.40819345314859 5.12395
55.433538351073295 5.08556
55.458689688238415 5.118180000000001
55.483843927614096 5.11045
55.509197623043605 5.06944
55.53435769621134 5.06146
55.55952067826466 5.0166
55.5846865714265 5.01612
55.61005202069737 5.007630000000001
55.63522376553902 4.9772300000000005
55.66039842818645 4.94356
55.68557601087004 4.93584
55.7109532500271 4.83398
55.73613670233794 4.83279
