TT I
1.2716486653135266 33.0656
1.2939594142134223 32.8031
1.3162702121660406 30.7525
1.3385810600174564 30.2282
1.3608919586137629 29.6857
1.383202908801069 28.9756
1.405513911425503 27.5959
1.4278249673332093 28.2188
1.4501343378461518 26.9821
1.4724455028545926 26.2778
1.4947567236847858 26.486
1.517068001182951 26.1183
1.5393793361953272 25.055
1.5616907295681737 24.1533
1.5840021821477681 24.2258
1.60631369478041 23.4843
1.6286252683124185 23.4565
1.6509369035901333 22.7757
1.6732468618895553 22.7211
1.695558623192809 21.3079
1.7178704487808514 23.2383
1.7401823395001077 22.2576
1.7625012545597203 21.8579
1.7848028405262486 22.2282
1.8071218901122095 21.5915
1.8294236121921872 21.0636
1.8517427996910911 21.0899
1.8740620574440425 20.9399
1.8963639900671978 21.3846
1.9186833908139995 21.0529
1.9409854680117449 21.4286
1.9633050151394713 20.8969
1.9856246367570705 20.4401
2.0079269371922672 20.668000000000003
2.03024671027244 20.404
2.0525491637446027 20.5175
2.074869091674931 20.6233
2.097171701569106 20.6726
2.1194917877373847 20.9457
2.141811954326636 20.5993
2.164114805233074 20.2621
2.186435135143035 20.6413
2.208738150935709 20.8588
2.231058647554722 20.9885
2.2533792288321184 20.7808
2.275682498336085 21.1884
2.298003251406138 21.0387
2.3203066942619714 21.5502
2.3426276225136022 21.3031
2.3649486396617507 21.1477
2.387252348930071 21.509
2.4095735463442893 21.2883
2.4318774374315884 21.838
2.4541988185014043 21.8536
2.476502894794693 21.6324
2.498824462909887 22.0074
2.521146125856138 21.6065
2.5434504863470337 22.8489
2.5657723414244717 22.5018
2.588076895590662 23.1767
2.610398946189713 23.5204
2.6327210958598384 24.2064
2.6550259469304716 23.7171
2.6773482972090137 24.9238
2.6996533504259 25.7252
2.7219759047039602 26.5178
2.744298562293959 27.2486
2.7666039251246595 28.3702
2.7889267918020164 30.0391
2.8112323652516555 31.5074
2.833555444408179 33.207
2.8558786311183852 34.6684
2.8781845268938557 36.3123
2.9005079311721484 39.1908
2.9228140460410397 40.681999999999995
2.9451376712799635 44.0982
2.967444008632326 46.7031
2.9897678582247247 50.6927
3.0120918213106695 55.0916
3.0343984987899373 59.1114
3.0567226913198637 63.5692
3.079029599759726 68.1654
3.101354025127254 73.0562
3.123678568232338 75.7168
3.145985829517914 77.1073
3.16831061055229 77.0938
3.1906181112775593 74.8315
3.212943133635653 71.9978
3.2352682779763207 66.7657
3.2575761442691227 62.2144
3.2799015350264273 56.6209
3.302209649240067 51.586000000000006
3.3245352898092655 46.6769
3.3468436553365257 42.5541
3.369169549113219 39.5358
3.3914955708171384 37.1392
3.413804319727358 34.3553
3.4361305997334863 32.5327
3.4584396084414553 31.3958
3.4807661501462652 30.2127
3.503092824025881 29.5853
3.5254022288463154 28.767
3.5477291695206588 27.9339
3.5700388426251948 27.2145
3.5923660534916446 26.656999999999996
3.6146934007816114 26.611
3.637003482731501 26.6878
3.6593311053109985 26.3167
3.681641464033634 26.1229
3.7039693653009733 26.0267
3.726297407241705 25.9622
3.7486081875460804 25.5417
3.7709365132734978 25.7589
3.793247578841633 26.0109
3.8155761917550093 25.855
3.8378875459837216 25.7077
3.8602164494827234 25.7466
3.882545499606844 26.2305
3.9048572932539183 26.0918
3.9271866390645718 26.3652
3.9494987298666713 26.8893
3.971828374764527 27.0579
3.9941581705403255 27.2104
4.016470713506008 27.4938
4.038800813471445 27.9718
4.061113662089144 28.055
4.0834440696459176 28.7219
4.105774632334751 28.849
4.128087945865126 29.0622
4.150418821249301 29.9277
4.172732448931298 31.0698
4.195063640413578 31.1531
4.2173775856475215 32.0864
4.239709096631102 32.6571
4.262040768704612 33.7439
4.284355196706267 35.648
4.306687193387355 37.8744
4.329001947444346 40.122
4.35133427213731 41.6561
4.373666762177566 41.4367
4.395982011761091 40.308
4.418314834921175 38.7056
4.44063041906622 37.9528
4.4629635787515625 36.8646
4.4852969080429785 37.4454
4.5076130004776225 37.6206
4.529946671403969 37.8135
4.552263106909177 38.8482
4.574597122877047 39.4243
4.596931312711224 40.4085
4.619248269273446 41.0763
4.6415828092605835 41.2679
4.663900117405352 42.1365
4.686235010953232 43.6164
4.708552674085913 44.5384
4.730887924602802 45.979
4.753223354952695 47.1812
4.775541557023902 48.6581
4.797877349456786 50.6758
4.820195915032126 52.8619
4.842532072957498 54.4127
4.864868414979744 57.0213
4.88718753227192 60.5338
4.909524244902505 63.8971
4.931843734218147 68.3574
4.954180820867835 74.2744
4.976518095879839 81.9984
4.998838149695359 91.3457
5.021175803844231 104.04899999999999
5.043496238205739 114.436
5.065834274903528 121.971
5.088172504230693 129.96200000000002
5.1104935158799565 141.418
5.132832132875765 159.77
5.155153533596801 186.17
5.1774925416746225 228.87599999999998
5.199814334878411 310.20599999999996
5.2221537374521505 471.467
5.244493338631803 710.926
5.266815727034316 1022.82
5.289155727832427 1610.07
5.311478517248165 2807.64
5.333818921080011 4064.66
5.356159527788849 4415.75
5.3784829252032536 3182.24
5.400823940070432 1733.73
5.423147747031976 823.5239999999999
5.445489173474152 452.934
5.467830807066149 308.846
5.490155234831516 239.528
5.512497285125229 196.481
5.534822130975162 170.05200000000002
5.557164601388673 151.855
5.579489868738879 136.265
5.601832762690846 126.238
5.6241758697774475 119.359
5.646501775867269 114.39299999999999
5.668845311622074 112.06700000000001
5.691171647754637 109.661
5.713515615597765 106.244
5.735859800852677 102.954
5.758186788542988 101.089
5.780531411018185 99.9893
5.802858837297399 99.912
5.825203900414495 101.227
5.8475491852224 104.01299999999999
5.869877275883075 107.212
5.892223006467101 112.28299999999999
5.914551544266608 118.85799999999999
5.936897724049891 128.351
5.959244129804903 141.745
5.981573344815301 163.086
6.0039202049061 196.93099999999998
6.026249875609095 252.731
6.04859719346037 328.602
6.070927323278297 424.99800000000005
6.093275102315365 563.785
6.115623113320588 752.177
6.137953938319995 1038.54
6.160302415650845 1255.12
6.182633708324452 1129.89
6.2049826554078376 815.618
6.227331838745022 505.329
6.249663839443684 319.88
6.27201349767565 222.90200000000002
6.294345974611799 169.03599999999997
6.316696111167083 131.39700000000002
6.339046488263839 107.833
6.361379686074702 92.34200000000001
6.383730546639482 82.2437
6.406064229255215 73.7818
6.428415576718203 69.0347
6.450749747566656 64.3327
6.47310158535871 60.4439
6.495453669698332 57.2922
6.517788579421056 54.9577
6.540141159237969 52.7982
6.562476565766648 51.0333
6.5848296444934045 49.6564
6.607182974060425 48.4158
6.6295191323281015 47.2319
6.651872965955752 46.1786
6.6742096296068985 44.9405
6.6965639707294615 44.5885
6.71891856698715 43.9421
6.741255995248479 43.3581
6.763611104154477 42.8462
6.785949046381137 42.0948
6.808304671371482 41.4233
6.8306605557940046 41.5377
6.852999275508618 40.8816
6.875355681171544 40.8312
6.897694923437771 41.168
6.92005185377892 40.8083
6.9423916220322655 40.9168
6.964749080490181 40.6742
6.987106804399774 40.6801
7.009447368180821 41.5357
7.031805625367033 41.8373
7.054146723727803 43.7071
7.076505517631004 45.1672
7.098864581288365 46.4461
7.121206488070854 46.2738
7.143566093607822 45.2894
7.165908543567245 43.8353
7.188268694426048 42.0355
7.2106291193438095 40.6708
7.232972390625943 40.1419
7.255333366030969 39.5832
7.277677189091925 39.4487
7.300038718428332 39.207
7.322400526130865 38.8158
7.344745183422596 39.3055
7.367107550224791 39.279
7.389452767901992 39.2911
7.411815697249891 39.6066
7.434161478756298 39.6472
7.456524974096713 40.7304
7.478888753837185 42.496
7.501235387657368 46.4303
7.523599738562711 58.7198
7.545946944825532 97.8025
7.568311870344528 165.33599999999998
7.5906770845765665 211.547
7.613025156078678 173.31599999999997
7.635390950099687 104.675
7.657739602662809 64.5884
7.680105979923558 49.0365
7.702472650212829 43.8041
7.724822180948224 41.3357
7.747189439655568 40.1021
7.769539560075357 39.2255
7.791907410653562 38.6221
7.81425812420825 38.5143
7.836626570110925 38.3199
7.858995315087906 38.6951
7.881346924933401 38.4564
7.903716270417482 38.5592
7.926068482028405 38.5873
7.948438431475253 39.1495
7.9708086843180235 39.0674
7.993161805171116 39.486999999999995
8.015532667162402 39.7047
8.037886398416653 40.5068
8.060257873014221 40.5824
8.082629655331942 41.0217
8.104984308787587 41.3719
8.127356708900503 41.8639
8.149711981398308 42.6718
8.172085002766314 43.1099
8.194458336181368 43.6253
8.216814543847752 44.9868
8.23918850371002 46.2545
8.26154533906492 47.496
8.283919928836452 49.2181
8.306277395339652 50.3834
8.328652618483376 51.9363
8.351028159736202 53.8576
8.373386579575245 55.3528
8.395762759396959 56.7821
8.418121819038275 58.9966
8.440498640894003 62.1575
8.462875785192262 66.4633
8.485235811156207 72.7604
8.507613602688501 82.5183
8.529974277114228 99.5766
8.552352719347912 122.20200000000001
8.574731488360351 152.64600000000002
8.59709314210385 184.40099999999998
8.619472567021075 216.99
8.64183487789147 271.353
8.664214962183097 387.17900000000003
8.686577933647762 568.793
8.708958680784317 729.047
8.731339760774953 750.512
8.753703729764451 588.048
8.77608547780821 380.154
8.798450116065078 246.11599999999999
8.820832535634787 170.097
8.843215292401656 128.264
8.865580941199045 105.527
8.887964374703538 92.8648
8.910330701447199 84.7058
8.932714815164482 78.8027
8.955099270424924 74.5246
8.977466620733543 71.682
8.999851761421976 69.4732
9.022219798361645 67.5727
9.04460562795561 66.6244
9.066991803441677 65.3743
9.089360876979615 64.6877
9.111747746589993 64.5716
9.13411751544971 64.9694
9.156505082664324 65.6535
9.178875550323522 68.2345
9.20126381862328 74.4621
9.223652438908596 90.2479
9.246023961427412 141.38299999999998
9.26841328802173 248.718
9.290785518039224 343.61400000000003
9.313175554425882 330.344
9.335565947154315 215.862
9.357939245086508 124.736
9.380330352834827 85.31200000000001
9.40270436697103 70.6802
9.425096193225055 64.6086
9.447488380180165 61.8812
9.469863475295412 59.5261
9.492256385987508 58.6848
9.514632206018318 58.2395
9.537025843935714 57.3274
9.559402392368193 56.9352
9.581796761000229 57.1528
9.604191496441521 56.8821
9.626569144158516 56.6165
9.648964615551032 57.0629
9.671343000390081 57.2045
9.693739211225699 57.763999999999996
9.716135793237463 58.23
9.738515290448102 58.1226
9.760912617143402 59.1126
9.783292860202891 59.9601
9.805690935076182 60.7097
9.828089385495742 61.4456
9.850470754023561 63.1895
9.872869957865444 64.8013
9.89525208097539 66.8433
9.917652041736662 69.7808
9.940052382417589 73.3375
9.962435644102392 78.9356
9.984836746950979 86.0295
10.007220771957746 97.9882
10.029622640473708 118.17399999999999
10.052007432299963 143.211
10.074410069984072 164.995
10.096813093716005 184.632
10.119199042482517 208.571
10.141602840636468 256.937
10.163989564971628 350.62199999999996
10.186394141051062 515.727
10.208799107559706 683.0219999999999
10.231187001965623 744.3510000000001
10.253592751657669 640.427
10.275981430388155 442.789
10.298387966769793 287.029
10.320794897965431 200.054
10.343184759907361 148.893
10.36559248305461 118.355
10.387983138083852 100.728
10.410391656691655 90.5055
10.432800574501677 85.44200000000001
10.455192425893369 83.0974
10.47760214443012 84.1168
10.499994797678786 87.9473
10.522405320453982 91.9639
10.54479877906917 94.9851
10.567210109595656 98.055
10.5896218454736 106.584
10.612016518879773 128.64
10.634429067781074 168.86599999999999
10.656824555333241 222.304
10.679237920773568 266.85200000000003
10.701651695961992 272.961
10.724048411481384 246.017
10.746463008485165 202.06900000000002
10.768860546937125 149.914
10.791275969274796 102.25399999999999
10.81369180576079 76.5625
10.836090585366925 64.9619
10.858507252467449 58.9264
10.88090686379991 55.8472
10.903324365036394 53.5502
10.925724811614439 51.5795
10.948143150509463 50.5637
10.970561909719066 49.3319
10.992963615930844 48.5123
11.015383218085756 47.5101
11.037785768347074 46.4818
11.06020621697282 45.8488
11.082627090322113 45.2802
11.105030913430326 44.903999999999996
11.12745263854165 44.2938
11.149857314510728 43.7095
11.172279894912576 43.7718
11.194702904450653 43.5261
11.217108866490921 43.2549
11.239532736615194 43.273999999999994
11.26193956033512 43.1081
11.284364294577085 42.7776
11.306789462371718 42.01
11.329197585398376 41.5666
11.351623622610898 41.3965
11.37403261614354 40.5575
11.396459526308487 40.5747
11.418869393879497 40.2999
11.441297180532617 39.9702
11.463725406927658 39.8742
11.486136592353875 39.4635
11.508565700543707 39.1998
11.530977768845315 39.4768
11.553407762368774 39.0343
11.575838200059769 39.0476
11.598251599479612 39.1186
11.620682927815501 38.9521
11.64309721895548 39.0136
11.665529441478206 38.9443
11.687962112597958 38.8138
11.710377748130886 39.0254
11.732811318753434 39.0715
11.755227854859067 39.0884
11.777662328529495 39.1066
11.800079768750786 39.6195
11.822515149015453 39.8811
11.844950984084935 40.4531
11.867369787303163 40.662
11.889806534289491 41.8338
11.912226250487029 44.236999999999995
11.934663912939751 49.7925
11.9571020346363 65.2508
11.979523127133968 91.3774
12.001962169624331 114.803
12.024384183972964 116.28200000000001
12.046824150809913 93.8669
12.069264581333726 68.359
12.091687985297767 54.7128
12.11412934550045 50.1456
12.136553680195208 49.0567
12.158995973632788 49.7211
12.181438735204349 50.3463
12.20386447284199 51.3852
12.226308172985636 54.0953
12.24873485024193 58.4745
12.271179492516982 65.2262
12.293607112949127 74.563
12.316052700916226 84.7394
12.338498763250042 90.4484
12.360927805303868 86.4685
12.383374818673879 76.7497
12.405804812803074 65.6975
12.428252780773262 56.8721
12.45070122756722 51.3739
12.473132656675375 47.6581
12.49558206341869 45.3248
12.518014453510101 43.6201
12.540464823770117 42.3166
12.562915677315177 41.6071
12.58534951575545 41.0203
12.607801338171472 40.3036
12.630236146511358 40.1601
12.652688941369085 39.8514
12.675124723177234 39.603
12.697578494048786 39.7621
12.720032754458185 39.7466
12.742470003354093 40.0128
12.764925245138771 40.0842
12.787363476431278 39.8604
12.809819703166806 40.0744
12.83227642391173 40.499
12.854716135692716 40.7104
12.877173846755147 41.1595
12.899614549869717 41.4289
12.9220732548287 41.9043
12.94453245827299 42.1263
12.966974655289818 42.4477
12.989434858002571 43.0523
13.011878055298721 43.8057
13.034339260862497 44.501000000000005
13.056800969391883 45.8293
13.079245674017244 47.7701
13.101708390774869 50.9893
13.12415410463411 57.4585
13.146617833206086 64.4762
13.169064559883248 68.0756
13.191529303857127 67.6786
13.213994557076367 66.3787
13.236442809902437 66.7661
13.258909083908291 68.6142
13.28135835851934 70.4178
13.30382565690295 72.7926
13.326293469022952 77.8639
13.348744283242008 86.6667
13.371213125129904 102.59
13.39366497011003 127.824
13.416134845360597 159.69
13.438605238843131 188.817
13.46105863690397 195.761
13.483530069144786 178.203
13.505984506951902 145.388
13.528456981549432 116.85600000000001
13.550929978879088 98.5489
13.573385983253365 89.1068
13.595860028340867 83.9284
13.618317081455832 81.1963
13.64079217790333 79.1049
13.663250283359057 79.5696
13.685726434770173 83.4724
13.708203115221277 93.5393
13.730662806148091 111.296
13.75314054697177 136.332
13.775601299246777 166.601
13.798080104050406 184.74900000000002
13.820559442405358 175.248
13.843021793671388 146.821
13.865502201420897 113.594
13.887965623051947 88.571
13.910447103807167 72.9149
13.932929122629764 63.6927
13.955394156785959 58.6394
13.977877254034569 54.9131
14.000343367582113 52.4323
14.022827546871707 50.9124
14.045294743423524 49.6562
14.06778000837062 49.2139
14.090265817715476 49.0541
14.112734645763819 49.9436
14.13522154619454 53.4188
14.157691466286913 63.8266
14.180179461423874 82.4608
14.202668005486178 100.27600000000001
14.22513957064374 106.906
14.247629214846473 96.5037
14.270101881097517 75.1452
14.29259262906496 58.6358
14.315083930490205 50.4481
14.337558255389705 46.7683
14.360050666019726 45.0465
14.382526101071944 43.8462
14.405019624534942 43.2257
14.427513705993134 42.762
14.449990813291825 42.4391
14.47248601302899 41.9756
14.49496423954951 41.6917
14.517460561197822 41.4908
14.539939910570322 41.2588
14.562437357763558 41.0992
14.58493536931253 41.2204
14.607416409993311 41.0851
14.62991555254159 41.2098
14.652397725157423 41.192
14.674898002342799 41.1946
14.697398848433282 41.3067
14.719882725991326 41.9356
14.74238471217934 41.8784
14.764869730765593 42.5343
14.787372860692983 42.8362
14.809876564079925 43.6406
14.83236330125751 44.8677
14.854868153850365 46.7079
14.877356041159485 48.6496
14.899862046604186 50.1667
14.922351087688757 51.4026
14.944858249632887 52.0619
14.967365991421232 53.09
14.989856770231246 55.199
15.012365673994204 59.4125
15.03485761569738 66.0977
15.05736768508665 76.6115
15.07987833888692 89.9035
15.102372032001655 104.37299999999999
15.124883856909658 111.68
15.14737872204565 108.55
15.169891721717274 97.1104
15.192405310371893 83.8745
15.214901940621196 71.3558
15.237416709527137 61.4816
15.259914520936249 54.7044
15.282430473753607 50.1229
15.304947020131227 46.8213
15.327446610371178 44.9621
15.349964346154254 43.91
15.372465126703139 43.1952
15.394984055556009 42.5897
15.417486030076159 41.9304
15.44000615566487 41.5876
15.462526881230803 41.358000000000004
15.485030653812652 41.1671
15.507552581617434 40.9651
15.530057557334603 40.8168
15.55258069104857 40.5941
15.575104429329837 40.9285
15.597611216864632 40.7421
15.620136166564563 40.591
15.6426441664095 40.5499
15.665170331202765 40.7432
15.687697105158826 41.3088
15.710206930593545 42.0894
15.732734925158933 42.8615
15.755245972089478 44.1328
15.77777519094324 45.7394
15.800287463046663 47.0007
15.822817909869592 48.0191
15.84534897229804 48.298
15.867863089299354 49.5183
15.890395385222186 50.6573
15.912910736597423 52.9841
15.935444269699861 57.3366
15.957978423016485 63.9807
15.980495633101265 72.9109
16.003031029129367 85.5555
16.02554948280019 98.5016
16.048086125229432 105.613
16.070623392487107 105.429
16.09314371869582 99.6382
16.11568223789321 90.5885
16.13820381691126 81.3702
16.160743591742527 71.0745
16.183283996022084 60.3131
16.205807461423195 51.3577
16.228349126881973 45.7445
16.25087385432698 42.6357
16.27341678466365 40.7329
16.29594277784926 39.5486
16.31848697676433 38.316
16.341031811604868 37.5275
16.36355971058487 37.121
16.3861058195587 36.7232
16.40863499352978 36.0306
16.431182380342005 35.7741
16.453730407713202 35.4586
16.476261501364792 35.275
16.498810812136167 35.0203
16.52134319004079 34.9512
16.54389378792203 34.728
16.566445031001553 34.5992
16.588979342490088 34.4168
16.61153187824822 34.423
16.634067483263312 34.109
16.656621315414416 34.0564
16.679175797408888 33.6611
16.701713349928728 33.7361
16.72426913389191 33.9309
16.74680798922351 33.8596
16.76936507887444 33.7129
16.791905240734874 33.7747
16.814463639794468 33.6455
16.837022695210294 33.8457
16.859564824093756 33.9929
16.882125194503903 34.1642
16.904668639217885 34.5863
16.927230328348003 35.2336
16.949792678493612 37.2703
16.972338104193863 39.9608
16.994901778652235 42.548
17.017448529496576 43.5939
17.040013531998152 42.4212
17.06257920018044 39.717
17.0851279459922 37.181
17.107694947817667 35.7679
17.130245028099072 35.0006
17.15281336730298 35.0919
17.17536478578733 35.1571
17.19793446610687 35.522
17.220504818648422 35.6945
17.243058251703697 35.614000000000004
17.265629950971032 35.7633
17.288184731571736 36.0021
17.310757781306908 36.6882
17.33333150794385 37.0721
17.355888317140174 37.6705
17.37846339986244 38.8545
17.401021565958885 40.75
17.42359800851343 43.2875
17.44617513265564 46.0925
17.468735341390783 48.2654
17.491261035594565 48.5822
17.51396340099364 46.8997
17.536490463869136 44.4407
17.559018209820174 41.78
17.58154663977963 39.5133
17.604251766089718 38.2731
17.626781572227713 37.4975
17.64931206518155 36.9817
17.671843245885103 36.9042
17.69455114821572 36.8103
17.717083712612634 36.8991
17.739616967569667 37.2462
17.762150914021706 38.0713
17.78486160749854 39.5438
17.807396945166804 42.0109
17.829932977143503 44.1956
17.85246970436452 45.3064
17.875183204129467 44.5308
17.897721330097664 42.99100000000001
17.920260154126645 41.3993
17.942799677153296 41.0674
17.9655159983646 41.3194
17.988056927677544 41.9367
18.010598558807683 42.861999999999995
18.033140892692916 43.3285
18.05586005052525 43.3879
18.07840379824407 43.8319
18.10094825154059 44.5695
18.12366954819864 45.7169
18.146215420998306 47.7442
18.16876200220057 50.6272
18.191309292745153 55.1485
18.214033452627167 61.7828
18.236582170236648 70.0267
18.259131600016456 78.8402
18.281681742907335 83.6528
18.304408781233683 83.2732
18.32696035875955 77.0983
18.349512652227624 68.7197
18.372065662579683 60.9862
18.394795594587553 55.5393
18.41735004715306 52.8498
18.43990521943684 52.0993
18.46246111238171 53.1919
18.485193953325208 56.0361
18.507751296070428 60.06100000000001
18.530309362314178 63.428000000000004
18.552868153000343 64.6641
18.57560391815056 63.1322
18.59816416623245 60.4613
18.620725141597372 56.565
18.643286845190268 52.7638
18.666025549835414 49.4137
18.688588718427933 45.9982
18.711152618092243 43.1171
18.73389353884365 40.8702
18.75645890921984 39.2176
18.77902501351406 38.3749
18.801591852673102 38.0482
18.824335739722738 37.4832
18.846904057212626 37.2417
18.8694731124168 36.7916
18.89204290628315 36.7431
18.914789774966803 36.3895
18.937361054791623 36.1319
18.959933076131318 35.933
18.982505839934877 35.666
19.00525570560582 35.6259
19.027829963004184 35.4301
19.05040496572238 35.6173
19.072980714710468 35.5562
19.095733592739563 35.4574
19.11831084296757 35.2837
19.140888842324735 35.3107
19.16346759176222 35.3308
19.18622349753803 35.4174
19.208803755869358 35.6149
19.231384767143577 35.8784
19.253966532312948 36.4016
19.276725481241822 36.6704
19.29930876296784 36.9574
19.3218928014549 38.0976
19.34465404436217 40.5209
19.36723960516257 44.0557
19.389825925592426 47.3079
19.412413006605938 49.5503
19.43517731967805 49.6334
19.457765930683355 47.8992
19.48035530514408 45.8752
19.50294544401556 44.751000000000005
19.525712842708348 44.8401
19.54830451925909 45.2552
19.570896963095727 44.7138
19.593490175174704 43.4578
19.616260674962184 41.7007
19.638855432416964 39.5246
19.661450960992624 37.8501
19.68404726164677 36.4911
19.706820878021247 35.5067
19.729418731756834 34.8806
19.752017360452857 34.4413
19.77461676506804 34.1644
19.797393513540218 33.7634
19.819994478951667 33.5124
19.84259622316767 33.4986
19.8651987471481 33.3505
19.887978643247177 33.1834
19.91058273574792 33.297
19.933187610901943 33.4039
19.955969879466828 33.4954
19.97857632894404 33.5824
20.00118356396599 33.6564
20.023791585494575 33.7223
20.046577028914875 33.7787
20.069186632506966 33.8583
20.091797025500632 34.0526
20.114408208858933 34.3556
20.137196842715273 34.5386
20.159809615886765 35.4842
20.18242318232135 36.3789
20.20503754298326 37.6977
20.227829382875154 39.3661
20.250445341109344 41.1938
20.27306209647285 42.5159
20.29567964993108 42.8168
20.31847471147704 42.2258
20.34109387027612 40.7732
20.363713830075454 39.1611
20.386334591841646 38.1076
20.409132890679302 37.543
20.431755265564437 37.5724
20.454378445325528 38.2391
20.477002430930366 39.5341
20.499803982716553 40.3596
20.522429589228004 40.7555
20.54505600449589 40.278
20.567683229489194 39.0453
20.590488049900088 37.376999999999995
20.61311690359731 35.7741
20.63574656993626 34.5635
20.658553853717297 33.3862
20.681185154618298 32.955
20.703817271080066 32.5211
20.72645020407368 31.908
20.749260783967177 31.9491
20.771895359337133 32.2612
20.794530754161617 32.8443
20.817166969412938 33.8798
20.83998086114876 35.0124
20.86261872660049 35.6027
20.885257415405402 35.4171
20.90789692853701 34.6128
20.930714147864748 33.2808
20.953355319030678 32.1213
20.97599731745334 31.3259
20.99864014410749 30.6532
21.021460706796564 30.4113
21.044105199328826 30.4475
21.06675052302631 30.3293
21.089396678865015 30.4953
21.112220600704806 30.4187
21.134868430275347 30.2393
21.15751709492456 30.2491
21.180166595629693 30.1156
21.202993892429635 30.1212
21.22564507473034 30.1164
21.24829709602816 30.070999999999998
21.27112693608965 30.23
21.293780644891275 30.3125
21.316435195634053 30.2877
21.339090589297417 30.5346
21.361923832041875 30.864
21.384580921090404 31.1015
21.407238856007325 31.5787
21.429897637773326 32.0973
21.45273429906592 32.2615
21.475394784108598 32.2378
21.498056118951983 32.0758
21.520718304578022 31.9594
21.543558400304388 31.7477
21.566222297108816 31.6543
21.58888704765135 31.404
21.61155265291521 31.0148
21.63439619898156 30.7549
21.657063523335786 30.5678
21.67973170537063 30.5945
21.7024007460706 30.608
21.72524775840385 30.8
21.747918526116475 30.9534
21.770590155457388 31.1668
21.79326264741238 31.2844
21.816113141960237 31.2817
21.838787368860547 31.4849
21.861462461341976 31.6192
21.884315579735777 31.9321
21.90699241312273 31.9551
21.92967011506078 32.338
21.95234868653799 32.8387
21.9752053151131 33.4307
21.997885635446785 34.3674
22.020566828293532 35.7406
22.04324889464272 37.1725
22.066109049404666 38.5664
22.088792872571794 40.236
22.111477572219204 41.2039
22.1341631493376 41.24
22.157026846313123 40.9134
22.179714188221507 40.301
22.202402410582668 39.8215
22.22509151438863 39.3419
22.24795876962584 38.8918
22.270649646204486 38.225
22.293341407213727 37.5471
22.316034053646906 37.069
22.338904883215342 36.4947
22.36159931041458 35.7856
22.38429462602756 34.92
22.40699083104897 33.8251
22.429865251039757 32.9609
22.452563244831367 32.3324
22.47526213102522 31.9062
22.49813925616515 31.6111
22.520839937143307 31.2332
22.543541513520587 31.1316
22.56624398629403 30.7706
22.589124730075895 30.7035
22.611829005656723 30.7824
22.63453418063466 30.6434
22.657240256008077 30.7058
22.680124634582935 30.6355
22.70283252079775 30.5858
22.725541310413075 30.6894
22.74825100442868 30.9139
22.771139033969575 31.0761
22.79385054687155 31.1005
22.81656296718292 31.6845
22.83927629590484 31.9482
22.862167992606945 32.4381
22.88488314827121 32.551
22.907599215359284 32.6176
22.93031619487366 32.4253
22.953211574954405 31.9856
22.975930389478226 31.8696
22.998650119445763 31.8544
23.02137076586092 31.8887
23.044269845560063 32.1611
23.06699233506288 32.7717
23.089715744034912 33.5595
23.112617610931565 34.5744
23.135342869061212 35.8278
23.158069049684816 36.8067
23.1807961538087 37.3754
23.20370174880544 37.3792
23.226430710184808 36.8275
23.249160598093425 35.7818
23.271891413539002 34.4464
23.294800752937697 33.2057
23.31753343374794 32.4884
23.340267045128353 31.9888
23.36300158808808 31.9286
23.38591468821339 31.8506
23.408651104658304 32.0403
23.431388455719986 32.3763
23.454126742409 32.8404
23.4770436196085 33.5018
23.499783787914662 34.1012
23.522524894889884 34.2943
23.54526694154616 34.0504
23.56818761219047 33.5461
23.59093154860734 32.9585
23.613676427751283 32.7463
23.636422250635754 32.5847
23.659346731118656 32.4721
23.68209445191868 33.0598
23.704843119509587 33.5637
23.72759273490623 34.6157
23.750521041644767 35.7678
23.77327256312355 36.9514
23.796025035462787 37.5991
23.818956224555475 37.6538
23.841710609113413 37.1936
23.86446594758979 36.0993
23.887222241002014 34.3601
23.910157285144578 32.9379
23.932915498962537 31.9436
23.955674670778713 31.1689
23.978434801611975 30.5817
24.001373717286125 30.183000000000003
24.024135776723917 29.9489
24.046898798245582 29.7296
24.06966278287146 29.5538
24.092605586582614 29.5136
24.115371508023642 29.6265
24.1381383956401 29.5467
24.16090625045381 29.2993
24.183852958731244 29.0336
24.206622758582608 28.7387
24.229393528706886 28.3486
24.252165270127392 28.3597
24.27511589952438 28.180999999999997
24.297889594216997 27.9791
24.32066426328598 27.8251
24.34343990775613 27.836
24.36639447485003 27.6603
24.38917208083877 27.6093
24.41195066531332 27.6192
24.43490819850244 27.5591
24.457688750692377 27.4234
24.48047028445616 27.4052
24.503252800821233 27.5325
24.526214300784112 27.3987
24.548998793132213 27.3049
24.57178427117417 27.2533
24.59457073593893 27.3788
24.617536219319863 27.3234
24.64032466834748 27.3881
24.663114107195035 27.6529
24.685904536893013 27.8694
24.708874020360852 28.2817
24.731666442613744 28.5493
24.754459858818787 28.6016
24.777254270007962 28.5073
24.80022777025625 28.1914
24.82302418230472 27.8193
24.845821592443674 27.5442
24.86862000170663 27.2403
24.891597535453727 26.9692
24.914397953892728 27.081999999999997
24.93719937456671 27.0337
24.96000179851076 26.9545
24.98298338249997 26.8934
25.00578782394922 26.9028
25.028593271784167 26.9079
25.05157790644186 26.8581
25.07438537804115 26.796999999999997
25.097193859145293 26.8956
25.120003350792075 26.8147
25.142992065061257 26.9872
25.165803588823465 27.0587
25.18861612625217 27.1655
25.211429678386736 27.1589
25.234422489079968 27.2833
25.257238081693636 27.4181
25.280054692141732 27.7589
25.3028723214652 27.8552
25.325869245420463 28.2477
25.348688923599397 28.5861
25.371509623787006 28.7499
25.394331347025812 28.6734
25.41733240110666 28.7243
25.440156181590016 28.6227
25.46298098826268 28.564
25.48580682216873 28.7234
25.50881202326435 28.7368
25.53163992281684 28.9775
25.55446885274561 29.272
25.577298814096377 29.2858
25.600308179121807 29.2654
25.623140214533745 29.0851
25.64597328451537 28.5962
25.66898578564376 27.8835
25.691820936010206 27.415
25.714657124097695 27.1115
25.737494350954734 26.8568
25.760511045684957 26.5972
25.783350361364224 26.5187
25.806190718969255 26.4465
25.82903211955018 26.6748
25.852053024868923 26.6971
25.874896522722523 26.7644
25.897741066713106 26.9111
25.920586657892454 26.8705
25.943611790812668 26.8293
25.966459487728237 26.6123
25.989308234998564 26.2701
26.01215803367705 26.2281
26.03518741123814 26.0432
26.05803932412957 25.9749
26.080892291600094 25.8422
26.10374631470478 25.8522
26.12677995397268 25.8719
26.14963609978026 25.9668
26.172493304397875 25.9649
26.19535156888223 26.1416
26.218389486949604 26.2048
26.241249882640123 26.4503
26.26411134137826 26.6049
26.28715248187403 26.9411
26.31001607820869 26.9215
26.3328807407756 27.0544
26.35574647063438 27.0469
26.37879191991473 26.9949
26.401659795896734 26.7544
26.424528742360263 26.5936
26.447398760366614 26.3957
26.470448535598294 26.3307
26.49332070826805 26.2156
26.516193955675355 26.1542
26.53906827888316 26.1734
26.562122397260108 25.997
26.584998883685063 25.8575
26.607876449110325 25.7779
26.63075509460056 25.8294
26.65381357334404 25.8854
26.67669439061878 25.8514
26.699576291163382 25.8989
26.722459276044212 26.0953
26.745522132402975 26.3025
26.768407297649354 26.5082
26.791293550442003 26.651
26.814180891848974 26.9722
26.837248143099337 27.2383
26.860137673466657 27.5863
26.88302829566349 27.7554
26.90592001075963 27.767
26.92899167420566 27.8773
26.951885586870763 27.8146
26.974780595655517 27.8035
26.99785558178161 27.8909
27.020752794605112 27.8074
27.043651106772522 27.7287
27.06655051935668 27.5422
27.089629948036183 27.2123
27.112531573292053 26.7433
27.135434302194138 26.4125
27.158338135817015 26.0065
27.181422024430987 25.8329
27.204328079372566 25.6699
27.22723524226965 25.6065
27.250143514198573 25.4022
27.273231880156334 25.2765
27.296142382065014 25.1045
27.319053996245536 25.0149
27.341966723775965 25.0363
27.365059584515222 25.0349
27.38797455070062 24.9714
27.410890633481237 24.904
27.433807833936918 24.7779
27.456905206923906 24.819000000000003
27.47982465472398 24.8458
27.502745223449743 24.8883
27.525666914182825 24.9821
27.548768816912457 25.1253
27.571692763693633 25.0191
27.59461783573812 24.9959
27.617723149491244 24.9225
27.640650484125285 24.8681
27.66357894728264 24.9627
27.686508540048052 25.0208
27.709618414237887 24.9364
27.732550278321757 25.066
27.755483275279115 25.1849
27.778417406196485 25.1194
27.801531858397514 25.0278
27.824468269376716 24.916999999999998
27.847405817586786 24.8924
27.870344504116094 24.934
27.893463551932008 24.8284
27.916404527281053 24.7266
27.93934664422563 24.7183
27.962289903855886 24.5829
27.98541356491974 24.6327
28.00835912214229 24.6997
28.03130582533231 24.842
28.054253675581805 24.9972
28.077381967556104 25.1515
28.100332124185126 25.3275
28.123283431160893 25.4018
28.146235889577238 25.4039
28.169368830154156 25.3816
28.192323603752033 25.3207
28.215279532083304 25.2298
28.238415973016764 25.4506
28.261374223145094 25.5881
28.284333631303806 25.7368
28.307294198589954 25.9737
28.330435319167677 25.8974
28.353398217078915 25.7692
28.376362277420153 25.6582
28.39932750129032 25.5141
28.422473319286713 25.2643
28.44544088262495 25.2454
28.468409612800283 25.2342
28.491379510913497 24.9227
28.51453004413313 24.6711
28.53750229057244 24.6089
28.56047570826344 24.4814
28.583450298308804 24.4392
28.606605564586562 24.2506
28.629582511831156 24.1852
28.65256063474956 24.0289
28.675539934446338 23.9503
28.698699951647605 23.8387
28.72168161743193 23.4984
28.74466446331978 23.4868
28.767648490417624 23.3683
28.790813276438353 23.2789
28.813799678527303 23.1868
28.836787265157085 23.1835
28.859955641890075 23.1244
28.882945610203045 23.0577
28.905936766392035 22.9475
28.928929111566863 22.9944
28.952102288520145 22.9448
28.975097024308607 22.9562
28.998092952423807 22.8871
29.021090073977508 22.8682
29.04426806913204 22.8446
29.067267590245258 22.8614
29.090268308143695 22.9732
29.11327022394099 22.9
29.13645305530891 22.9952
29.159457379627167 22.9883
29.18246290519685 22.988000000000003
29.20546963313352 22.9015
29.22865731875826 22.8537
29.25166646419296 22.7179
29.27467681535305 22.5437
29.29768837335608 22.4405
29.320880931312562 22.4353
29.34389491580634 22.3249
29.366910110507334 22.3094
29.38992651653503 22.3094
29.41312396492981 22.1812
29.436142806456754 22.0848
29.45916286268059 22.1417
29.48236399319994 22.1783
29.50538649169417 22.0458
29.528410208259935 22.0937
29.55143514402014 22.1235
29.574641196749695 22.0501
29.597668583816574 22.1237
29.6206971934585 22.1372
29.64372702680042 22.1879
29.666938019934474 22.1366
29.689970313635285 22.1546
29.713003834422636 22.0592
29.73603858342347 22.0107
29.759254535188578 21.7451
29.78229175361658 21.6973
29.80533020365064 21.7049
29.82836988641968 21.5962
29.85159081507472 21.525
29.874632976355343 21.4812
29.89767637376955 21.611
29.920721008448314 21.439
29.9439469322847 21.4502
29.96699405457564 21.3489
29.9900424175358 21.4156
30.013092022298157 21.2795
30.03632295963995 21.3486
30.059375061131373 21.2931
30.08242840783577 21.4552
30.105483000888153 21.5259
30.128718970092244 21.5297
30.151776069006917 21.5099
30.17483441768648 21.5569
30.198074175317235 21.4022
30.221135036724256 21.2827
30.24419715131772 21.2116
30.267260520236203 21.1696
30.290505341942243 21.1523
30.313571232750228 21.1349
30.336638381310948 21.183000000000003
30.35970678876503 21.1674
30.38295669299435 21.1151
30.40602763151657 21.0862
30.429099832366074 21.101
30.452173296685572 21.1307
30.47542830191959 21.2016
30.498504306502497 21.2394
30.521581577995562 21.2276
30.544660117543582 21.1153
30.56792024229725 21.0744
30.59100133132069 21.0345
30.614083691845494 20.9489
30.637167325018545 21.0134
30.660432587840603 20.9523
30.683518779717886 20.8009
30.70660624769615 20.8957
30.729694992924372 20.86
30.75296541239743 20.7845
30.77605672557558 20.8965
30.799149319462742 20.9759
30.8224236211637 20.8737
30.845518789950724 20.8577
30.868615242910597 21.0083
30.891712981195973 21.0913
30.91499247215866 21.1265
30.938092794619365 21.2001
30.96119440587579 21.3409
30.984297307082752 21.3727
31.00758200598383 21.3606
31.030687500658694 21.3268
31.053794288760695 21.3691
31.076902371446767 21.2322
31.100192296997445 21.1689
31.12330298246119 21.2027
31.14641496599209 21.1615
31.169528248749216 21.1059
31.19282341969534 21.0774
31.215939314557186 20.9463
31.239056512134788 20.8782
31.262175013589378 20.6903
31.28547544871168 20.53
31.30859657161541 20.4307
31.331719001892175 20.5025
31.35484274070538 20.4892
31.378148458819545 20.4014
31.401274828443725 20.3601
31.424402510106933 20.3838
31.447712205419993 20.4214
31.470842524931633 20.2816
31.493974159989783 20.295
31.51710711176168 20.3898
31.54042212308802 20.3586
31.563557722100917 20.3467
31.586694641341655 20.3247
31.609832881979628 20.3623
31.63315322823208 20.3838
31.656294125521327 20.3609
31.679436347728515 20.4258
31.70257989602529 20.4302
31.725905596152327 20.4038
31.74905181052835 20.4146
31.772199354521323 20.5206
31.79534822930507 20.3859
31.818679302290967 20.367
31.84183085259981 20.3325
31.864983737233473 20.137
31.88813795736804 20.1869
31.911474422233013 20.08
31.934631327356435 20.0898
31.9577895715215 19.9461
31.980949155906522 19.9822
32.004291031706956 19.9298
32.027453310562606 19.8897
32.05061693318573 19.8629
32.07396288236386 19.9739
32.09712920658542 19.9986
32.12029687812702 19.8598
32.14346589817093 19.8881
32.166817291729984 20.0248
32.18998902288583 20.0165
32.21316210610336 20.0374
32.23633654256711 19.9171
32.259693399663725 19.9166
32.282870556771144 19.9297
32.30604907069099 19.8503
32.329228942610065 19.7952
32.35259128243769 19.6785
32.375773884550505 19.6213
32.398957848235646 19.5673
32.422143174682176 19.5323
32.445511016471215 19.3768
32.468699082679954 19.4417
32.49188851523011 19.3069
32.51507931531304 19.213
32.538452678331 19.245
32.56164622776311 19.2227
32.58484114831493 19.1391
32.60803744118015 19.017
32.631416344731896 19.0718
32.654615396551876 19.035999999999998
32.67781582427913 18.9669
32.701198898634416 18.8913
32.72440209253756 18.8711
32.747606665947124 18.8826
32.77081262006088 18.8246
32.79420126883317 18.7768
32.81740999876112 18.761
32.840620112999424 18.7987
32.86383161274818 18.6606
32.88722585534586 18.6708
32.91044014056596 18.7532
32.933655814909734 18.6956
32.95687287957963 18.7797
32.98027273544904 18.7223
33.00349259526636 18.7017
33.026713849030116 18.6016
33.04993649794511 18.67
33.073341986570746 18.6781
33.09656744032826 18.6206
33.11979429286444 18.5581
33.14302254538647 18.4959
33.166433686291185 18.4451
33.18966475336992 18.4481
33.212897224069096 18.3237
33.23613109959831 18.3476
33.259547912343415 18.3449
33.2827846121627 18.3498
33.306022720453775 18.3097
33.32926223842861 18.2254
33.352684742614166 18.3097
33.37592709463173 18.305
33.399170859982064 18.3166
33.422597648419426 18.3052
33.44584425514446 18.2803
33.46909227885668 18.343
33.4923417207723 18.2941
33.51577423505344 18.3261
33.539026528130385 18.2909
33.56228024307245 18.2837
33.585535381098246 18.2191
33.60897364093058 18.1451
33.63223163992385 18.1506
33.6554910656699 18.0522
33.678751919389796 18.048
33.702195944520106 17.9752
33.72545966903325 17.9296
33.74872482519663 17.8263
33.771991414233746 17.7753
33.79544122444841 17.8343
33.81871069412428 17.6523
33.84198160035767 17.6462
33.86525394437455 17.6525
33.88870955949969 17.5862
33.911984794020626 17.6296
33.93526147001624 17.5955
33.958539588715006 17.5461
33.98200102861669 17.5549
34.0052820477047 17.5528
34.02856451319451 17.515
34.05203033759056 17.46
34.07531571090147 17.4641
34.09860253431845 17.5113
34.121890809074316 17.3813
34.145362493118924 17.4147
34.16865368561615 17.3484
34.191946333164054 17.3659
34.21524043699793 17.2961
34.23871800066799 17.3474
34.26201503218366 17.2347
34.28531352370466 17.2231
34.30861347646881 17.1313
34.33209693978188 17.1963
34.3553998301885 17.1272
34.378704185565205 17.0794
34.402010007152356 17.0077
34.42549939016683 17.0442
34.44880815937748 17.038
34.472118398533134 16.9851
34.49543010887669 16.9304
34.51892543169198 16.8898
34.54224009966052 16.9048
34.56555624255917 16.8848
34.58887386163339 16.7461
34.61237514439016 16.8309
34.6356957311114 16.851
34.65901779775809 16.7812
34.68252356662995 16.7551
34.705848608458616 16.7412
34.72917513396849 16.7647
34.75250314440949 16.6435
34.77601490857862 16.605
34.799345904259795 16.5308
34.82267838863559 16.5621
34.846012362958525 16.5466
34.869530142679984 16.5523
34.89286711232212 16.5465
34.91620557568269 16.4947
34.93954553401677 16.4684
34.9630693495876 16.391
34.986412313340814 16.4376
35.00975677584668 16.3686
35.033102738362956 16.3519
35.05663261012228 16.3034
35.0799815881786 16.3228
35.10333207003229 16.2431
35.12668405694369 16.2652
35.150220005273056 16.2209
35.17357501786656 16.2897
35.19693153931268 16.2279
35.220289570874385 16.1947
35.24383161619786 16.2073
35.267192683604904 16.2076
35.290555264930376 16.2054
35.314101899412165 16.1613
35.33746752422433 16.1759
35.36083466676374 16.1952
35.38420332829803 16.1192
35.407756095629054 16.0739
35.43112781085063 16.0658
35.45450104888391 16.0038
35.477875810999194 16.0541
35.50143473172161 15.9706
35.52481255774625 16.0333
35.54819191167777 16.004
35.57157279478914 15.9331
35.595137889488406 16.0232
35.61852184675279 15.9906
35.641907337029984 15.9202
35.665294361595684 16.0019
35.68886565090076 15.9913
35.7122557598848 16.0406
35.73564740699838 15.9967
35.759040593519934 15.9873
35.78261809810353 16.0104
35.80601437933051 15.9429
35.829412203814705 15.8722
35.85281157283719 15.8666
35.876395313415884 15.8647
35.8997977874528 15.8105
35.92320180988546 15.8017
35.946790244133936 15.7385
35.97019737933222 15.7347
35.993606066789866 15.6602
36.01701630779276 15.6211
36.04061101440684 15.5978
36.06402437852291 15.637
36.08743930005611 15.539000000000001
36.1108557802951 15.5
36.13445678011326 15.4925
36.15787639383515 15.4461
36.18129757014299 15.4277
36.20472031032821 15.4266
36.22832762423364 15.3915
36.25175350829375 15.3078
36.275180960119776 15.265
36.298609981005924 15.3168
36.32222362992669 15.3189
36.34565580510207 15.3089
36.36908955323448 15.2184
36.39252487562093 15.2663
36.416144880530226 15.1834
36.43958336764275 15.2351
36.463023432914625 15.2747
36.486465077645676 15.1885
36.51009145956204 15.2827
36.53353627947859 15.24
36.55698268276811 15.2688
36.58043067073321 15.1789
36.60406345072071 15.1159
36.62751462435344 15.0523
36.65096738658405 14.9896
36.67460498210655 14.9973
36.69806093788647 14.9709
36.72151848619297 14.905
36.744977628333636 14.9166
36.76862165890998 14.9063
36.79208400512205 14.9844
36.81554794910557 14.9146
36.83901349217101 14.947000000000001
36.862663978991606 14.875
36.88613273667352 14.8222
36.90960309738324 14.8347
36.933075062434064 14.8373
36.95673202673572 14.8102
36.98020721697122 14.7697
37.003684015502365 14.6918
37.027162423645365 14.7218
37.050825886711465 14.7142
37.07430753063053 14.5869
37.09779078812467 14.6251
37.121275660513014 14.5792
37.144945643673694 14.6129
37.16843376245278 14.5238
37.19192350009803 14.4834
37.215414857931435 14.4293
37.239091382563885 14.4342
37.262585997426164 14.4281
37.28608223645736 14.370999999999999
37.309763684451696 14.4821
37.33326318851098 14.4093
37.356764320726555 14.3587
37.380267082425526 14.3982
37.40395510942588 14.317
37.42746114683234 14.2502
37.45096881771841 14.2495
37.474478123414166 14.2377
37.49817275092816 14.2938
37.52168534303452 14.2338
37.54519957395567 14.140999999999998
37.568715445024665 14.1997
37.592416694607714 14.0562
37.61593586281424 14.1246
37.63945667518264 14.1062
37.66297913304891 14.0517
37.68668702630454 14.0852
37.710212792059274 14.0074
37.733740207334854 13.9503
37.757269273470364 13.9954
37.780983832050374 13.9826
37.80451621684926 13.9605
37.82805025654007 13.9434
37.851585952464795 13.9455
37.8753071980695 13.8973
37.89884622345676 13.8933
37.92238690911902 13.8321
37.94611318753442 13.7839
37.969657210779765 13.7411
37.99320289834801 13.8134
38.016750251586465 13.752
38.04048325513017 13.7503
38.06403395679343 13.6852
38.087586328183946 13.7336
38.11114037065203 13.7285
38.13488012115898 13.6779
38.1584375229181 13.6003
38.181996599821 13.5686
38.205557353221124 13.4992
38.229303872575656 13.5722
38.2528679961576 13.5151
38.27643380031219 13.5269
38.30000128639589 13.536
38.32375459653193 13.4844
38.34732546371299 13.4704
38.37089801690786 13.3745
38.39447225747609 13.328
38.418232380377425 13.3579
38.441810012983396 13.3796
38.46538933705673 13.3188
38.488970353960084 13.2751
38.51273731166058 13.3015
38.536321731567014 13.2145
38.55990784840681 13.2548
38.58367995004091 13.2017
38.60726947812959 13.1693
38.63086070726198 13.2069
38.654453638806274 13.2684
38.678232613930824 13.2445
38.70182896773327 13.1567
38.72542702806741 13.1247
38.7490267963045 13.1187
38.77281266709232 13.1033
38.79641586862214 13.0645
38.8200207821842 12.9922
38.843627409152944 13.0461
38.86742019782782 13.0462
38.891030269149255 12.9563
38.914642058016156 12.9516
38.938255565806124 12.905999999999999
38.96205529464307 12.9435
38.98567225787121 12.9135
39.00929094417078 12.8794
39.03291135492255 12.9369
39.05671804624804 12.9169
39.080341923549106 12.8311
39.103967529460334 12.8402
39.127594865365744 12.8127
39.15140854155791 12.7366
39.17503935514948 12.7774
39.19867190290282 12.7456
39.22249083587951 12.7837
39.24612686969409 12.6888
39.269764641845306 12.6417
39.293404153722804 12.6489
39.317230110864074 12.7022
39.34087311998506 12.6305
39.36451787301696 12.587
39.388164371352595 12.575
39.41199737518003 12.5794
39.43564738196752 12.540999999999999
39.45929913825317 12.4987
39.48295264543308 12.465
39.506792718520884 12.468
39.530449745387216 12.4456
39.55410852735203 12.4148
39.57776906581474 12.4389
39.60161623079 12.3768
39.625280300200025 12.3816
39.64894613032202 12.3194
39.67261372255866 12.3456
39.6964680021016 12.3377
39.72013913657293 12.3294
39.74381203738292 12.2816
39.76748670593756 12.3262
39.79134812278169 12.2256
39.81502634488497 12.224
39.83870633896685 12.2583
39.862388106436654 12.1705
39.88625668336918 12.1771
39.90994201572829 12.1845
39.933629125719285 12.1299
39.957503091207826 12.1625
39.9811937746168 12.1505
40.00488623990914 12.0988
40.02858048850006 12.0507
40.05246165409549 12.075999999999999
40.076159487492085 12.0321
40.099859108448875 12.0321
40.123560518384345 12.0144
40.1474489070226 12.0276
40.171153913178564 11.9899
40.194860712584955 11.949000000000002
40.2185693066637 11.8985
40.242464941335314 11.9316
40.26617714307655 11.9491
40.289891143772046 11.8987
40.3136069448471 11.8962
40.33750984859743 11.8732
40.3612292688043 11.877
40.3849504936829 11.8486
40.40867352466194 11.8284
40.43258372059144 11.7906
40.45631038219906 11.7829
40.48003885420956 11.6991
40.503769138055105 11.7721
40.52768664931955 11.7314
40.55142057531802 11.7236
40.57515631746428 11.6808
40.599079334038514 11.6945
40.62281872700477 11.6763
40.64655994043941 11.652000000000001
40.67030297578061 11.632
40.69423334835778 11.5936
40.71798004609188 11.5488
40.74172857006355 11.55
40.76547892171441 11.5363
40.7894166736039 11.5375
40.813170699248566 11.5266
40.83692655691388 11.5055
40.86068424804498 11.4932
40.884629402612525 11.487
40.908390779366385 11.4691
40.932153993938 11.4535
40.95591904777605 11.4746
40.979871628443995 11.4671
41.003640379561936 11.4145
41.02741097430883 11.3811
41.05118341413683 11.3745
41.075143444384416 11.3341
41.098919593177826 11.3503
41.1226975914255 11.3572
41.14647744058318 11.288
41.170444943946755 11.2879
41.19422851378379 11.235999999999999
41.218013938914645 11.1984
41.24198706625173 11.1393
41.26577622087193 11.1422
41.289567235177785 11.15
41.31336011063129 11.1588
41.337340752422875 11.1245
41.361137369129835 11.1282
41.38493585138705 11.078
41.40873620066004 11.0691
41.43272438060107 11.0976
41.45652848292052 11.0113
41.48033445666918 11.0054
41.50414230331616 11.0262
41.528138045159764 10.99
41.551949656675205 10.9282
41.575763145513235 10.9296
41.59957851314666 10.9374
41.62358184070442 10.864
41.64740098505737 10.9186
41.6712220126409 10.8734
41.69504492493139 10.8848
41.71905586207357 10.8532
41.74288256296395 10.8171
41.766711153007456 10.8065
41.79054163368412 10.7787
41.814560204340054 10.7768
41.838394485526365 10.8031
41.86223066180303 10.7495
41.88625497706819 10.7334
41.910094962812 10.7037
41.93393684811168 10.6623
41.95778063445365 10.6541
41.981812625263366 10.6214
42.00566023303407 10.6463
42.029509746323676 10.6331
42.05336116662236 10.6253
42.077400857069705 10.6211
42.10125611078846 10.5881
42.12511327600405 10.5658
42.14897235421036 10.5665
42.173019768448455 10.5016
42.19688269209613 10.5056
42.22074753323349 10.5243
42.24461429335818 10.5266
42.268669455600495 10.4863
42.292540073217886 10.4353
42.31641261433284 10.4206
42.34028708044675 10.3742
42.36435001496739 10.366
42.38822835065557 10.3527
42.41210861586426 10.302999999999999
42.4359908120986 10.356
42.46006154323262 10.3018
42.48394762115317 10.2588
42.507835634632315 10.2885
42.531912233047436 10.2509
42.55580413732265 10.2377
42.579697981698 10.2378
42.60359376768525 10.2163
42.62767820545945 10.1898
42.65157789440821 10.1854
42.67547952952185 10.2254
42.699383112316 10.2034
42.72347541395347 10.1339
42.74738291190531 10.1373
42.771292362102166 10.0995
42.795203766063516 10.1096
42.819303956130405 10.0678
42.843219287476536 10.0285
42.86713657716324 9.9919
42.89105582671383 10.0424
42.91516392983864 10.0213
42.939087119032166 9.982669999999999
42.963012272677304 9.98771
42.98693939230129 9.964
43.01105543317513 9.96316
43.034986504731386 9.93448
43.05891954686589 9.89274
43.08285456110972 9.90737
43.10697856448665 9.85961
43.130917542983475 9.80921
43.15485849820081 9.788039999999999
43.17880143167367 9.807730000000001
43.20293342237094 9.82284
43.226880332449 9.76635
43.25082922540554 9.79525
43.27496722682525 9.77399
43.29892010567796 9.76603
43.32287497204102 9.72638
43.34683182745632 9.67202
43.370977859791836 9.656460000000001
43.39493871351105 9.70025
43.41890156092628 9.64432
43.44286640358341 9.64912
43.46702049182749 9.62172
43.49098934522816 9.62758
43.51496019852649 9.608369999999999
43.5389330532723 9.55867
43.56309522248204 9.52984
43.58707210044314 9.53963
43.61105098451946 9.5096
43.63503187626491 9.524189999999999
43.659202151562134 9.53298
43.68318707902681 9.458110000000001
43.70717401884041 9.42464
43.731162972560874 9.47614
43.75534137913236 9.369589999999999
43.779334381108384 9.39627
43.803329401683186 9.41024
43.82732644241872 9.39103
43.8515130055166 9.41843
43.87551410707659 9.333269999999999
43.89951723350145 9.3407
43.923709934595614 9.28689
43.94771713129917 9.33479
43.97172635758096 9.291269999999999
43.99573761501002 9.28341
44.0199385169922 9.247819999999999
44.04395385732619 9.26115
44.067971233533086 9.23431
44.09199064718605 9.24668
44.11619977548961 9.234580000000001
44.14022328470671 9.173869999999999
44.16424883610785 9.20735
44.18827643127035 9.20807
44.21249381139513 9.189630000000001
44.236525514814076 9.15333
44.26055926674478 9.10934
44.28459506876863 9.119110000000001
44.3088207262813 9.12593
44.33286064928722 9.06835
44.35690262714919 9.06635
44.38094666145278 9.0476
44.4051806219871 9.0498
44.42922879003185 9.036430000000001
44.45327901929361 8.97626
44.477331311362136 9.00383
44.501573600619416 8.94921
44.525630039221795 8.92411
44.54968854541895 8.91719
44.573937102200176 8.93183
44.5979997645541 8.93212
44.622064499300315 8.9127
44.64613130803592 8.88044
44.67038823869318 8.85287
44.69445921643748 8.84862
44.718532272981385 8.81338
44.742607409926194 8.86314
44.76687274034801 8.80481
44.79095205918753 8.83516
44.81503346325094 8.78026
44.839116954143876 8.762260000000001
44.86339071028742 8.70995
44.88747839599524 8.717080000000001
44.91156817336837 8.69335
44.93566004401666 8.72792
44.959942251908146 8.72883
44.984038330325966 8.68812
45.00813650686762 8.63547
45.03223678314731 8.63405
45.05652746888232 8.62222
45.08063196592069 8.62471
45.104738567558705 8.58554
45.128847275414856 8.57001
45.15314646515866 8.49794
45.17725940679741 8.55718
45.20137445952892 8.524460000000001
45.22568004865265 8.532169999999999
45.24979934496396 8.54519
45.27392075725247 8.514
45.29804428714431 8.512260000000001
45.322358426247604 8.49057
45.346486212804315 8.46355
45.370616121861914 8.45118
45.39474815505086 8.4468
45.41907087049246 8.374460000000001
45.4432071734666 8.33183
45.46734560548283 8.3853
45.49148616817604 8.38327
45.51581748638564 8.356069999999999
45.5399623320197 8.33157
45.56410931325473 8.30445
45.58825843173002 8.31292
45.61259837920865 8.31505
45.636751793816 8.29997
45.66090735060093 8.2552
45.68506505120716 8.22327
45.7094136545275 8.22693
45.73357566449271 8.22086
45.75773982322992 8.20856
45.78190613238733 8.179739999999999
45.806263418194064 8.17021
45.83043404997326 8.15466
45.85460683713677 8.16763
45.87897065658495 8.154630000000001
45.90314777634752 8.10715
45.92732705646868 8.13906
45.9515084986045 8.12809
45.97588104735473 8.09171
46.00006683541565 8.07129
46.02425479047904 8.0413
46.04844491420549 8.05455
46.0728262191024 8.0244
46.09702070211635 8.06269
46.12121735879483 8.03225
46.14541619080294 8.0188
46.169806278764455 8.0062
46.194009483459034 7.97813
46.21821486849841 7.978460000000001
46.24242243555223 7.919969999999999
46.266821333570014 7.90734
46.29103328674601 7.90333
46.31524742696538 7.9100399999999995
46.33946375590237 7.87297
46.36387149104216 7.84818
46.38809221957392 7.8456600000000005
46.41231514186606 7.851660000000001
46.436540259597464 7.84868
46.460956858999374 7.82797
46.48518638983522 7.799639999999999
46.509418121166966 7.75173
46.533652054678114 7.79447
46.55807754555709 7.76695
46.58231590571962 7.75051
46.60655647313217 7.742369999999999
46.630988654873654 7.72328
46.655233659129024 7.69255
46.67948087571551 7.67095
46.70373030632484 7.685410000000001
46.72817142736393 7.67325
46.752425308428684 7.636080000000001
46.77668140861147 7.59987
46.80093972960865 7.612139999999999
46.82538981736788 7.60577
46.849652602470904 7.58887
46.87391761349769 7.5608699999999995
46.8981848521493 7.555789999999999
46.9226439341274 7.5495
46.946915650573224 7.531969999999999
46.97118959976749 7.52212
46.99546578341598 7.47404
47.019933887188216 7.44618
47.04421456235744 7.4733600000000004
47.06849747711879 7.43887
47.09278263318286 7.43093
47.11725978640143 7.44548
47.14154944775105 7.4423
47.165841355555656 7.422789999999999
47.1901355115306 7.423019999999999
47.214621741924994 7.3943
47.23892041698887 7.374389999999999
47.26322134538975 7.376289999999999
47.28771440635075 7.326410000000001
47.31201986422527 7.32949
47.33632758061436 7.30225
47.360637557241866 7.29988
47.38513974410611 7.3032
47.40945426407847 7.29759
47.43377104948137 7.277939999999999
47.45809010204344 7.221419999999999
47.48260144275502 7.28119
47.506925052572285 7.25265
47.53125093475548 7.237439999999999
47.55557909103813 7.220860000000001
47.58009961361992 7.206160000000001
47.60443234110732 7.208419999999999
47.62876734791564 7.20292
47.65310463578333 7.187539999999999
47.6776343683373 7.16177
47.7019762413987 7.109960000000001
47.72632040075572 7.0915300000000006
47.75066684815169 7.132610000000001
47.77520581885936 7.072989999999999
47.799556865477655 7.089860000000001
47.823910205386 7.0923
47.84826584033272 7.07159
47.87281407745551 7.04931
47.89717432569297 7.024839999999999
47.92153687423484 6.999969999999999
47.94609208429692 6.98137
47.97045925671401 6.985589999999999
47.99482873471275 6.977310000000001
48.01920052005013 7.007000000000001
48.04376504619224 6.97208
48.068141469543484 6.98768
48.09252020552573 6.91337
48.11690125590099 6.93487
48.1414751266064 6.929410000000001
48.16586082917454 6.91207
48.19024885144316 6.87692
48.2146391951793 6.85297
48.239222439012764 6.885160000000001
48.26361744916137 6.86647
48.28801478610016 6.82837
48.31241445160131 6.825419999999999
48.337007097209366 6.79502
48.36141144338331 6.808610000000001
48.38581812345755 6.77544
48.41022713920929 6.788469999999999
48.434829215320704 6.78654
48.45924292604658 6.73999
48.48365897780325 6.75478
48.50807737237308 6.733
48.532688907799276 6.744839999999999
48.55711201168574 6.7034
48.581537463754074 6.70102
48.60615611725119 6.69455
48.63058628942721 6.67005
48.65501881516546 6.65278
48.6794536962573 6.631880000000001
48.70408185970339 6.64341
48.72852147531801 6.6141
48.75296345168211 6.59957
48.77740779059232 6.606660000000001
48.80204549302823 6.64387
48.82649458091802 6.602339999999999
48.85094603676547 6.58299
48.87539986237231 6.52864
48.90004713292306 6.51411
48.92450572200832 6.53028
48.94896668628025 6.53298
48.97343002754588 6.51705
48.99808689542115 6.53832
49.02255501470614 6.50531
49.04702551642794 6.4756
49.0714984023988 6.46593
49.096164896893235 6.432
49.120642575466796 6.43646
49.145122643748394 6.458559999999999
49.16960510355558 6.4121
49.19428125404938 6.42507
49.2187685210852 6.42159
49.243258185121555 6.3994800000000005
49.26794160167084 6.37367
49.2924360839405 6.34401
49.31693296869764 6.30888
49.34143225776915 6.3239
49.36612538195438 6.3141
49.39062950396021 6.34785
49.41513603578346 6.28035
49.4396449792564 6.29356
49.46434784069503 6.2811
49.488861631846454 6.26035
49.513377840166804 6.25185
49.537896467493745 6.266290000000001
49.56260909589029 6.23295
49.587132585683285 6.21402
49.611658500018365 6.20348
49.636186840738596 6.17934
49.66090926588511 6.16445
49.685442483902584 6.18547
49.70997813385706 6.158869999999999
49.734516217597076 6.15
49.75924846937352 6.16522
49.7837914452858 6.12997
49.80833686055187 6.10154
49.83288471702571 6.12409
49.85762682540054 6.10952
49.882179588965734 6.06194
49.9067347993235 6.06268
49.93129245833333 6.0898699999999995
49.95604445336378 6.07331
49.98060703442832 6.0425
50.005172069746266 6.01989
50.02993150438364 6.03987
50.05450147301533 6.01919
50.07907390151433 5.9939599999999995
50.10364879174981 5.97602
50.12841816587289 5.97435
50.1529980044635 5.96403
50.17758031042124 5.97379
50.20216508562089 5.98706
50.22694442953363 5.94798
50.25153416817468 5.93051
50.27612638170508 5.94434
50.300721072005196 5.91319
50.325510416102105 5.89464
50.350110084975064 5.90033
50.37471223628208 5.90118
50.39931687190919 5.86756
50.424116246675766 5.859369999999999
50.44872587605249 5.81651
50.47333799543065 5.8315
50.49795260670191 5.81646
50.52276204271512 5.82632
50.54738166295838 5.80305
50.57200378079314 5.8137099999999995
50.596628398116835 5.7815
50.62144792604559 5.76016
50.646077567609396 5.7477599999999995
50.670709714377715 5.74524
50.69553683636198 5.73232
50.72017401885922 5.74034
50.7448137122895 5.73183
50.76945591856022 5.70228
50.79429318636823 5.69669
50.818940443716784 5.683
50.84359021965163 5.684880000000001
50.868242516085964 5.6791599999999995
50.893089960641895 5.65725
50.917747323549435 5.65003
50.94240721271973 5.62039
50.96706963007175 5.63278
50.99192728239342 5.63969
51.01659478166073 5.613659999999999
51.04126481489051 5.6066
51.06593738400761 5.60384
51.090805275207074 5.56596
51.11548294172845 5.55713
51.14016314993547 5.562130000000001
51.164845901758845 5.54724
51.18972406304274 5.51844
51.21441192780656 5.51422
51.23910234200271 5.53492
51.2637953075678 5.48801
51.288683770237945 5.4698199999999995
51.31338186432707 5.50421
51.33808251561888 5.43548
51.362978729967345 5.45155
51.387684521509755 5.42446
51.41239287610203 5.40606
51.437103795691165 5.42152
51.46201036644977 5.39307
51.486726441956634 5.392519999999999
51.51144508832545 5.3870000000000005
51.536166307509156 5.38103
51.56108326624387 5.3495800000000004
51.58580965706056 5.353619999999999
51.61053862657523 5.33571
51.635270176746864 5.31431
51.66019755512065 5.2957
51.68493429268881 5.32212
51.70967361681515 5.3161
51.73441552946465 5.30025
51.759353359237934 5.32841
51.7841004750961 5.30063
51.80885018539685 5.2731900000000005
51.833602492111254 5.27374
51.8585508051424 5.24681
51.883308330926425 5.2353
51.90806845906181 5.20862
51.932831191525715 5.20014
51.95779001977161 5.19129
51.98255798721516 5.166
52.00732856494335 5.14038
52.03229530577543 5.16211
52.057071130455945 5.14288
52.081849571391054 5.1252699999999995
52.106630630568695 5.12225
52.13160794279417 5.109030000000001
52.15639426492067 5.128830000000001
52.18118321127822 5.08964
52.205974783860896 5.09323
52.23096269971011 5.08669
52.255759551287994 5.07011
52.280559035098186 5.06832
52.30536115314103 4.988630000000001
52.33035970494467 5.01256
52.35516711807904 5.04139
52.37997717147198 5.0183
52.40478986713005 5.037719999999999
52.42979908731974 5.01726
52.454617094216 5.0103599999999995
52.47943774942214 4.97663
52.50426105495102 4.959890000000001
52.529280976059844 4.97726
52.554109609024096 4.94076
52.57894089837482 4.96462
52.60377484613117 4.93703
52.62880550079408 4.91833
52.65364479223379 4.90574
52.67848674816189 4.89844
52.70352547971946 4.93494
52.72837279155837 4.889130000000001
52.753222773982785 4.89196
52.778075429022984 4.87194
52.80312495150885 4.8842
52.827982978797436 4.86526
52.85284368481815 4.8468599999999995
52.87770707160767 4.83939
52.90276741793998 4.79927
52.92763619336701 4.80923
52.952507655698504 4.81501
52.977381806977576 4.78651
53.00245301017842 4.78543
53.02733256653592 4.77283
53.052214817996074 4.741630000000001
53.077099766608484 4.73308
53.102181859804446 4.75018
53.127072229988265 4.757219999999999
53.15196530349892 4.72564
53.17686108239249 4.71392
53.20195409881522 4.69329
53.22685531582556 4.68736
53.25175924441303 4.69318
53.27666588664027 4.68954
53.30176985962693 4.68766
53.3266819565689 4.6714
53.35159677336455 4.65256
53.376514312083096 4.676769999999999
53.40162927507703 4.63906
53.42655228516116 4.6342
53.45147802340193 4.61785
53.47660125628886 4.595280000000001
53.50153247842639 4.58044
53.52646643496923 4.54221
53.55140312799818 4.56259
53.576537409691696 4.58164
53.60147960336152 4.57672
53.626424539786164 4.53137
53.65137222105307 4.5202599999999995
53.67651758529126 4.5240599999999995
53.70147078399681 4.51389
53.72642673383343 4.4919
53.75138543689533 4.51713
53.776541917524526 4.4983
53.801506154876755 4.47242
53.826473151763246 4.48522
53.851442910284916 4.4566
53.87661054126026 4.41665
53.9015858509782 4.40803
53.92656392866066 4.42689
53.95154477641532 4.42004
53.976723591801296 4.3875
54.00171000771266 4.39559
54.02669920004598 4.38967
54.051691170915745 4.36841
54.076881204886796 4.33235
54.101878760928514 4.31893
54.12687910187696 4.34244
54.152077577768296 4.30896
54.1770835166946 4.2983400000000005
54.20209224691339 4.26055
54.22710377055121 4.3125599999999995
54.25231352511594 4.27203
54.27733066384342 4.25711
54.30235060239643 4.24895
54.32737334290836 4.23081
54.35259441062629 4.2065
54.377622783395324 4.2153
54.40265396455061 4.21059
54.42768795623251 4.174169999999999
54.45292037169559 4.13304
54.477960012857906 4.12139
54.50300247099511 4.09309
54.52804774825457 4.1070199999999994
54.55329154616743 4.07409
54.57834249018678 4.02989
54.6033962597977 4.04632
54.6284528571545 4.04486
54.653708072335164 3.99934
54.67877035378786 3.9500800000000003
54.70383546947698 3.96049
54.72890342156389 3.9533099999999997
54.7541700889442 3.9403599999999996
54.77924374251975 3.9740699999999998
54.8043202390049 3.91523
54.82959552413022 3.9198
54.8546777351945 3.87774
54.87976279569621 3.8279199999999998
54.90485070780914 3.91931
54.930137506558005 3.84784
54.95523115074295 3.9018300000000004
54.98032765308844 3.8252300000000004
55.005427015775496 3.8505599999999998
55.03072536339621 3.82419
55.05583047570572 3.8050800000000002
55.080938454927676 3.81276
55.10604930325027 3.75072
55.131359235107396 3.7814400000000004
55.15647585066083 3.72969
55.181595341907496 3.69878
55.20671771104285 3.66805
55.232039262617704 3.6799699999999995
55.25716741665048 3.6405199999999995
55.28229845518636 3.65689
55.30743238042802 3.5887300000000004
55.33276558731939 3.57533
55.357905315183636 3.5720099999999997
55.383047936390035 3.5388699999999997
55.40819345314859 3.5020300000000004
55.433538351073295 3.5209599999999996
55.458689688238415 3.47436
55.483843927614096 3.44648
55.509197623043605 3.4774
55.53435769621134 3.4124800000000004
55.55952067826466 3.3999800000000002
55.5846865714265 3.42885
55.61005202069737 3.45263
55.63522376553902 3.3847099999999997
55.66039842818645 3.3371800000000005
55.68557601087004 3.43306
55.7109532500271 3.3616900000000003
55.73613670233794 3.36245
