TT I
1.2716486653135266 7.839180000000001
1.2939594142134223 7.9714100000000006
1.3162702121660406 7.14382
1.3385810600174564 6.771839999999999
1.3608919586137629 7.28665
1.383202908801069 6.60946
1.405513911425503 6.62133
1.4278249673332093 6.652189999999999
1.4501343378461518 6.91553
1.4724455028545926 6.4822
1.4947567236847858 6.922439999999999
1.517068001182951 6.04738
1.5393793361953272 6.394909999999999
1.5616907295681737 6.6901
1.5840021821477681 6.43294
1.60631369478041 5.9050400000000005
1.6286252683124185 6.03373
1.6509369035901333 5.57331
1.6732468618895553 5.3298
1.695558623192809 5.20911
1.7178704487808514 5.82829
1.7401823395001077 5.2464900000000005
1.7625012545597203 5.51296
1.7848028405262486 5.5231900000000005
1.8071218901122095 5.41449
1.8294236121921872 5.70768
1.8517427996910911 5.34962
1.8740620574440425 5.06975
1.8963639900671978 4.7602199999999995
1.9186833908139995 4.78491
1.9409854680117449 5.408530000000001
1.9633050151394713 5.2508
1.9856246367570705 5.05997
2.0079269371922672 5.06274
2.03024671027244 4.43961
2.0525491637446027 4.05671
2.074869091674931 4.65201
2.097171701569106 4.99774
2.1194917877373847 4.90034
2.141811954326636 5.00941
2.164114805233074 5.25594
2.186435135143035 5.14893
2.208738150935709 4.61865
2.231058647554722 4.43995
2.2533792288321184 4.58673
2.275682498336085 4.0909699999999996
2.298003251406138 4.79855
2.3203066942619714 4.477180000000001
2.3426276225136022 4.2186900000000005
2.3649486396617507 4.12362
2.387252348930071 4.38008
2.4095735463442893 4.65693
2.4318774374315884 4.73945
2.4541988185014043 4.63416
2.476502894794693 5.11158
2.498824462909887 5.16005
2.521146125856138 5.3314
2.5434504863470337 5.34114
2.5657723414244717 4.74299
2.588076895590662 6.03165
2.610398946189713 6.25175
2.6327210958598384 5.53225
2.6550259469304716 6.09415
2.6773482972090137 6.11646
2.6996533504259 6.489240000000001
2.7219759047039602 6.91725
2.744298562293959 6.35925
2.7666039251246595 6.47673
2.7889267918020164 6.49144
2.8112323652516555 6.43812
2.833555444408179 7.153919999999999
2.8558786311183852 7.3872800000000005
2.8781845268938557 7.692830000000001
2.9005079311721484 8.3937
2.9228140460410397 8.81418
2.9451376712799635 8.34351
2.967444008632326 9.46291
2.9897678582247247 9.91972
3.0120918213106695 10.7945
3.0343984987899373 10.8857
3.0567226913198637 11.192
3.079029599759726 11.4036
3.101354025127254 11.8855
3.123678568232338 12.5002
3.145985829517914 12.6794
3.16831061055229 13.4403
3.1906181112775593 13.8764
3.212943133635653 15.145999999999999
3.2352682779763207 15.1302
3.2575761442691227 15.6321
3.2799015350264273 15.7541
3.302209649240067 16.6089
3.3245352898092655 17.0188
3.3468436553365257 16.9072
3.369169549113219 17.8445
3.3914955708171384 18.6564
3.413804319727358 18.9082
3.4361305997334863 19.0613
3.4584396084414553 19.8212
3.4807661501462652 20.6595
3.503092824025881 20.8238
3.5254022288463154 21.2536
3.5477291695206588 21.8586
3.5700388426251948 22.5131
3.5923660534916446 22.5634
3.6146934007816114 22.9048
3.637003482731501 23.3288
3.6593311053109985 23.9611
3.681641464033634 24.1908
3.7039693653009733 24.6221
3.726297407241705 25.1434
3.7486081875460804 25.5465
3.7709365132734978 26.2952
3.793247578841633 26.5272
3.8155761917550093 27.1199
3.8378875459837216 27.0911
3.8602164494827234 27.8433
3.882545499606844 28.5488
3.9048572932539183 29.3451
3.9271866390645718 29.2713
3.9494987298666713 29.9649
3.971828374764527 30.9976
3.9941581705403255 31.4758
4.016470713506008 32.1183
4.038800813471445 32.4255
4.061113662089144 33.3371
4.0834440696459176 33.7757
4.105774632334751 34.04
4.128087945865126 35.1643
4.150418821249301 35.7159
4.172732448931298 36.9113
4.195063640413578 37.6454
4.2173775856475215 38.3481
4.239709096631102 38.4064
4.262040768704612 39.1814
4.284355196706267 39.9497
4.306687193387355 40.6246
4.329001947444346 42.188
4.35133427213731 42.7549
4.373666762177566 43.461000000000006
4.395982011761091 44.2351
4.418314834921175 45.3252
4.44063041906622 46.6558
4.4629635787515625 47.6059
4.4852969080429785 48.513000000000005
4.5076130004776225 50.1608
4.529946671403969 51.8475
4.552263106909177 52.8282
4.574597122877047 54.0136
4.596931312711224 55.0839
4.619248269273446 55.8905
4.6415828092605835 56.7845
4.663900117405352 58.1942
4.686235010953232 60.13
4.708552674085913 61.3041
4.730887924602802 63.2402
4.753223354952695 65.0328
4.775541557023902 66.3077
4.797877349456786 68.0267
4.820195915032126 70.4677
4.842532072957498 71.9391
4.864868414979744 74.263
4.88718753227192 77.0491
4.909524244902505 79.4006
4.931843734218147 82.2049
4.954180820867835 84.6989
4.976518095879839 88.8964
4.998838149695359 92.6474
5.021175803844231 97.2251
5.043496238205739 101.949
5.065834274903528 108.223
5.088172504230693 116.04299999999999
5.1104935158799565 125.652
5.132832132875765 141.856
5.155153533596801 170.56099999999998
5.1774925416746225 284.985
5.199814334878411 891.8389999999999
5.2221537374521505 2246.23
5.244493338631803 3963.99
5.266815727034316 6633.58
5.289155727832427 10610.3
5.311478517248165 9379.93
5.333818921080011 4425.86
5.356159527788849 1055.47
5.3784829252032536 281.568
5.400823940070432 185.808
5.423147747031976 155.547
5.445489173474152 138.274
5.467830807066149 130.039
5.490155234831516 124.318
5.512497285125229 118.588
5.534822130975162 115.958
5.557164601388673 113.25200000000001
5.579489868738879 110.025
5.601832762690846 107.42299999999999
5.6241758697774475 106.15799999999999
5.646501775867269 105.086
5.668845311622074 104.705
5.691171647754637 103.671
5.713515615597765 102.42200000000001
5.735859800852677 101.62899999999999
5.758186788542988 101.147
5.780531411018185 101.868
5.802858837297399 101.415
5.825203900414495 102.178
5.8475491852224 103.74
5.869877275883075 105.398
5.892223006467101 107.484
5.914551544266608 111.146
5.936897724049891 118.98700000000001
5.959244129804903 134.93200000000002
5.981573344815301 197.299
6.0039202049061 447.88300000000004
6.026249875609095 911.7660000000001
6.04859719346037 1428.13
6.070927323278297 2188.68
6.093275102315365 3564.89
6.115623113320588 4577.52
6.137953938319995 3744.46
6.160302415650845 1482.22
6.182633708324452 384.439
6.2049826554078376 153.111
6.227331838745022 111.53
6.249663839443684 97.7483
6.27201349767565 89.991
6.294345974611799 85.616
6.316696111167083 81.4515
6.339046488263839 79.3069
6.361379686074702 76.7994
6.383730546639482 75.0918
6.406064229255215 73.5346
6.428415576718203 72.5404
6.450749747566656 71.1881
6.47310158535871 69.9884
6.495453669698332 69.1325
6.517788579421056 68.2631
6.540141159237969 66.8723
6.562476565766648 66.2076
6.5848296444934045 65.8948
6.607182974060425 64.9508
6.6295191323281015 64.2702
6.651872965955752 63.4273
6.6742096296068985 62.743
6.6965639707294615 62.3622
6.71891856698715 61.6132
6.741255995248479 61.6511
6.763611104154477 60.9936
6.785949046381137 60.4515
6.808304671371482 59.7852
6.8306605557940046 59.7286
6.852999275508618 59.538000000000004
6.875355681171544 59.1555
6.897694923437771 58.8316
6.92005185377892 58.5335
6.9423916220322655 58.2147
6.964749080490181 57.5528
6.987106804399774 57.4664
7.009447368180821 57.434
7.031805625367033 57.3054
7.054146723727803 56.9979
7.076505517631004 56.8078
7.098864581288365 56.9323
7.121206488070854 56.8184
7.143566093607822 56.7201
7.165908543567245 56.6635
7.188268694426048 56.1886
7.2106291193438095 56.0478
7.232972390625943 56.1576
7.255333366030969 55.9111
7.277677189091925 55.4848
7.300038718428332 56.0045
7.322400526130865 55.7764
7.344745183422596 55.9714
7.367107550224791 55.8876
7.389452767901992 56.2466
7.411815697249891 56.2209
7.434161478756298 55.9237
7.456524974096713 55.6484
7.478888753837185 55.8718
7.501235387657368 56.3738
7.523599738562711 56.6329
7.545946944825532 57.5886
7.568311870344528 57.9992
7.5906770845765665 57.3719
7.613025156078678 57.5608
7.635390950099687 57.5734
7.657739602662809 57.4584
7.680105979923558 57.5003
7.702472650212829 58.5805
7.724822180948224 58.2928
7.747189439655568 58.5158
7.769539560075357 58.3535
7.791907410653562 59.1936
7.81425812420825 59.0627
7.836626570110925 59.3057
7.858995315087906 60.2415
7.881346924933401 60.4838
7.903716270417482 61.3828
7.926068482028405 61.4587
7.948438431475253 62.1771
7.9708086843180235 62.7262
7.993161805171116 63.7219
8.015532667162402 64.1542
8.037886398416653 65.2649
8.060257873014221 65.717
8.082629655331942 66.1636
8.104984308787587 66.7487
8.127356708900503 67.9834
8.149711981398308 68.9839
8.172085002766314 70.1912
8.194458336181368 70.9402
8.216814543847752 71.8682
8.23918850371002 73.1797
8.26154533906492 74.5273
8.283919928836452 76.5692
8.306277395339652 77.7014
8.328652618483376 79.6045
8.351028159736202 81.9697
8.373386579575245 84.814
8.395762759396959 87.1015
8.418121819038275 90.8157
8.440498640894003 96.9564
8.462875785192262 110.573
8.485235811156207 160.596
8.507613602688501 291.96299999999997
8.529974277114228 461.465
8.552352719347912 595.7819999999999
8.574731488360351 754.5939999999999
8.59709314210385 1047.3
8.619472567021075 1495.0
8.64183487789147 1955.32
8.664214962183097 1978.0
8.686577933647762 1270.21
8.708958680784317 562.827
8.731339760774953 232.545
8.753703729764451 134.263
8.77608547780821 112.57799999999999
8.798450116065078 106.111
8.820832535634787 101.20100000000001
8.843215292401656 98.3375
8.865580941199045 96.0409
8.887964374703538 94.8019
8.910330701447199 93.3358
8.932714815164482 92.4223
8.955099270424924 91.2424
8.977466620733543 90.4876
8.999851761421976 89.8964
9.022219798361645 88.7048
9.04460562795561 88.898
9.066991803441677 88.2657
9.089360876979615 88.1278
9.111747746589993 87.7972
9.13411751544971 87.3431
9.156505082664324 86.6603
9.178875550323522 87.0025
9.20126381862328 86.8672
9.223652438908596 87.9337
9.246023961427412 88.6256
9.26841328802173 87.9555
9.290785518039224 87.7705
9.313175554425882 88.2615
9.335565947154315 88.3586
9.357939245086508 88.5734
9.380330352834827 88.3661
9.40270436697103 88.4251
9.425096193225055 88.05
9.447488380180165 89.37299999999999
9.469863475295412 89.5862
9.492256385987508 90.001
9.514632206018318 90.5299
9.537025843935714 91.1847
9.559402392368193 91.9608
9.581796761000229 92.9956
9.604191496441521 93.3173
9.626569144158516 94.27600000000001
9.648964615551032 95.0637
9.671343000390081 96.1043
9.693739211225699 96.9453
9.716135793237463 97.8427
9.738515290448102 99.0499
9.760912617143402 100.512
9.783292860202891 101.88
9.805690935076182 103.713
9.828089385495742 104.755
9.850470754023561 107.119
9.872869957865444 109.75399999999999
9.89525208097539 113.14299999999999
9.917652041736662 118.67299999999999
9.940052382417589 135.687
9.962435644102392 195.90900000000002
9.984836746950979 303.952
10.007220771957746 426.658
10.029622640473708 527.116
10.052007432299963 633.294
10.074410069984072 790.693
10.096813093716005 1051.86
10.119199042482517 1426.07
10.141602840636468 1771.25
10.163989564971628 1719.48
10.186394141051062 1190.45
10.208799107559706 594.726
10.231187001965623 267.349
10.253592751657669 153.125
10.275981430388155 126.06200000000001
10.298387966769793 118.855
10.320794897965431 115.995
10.343184759907361 113.249
10.36559248305461 112.084
10.387983138083852 115.196
10.410391656691655 130.732
10.432800574501677 159.703
10.455192425893369 190.343
10.47760214443012 214.627
10.499994797678786 238.628
10.522405320453982 280.026
10.54479877906917 346.358
10.567210109595656 437.834
10.5896218454736 525.846
10.612016518879773 527.513
10.634429067781074 418.923
10.656824555333241 259.432
10.679237920773568 152.04
10.701651695961992 108.195
10.724048411481384 97.0168
10.746463008485165 92.8519
10.768860546937125 90.8776
10.791275969274796 88.6498
10.81369180576079 87.2927
10.836090585366925 85.7241
10.858507252467449 84.2649
10.88090686379991 83.3099
10.903324365036394 82.4482
10.925724811614439 81.0184
10.948143150509463 80.8928
10.970561909719066 79.5784
10.992963615930844 79.061
11.015383218085756 77.8765
11.037785768347074 77.0917
11.06020621697282 76.6261
11.082627090322113 75.8605
11.105030913430326 75.443
11.12745263854165 74.4453
11.149857314510728 73.688
11.172279894912576 74.1724
11.194702904450653 72.8485
11.217108866490921 71.9734
11.239532736615194 71.6468
11.26193956033512 71.4032
11.284364294577085 70.9719
11.306789462371718 70.1619
11.329197585398376 70.2072
11.351623622610898 70.2045
11.37403261614354 69.4674
11.396459526308487 69.2387
11.418869393879497 68.8545
11.441297180532617 68.5316
11.463725406927658 68.256
11.486136592353875 67.7145
11.508565700543707 67.3466
11.530977768845315 67.4094
11.553407762368774 67.1584
11.575838200059769 66.8726
11.598251599479612 66.7809
11.620682927815501 66.4142
11.64309721895548 66.6146
11.665529441478206 66.4443
11.687962112597958 66.1093
11.710377748130886 66.1241
11.732811318753434 66.1914
11.755227854859067 65.7215
11.777662328529495 66.0449
11.800079768750786 65.7985
11.822515149015453 65.5942
11.844950984084935 65.8482
11.867369787303163 65.7168
11.889806534289491 65.6269
11.912226250487029 66.3083
11.934663912939751 66.654
11.9571020346363 66.843
11.979523127133968 67.1291
12.001962169624331 68.8033
12.024384183972964 72.3374
12.046824150809913 80.0956
12.069264581333726 89.0915
12.091687985297767 95.2556
12.11412934550045 100.852
12.136553680195208 108.55799999999999
12.158995973632788 121.116
12.181438735204349 138.031
12.20386447284199 162.888
12.226308172985636 188.61700000000002
12.24873485024193 201.65599999999998
12.271179492516982 184.428
12.293607112949127 146.97899999999998
12.316052700916226 105.135
12.338498763250042 80.727
12.360927805303868 71.2606
12.383374818673879 68.6629
12.405804812803074 67.6503
12.428252780773262 67.744
12.45070122756722 67.6792
12.473132656675375 67.361
12.49558206341869 67.703
12.518014453510101 67.5467
12.540464823770117 67.709
12.562915677315177 67.7094
12.58534951575545 68.2506
12.607801338171472 67.9948
12.630236146511358 68.437
12.652688941369085 68.82600000000001
12.675124723177234 69.134
12.697578494048786 69.5136
12.720032754458185 69.783
12.742470003354093 70.4548
12.764925245138771 70.9617
12.787363476431278 71.4297
12.809819703166806 71.9033
12.83227642391173 72.535
12.854716135692716 73.3747
12.877173846755147 74.6707
12.899614549869717 75.347
12.9220732548287 76.1403
12.94453245827299 76.4307
12.966974655289818 77.7799
12.989434858002571 78.9263
13.011878055298721 79.7704
13.034339260862497 81.1789
13.056800969391883 82.6265
13.079245674017244 86.5353
13.101708390774869 93.1643
13.12415410463411 110.529
13.146617833206086 132.512
13.169064559883248 149.528
13.191529303857127 162.491
13.213994557076367 175.702
13.236442809902437 195.735
13.258909083908291 225.743
13.28135835851934 262.591
13.30382565690295 313.847
13.326293469022952 378.02
13.348744283242008 419.11300000000006
13.371213125129904 392.467
13.39366497011003 315.481
13.416134845360597 218.842
13.438605238843131 153.226
13.46105863690397 130.651
13.483530069144786 134.773
13.505984506951902 145.076
13.528456981549432 155.24
13.550929978879088 162.72299999999998
13.573385983253365 173.713
13.595860028340867 193.636
13.618317081455832 222.013
13.64079217790333 258.652
13.663250283359057 306.974
13.685726434770173 347.631
13.708203115221277 361.356
13.730662806148091 311.863
13.75314054697177 236.16299999999998
13.775601299246777 162.594
13.798080104050406 113.83200000000001
13.820559442405358 93.6572
13.843021793671388 87.9088
13.865502201420897 85.3834
13.887965623051947 84.4494
13.910447103807167 83.1909
13.932929122629764 81.5209
13.955394156785959 81.3068
13.977877254034569 80.4082
14.000343367582113 79.5159
14.022827546871707 78.7383
14.045294743423524 77.8017
14.06778000837062 77.4148
14.090265817715476 77.2194
14.112734645763819 76.5725
14.13522154619454 76.0276
14.157691466286913 75.6795
14.180179461423874 75.4853
14.202668005486178 75.1361
14.22513957064374 74.7221
14.247629214846473 74.4959
14.270101881097517 74.1257
14.29259262906496 73.5507
14.315083930490205 73.6577
14.337558255389705 73.2317
14.360050666019726 73.1553
14.382526101071944 72.7787
14.405019624534942 72.8337
14.427513705993134 72.6536
14.449990813291825 72.6529
14.47248601302899 72.6685
14.49496423954951 72.9728
14.517460561197822 73.0045
14.539939910570322 72.6394
14.562437357763558 72.8674
14.58493536931253 73.0989
14.607416409993311 73.2807
14.62991555254159 73.5013
14.652397725157423 73.8219
14.674898002342799 74.5313
14.697398848433282 74.7978
14.719882725991326 76.7722
14.74238471217934 80.7113
14.764869730765593 88.7061
14.787372860692983 96.0995
14.809876564079925 102.585
14.83236330125751 107.492
14.854868153850365 112.009
14.877356041159485 119.391
14.899862046604186 129.115
14.922351087688757 143.22799999999998
14.944858249632887 160.713
14.967365991421232 183.794
14.989856770231246 206.365
15.012365673994204 221.613
15.03485761569738 209.985
15.05736768508665 176.85299999999998
15.07987833888692 138.399
15.102372032001655 105.334
15.124883856909658 85.47200000000001
15.14737872204565 77.8601
15.169891721717274 75.1613
15.192405310371893 74.4325
15.214901940621196 73.7608
15.237416709527137 72.66
15.259914520936249 72.4621
15.282430473753607 71.7373
15.304947020131227 71.2521
15.327446610371178 70.8997
15.349964346154254 70.5566
15.372465126703139 70.53699999999999
15.394984055556009 70.1524
15.417486030076159 69.9399
15.44000615566487 69.79
15.462526881230803 69.6279
15.485030653812652 69.6672
15.507552581617434 69.4479
15.530057557334603 69.3917
15.55258069104857 69.8336
15.575104429329837 70.1239
15.597611216864632 70.0642
15.620136166564563 71.2889
15.6426441664095 74.6658
15.665170331202765 80.6689
15.687697105158826 86.8242
15.710206930593545 92.2979
15.732734925158933 95.9235
15.755245972089478 98.8604
15.77777519094324 103.76899999999999
15.800287463046663 110.885
15.822817909869592 121.499
15.84534897229804 133.618
15.867863089299354 151.049
15.890395385222186 169.894
15.912910736597423 188.36
15.935444269699861 193.25
15.957978423016485 178.264
15.980495633101265 147.612
16.003031029129367 115.46700000000001
16.02554948280019 88.7826
16.048086125229432 74.2959
16.070623392487107 68.6413
16.09314371869582 66.2343
16.11568223789321 64.9326
16.13820381691126 64.2
16.160743591742527 63.6512
16.183283996022084 63.3802
16.205807461423195 62.4496
16.228349126881973 61.8626
16.25087385432698 61.8022
16.27341678466365 61.217
16.29594277784926 60.7444
16.31848697676433 60.5515
16.341031811604868 59.8301
16.36355971058487 59.8067
16.3861058195587 59.6316
16.40863499352978 59.2377
16.431182380342005 59.1547
16.453730407713202 58.8578
16.476261501364792 58.6459
16.498810812136167 58.2972
16.52134319004079 58.2234
16.54389378792203 58.0569
16.566445031001553 57.9166
16.588979342490088 57.8151
16.61153187824822 57.7982
16.634067483263312 57.6766
16.656621315414416 57.6079
16.679175797408888 57.17
16.701713349928728 57.1034
16.72426913389191 57.3398
16.74680798922351 57.5408
16.76936507887444 57.45399999999999
16.791905240734874 57.407
16.814463639794468 57.4484
16.837022695210294 57.5059
16.859564824093756 57.4828
16.882125194503903 57.4774
16.904668639217885 57.7186
16.927230328348003 57.5998
16.949792678493612 57.9875
16.972338104193863 58.0199
16.994901778652235 57.992
17.017448529496576 58.7046
17.040013531998152 59.5536
17.06257920018044 60.604
17.0851279459922 62.1187
17.107694947817667 63.2091
17.130245028099072 64.2066
17.15281336730298 65.1362
17.17536478578733 65.9569
17.19793446610687 67.1656
17.220504818648422 68.8787
17.243058251703697 70.6253
17.265629950971032 73.6598
17.288184731571736 77.2142
17.310757781306908 81.4804
17.33333150794385 84.5705
17.355888317140174 85.2036
17.37846339986244 83.08
17.401021565958885 77.9347
17.42359800851343 72.2689
17.44617513265564 67.4718
17.468735341390783 64.52
17.491261035594565 62.7129
17.51396340099364 62.3683
17.536490463869136 62.3303
17.559018209820174 62.4218
17.58154663977963 62.4971
17.604251766089718 62.6013
17.626781572227713 62.9696
17.64931206518155 63.044
17.671843245885103 63.1579
17.69455114821572 63.2732
17.717083712612634 63.6877
17.739616967569667 64.17699999999999
17.762150914021706 64.8467
17.78486160749854 65.2099
17.807396945166804 66.3652
17.829932977143503 68.9692
17.85246970436452 72.3806
17.875183204129467 75.6909
17.897721330097664 78.8263
17.920260154126645 81.4431
17.942799677153296 83.0788
17.9655159983646 85.0676
17.988056927677544 88.0779
18.010598558807683 93.0612
18.033140892692916 98.6879
18.05586005052525 105.07600000000001
18.07840379824407 113.935
18.10094825154059 125.49799999999999
18.12366954819864 137.428
18.146215420998306 145.816
18.16876200220057 145.469
18.191309292745153 135.56799999999998
18.214033452627167 120.93799999999999
18.236582170236648 105.39299999999999
18.259131600016456 94.5351
18.281681742907335 89.7779
18.304408781233683 90.1208
18.32696035875955 92.1055
18.349512652227624 96.3855
18.372065662579683 101.936
18.394795594587553 106.46799999999999
18.41735004715306 107.31700000000001
18.43990521943684 102.93299999999999
18.46246111238171 95.4303
18.485193953325208 85.1537
18.507751296070428 76.2074
18.530309362314178 71.005
18.552868153000343 67.7957
18.57560391815056 65.846
18.59816416623245 65.3006
18.620725141597372 64.5494
18.643286845190268 63.9906
18.666025549835414 63.7586
18.688588718427933 62.8834
18.711152618092243 62.8997
18.73389353884365 62.6698
18.75645890921984 62.2087
18.77902501351406 61.8123
18.801591852673102 61.8686
18.824335739722738 61.2579
18.846904057212626 61.0786
18.8694731124168 60.8923
18.89204290628315 60.8366
18.914789774966803 60.6851
18.937361054791623 60.218999999999994
18.959933076131318 59.8923
18.982505839934877 59.9824
19.00525570560582 60.0349
19.027829963004184 59.9495
19.05040496572238 60.258
19.072980714710468 60.7262
19.095733592739563 61.2283
19.11831084296757 61.5898
19.140888842324735 62.306999999999995
19.16346759176222 62.4455
19.18622349753803 62.6481
19.208803755869358 63.0862
19.231384767143577 63.9471
19.253966532312948 64.6566
19.276725481241822 66.0347
19.29930876296784 67.2739
19.3218928014549 69.0402
19.34465404436217 71.1051
19.36723960516257 73.8196
19.389825925592426 76.0443
19.412413006605938 77.4899
19.43517731967805 76.6655
19.457765930683355 73.7538
19.48035530514408 69.3117
19.50294544401556 64.6857
19.525712842708348 60.9809
19.54830451925909 58.9654
19.570896963095727 57.2281
19.593490175174704 56.9532
19.616260674962184 56.8779
19.638855432416964 56.4559
19.661450960992624 56.7342
19.68404726164677 56.5314
19.706820878021247 56.1008
19.729418731756834 56.3719
19.752017360452857 56.3416
19.77461676506804 56.6421
19.797393513540218 57.1637
19.819994478951667 57.6542
19.84259622316767 58.5169
19.8651987471481 58.9694
19.887978643247177 59.152
19.91058273574792 59.3263
19.933187610901943 59.6254
19.955969879466828 60.482
19.97857632894404 61.2184
20.00118356396599 62.3076
20.023791585494575 64.0694
20.046577028914875 66.0632
20.069186632506966 68.3508
20.091797025500632 70.4838
20.114408208858933 72.53399999999999
20.137196842715273 74.0317
20.159809615886765 73.3847
20.18242318232135 71.0044
20.20503754298326 68.3386
20.227829382875154 66.0646
20.250445341109344 64.4931
20.27306209647285 63.8651
20.29567964993108 64.3748
20.31847471147704 65.4718
20.34109387027612 66.7829
20.363713830075454 67.722
20.386334591841646 67.6549
20.409132890679302 65.8186
20.431755265564437 62.9409
20.454378445325528 60.148
20.477002430930366 57.1801
20.499803982716553 55.2804
20.522429589228004 54.0995
20.54505600449589 53.4854
20.567683229489194 53.3367
20.590488049900088 52.9723
20.61311690359731 52.8207
20.63574656993626 52.7107
20.658553853717297 52.3178
20.681185154618298 52.1731
20.703817271080066 52.1282
20.72645020407368 51.7219
20.749260783967177 51.6123
20.771895359337133 51.5688
20.794530754161617 51.535
20.817166969412938 51.2742
20.83998086114876 51.5028
20.86261872660049 51.2407
20.885257415405402 51.2682
20.90789692853701 51.3923
20.930714147864748 51.3875
20.953355319030678 51.5091
20.97599731745334 51.5695
20.99864014410749 51.3346
21.021460706796564 51.5306
21.044105199328826 51.4428
21.06675052302631 51.6793
21.089396678865015 51.8026
21.112220600704806 51.8418
21.134868430275347 52.0951
21.15751709492456 52.2291
21.180166595629693 52.4143
21.202993892429635 52.5689
21.22564507473034 53.0905
21.24829709602816 53.5643
21.27112693608965 54.0015
21.293780644891275 54.2122
21.316435195634053 53.7912
21.339090589297417 53.0694
21.361923832041875 52.6095
21.384580921090404 51.7661
21.407238856007325 51.2276
21.429897637773326 51.0814
21.45273429906592 51.0474
21.475394784108598 51.1143
21.498056118951983 50.8905
21.520718304578022 51.2553
21.543558400304388 51.4439
21.566222297108816 51.818000000000005
21.58888704765135 52.3908
21.61155265291521 52.9878
21.63439619898156 53.693999999999996
21.657063523335786 53.8708
21.67973170537063 54.0744
21.7024007460706 54.5239
21.72524775840385 54.9338
21.747918526116475 55.6316
21.770590155457388 56.3307
21.79326264741238 57.483999999999995
21.816113141960237 58.6565
21.838787368860547 60.0225
21.861462461341976 61.5745
21.884315579735777 63.3721
21.90699241312273 65.1206
21.92967011506078 66.68
21.95234868653799 67.4934
21.9752053151131 67.0781
21.997885635446785 65.691
22.020566828293532 63.4112
22.04324889464272 61.1079
22.066109049404666 59.1162
22.088792872571794 57.8954
22.111477572219204 57.8076
22.1341631493376 57.9376
22.157026846313123 58.4538
22.179714188221507 58.338
22.202402410582668 57.7206
22.22509151438863 56.3573
22.24795876962584 54.92100000000001
22.270649646204486 53.8153
22.293341407213727 52.7926
22.316034053646906 52.229
22.338904883215342 51.6878
22.36159931041458 51.4136
22.38429462602756 51.0998
22.40699083104897 51.1194
22.429865251039757 50.9324
22.452563244831367 51.059
22.47526213102522 51.2201
22.49813925616515 51.2516
22.520839937143307 51.0185
22.543541513520587 51.2772
22.56624398629403 51.1817
22.589124730075895 51.1233
22.611829005656723 51.6018
22.63453418063466 51.7358
22.657240256008077 52.0872
22.680124634582935 52.2452
22.70283252079775 52.7538
22.725541310413075 53.1099
22.74825100442868 52.966
22.771139033969575 53.216
22.79385054687155 53.2172
22.81656296718292 53.6519
22.83927629590484 54.2466
22.862167992606945 54.8158
22.88488314827121 55.5114
22.907599215359284 56.2058
22.93031619487366 56.9659
22.953211574954405 57.9841
22.975930389478226 58.9944
22.998650119445763 59.9251
23.02137076586092 60.0324
23.044269845560063 59.8293
23.06699233506288 58.3772
23.089715744034912 56.4106
23.112617610931565 54.6387
23.135342869061212 53.2726
23.158069049684816 52.2203
23.1807961538087 51.547
23.20370174880544 51.6597
23.226430710184808 51.8485
23.249160598093425 52.0029
23.271891413539002 52.0956
23.294800752937697 52.2088
23.31753343374794 52.5379
23.340267045128353 52.4054
23.36300158808808 52.5513
23.38591468821339 52.8256
23.408651104658304 53.0597
23.431388455719986 53.2911
23.454126742409 53.5774
23.4770436196085 54.2819
23.499783787914662 55.0623
23.522524894889884 55.4187
23.54526694154616 56.3486
23.56818761219047 57.6023
23.59093154860734 58.3841
23.613676427751283 59.5157
23.636422250635754 59.7823
23.659346731118656 59.1807
23.68209445191868 57.6534
23.704843119509587 55.678999999999995
23.72759273490623 53.523
23.750521041644767 51.6301
23.77327256312355 50.2046
23.796025035462787 49.2537
23.818956224555475 48.6281
23.841710609113413 48.5362
23.86446594758979 48.1405
23.887222241002014 47.9879
23.910157285144578 47.5972
23.932915498962537 47.6681
23.955674670778713 47.4937
23.978434801611975 47.2091
24.001373717286125 47.0637
24.024135776723917 46.9805
24.046898798245582 46.9201
24.06966278287146 46.7248
24.092605586582614 46.5624
24.115371508023642 46.4052
24.1381383956401 46.2779
24.16090625045381 46.2607
24.183852958731244 45.9796
24.206622758582608 46.0052
24.229393528706886 45.798
24.252165270127392 45.7795
24.27511589952438 45.7638
24.297889594216997 45.6338
24.32066426328598 45.4041
24.34343990775613 45.393
24.36639447485003 45.3037
24.38917208083877 45.2068
24.41195066531332 45.1998
24.43490819850244 45.343999999999994
24.457688750692377 45.1336
24.48047028445616 45.0317
24.503252800821233 45.1398
24.526214300784112 45.2058
24.548998793132213 45.2512
24.57178427117417 44.9537
24.59457073593893 45.1583
24.617536219319863 45.0253
24.64032466834748 44.9898
24.663114107195035 44.9511
24.685904536893013 44.7207
24.708874020360852 44.6866
24.731666442613744 44.5951
24.754459858818787 44.4366
24.777254270007962 44.4853
24.80022777025625 44.4257
24.82302418230472 44.5272
24.845821592443674 44.6171
24.86862000170663 44.591
24.891597535453727 44.4411
24.914397953892728 44.7
24.93719937456671 44.525
24.96000179851076 44.7155
24.98298338249997 44.8384
25.00578782394922 45.1446
25.028593271784167 45.0928
25.05157790644186 45.4845
25.07438537804115 45.5195
25.097193859145293 45.6438
25.120003350792075 45.7187
25.142992065061257 46.0778
25.165803588823465 46.1982
25.18861612625217 46.6262
25.211429678386736 46.7914
25.234422489079968 46.7696
25.257238081693636 46.7908
25.280054692141732 46.7481
25.3028723214652 46.5022
25.325869245420463 46.5917
25.348688923599397 46.695
25.371509623787006 46.695
25.394331347025812 46.5973
25.41733240110666 46.6622
25.440156181590016 46.0433
25.46298098826268 45.4765
25.48580682216873 44.9165
25.50881202326435 44.2839
25.53163992281684 43.7127
25.55446885274561 43.423
25.577298814096377 42.9979
25.600308179121807 42.928999999999995
25.623140214533745 43.1645
25.64597328451537 42.8132
25.66898578564376 42.6423
25.691820936010206 42.7501
25.714657124097695 42.7357
25.737494350954734 42.7393
25.760511045684957 42.623000000000005
25.783350361364224 42.7072
25.806190718969255 42.7269
25.82903211955018 42.7132
25.852053024868923 42.5939
25.874896522722523 42.7358
25.897741066713106 42.5256
25.920586657892454 42.5753
25.943611790812668 42.7452
25.966459487728237 42.9086
25.989308234998564 42.8089
26.01215803367705 43.1116
26.03518741123814 43.2549
26.05803932412957 43.2001
26.080892291600094 43.3581
26.10374631470478 43.5676
26.12677995397268 43.6837
26.14963609978026 43.8006
26.172493304397875 43.5416
26.19535156888223 43.5117
26.218389486949604 43.122
26.241249882640123 42.9286
26.26411134137826 42.6854
26.28715248187403 42.4323
26.31001607820869 42.3111
26.3328807407756 42.1635
26.35574647063438 42.2929
26.37879191991473 42.2849
26.401659795896734 42.2452
26.424528742360263 42.4308
26.447398760366614 42.4702
26.470448535598294 42.5479
26.49332070826805 42.6216
26.516193955675355 42.8772
26.53906827888316 42.9714
26.562122397260108 43.1051
26.584998883685063 43.2822
26.607876449110325 43.4406
26.63075509460056 43.805
26.65381357334404 43.9726
26.67669439061878 44.1494
26.699576291163382 44.2423
26.722459276044212 44.1109
26.745522132402975 43.8775
26.768407297649354 43.6009
26.791293550442003 43.0743
26.814180891848974 42.7674
26.837248143099337 42.4396
26.860137673466657 42.4378
26.88302829566349 42.178999999999995
26.90592001075963 42.1109
26.92899167420566 41.9761
26.951885586870763 41.5888
26.974780595655517 41.5072
26.99785558178161 41.3542
27.020752794605112 41.1637
27.043651106772522 40.9458
27.06655051935668 40.8632
27.089629948036183 40.8808
27.112531573292053 40.7709
27.135434302194138 40.7602
27.158338135817015 40.4622
27.181422024430987 40.5917
27.204328079372566 40.4257
27.22723524226965 40.5525
27.250143514198573 40.6643
27.273231880156334 40.5653
27.296142382065014 40.3913
27.319053996245536 40.2705
27.341966723775965 40.3527
27.365059584515222 40.3508
27.38797455070062 40.4864
27.410890633481237 40.3802
27.433807833936918 40.2078
27.456905206923906 40.3121
27.47982465472398 40.3231
27.502745223449743 40.2765
27.525666914182825 40.4334
27.548768816912457 40.4068
27.571692763693633 40.4948
27.59461783573812 40.3748
27.617723149491244 40.2539
27.640650484125285 40.275
27.66357894728264 40.2262
27.686508540048052 40.2452
27.709618414237887 40.1187
27.732550278321757 39.9233
27.755483275279115 39.8698
27.778417406196485 39.8896
27.801531858397514 39.8543
27.824468269376716 39.7268
27.847405817586786 39.8058
27.870344504116094 39.9625
27.893463551932008 39.9028
27.916404527281053 39.9809
27.93934664422563 40.1363
27.962289903855886 39.9954
27.98541356491974 40.1675
28.00835912214229 40.1821
28.03130582533231 40.4997
28.054253675581805 40.6664
28.077381967556104 40.7246
28.100332124185126 40.8282
28.123283431160893 40.87
28.146235889577238 40.7159
28.169368830154156 40.5359
28.192323603752033 40.4734
28.215279532083304 40.0784
28.238415973016764 39.8409
28.261374223145094 39.7128
28.284333631303806 39.3886
28.307294198589954 39.3683
28.330435319167677 39.0275
28.353398217078915 38.8176
28.376362277420153 38.6017
28.39932750129032 38.4967
28.422473319286713 38.2752
28.44544088262495 38.2469
28.468409612800283 38.0145
28.491379510913497 37.8858
28.51453004413313 37.7663
28.53750229057244 37.7109
28.56047570826344 37.5097
28.583450298308804 37.6944
28.606605564586562 37.4816
28.629582511831156 37.4956
28.65256063474956 37.3691
28.675539934446338 37.4321
28.698699951647605 37.3305
28.72168161743193 37.2695
28.74466446331978 37.1815
28.767648490417624 37.0925
28.790813276438353 37.2383
28.813799678527303 37.1015
28.836787265157085 37.1319
28.859955641890075 37.138000000000005
28.882945610203045 37.097
28.905936766392035 36.955999999999996
28.928929111566863 37.114000000000004
28.952102288520145 36.9864
28.975097024308607 36.9814
28.998092952423807 36.9174
29.021090073977508 36.8192
29.04426806913204 36.6869
29.067267590245258 36.4876
29.090268308143695 36.3678
29.11327022394099 36.266999999999996
29.13645305530891 36.1317
29.159457379627167 36.1199
29.18246290519685 36.0637
29.20546963313352 36.1511
29.22865731875826 36.0128
29.25166646419296 35.9454
29.27467681535305 35.7522
29.29768837335608 35.9273
29.320880931312562 35.7795
29.34389491580634 35.8194
29.366910110507334 35.7978
29.38992651653503 35.8761
29.41312396492981 35.827
29.436142806456754 35.9095
29.45916286268059 35.7419
29.48236399319994 35.6752
29.50538649169417 35.4967
29.528410208259935 35.3486
29.55143514402014 35.162
29.574641196749695 35.0511
29.597668583816574 35.0666
29.6206971934585 34.8368
29.64372702680042 34.8473
29.666938019934474 34.7328
29.689970313635285 34.6791
29.713003834422636 34.6565
29.73603858342347 34.5608
29.759254535188578 34.4327
29.78229175361658 34.4248
29.80533020365064 34.531
29.82836988641968 34.5428
29.85159081507472 34.3612
29.874632976355343 34.3129
29.89767637376955 34.3637
29.920721008448314 34.1803
29.9439469322847 34.2266
29.96699405457564 34.1322
29.9900424175358 34.2459
30.013092022298157 34.2606
30.03632295963995 34.0248
30.059375061131373 34.0068
30.08242840783577 34.1281
30.105483000888153 34.0755
30.128718970092244 33.9822
30.151776069006917 33.9083
30.17483441768648 34.0543
30.198074175317235 34.0129
30.221135036724256 34.0134
30.24419715131772 33.879
30.267260520236203 33.876
30.290505341942243 33.9174
30.313571232750228 33.9265
30.336638381310948 34.0042
30.35970678876503 33.8519
30.38295669299435 33.8915
30.40602763151657 33.8531
30.429099832366074 33.7767
30.452173296685572 33.6485
30.47542830191959 33.6729
30.498504306502497 33.6077
30.521581577995562 33.7522
30.544660117543582 33.7395
30.56792024229725 33.6854
30.59100133132069 33.5953
30.614083691845494 33.6742
30.637167325018545 33.7531
30.660432587840603 33.7501
30.683518779717886 33.7427
30.70660624769615 33.8048
30.729694992924372 33.6307
30.75296541239743 33.7392
30.77605672557558 33.7913
30.799149319462742 33.7157
30.8224236211637 33.5187
30.845518789950724 33.4701
30.868615242910597 33.448
30.891712981195973 33.2889
30.91499247215866 33.2812
30.938092794619365 33.1371
30.96119440587579 33.0743
30.984297307082752 33.0509
31.00758200598383 32.9347
31.030687500658694 32.8034
31.053794288760695 32.7581
31.076902371446767 32.5906
31.100192296997445 32.7338
31.12330298246119 32.5862
31.14641496599209 32.5975
31.169528248749216 32.5868
31.19282341969534 32.4533
31.215939314557186 32.5483
31.239056512134788 32.6178
31.262175013589378 32.459
31.28547544871168 32.4159
31.30859657161541 32.3661
31.331719001892175 32.4052
31.35484274070538 32.4845
31.378148458819545 32.4296
31.401274828443725 32.3493
31.424402510106933 32.4528
31.447712205419993 32.39
31.470842524931633 32.311
31.493974159989783 32.3542
31.51710711176168 32.3301
31.54042212308802 32.3017
31.563557722100917 32.2773
31.586694641341655 32.147
31.609832881979628 32.1345
31.63315322823208 32.012
31.656294125521327 31.9053
31.679436347728515 31.8347
31.70257989602529 31.8611
31.725905596152327 31.7556
31.74905181052835 31.5151
31.772199354521323 31.5766
31.79534822930507 31.5944
31.818679302290967 31.5675
31.84183085259981 31.5565
31.864983737233473 31.5316
31.88813795736804 31.5749
31.911474422233013 31.4161
31.934631327356435 31.5315
31.9577895715215 31.4346
31.980949155906522 31.4895
32.004291031706956 31.5289
32.027453310562606 31.3579
32.05061693318573 31.206999999999997
32.07396288236386 31.3254
32.09712920658542 31.2441
32.12029687812702 31.0982
32.14346589817093 31.1279
32.166817291729984 30.9384
32.18998902288583 30.8623
32.21316210610336 30.8463
32.23633654256711 30.664
32.259693399663725 30.736
32.282870556771144 30.680999999999997
32.30604907069099 30.6386
32.329228942610065 30.6243
32.35259128243769 30.3543
32.375773884550505 30.3151
32.398957848235646 30.3375
32.422143174682176 30.2856
32.445511016471215 30.1941
32.468699082679954 30.1527
32.49188851523011 30.1708
32.51507931531304 30.0907
32.538452678331 30.0479
32.56164622776311 29.8955
32.58484114831493 29.8949
32.60803744118015 29.9721
32.631416344731896 29.9484
32.654615396551876 29.96
32.67781582427913 29.8467
32.701198898634416 29.7482
32.72440209253756 29.6131
32.747606665947124 29.6539
32.77081262006088 29.5664
32.79420126883317 29.5521
32.81740999876112 29.5977
32.840620112999424 29.5519
32.86383161274818 29.4725
32.88722585534586 29.4924
32.91044014056596 29.4791
32.933655814909734 29.4108
32.95687287957963 29.3549
32.98027273544904 29.2824
33.00349259526636 29.1748
33.026713849030116 29.2671
33.04993649794511 29.1951
33.073341986570746 29.1372
33.09656744032826 29.1524
33.11979429286444 29.083000000000002
33.14302254538647 29.1205
33.166433686291185 29.1499
33.18966475336992 29.0716
33.212897224069096 28.8621
33.23613109959831 28.9591
33.259547912343415 28.9518
33.2827846121627 29.0635
33.306022720453775 28.7619
33.32926223842861 28.6925
33.352684742614166 28.7877
33.37592709463173 28.730999999999998
33.399170859982064 28.6466
33.422597648419426 28.5828
33.44584425514446 28.4664
33.46909227885668 28.5058
33.4923417207723 28.3804
33.51577423505344 28.4019
33.539026528130385 28.2924
33.56228024307245 28.2286
33.585535381098246 28.0611
33.60897364093058 28.0439
33.63223163992385 28.0941
33.6554910656699 28.0341
33.678751919389796 28.0175
33.702195944520106 27.9136
33.72545966903325 27.8788
33.74872482519663 27.8194
33.771991414233746 27.8305
33.79544122444841 27.7693
33.81871069412428 27.631
33.84198160035767 27.7023
33.86525394437455 27.6792
33.88870955949969 27.6006
33.911984794020626 27.5372
33.93526147001624 27.4974
33.958539588715006 27.539
33.98200102861669 27.3989
34.0052820477047 27.3183
34.02856451319451 27.3364
34.05203033759056 27.3712
34.07531571090147 27.2764
34.09860253431845 27.3199
34.121890809074316 27.2011
34.145362493118924 27.2039
34.16865368561615 27.1813
34.191946333164054 27.0936
34.21524043699793 27.0242
34.23871800066799 27.0272
34.26201503218366 26.8664
34.28531352370466 26.9473
34.30861347646881 26.8035
34.33209693978188 26.7993
34.3553998301885 26.747
34.378704185565205 26.6545
34.402010007152356 26.6289
34.42549939016683 26.5794
34.44880815937748 26.5551
34.472118398533134 26.5227
34.49543010887669 26.5709
34.51892543169198 26.3321
34.54224009966052 26.3761
34.56555624255917 26.3705
34.58887386163339 26.2464
34.61237514439016 26.1818
34.6356957311114 26.1948
34.65901779775809 26.2023
34.68252356662995 26.1382
34.705848608458616 26.1222
34.72917513396849 26.0474
34.75250314440949 26.0346
34.77601490857862 25.9672
34.799345904259795 25.9119
34.82267838863559 25.9173
34.846012362958525 25.8485
34.869530142679984 25.8326
34.89286711232212 25.8226
34.91620557568269 25.8215
34.93954553401677 25.8147
34.9630693495876 25.6798
34.986412313340814 25.7069
35.00975677584668 25.695999999999998
35.033102738362956 25.5985
35.05663261012228 25.4995
35.0799815881786 25.5417
35.10333207003229 25.4729
35.12668405694369 25.5012
35.150220005273056 25.4165
35.17357501786656 25.4263
35.19693153931268 25.3966
35.220289570874385 25.2575
35.24383161619786 25.3058
35.267192683604904 25.3047
35.290555264930376 25.2581
35.314101899412165 25.2642
35.33746752422433 25.2322
35.36083466676374 25.1927
35.38420332829803 25.182
35.407756095629054 25.1604
35.43112781085063 25.1281
35.45450104888391 25.0442
35.477875810999194 25.089000000000002
35.50143473172161 25.0074
35.52481255774625 25.1271
35.54819191167777 24.9549
35.57157279478914 24.994
35.595137889488406 24.8877
35.61852184675279 24.8931
35.641907337029984 24.8019
35.665294361595684 24.729
35.68886565090076 24.7206
35.7122557598848 24.6859
35.73564740699838 24.6191
35.759040593519934 24.6489
35.78261809810353 24.5847
35.80601437933051 24.5489
35.829412203814705 24.4405
35.85281157283719 24.4272
35.876395313415884 24.416
35.8997977874528 24.3465
35.92320180988546 24.2896
35.946790244133936 24.2963
35.97019737933222 24.171
35.993606066789866 24.2342
36.01701630779276 24.2352
36.04061101440684 24.2081
36.06402437852291 24.1929
36.08743930005611 24.1668
36.1108557802951 24.017
36.13445678011326 23.9686
36.15787639383515 23.9543
36.18129757014299 23.9264
36.20472031032821 23.9045
36.22832762423364 23.8135
36.25175350829375 23.8125
36.275180960119776 23.7577
36.298609981005924 23.7688
36.32222362992669 23.7764
36.34565580510207 23.7174
36.36908955323448 23.6994
36.39252487562093 23.5069
36.416144880530226 23.5091
36.43958336764275 23.474
36.463023432914625 23.4944
36.486465077645676 23.448
36.51009145956204 23.4872
36.53353627947859 23.4228
36.55698268276811 23.4308
36.58043067073321 23.3528
36.60406345072071 23.2984
36.62751462435344 23.2725
36.65096738658405 23.2149
36.67460498210655 23.287
36.69806093788647 23.2096
36.72151848619297 23.1419
36.744977628333636 23.1084
36.76862165890998 23.0565
36.79208400512205 23.0828
36.81554794910557 23.0186
36.83901349217101 22.9156
36.862663978991606 22.9397
36.88613273667352 22.9155
36.90960309738324 22.8745
36.933075062434064 22.8628
36.95673202673572 22.8012
36.98020721697122 22.7191
37.003684015502365 22.5992
37.027162423645365 22.5981
37.050825886711465 22.6204
37.07430753063053 22.5265
37.09779078812467 22.4966
37.121275660513014 22.5182
37.144945643673694 22.4837
37.16843376245278 22.5126
37.19192350009803 22.4215
37.215414857931435 22.3525
37.239091382563885 22.3227
37.262585997426164 22.3201
37.28608223645736 22.3179
37.309763684451696 22.1931
37.33326318851098 22.1734
37.356764320726555 22.1852
37.380267082425526 22.194000000000003
37.40395510942588 22.1073
37.42746114683234 22.0539
37.45096881771841 22.0517
37.474478123414166 21.9962
37.49817275092816 21.9226
37.52168534303452 21.9022
37.54519957395567 21.8441
37.568715445024665 21.8873
37.592416694607714 21.8995
37.61593586281424 21.851
37.63945667518264 21.849
37.66297913304891 21.7299
37.68668702630454 21.7648
37.710212792059274 21.6268
37.733740207334854 21.5783
37.757269273470364 21.6051
37.780983832050374 21.5559
37.80451621684926 21.5146
37.82805025654007 21.5242
37.851585952464795 21.4404
37.8753071980695 21.3744
37.89884622345676 21.3127
37.92238690911902 21.2804
37.94611318753442 21.3022
37.969657210779765 21.2631
37.99320289834801 21.3057
38.016750251586465 21.1645
38.04048325513017 21.1416
38.06403395679343 21.191
38.087586328183946 21.055
38.11114037065203 21.043000000000003
38.13488012115898 21.0932
38.1584375229181 20.9798
38.181996599821 20.9111
38.205557353221124 20.9014
38.229303872575656 20.8425
38.2528679961576 20.898000000000003
38.27643380031219 20.8012
38.30000128639589 20.7655
38.32375459653193 20.8137
38.34732546371299 20.785
38.37089801690786 20.7144
38.39447225747609 20.6405
38.418232380377425 20.6193
38.441810012983396 20.66
38.46538933705673 20.4853
38.488970353960084 20.5278
38.51273731166058 20.5622
38.536321731567014 20.4979
38.55990784840681 20.4371
38.58367995004091 20.3788
38.60726947812959 20.3154
38.63086070726198 20.3557
38.654453638806274 20.3383
38.678232613930824 20.2693
38.70182896773327 20.1722
38.72542702806741 20.1476
38.7490267963045 20.1771
38.77281266709232 20.1849
38.79641586862214 20.0949
38.8200207821842 20.0497
38.843627409152944 20.0214
38.86742019782782 20.023
38.891030269149255 19.9376
38.914642058016156 19.9974
38.938255565806124 19.9423
38.96205529464307 19.8637
38.98567225787121 19.8583
39.00929094417078 19.8665
39.03291135492255 19.8366
39.05671804624804 19.774
39.080341923549106 19.6925
39.103967529460334 19.6756
39.127594865365744 19.6056
39.15140854155791 19.5753
39.17503935514948 19.5846
39.19867190290282 19.5633
39.22249083587951 19.61
39.24612686969409 19.5615
39.269764641845306 19.5317
39.293404153722804 19.4948
39.317230110864074 19.3986
39.34087311998506 19.3884
39.36451787301696 19.3732
39.388164371352595 19.2953
39.41199737518003 19.2214
39.43564738196752 19.2706
39.45929913825317 19.2355
39.48295264543308 19.254
39.506792718520884 19.1491
39.530449745387216 19.1255
39.55410852735203 19.0966
39.57776906581474 19.1131
39.60161623079 19.0293
39.625280300200025 19.025
39.64894613032202 19.034000000000002
39.67261372255866 19.0085
39.6964680021016 18.9348
39.72013913657293 18.8985
39.74381203738292 18.8569
39.76748670593756 18.8152
39.79134812278169 18.8496
39.81502634488497 18.8088
39.83870633896685 18.7138
39.862388106436654 18.7377
39.88625668336918 18.7063
39.90994201572829 18.6908
39.933629125719285 18.5898
39.957503091207826 18.5938
39.9811937746168 18.6279
40.00488623990914 18.5401
40.02858048850006 18.5794
40.05246165409549 18.4914
40.076159487492085 18.371
40.099859108448875 18.4611
40.123560518384345 18.371
40.1474489070226 18.355
40.171153913178564 18.2601
40.194860712584955 18.2425
40.2185693066637 18.2702
40.242464941335314 18.2376
40.26617714307655 18.2496
40.289891143772046 18.2071
40.3136069448471 18.1387
40.33750984859743 18.1041
40.3612292688043 18.0931
40.3849504936829 18.0417
40.40867352466194 18.0673
40.43258372059144 18.0054
40.45631038219906 17.9827
40.48003885420956 17.9368
40.503769138055105 17.9369
40.52768664931955 17.9129
40.55142057531802 17.901
40.57515631746428 17.9017
40.599079334038514 17.8194
40.62281872700477 17.727999999999998
40.64655994043941 17.7416
40.67030297578061 17.6914
40.69423334835778 17.7226
40.71798004609188 17.666
40.74172857006355 17.6545
40.76547892171441 17.6333
40.7894166736039 17.6111
40.813170699248566 17.5423
40.83692655691388 17.5182
40.86068424804498 17.5319
40.884629402612525 17.4949
40.908390779366385 17.5111
40.932153993938 17.4059
40.95591904777605 17.4315
40.979871628443995 17.375999999999998
41.003640379561936 17.4136
41.02741097430883 17.346
41.05118341413683 17.345
41.075143444384416 17.2826
41.098919593177826 17.2306
41.1226975914255 17.2125
41.14647744058318 17.1695
41.170444943946755 17.1181
41.19422851378379 17.1229
41.218013938914645 17.1117
41.24198706625173 17.0097
41.26577622087193 17.0157
41.289567235177785 16.9951
41.31336011063129 16.9831
41.337340752422875 16.9658
41.361137369129835 16.9314
41.38493585138705 16.8894
41.40873620066004 16.8424
41.43272438060107 16.813
41.45652848292052 16.7199
41.48033445666918 16.7713
41.50414230331616 16.7005
41.528138045159764 16.7023
41.551949656675205 16.6893
41.575763145513235 16.6063
41.59957851314666 16.5979
41.62358184070442 16.5693
41.64740098505737 16.5812
41.6712220126409 16.5357
41.69504492493139 16.5376
41.71905586207357 16.4444
41.74288256296395 16.4671
41.766711153007456 16.4482
41.79054163368412 16.3858
41.814560204340054 16.3935
41.838394485526365 16.3799
41.86223066180303 16.2729
41.88625497706819 16.2891
41.910094962812 16.282
41.93393684811168 16.2687
41.95778063445365 16.2065
41.981812625263366 16.1852
42.00566023303407 16.1277
42.029509746323676 16.1348
42.05336116662236 16.1194
42.077400857069705 16.0714
42.10125611078846 16.0509
42.12511327600405 16.0061
42.14897235421036 16.0319
42.173019768448455 16.0184
42.19688269209613 15.9454
42.22074753323349 15.9278
42.24461429335818 15.8812
42.268669455600495 15.8337
42.292540073217886 15.8664
42.31641261433284 15.804
42.34028708044675 15.7841
42.36435001496739 15.7354
42.38822835065557 15.764000000000001
42.41210861586426 15.7193
42.4359908120986 15.7139
42.46006154323262 15.6999
42.48394762115317 15.5909
42.507835634632315 15.6419
42.531912233047436 15.6085
42.55580413732265 15.5466
42.579697981698 15.5232
42.60359376768525 15.5079
42.62767820545945 15.4488
42.65157789440821 15.4694
42.67547952952185 15.4448
42.699383112316 15.3731
42.72347541395347 15.3463
42.74738291190531 15.3398
42.771292362102166 15.3308
42.795203766063516 15.2962
42.819303956130405 15.2907
42.843219287476536 15.2613
42.86713657716324 15.1747
42.89105582671383 15.17
42.91516392983864 15.1847
42.939087119032166 15.1142
42.963012272677304 15.0918
42.98693939230129 15.0819
43.01105543317513 15.050999999999998
43.034986504731386 15.0218
43.05891954686589 14.9662
43.08285456110972 14.9849
43.10697856448665 14.9172
43.130917542983475 14.8826
43.15485849820081 14.8923
43.17880143167367 14.827
43.20293342237094 14.800999999999998
43.226880332449 14.7933
43.25082922540554 14.7868
43.27496722682525 14.8012
43.29892010567796 14.7323
43.32287497204102 14.7666
43.34683182745632 14.6761
43.370977859791836 14.6175
43.39493871351105 14.6146
43.41890156092628 14.6786
43.44286640358341 14.6462
43.46702049182749 14.5896
43.49098934522816 14.5536
43.51496019852649 14.5198
43.5389330532723 14.4921
43.56309522248204 14.4543
43.58707210044314 14.4321
43.61105098451946 14.3855
43.63503187626491 14.3727
43.659202151562134 14.3715
43.68318707902681 14.3423
43.70717401884041 14.3538
43.731162972560874 14.2748
43.75534137913236 14.2247
43.779334381108384 14.2264
43.803329401683186 14.1946
43.82732644241872 14.1952
43.8515130055166 14.2118
43.87551410707659 14.0895
43.89951723350145 14.1406
43.923709934595614 14.085
43.94771713129917 14.1147
43.97172635758096 14.0552
43.99573761501002 13.9914
44.0199385169922 13.9689
44.04395385732619 14.0115
44.067971233533086 14.0208
44.09199064718605 13.9598
44.11619977548961 13.9101
44.14022328470671 13.8796
44.16424883610785 13.8348
44.18827643127035 13.8226
44.21249381139513 13.7599
44.236525514814076 13.7878
44.26055926674478 13.8087
44.28459506876863 13.7815
44.3088207262813 13.699000000000002
44.33286064928722 13.6831
44.35690262714919 13.5992
44.38094666145278 13.5602
44.4051806219871 13.6207
44.42922879003185 13.6101
44.45327901929361 13.5167
44.477331311362136 13.5243
44.501573600619416 13.4933
44.525630039221795 13.4312
44.54968854541895 13.4832
44.573937102200176 13.4766
44.5979997645541 13.4239
44.622064499300315 13.366
44.64613130803592 13.3325
44.67038823869318 13.3749
44.69445921643748 13.3204
44.718532272981385 13.3054
44.742607409926194 13.2466
44.76687274034801 13.2583
44.79095205918753 13.2287
44.81503346325094 13.2097
44.839116954143876 13.1604
44.86339071028742 13.1287
44.88747839599524 13.1236
44.91156817336837 13.0975
44.93566004401666 13.0945
44.959942251908146 13.043
44.984038330325966 13.0842
45.00813650686762 13.008
45.03223678314731 13.0041
45.05652746888232 12.9311
45.08063196592069 12.9177
45.104738567558705 12.9632
45.128847275414856 12.9327
45.15314646515866 12.853
45.17725940679741 12.9128
45.20137445952892 12.8279
45.22568004865265 12.7939
45.24979934496396 12.7845
45.27392075725247 12.752
45.29804428714431 12.7663
45.322358426247604 12.7091
45.346486212804315 12.6833
45.370616121861914 12.6846
45.39474815505086 12.672
45.41907087049246 12.6219
45.4432071734666 12.6214
45.46734560548283 12.5625
45.49148616817604 12.5487
45.51581748638564 12.5382
45.5399623320197 12.5246
45.56410931325473 12.4799
45.58825843173002 12.5035
45.61259837920865 12.4486
45.636751793816 12.4281
45.66090735060093 12.3584
45.68506505120716 12.3804
45.7094136545275 12.3541
45.73357566449271 12.3419
45.75773982322992 12.3195
45.78190613238733 12.2834
45.806263418194064 12.2557
45.83043404997326 12.2848
45.85460683713677 12.2488
45.87897065658495 12.2132
45.90314777634752 12.1519
45.92732705646868 12.1664
45.9515084986045 12.1551
45.97588104735473 12.1398
46.00006683541565 12.1049
46.02425479047904 12.0636
46.04844491420549 12.0709
46.0728262191024 12.0362
46.09702070211635 12.0507
46.12121735879483 11.9935
46.14541619080294 11.9335
46.169806278764455 11.9435
46.194009483459034 11.9465
46.21821486849841 11.9066
46.24242243555223 11.8478
46.266821333570014 11.8559
46.29103328674601 11.8827
46.31524742696538 11.8816
46.33946375590237 11.7741
46.36387149104216 11.7838
46.38809221957392 11.7566
46.41231514186606 11.7527
46.436540259597464 11.7547
46.460956858999374 11.6945
46.48518638983522 11.6688
46.509418121166966 11.6213
46.533652054678114 11.6049
46.55807754555709 11.5954
46.58231590571962 11.6058
46.60655647313217 11.5609
46.630988654873654 11.5497
46.655233659129024 11.5145
46.67948087571551 11.5178
46.70373030632484 11.5018
46.72817142736393 11.4873
46.752425308428684 11.4901
46.77668140861147 11.4693
46.80093972960865 11.3772
46.82538981736788 11.3254
46.849652602470904 11.3479
46.87391761349769 11.3067
46.8981848521493 11.3145
46.9226439341274 11.3066
46.946915650573224 11.2391
46.97118959976749 11.2241
46.99546578341598 11.2079
47.019933887188216 11.1617
47.04421456235744 11.2155
47.06849747711879 11.1469
47.09278263318286 11.11
47.11725978640143 11.0784
47.14154944775105 11.055
47.165841355555656 11.061
47.1901355115306 11.0434
47.214621741924994 10.9962
47.23892041698887 11.0409
47.26322134538975 10.99
47.28771440635075 10.9588
47.31201986422527 10.9823
47.33632758061436 10.9307
47.360637557241866 10.909
47.38513974410611 10.913
47.40945426407847 10.880999999999998
47.43377104948137 10.8551
47.45809010204344 10.8315
47.48260144275502 10.8035
47.506925052572285 10.8091
47.53125093475548 10.7671
47.55557909103813 10.7123
47.58009961361992 10.715
47.60443234110732 10.7294
47.62876734791564 10.7371
47.65310463578333 10.6816
47.6776343683373 10.6518
47.7019762413987 10.6077
47.72632040075572 10.6256
47.75066684815169 10.5612
47.77520581885936 10.5694
47.799556865477655 10.5708
47.823910205386 10.5237
47.84826584033272 10.5327
47.87281407745551 10.493
47.89717432569297 10.4958
47.92153687423484 10.4788
47.94609208429692 10.4285
47.97045925671401 10.3861
47.99482873471275 10.3934
48.01920052005013 10.3637
48.04376504619224 10.3717
48.068141469543484 10.3872
48.09252020552573 10.3512
48.11690125590099 10.3334
48.1414751266064 10.2934
48.16586082917454 10.2883
48.19024885144316 10.2594
48.2146391951793 10.2394
48.239222439012764 10.2347
48.26361744916137 10.2026
48.28801478610016 10.2024
48.31241445160131 10.1582
48.337007097209366 10.1853
48.36141144338331 10.1424
48.38581812345755 10.0787
48.41022713920929 10.1033
48.434829215320704 10.1253
48.45924292604658 10.0646
48.48365897780325 10.0918
48.50807737237308 10.0205
48.532688907799276 10.0145
48.55711201168574 9.9656
48.581537463754074 9.95645
48.60615611725119 9.96852
48.63058628942721 9.95549
48.65501881516546 9.92695
48.6794536962573 9.88675
48.70408185970339 9.85874
48.72852147531801 9.850389999999999
48.75296345168211 9.79063
48.77740779059232 9.82137
48.80204549302823 9.83376
48.82649458091802 9.83208
48.85094603676547 9.79725
48.87539986237231 9.74804
48.90004713292306 9.74948
48.92450572200832 9.732660000000001
48.94896668628025 9.685310000000001
48.97343002754588 9.653939999999999
48.99808689542115 9.65895
49.02255501470614 9.68266
49.04702551642794 9.64035
49.0714984023988 9.60785
49.096164896893235 9.593589999999999
49.120642575466796 9.555069999999999
49.145122643748394 9.54978
49.16960510355558 9.54474
49.19428125404938 9.50084
49.2187685210852 9.47785
49.243258185121555 9.47862
49.26794160167084 9.49356
49.2924360839405 9.45248
49.31693296869764 9.40981
49.34143225776915 9.398769999999999
49.36612538195438 9.32542
49.39062950396021 9.363010000000001
49.41513603578346 9.32377
49.4396449792564 9.30508
49.46434784069503 9.31507
49.488861631846454 9.30258
49.513377840166804 9.29038
49.537896467493745 9.23509
49.56260909589029 9.22689
49.587132585683285 9.24512
49.611658500018365 9.20685
49.636186840738596 9.18939
49.66090926588511 9.19183
49.685442483902584 9.15013
49.70997813385706 9.12919
49.734516217597076 9.109580000000001
49.75924846937352 9.13513
49.7837914452858 9.112260000000001
49.80833686055187 9.09217
49.83288471702571 9.020710000000001
49.85762682540054 9.050310000000001
49.882179588965734 8.97082
49.9067347993235 8.97412
49.93129245833333 8.94717
49.95604445336378 8.94992
49.98060703442832 8.88766
50.005172069746266 8.89086
50.02993150438364 8.90584
50.05450147301533 8.91287
50.07907390151433 8.90568
50.10364879174981 8.86909
50.12841816587289 8.82662
50.1529980044635 8.78215
50.17758031042124 8.7901
50.20216508562089 8.80203
50.22694442953363 8.75531
50.25153416817468 8.74281
50.27612638170508 8.72993
50.300721072005196 8.7149
50.325510416102105 8.68558
50.350110084975064 8.67817
50.37471223628208 8.6783
50.39931687190919 8.66158
50.424116246675766 8.643469999999999
50.44872587605249 8.61634
50.47333799543065 8.61125
50.49795260670191 8.600489999999999
50.52276204271512 8.555810000000001
50.54738166295838 8.574060000000001
50.57200378079314 8.56745
50.596628398116835 8.51695
50.62144792604559 8.49488
50.646077567609396 8.4634
50.670709714377715 8.43722
50.69553683636198 8.46775
50.72017401885922 8.422460000000001
50.7448137122895 8.42712
50.76945591856022 8.38851
50.79429318636823 8.41002
50.818940443716784 8.399939999999999
50.84359021965163 8.33893
50.868242516085964 8.333089999999999
50.893089960641895 8.31303
50.917747323549435 8.287510000000001
50.94240721271973 8.28322
50.96706963007175 8.27333
50.99192728239342 8.26446
51.01659478166073 8.237169999999999
51.04126481489051 8.23286
51.06593738400761 8.19895
51.090805275207074 8.18742
51.11548294172845 8.1588
51.14016314993547 8.149239999999999
51.164845901758845 8.15462
51.18972406304274 8.124789999999999
51.21441192780656 8.1158
51.23910234200271 8.128639999999999
51.2637953075678 8.07417
51.288683770237945 8.07661
51.31338186432707 8.0313
51.33808251561888 8.04221
51.362978729967345 7.996919999999999
51.387684521509755 7.994960000000001
51.41239287610203 8.01931
51.437103795691165 7.95248
51.46201036644977 7.964980000000001
51.486726441956634 7.9317
51.51144508832545 7.96397
51.536166307509156 7.966480000000001
51.56108326624387 7.9164
51.58580965706056 7.859430000000001
51.61053862657523 7.87179
51.635270176746864 7.82373
51.66019755512065 7.824739999999999
51.68493429268881 7.762760000000001
51.70967361681515 7.7786
51.73441552946465 7.76335
51.759353359237934 7.786810000000001
51.7841004750961 7.7504
51.80885018539685 7.71634
51.833602492111254 7.7133899999999995
51.8585508051424 7.686730000000001
51.883308330926425 7.645910000000001
51.90806845906181 7.634460000000001
51.932831191525715 7.6378699999999995
51.95779001977161 7.61228
51.98255798721516 7.58242
52.00732856494335 7.5787
52.03229530577543 7.56199
52.057071130455945 7.56128
52.081849571391054 7.54333
52.106630630568695 7.55824
52.13160794279417 7.507689999999999
52.15639426492067 7.51525
52.18118321127822 7.491210000000001
52.205974783860896 7.47271
52.23096269971011 7.43255
52.255759551287994 7.4416899999999995
52.280559035098186 7.435989999999999
52.30536115314103 7.3825899999999995
52.33035970494467 7.41367
52.35516711807904 7.37178
52.37997717147198 7.35457
52.40478986713005 7.37725
52.42979908731974 7.32866
52.454617094216 7.3097199999999996
52.47943774942214 7.27485
52.50426105495102 7.2797
52.529280976059844 7.23952
52.554109609024096 7.24028
52.57894089837482 7.216260000000001
52.60377484613117 7.21587
52.62880550079408 7.222
52.65364479223379 7.18226
52.67848674816189 7.160310000000001
52.70352547971946 7.166530000000001
52.72837279155837 7.16018
52.753222773982785 7.1256699999999995
52.778075429022984 7.14257
52.80312495150885 7.146260000000001
52.827982978797436 7.093139999999999
52.85284368481815 7.074669999999999
52.87770707160767 7.0876600000000005
52.90276741793998 7.02175
52.92763619336701 7.03287
52.952507655698504 7.0102899999999995
52.977381806977576 6.96373
53.00245301017842 6.97848
53.02733256653592 6.966489999999999
53.052214817996074 6.97888
53.077099766608484 6.93595
53.102181859804446 6.9408199999999995
53.127072229988265 6.938610000000001
53.15196530349892 6.88633
53.17686108239249 6.8818600000000005
53.20195409881522 6.87715
53.22685531582556 6.85111
53.25175924441303 6.802510000000001
53.27666588664027 6.8109399999999996
53.30176985962693 6.80082
53.3266819565689 6.78905
53.35159677336455 6.77929
53.376514312083096 6.76123
53.40162927507703 6.73413
53.42655228516116 6.702030000000001
53.45147802340193 6.69186
53.47660125628886 6.67382
53.50153247842639 6.67047
53.52646643496923 6.6645
53.55140312799818 6.66108
53.576537409691696 6.67938
53.60147960336152 6.6647300000000005
53.626424539786164 6.6135399999999995
53.65137222105307 6.60502
53.67651758529126 6.578939999999999
53.70147078399681 6.58293
53.72642673383343 6.5754
53.75138543689533 6.56301
53.776541917524526 6.51081
53.801506154876755 6.48874
53.826473151763246 6.53125
53.851442910284916 6.47168
53.87661054126026 6.47305
53.9015858509782 6.43389
53.92656392866066 6.44808
53.95154477641532 6.42437
53.976723591801296 6.3987099999999995
54.00171000771266 6.3866
54.02669920004598 6.44079
54.051691170915745 6.3493900000000005
54.076881204886796 6.32967
54.101878760928514 6.34006
54.12687910187696 6.34639
54.152077577768296 6.29409
54.1770835166946 6.25373
54.20209224691339 6.26584
54.22710377055121 6.29459
54.25231352511594 6.22374
54.27733066384342 6.22366
54.30235060239643 6.19911
54.32737334290836 6.1700800000000005
54.35259441062629 6.167330000000001
54.377622783395324 6.16376
54.40265396455061 6.15179
54.42768795623251 6.125319999999999
54.45292037169559 6.0762
54.477960012857906 6.098990000000001
54.50300247099511 6.07786
54.52804774825457 6.0599300000000005
54.55329154616743 5.98489
54.57834249018678 5.98876
54.6033962597977 5.92289
54.6284528571545 5.929180000000001
54.653708072335164 5.89374
54.67877035378786 5.87986
54.70383546947698 5.85926
54.72890342156389 5.8478900000000005
54.7541700889442 5.85527
54.77924374251975 5.79455
54.8043202390049 5.784269999999999
54.82959552413022 5.78314
54.8546777351945 5.7704699999999995
54.87976279569621 5.74851
54.90485070780914 5.78815
54.930137506558005 5.68191
54.95523115074295 5.6797699999999995
54.98032765308844 5.671209999999999
55.005427015775496 5.63565
55.03072536339621 5.63169
55.05583047570572 5.5938
55.080938454927676 5.57353
55.10604930325027 5.5064
55.131359235107396 5.5185699999999995
55.15647585066083 5.48907
55.181595341907496 5.432519999999999
55.20671771104285 5.42531
55.232039262617704 5.3846099999999995
55.25716741665048 5.3798699999999995
55.28229845518636 5.34583
55.30743238042802 5.33065
55.33276558731939 5.33285
55.357905315183636 5.3028
55.383047936390035 5.284680000000001
55.40819345314859 5.21415
55.433538351073295 5.22139
55.458689688238415 5.18227
55.483843927614096 5.18791
55.509197623043605 5.144
55.53435769621134 5.14685
55.55952067826466 5.11436
55.5846865714265 5.10009
55.61005202069737 5.03592
55.63522376553902 5.06161
55.66039842818645 5.04945
55.68557601087004 5.05082
55.7109532500271 4.93412
55.73613670233794 4.97053
