TT I
1.2716486653135266 7.00656
1.2939594142134223 6.76955
1.3162702121660406 6.47769
1.3385810600174564 6.2177
1.3608919586137629 6.6573
1.383202908801069 6.52235
1.405513911425503 6.40088
1.4278249673332093 6.6855199999999995
1.4501343378461518 6.3756699999999995
1.4724455028545926 5.8106800000000005
1.4947567236847858 5.59667
1.517068001182951 5.4629199999999996
1.5393793361953272 5.02418
1.5616907295681737 5.61869
1.5840021821477681 5.417330000000001
1.60631369478041 5.47122
1.6286252683124185 5.2867
1.6509369035901333 4.25021
1.6732468618895553 4.35214
1.695558623192809 4.2301
1.7178704487808514 4.921530000000001
1.7401823395001077 5.0568800000000005
1.7625012545597203 4.68082
1.7848028405262486 4.288930000000001
1.8071218901122095 4.19902
1.8294236121921872 4.36647
1.8517427996910911 4.28302
1.8740620574440425 4.5246699999999995
1.8963639900671978 4.36776
1.9186833908139995 4.25632
1.9409854680117449 4.0281
1.9633050151394713 4.89902
1.9856246367570705 4.26808
2.0079269371922672 4.28281
2.03024671027244 4.1647300000000005
2.0525491637446027 4.2599
2.074869091674931 4.096419999999999
2.097171701569106 4.46906
2.1194917877373847 4.78806
2.141811954326636 4.86333
2.164114805233074 5.16822
2.186435135143035 4.27635
2.208738150935709 5.23756
2.231058647554722 6.45971
2.2533792288321184 6.02971
2.275682498336085 4.9034699999999996
2.298003251406138 5.24346
2.3203066942619714 5.03656
2.3426276225136022 4.59765
2.3649486396617507 5.14812
2.387252348930071 6.29242
2.4095735463442893 5.7756300000000005
2.4318774374315884 5.90701
2.4541988185014043 6.1590300000000004
2.476502894794693 7.26456
2.498824462909887 7.0825
2.521146125856138 7.1065
2.5434504863470337 7.46505
2.5657723414244717 7.17148
2.588076895590662 8.04845
2.610398946189713 8.26726
2.6327210958598384 8.49163
2.6550259469304716 8.37838
2.6773482972090137 7.99402
2.6996533504259 8.596860000000001
2.7219759047039602 8.53722
2.744298562293959 8.11299
2.7666039251246595 8.20956
2.7889267918020164 8.05622
2.8112323652516555 8.01108
2.833555444408179 8.96067
2.8558786311183852 8.22927
2.8781845268938557 8.4521
2.9005079311721484 8.54898
2.9228140460410397 8.48718
2.9451376712799635 9.18089
2.967444008632326 9.35329
2.9897678582247247 9.79262
3.0120918213106695 9.79378
3.0343984987899373 10.5729
3.0567226913198637 10.8117
3.079029599759726 11.0708
3.101354025127254 12.1037
3.123678568232338 12.9284
3.145985829517914 12.5846
3.16831061055229 12.6644
3.1906181112775593 13.6671
3.212943133635653 14.1402
3.2352682779763207 14.4309
3.2575761442691227 14.9272
3.2799015350264273 15.2954
3.302209649240067 15.6977
3.3245352898092655 16.4054
3.3468436553365257 16.9492
3.369169549113219 16.9575
3.3914955708171384 17.6374
3.413804319727358 18.0955
3.4361305997334863 18.3502
3.4584396084414553 18.8479
3.4807661501462652 19.930999999999997
3.503092824025881 20.2091
3.5254022288463154 20.1476
3.5477291695206588 20.9705
3.5700388426251948 21.0779
3.5923660534916446 21.8919
3.6146934007816114 23.5969
3.637003482731501 28.4846
3.6593311053109985 30.359
3.681641464033634 26.8736
3.7039693653009733 24.5887
3.726297407241705 24.6322
3.7486081875460804 24.6507
3.7709365132734978 24.9793
3.793247578841633 25.7224
3.8155761917550093 25.8075
3.8378875459837216 26.0668
3.8602164494827234 26.6719
3.882545499606844 27.7242
3.9048572932539183 27.9568
3.9271866390645718 28.1711
3.9494987298666713 28.9401
3.971828374764527 29.5496
3.9941581705403255 30.113000000000003
4.016470713506008 30.2207
4.038800813471445 30.9402
4.061113662089144 31.5659
4.0834440696459176 32.4298
4.105774632334751 32.5511
4.128087945865126 33.2219
4.150418821249301 34.1251
4.172732448931298 34.7327
4.195063640413578 35.6598
4.2173775856475215 36.3668
4.239709096631102 39.3841
4.262040768704612 54.4175
4.284355196706267 64.3319
4.306687193387355 55.0042
4.329001947444346 44.0358
4.35133427213731 41.902
4.373666762177566 41.815
4.395982011761091 42.4632
4.418314834921175 43.4789
4.44063041906622 44.9927
4.4629635787515625 46.5459
4.4852969080429785 48.0602
4.5076130004776225 47.8454
4.529946671403969 48.7712
4.552263106909177 49.0483
4.574597122877047 50.2381
4.596931312711224 51.7742
4.619248269273446 52.6718
4.6415828092605835 53.7181
4.663900117405352 55.2855
4.686235010953232 56.3401
4.708552674085913 57.872
4.730887924602802 59.2124
4.753223354952695 60.7206
4.775541557023902 62.0698
4.797877349456786 63.0319
4.820195915032126 65.3836
4.842532072957498 67.0456
4.864868414979744 69.5785
4.88718753227192 71.6335
4.909524244902505 73.6963
4.931843734218147 75.1084
4.954180820867835 77.4133
4.976518095879839 80.3041
4.998838149695359 82.7341
5.021175803844231 86.5449
5.043496238205739 89.9478
5.065834274903528 93.7991
5.088172504230693 97.7765
5.1104935158799565 102.671
5.132832132875765 111.105
5.155153533596801 125.081
5.1774925416746225 146.482
5.199814334878411 271.214
5.2221537374521505 936.2
5.244493338631803 2883.94
5.266815727034316 7920.11
5.289155727832427 13832.1
5.311478517248165 9087.62
5.333818921080011 2715.54
5.356159527788849 527.641
5.3784829252032536 188.266
5.400823940070432 142.126
5.423147747031976 125.333
5.445489173474152 116.402
5.467830807066149 111.51299999999999
5.490155234831516 107.84700000000001
5.512497285125229 104.59
5.534822130975162 103.51799999999999
5.557164601388673 101.43
5.579489868738879 98.4452
5.601832762690846 96.7544
5.6241758697774475 95.8772
5.646501775867269 95.1446
5.668845311622074 94.3427
5.691171647754637 93.819
5.713515615597765 92.4709
5.735859800852677 91.3714
5.758186788542988 90.8382
5.780531411018185 91.1454
5.802858837297399 90.6352
5.825203900414495 90.3224
5.8475491852224 90.0816
5.869877275883075 90.5154
5.892223006467101 92.0259
5.914551544266608 92.8668
5.936897724049891 95.21600000000001
5.959244129804903 99.8972
5.981573344815301 113.45299999999999
6.0039202049061 189.25799999999998
6.026249875609095 453.404
6.04859719346037 988.872
6.070927323278297 2266.17
6.093275102315365 4683.17
6.115623113320588 5585.51
6.137953938319995 3069.33
6.160302415650845 841.6339999999999
6.182633708324452 199.17700000000002
6.2049826554078376 104.53399999999999
6.227331838745022 87.8267
6.249663839443684 81.7274
6.27201349767565 78.2337
6.294345974611799 76.4978
6.316696111167083 75.3965
6.339046488263839 74.0494
6.361379686074702 70.5535
6.383730546639482 68.7474
6.406064229255215 67.4052
6.428415576718203 66.829
6.450749747566656 65.9764
6.47310158535871 64.8064
6.495453669698332 64.1233
6.517788579421056 63.468999999999994
6.540141159237969 62.3584
6.562476565766648 61.7789
6.5848296444934045 61.0602
6.607182974060425 60.387
6.6295191323281015 59.7696
6.651872965955752 59.7739
6.6742096296068985 61.2946
6.6965639707294615 66.1383
6.71891856698715 65.7012
6.741255995248479 61.2671
6.763611104154477 58.309
6.785949046381137 57.3625
6.808304671371482 56.5549
6.8306605557940046 56.5947
6.852999275508618 56.2032
6.875355681171544 55.794
6.897694923437771 55.3881
6.92005185377892 55.3385
6.9423916220322655 55.3496
6.964749080490181 54.9392
6.987106804399774 54.7685
7.009447368180821 54.5383
7.031805625367033 54.3426
7.054146723727803 54.0412
7.076505517631004 54.0213
7.098864581288365 54.02
7.121206488070854 53.5243
7.143566093607822 53.4202
7.165908543567245 53.5663
7.188268694426048 53.3872
7.2106291193438095 52.8429
7.232972390625943 53.1088
7.255333366030969 53.8526
7.277677189091925 58.5186
7.300038718428332 64.1189
7.322400526130865 61.6907
7.344745183422596 56.4686
7.367107550224791 53.8947
7.389452767901992 53.313
7.411815697249891 53.56
7.434161478756298 53.3432
7.456524974096713 52.9072
7.478888753837185 53.2264
7.501235387657368 54.8215
7.523599738562711 60.1399
7.545946944825532 67.551
7.568311870344528 69.4184
7.5906770845765665 62.5787
7.613025156078678 56.6238
7.635390950099687 55.1552
7.657739602662809 54.3031
7.680105979923558 54.2202
7.702472650212829 55.0682
7.724822180948224 55.1647
7.747189439655568 55.2307
7.769539560075357 55.2497
7.791907410653562 55.727
7.81425812420825 55.333
7.836626570110925 55.8159
7.858995315087906 56.9515
7.881346924933401 56.826
7.903716270417482 57.3233
7.926068482028405 57.9313
7.948438431475253 58.4399
7.9708086843180235 59.0163
7.993161805171116 59.7511
8.015532667162402 60.0258
8.037886398416653 61.06
8.060257873014221 61.4071
8.082629655331942 61.8967
8.104984308787587 62.343999999999994
8.127356708900503 63.5752
8.149711981398308 64.8603
8.172085002766314 65.9793
8.194458336181368 66.4134
8.216814543847752 67.1481
8.23918850371002 68.6305
8.26154533906492 69.5693
8.283919928836452 71.2793
8.306277395339652 71.956
8.328652618483376 73.0664
8.351028159736202 75.1791
8.373386579575245 77.3394
8.395762759396959 78.5456
8.418121819038275 81.4132
8.440498640894003 85.3861
8.462875785192262 91.1081
8.485235811156207 101.835
8.507613602688501 147.4
8.529974277114228 261.13
8.552352719347912 420.11400000000003
8.574731488360351 693.3489999999999
8.59709314210385 1222.03
8.619472567021075 1960.15
8.64183487789147 2419.08
8.664214962183097 1834.7
8.686577933647762 924.6039999999999
8.708958680784317 343.478
8.731339760774953 151.907
8.753703729764451 106.713
8.77608547780821 96.7795
8.798450116065078 93.5851
8.820832535634787 91.3695
8.843215292401656 90.0193
8.865580941199045 88.2323
8.887964374703538 86.9559
8.910330701447199 86.8947
8.932714815164482 86.1837
8.955099270424924 85.4345
8.977466620733543 84.4514
8.999851761421976 83.9425
9.022219798361645 83.0887
9.04460562795561 83.1707
9.066991803441677 82.7404
9.089360876979615 82.3434
9.111747746589993 82.374
9.13411751544971 81.9853
9.156505082664324 81.9224
9.178875550323522 82.5498
9.20126381862328 84.7656
9.223652438908596 93.1475
9.246023961427412 104.287
9.26841328802173 106.92299999999999
9.290785518039224 97.0702
9.313175554425882 87.7535
9.335565947154315 83.4952
9.357939245086508 82.6963
9.380330352834827 82.6278
9.40270436697103 82.6946
9.425096193225055 82.789
9.447488380180165 83.9756
9.469863475295412 83.8463
9.492256385987508 84.0005
9.514632206018318 84.6037
9.537025843935714 84.6567
9.559402392368193 85.469
9.581796761000229 86.9099
9.604191496441521 87.0547
9.626569144158516 87.9653
9.648964615551032 89.0829
9.671343000390081 89.8752
9.693739211225699 90.8966
9.716135793237463 91.1916
9.738515290448102 91.8503
9.760912617143402 93.10799999999999
9.783292860202891 94.6778
9.805690935076182 95.7566
9.828089385495742 96.5934
9.850470754023561 98.63799999999999
9.872869957865444 100.766
9.89525208097539 103.704
9.917652041736662 107.309
9.940052382417589 111.12700000000001
9.962435644102392 125.01700000000001
9.984836746950979 165.609
10.007220771957746 252.426
10.029622640473708 381.13199999999995
10.052007432299963 573.158
10.074410069984072 853.765
10.096813093716005 1302.58
10.119199042482517 1845.7
10.141602840636468 2044.1
10.163989564971628 1559.39
10.186394141051062 842.189
10.208799107559706 365.80199999999996
10.231187001965623 173.908
10.253592751657669 120.795
10.275981430388155 109.462
10.298387966769793 106.238
10.320794897965431 105.28299999999999
10.343184759907361 103.935
10.36559248305461 102.274
10.387983138083852 101.23100000000001
10.410391656691655 103.88799999999999
10.432800574501677 116.085
10.455192425893369 139.635
10.47760214443012 172.465
10.499994797678786 220.605
10.522405320453982 295.828
10.54479877906917 413.19199999999995
10.567210109595656 536.506
10.5896218454736 581.611
10.612016518879773 488.36699999999996
10.634429067781074 326.371
10.656824555333241 187.46
10.679237920773568 125.493
10.701651695961992 101.479
10.724048411481384 92.236
10.746463008485165 86.963
10.768860546937125 84.36200000000001
10.791275969274796 82.4781
10.81369180576079 81.3226
10.836090585366925 80.3347
10.858507252467449 78.8885
10.88090686379991 77.7533
10.903324365036394 76.8875
10.925724811614439 75.6758
10.948143150509463 75.8733
10.970561909719066 74.8075
10.992963615930844 74.1268
11.015383218085756 73.2907
11.037785768347074 72.4024
11.06020621697282 71.7493
11.082627090322113 70.9417
11.105030913430326 70.6868
11.12745263854165 69.9012
11.149857314510728 69.4924
11.172279894912576 70.2862
11.194702904450653 69.6889
11.217108866490921 68.8021
11.239532736615194 67.7086
11.26193956033512 67.2092
11.284364294577085 66.8989
11.306789462371718 66.2571
11.329197585398376 65.815
11.351623622610898 66.0351
11.37403261614354 65.2851
11.396459526308487 65.203
11.418869393879497 64.9156
11.441297180532617 64.5318
11.463725406927658 63.9957
11.486136592353875 63.7962
11.508565700543707 63.1686
11.530977768845315 63.7797
11.553407762368774 63.2208
11.575838200059769 63.2979
11.598251599479612 62.7606
11.620682927815501 62.6774
11.64309721895548 62.855
11.665529441478206 62.3702
11.687962112597958 62.2923
11.710377748130886 62.0643
11.732811318753434 62.1518
11.755227854859067 62.1116
11.777662328529495 62.0273
11.800079768750786 61.9204
11.822515149015453 61.6065
11.844950984084935 62.0711
11.867369787303163 61.8853
11.889806534289491 62.2132
11.912226250487029 64.0866
11.934663912939751 66.4527
11.9571020346363 68.444
11.979523127133968 68.257
12.001962169624331 66.6935
12.024384183972964 65.1484
12.046824150809913 67.1037
12.069264581333726 73.0355
12.091687985297767 80.9543
12.11412934550045 91.5163
12.136553680195208 106.37799999999999
12.158995973632788 128.994
12.181438735204349 156.736
12.20386447284199 191.267
12.226308172985636 207.78099999999998
12.24873485024193 196.942
12.271179492516982 156.924
12.293607112949127 119.272
12.316052700916226 86.8082
12.338498763250042 70.4617
12.360927805303868 65.2888
12.383374818673879 63.7682
12.405804812803074 62.8823
12.428252780773262 63.1906
12.45070122756722 63.4715
12.473132656675375 62.9814
12.49558206341869 63.4397
12.518014453510101 63.4499
12.540464823770117 63.5106
12.562915677315177 63.538000000000004
12.58534951575545 64.0618
12.607801338171472 64.1702
12.630236146511358 64.9611
12.652688941369085 65.6961
12.675124723177234 65.9508
12.697578494048786 66.3769
12.720032754458185 66.2775
12.742470003354093 66.1689
12.764925245138771 66.686
12.787363476431278 67.0281
12.809819703166806 67.5139
12.83227642391173 68.3255
12.854716135692716 68.8754
12.877173846755147 69.8537
12.899614549869717 70.2859
12.9220732548287 71.2387
12.94453245827299 71.5871
12.966974655289818 72.8437
12.989434858002571 73.4327
13.011878055298721 74.3928
13.034339260862497 75.7044
13.056800969391883 77.176
13.079245674017244 79.0693
13.101708390774869 81.0996
13.12415410463411 86.5681
13.146617833206086 98.9317
13.169064559883248 114.984
13.191529303857127 133.99
13.213994557076367 159.009
13.236442809902437 195.997
13.258909083908291 248.968
13.28135835851934 315.438
13.30382565690295 388.129
13.326293469022952 440.41
13.348744283242008 417.601
13.371213125129904 339.031
13.39366497011003 241.16400000000002
13.416134845360597 160.707
13.438605238843131 117.014
13.46105863690397 101.48100000000001
13.483530069144786 103.12700000000001
13.505984506951902 112.624
13.528456981549432 126.181
13.550929978879088 143.423
13.573385983253365 167.207
13.595860028340867 203.676
13.618317081455832 256.139
13.64079217790333 314.436
13.663250283359057 366.267
13.685726434770173 381.12199999999996
13.708203115221277 338.061
13.730662806148091 255.172
13.75314054697177 178.81900000000002
13.775601299246777 122.111
13.798080104050406 94.5552
13.820559442405358 84.2749
13.843021793671388 80.9585
13.865502201420897 79.153
13.887965623051947 78.7363
13.910447103807167 78.0096
13.932929122629764 76.5552
13.955394156785959 76.2423
13.977877254034569 75.3507
14.000343367582113 74.4386
14.022827546871707 74.0135
14.045294743423524 73.3006
14.06778000837062 72.7036
14.090265817715476 72.9516
14.112734645763819 73.7467
14.13522154619454 74.7033
14.157691466286913 75.9282
14.180179461423874 75.5377
14.202668005486178 73.7876
14.22513957064374 71.7244
14.247629214846473 70.3992
14.270101881097517 69.7237
14.29259262906496 69.4401
14.315083930490205 69.4202
14.337558255389705 69.0701
14.360050666019726 69.2114
14.382526101071944 68.9119
14.405019624534942 68.6399
14.427513705993134 68.4117
14.449990813291825 68.4163
14.47248601302899 68.1567
14.49496423954951 68.4862
14.517460561197822 68.5468
14.539939910570322 68.3547
14.562437357763558 68.3385
14.58493536931253 68.7549
14.607416409993311 68.6901
14.62991555254159 69.1046
14.652397725157423 69.3191
14.674898002342799 69.3726
14.697398848433282 69.6207
14.719882725991326 70.7598
14.74238471217934 71.0592
14.764869730765593 74.0216
14.787372860692983 78.2506
14.809876564079925 84.9844
14.83236330125751 93.2048
14.854868153850365 102.647
14.877356041159485 116.51799999999999
14.899862046604186 134.02700000000002
14.922351087688757 158.917
14.944858249632887 189.468
14.967365991421232 215.855
14.989856770231246 230.565
15.012365673994204 219.081
15.03485761569738 182.267
15.05736768508665 141.447
15.07987833888692 110.294
15.102372032001655 87.5757
15.124883856909658 75.5092
15.14737872204565 71.65899999999999
15.169891721717274 70.0815
15.192405310371893 69.3083
15.214901940621196 69.0503
15.237416709527137 68.5228
15.259914520936249 68.3541
15.282430473753607 67.7128
15.304947020131227 66.8006
15.327446610371178 66.6234
15.349964346154254 66.2808
15.372465126703139 66.0239
15.394984055556009 65.9996
15.417486030076159 65.7027
15.44000615566487 65.5495
15.462526881230803 65.3549
15.485030653812652 65.4242
15.507552581617434 65.21300000000001
15.530057557334603 65.2837
15.55258069104857 65.3298
15.575104429329837 65.4527
15.597611216864632 65.1386
15.620136166564563 65.5854
15.6426441664095 65.8618
15.665170331202765 68.0119
15.687697105158826 71.9872
15.710206930593545 77.1895
15.732734925158933 83.0361
15.755245972089478 90.6329
15.77777519094324 99.3737
15.800287463046663 111.605
15.822817909869592 129.789
15.84534897229804 151.48
15.867863089299354 176.805
15.890395385222186 192.75799999999998
15.912910736597423 196.885
15.935444269699861 180.887
15.957978423016485 151.776
15.980495633101265 118.251
16.003031029129367 92.7098
16.02554948280019 75.1398
16.048086125229432 67.4965
16.070623392487107 64.5684
16.09314371869582 63.1807
16.11568223789321 61.855
16.13820381691126 60.8212
16.160743591742527 60.1443
16.183283996022084 59.5075
16.205807461423195 58.653
16.228349126881973 58.3084
16.25087385432698 58.22
16.27341678466365 57.5542
16.29594277784926 57.3168
16.31848697676433 57.0089
16.341031811604868 56.673
16.36355971058487 56.6071
16.3861058195587 56.3842
16.40863499352978 55.7362
16.431182380342005 55.361000000000004
16.453730407713202 55.2174
16.476261501364792 55.0343
16.498810812136167 54.7201
16.52134319004079 54.8133
16.54389378792203 54.7007
16.566445031001553 54.4353
16.588979342490088 54.4525
16.61153187824822 54.3928
16.634067483263312 54.1332
16.656621315414416 54.3151
16.679175797408888 54.044
16.701713349928728 54.0142
16.72426913389191 54.113
16.74680798922351 54.1844
16.76936507887444 53.9937
16.791905240734874 53.998999999999995
16.814463639794468 53.9763
16.837022695210294 54.0302
16.859564824093756 54.0784
16.882125194503903 54.4512
16.904668639217885 54.8855
16.927230328348003 55.0304
16.949792678493612 55.4381
16.972338104193863 55.2161
16.994901778652235 54.8149
17.017448529496576 54.7743
17.040013531998152 55.1423
17.06257920018044 55.6415
17.0851279459922 56.4859
17.107694947817667 57.573
17.130245028099072 58.7468
17.15281336730298 60.4157
17.17536478578733 62.0032
17.19793446610687 64.2088
17.220504818648422 66.9396
17.243058251703697 70.0764
17.265629950971032 74.7227
17.288184731571736 79.3575
17.310757781306908 82.9201
17.33333150794385 82.3746
17.355888317140174 80.3253
17.37846339986244 75.7402
17.401021565958885 69.4636
17.42359800851343 64.457
17.44617513265564 61.3006
17.468735341390783 59.6638
17.491261035594565 58.7379
17.51396340099364 58.3942
17.536490463869136 58.5333
17.559018209820174 58.6263
17.58154663977963 58.7914
17.604251766089718 58.9504
17.626781572227713 59.1106
17.64931206518155 59.2056
17.671843245885103 59.5978
17.69455114821572 59.665
17.717083712612634 60.2541
17.739616967569667 60.7481
17.762150914021706 61.39
17.78486160749854 61.6675
17.807396945166804 62.1196
17.829932977143503 62.5229
17.85246970436452 63.7696
17.875183204129467 65.9843
17.897721330097664 68.9286
17.920260154126645 71.9007
17.942799677153296 75.8308
17.9655159983646 79.8974
17.988056927677544 84.8702
18.010598558807683 92.2188
18.033140892692916 101.697
18.05586005052525 113.234
18.07840379824407 124.932
18.10094825154059 133.692
18.12366954819864 140.392
18.146215420998306 137.861
18.16876200220057 128.252
18.191309292745153 114.086
18.214033452627167 101.163
18.236582170236648 91.2566
18.259131600016456 86.8422
18.281681742907335 86.6067
18.304408781233683 90.8389
18.32696035875955 96.3546
18.349512652227624 101.10600000000001
18.372065662579683 105.06299999999999
18.394795594587553 104.831
18.41735004715306 100.37700000000001
18.43990521943684 92.8361
18.46246111238171 83.6373
18.485193953325208 74.9672
18.507751296070428 68.6278
18.530309362314178 65.1602
18.552868153000343 63.0661
18.57560391815056 62.0455
18.59816416623245 61.5832
18.620725141597372 60.8402
18.643286845190268 60.3329
18.666025549835414 59.8756
18.688588718427933 59.2187
18.711152618092243 59.2132
18.73389353884365 58.964
18.75645890921984 58.3862
18.77902501351406 58.0764
18.801591852673102 58.2341
18.824335739722738 57.6193
18.846904057212626 57.5251
18.8694731124168 57.1993
18.89204290628315 57.3434
18.914789774966803 57.0153
18.937361054791623 56.9249
18.959933076131318 56.5153
18.982505839934877 56.369
19.00525570560582 56.3847
19.027829963004184 56.2136
19.05040496572238 56.3903
19.072980714710468 56.3615
19.095733592739563 56.3906
19.11831084296757 56.6976
19.140888842324735 57.3094
19.16346759176222 57.6658
19.18622349753803 58.4154
19.208803755869358 59.4115
19.231384767143577 60.8749
19.253966532312948 62.3496
19.276725481241822 64.5957
19.29930876296784 67.2283
19.3218928014549 70.3601
19.34465404436217 72.436
19.36723960516257 74.8537
19.389825925592426 75.2171
19.412413006605938 73.3993
19.43517731967805 70.1342
19.457765930683355 65.7086
19.48035530514408 61.7044
19.50294544401556 58.2929
19.525712842708348 55.9583
19.54830451925909 54.6289
19.570896963095727 53.5534
19.593490175174704 53.4161
19.616260674962184 53.394
19.638855432416964 52.8099
19.661450960992624 53.1645
19.68404726164677 53.1391
19.706820878021247 53.0228
19.729418731756834 53.1004
19.752017360452857 52.7259
19.77461676506804 52.9532
19.797393513540218 53.0112
19.819994478951667 53.2676
19.84259622316767 53.9605
19.8651987471481 54.4595
19.887978643247177 54.8461
19.91058273574792 55.5763
19.933187610901943 56.3711
19.955969879466828 57.3462
19.97857632894404 59.0321
20.00118356396599 60.391000000000005
20.023791585494575 62.5225
20.046577028914875 65.5225
20.069186632506966 67.8305
20.091797025500632 69.786
20.114408208858933 70.3657
20.137196842715273 69.9236
20.159809615886765 68.1834
20.18242318232135 65.4366
20.20503754298326 63.0629
20.227829382875154 62.2406
20.250445341109344 62.1635
20.27306209647285 62.8474
20.29567964993108 64.5012
20.31847471147704 65.3754
20.34109387027612 65.7866
20.363713830075454 65.34
20.386334591841646 63.1903
20.409132890679302 60.2308
20.431755265564437 57.0021
20.454378445325528 54.4441
20.477002430930366 52.5363
20.499803982716553 51.4611
20.522429589228004 50.568999999999996
20.54505600449589 50.1746
20.567683229489194 50.2867
20.590488049900088 49.917
20.61311690359731 49.6351
20.63574656993626 49.5623
20.658553853717297 49.2109
20.681185154618298 49.3052
20.703817271080066 49.2211
20.72645020407368 48.8464
20.749260783967177 48.8526
20.771895359337133 48.8949
20.794530754161617 48.9934
20.817166969412938 48.8527
20.83998086114876 48.5943
20.86261872660049 48.2801
20.885257415405402 48.3242
20.90789692853701 48.3284
20.930714147864748 48.2996
20.953355319030678 48.1583
20.97599731745334 48.2691
20.99864014410749 48.2193
21.021460706796564 48.3026
21.044105199328826 48.5186
21.06675052302631 48.8433
21.089396678865015 49.0221
21.112220600704806 49.1702
21.134868430275347 49.4372
21.15751709492456 49.7631
21.180166595629693 50.1064
21.202993892429635 50.7456
21.22564507473034 51.0685
21.24829709602816 51.1587
21.27112693608965 51.0803
21.293780644891275 50.8464
21.316435195634053 50.2431
21.339090589297417 49.5386
21.361923832041875 49.0126
21.384580921090404 48.6021
21.407238856007325 47.9853
21.429897637773326 48.0589
21.45273429906592 48.0264
21.475394784108598 48.2149
21.498056118951983 47.9705
21.520718304578022 48.2959
21.543558400304388 48.4713
21.566222297108816 48.5516
21.58888704765135 48.4757
21.61155265291521 48.9274
21.63439619898156 49.4802
21.657063523335786 49.8143
21.67973170537063 50.5201
21.7024007460706 51.0263
21.72524775840385 51.6884
21.747918526116475 52.9163
21.770590155457388 53.9695
21.79326264741238 55.501999999999995
21.816113141960237 57.2478
21.838787368860547 59.1122
21.861462461341976 61.3382
21.884315579735777 63.388000000000005
21.90699241312273 64.6406
21.92967011506078 64.4921
21.95234868653799 64.0681
21.9752053151131 62.3343
21.997885635446785 60.2924
22.020566828293532 58.4577
22.04324889464272 56.9739
22.066109049404666 56.1083
22.088792872571794 55.9342
22.111477572219204 56.0092
22.1341631493376 55.9887
22.157026846313123 55.6024
22.179714188221507 54.9065
22.202402410582668 53.7008
22.22509151438863 52.2952
22.24795876962584 50.9101
22.270649646204486 50.0009
22.293341407213727 49.288999999999994
22.316034053646906 48.7938
22.338904883215342 48.5518
22.36159931041458 48.6692
22.38429462602756 48.4745
22.40699083104897 48.3009
22.429865251039757 48.1666
22.452563244831367 48.2225
22.47526213102522 48.1276
22.49813925616515 48.1441
22.520839937143307 48.1672
22.543541513520587 48.3656
22.56624398629403 48.1355
22.589124730075895 48.0182
22.611829005656723 48.2278
22.63453418063466 48.2417
22.657240256008077 48.6059
22.680124634582935 48.6139
22.70283252079775 49.0015
22.725541310413075 49.4196
22.74825100442868 49.7292
22.771139033969575 50.3599
22.79385054687155 50.5221
22.81656296718292 51.0643
22.83927629590484 51.9789
22.862167992606945 52.9748
22.88488314827121 54.1099
22.907599215359284 55.1317
22.93031619487366 56.2485
22.953211574954405 57.0134
22.975930389478226 57.5902
22.998650119445763 57.4691
23.02137076586092 56.3739
23.044269845560063 55.3736
23.06699233506288 53.5058
23.089715744034912 51.8919
23.112617610931565 50.5556
23.135342869061212 49.4213
23.158069049684816 48.8613
23.1807961538087 48.4091
23.20370174880544 48.1757
23.226430710184808 48.3921
23.249160598093425 48.3311
23.271891413539002 48.4314
23.294800752937697 48.5066
23.31753343374794 48.8964
23.340267045128353 49.263000000000005
23.36300158808808 49.7347
23.38591468821339 49.9169
23.408651104658304 50.4177
23.431388455719986 51.0251
23.454126742409 51.7376
23.4770436196085 52.83
23.499783787914662 54.0078
23.522524894889884 55.0244
23.54526694154616 56.1678
23.56818761219047 57.1856
23.59093154860734 57.4646
23.613676427751283 57.6734
23.636422250635754 56.6122
23.659346731118656 54.8837
23.68209445191868 53.0659
23.704843119509587 50.7052
23.72759273490623 49.0875
23.750521041644767 47.848
23.77327256312355 46.8662
23.796025035462787 46.2398
23.818956224555475 45.6581
23.841710609113413 45.7044
23.86446594758979 45.497
23.887222241002014 45.4225
23.910157285144578 44.8677
23.932915498962537 44.9159
23.955674670778713 44.7716
23.978434801611975 44.4422
24.001373717286125 44.3247
24.024135776723917 44.4308
24.046898798245582 44.3353
24.06966278287146 44.0322
24.092605586582614 43.8326
24.115371508023642 43.6933
24.1381383956401 43.5365
24.16090625045381 43.5062
24.183852958731244 43.4249
24.206622758582608 43.5302
24.229393528706886 43.323
24.252165270127392 43.2503
24.27511589952438 43.302
24.297889594216997 43.0531
24.32066426328598 42.9814
24.34343990775613 42.9006
24.36639447485003 42.8017
24.38917208083877 42.818999999999996
24.41195066531332 42.6191
24.43490819850244 42.8348
24.457688750692377 42.5489
24.48047028445616 42.5462
24.503252800821233 42.7468
24.526214300784112 42.7128
24.548998793132213 42.7466
24.57178427117417 42.4921
24.59457073593893 42.6496
24.617536219319863 42.6888
24.64032466834748 42.6742
24.663114107195035 42.4556
24.685904536893013 42.2136
24.708874020360852 42.1953
24.731666442613744 42.1169
24.754459858818787 42.0667
24.777254270007962 41.9601
24.80022777025625 41.8797
24.82302418230472 41.8644
24.845821592443674 41.8164
24.86862000170663 41.9011
24.891597535453727 41.8025
24.914397953892728 42.0931
24.93719937456671 42.0569
24.96000179851076 42.1779
24.98298338249997 42.2809
25.00578782394922 42.427
25.028593271784167 42.5514
25.05157790644186 42.9563
25.07438537804115 43.1182
25.097193859145293 43.4764
25.120003350792075 43.7609
25.142992065061257 44.0781
25.165803588823465 44.2744
25.18861612625217 44.5145
25.211429678386736 44.5648
25.234422489079968 44.4913
25.257238081693636 44.5838
25.280054692141732 44.6288
25.3028723214652 44.6121
25.325869245420463 44.7209
25.348688923599397 44.8529
25.371509623787006 44.5863
25.394331347025812 44.1739
25.41733240110666 43.7726
25.440156181590016 43.0717
25.46298098826268 42.504
25.48580682216873 42.0425
25.50881202326435 41.4884
25.53163992281684 41.1017
25.55446885274561 40.8868
25.577298814096377 40.4915
25.600308179121807 40.4347
25.623140214533745 40.5799
25.64597328451537 40.3645
25.66898578564376 40.2777
25.691820936010206 40.3489
25.714657124097695 40.2932
25.737494350954734 40.3627
25.760511045684957 40.1227
25.783350361364224 40.1353
25.806190718969255 40.0817
25.82903211955018 40.3374
25.852053024868923 40.3919
25.874896522722523 40.4039
25.897741066713106 40.3489
25.920586657892454 40.4406
25.943611790812668 40.6142
25.966459487728237 40.8537
25.989308234998564 40.7665
26.01215803367705 41.0612
26.03518741123814 41.2126
26.05803932412957 41.32
26.080892291600094 41.3062
26.10374631470478 41.3346
26.12677995397268 41.4779
26.14963609978026 41.4158
26.172493304397875 41.1122
26.19535156888223 40.8841
26.218389486949604 40.3791
26.241249882640123 40.159
26.26411134137826 40.0775
26.28715248187403 40.006
26.31001607820869 39.7857
26.3328807407756 39.7005
26.35574647063438 39.8766
26.37879191991473 39.8199
26.401659795896734 39.9618
26.424528742360263 39.9831
26.447398760366614 40.1919
26.470448535598294 40.2753
26.49332070826805 40.3342
26.516193955675355 40.7301
26.53906827888316 41.0003
26.562122397260108 41.2972
26.584998883685063 41.6554
26.607876449110325 41.7845
26.63075509460056 41.9677
26.65381357334404 42.0908
26.67669439061878 41.9571
26.699576291163382 41.8701
26.722459276044212 41.7121
26.745522132402975 41.4446
26.768407297649354 41.1478
26.791293550442003 40.8084
26.814180891848974 40.5711
26.837248143099337 40.2068
26.860137673466657 40.1172
26.88302829566349 39.8649
26.90592001075963 39.747
26.92899167420566 39.6225
26.951885586870763 39.3028
26.974780595655517 39.0617
26.99785558178161 38.9686
27.020752794605112 38.7974
27.043651106772522 38.7045
27.06655051935668 38.5435
27.089629948036183 38.3435
27.112531573292053 38.4024
27.135434302194138 38.5297
27.158338135817015 38.3033
27.181422024430987 38.5367
27.204328079372566 38.1853
27.22723524226965 38.291
27.250143514198573 38.3426
27.273231880156334 38.3642
27.296142382065014 38.1307
27.319053996245536 38.0486
27.341966723775965 38.2603
27.365059584515222 38.1811
27.38797455070062 38.2382
27.410890633481237 38.1602
27.433807833936918 38.1151
27.456905206923906 38.2193
27.47982465472398 38.1949
27.502745223449743 38.2575
27.525666914182825 38.3596
27.548768816912457 38.3718
27.571692763693633 38.2895
27.59461783573812 38.1691
27.617723149491244 37.9922
27.640650484125285 37.8153
27.66357894728264 37.9221
27.686508540048052 37.77
27.709618414237887 37.7302
27.732550278321757 37.6348
27.755483275279115 37.5647
27.778417406196485 37.7553
27.801531858397514 37.7555
27.824468269376716 37.6439
27.847405817586786 37.4891
27.870344504116094 37.766
27.893463551932008 37.9798
27.916404527281053 38.1429
27.93934664422563 38.2415
27.962289903855886 38.2741
27.98541356491974 38.5368
28.00835912214229 38.580999999999996
28.03130582533231 38.853
28.054253675581805 39.0064
28.077381967556104 38.8945
28.100332124185126 38.7983
28.123283431160893 38.7421
28.146235889577238 38.4858
28.169368830154156 38.2694
28.192323603752033 38.3641
28.215279532083304 38.0137
28.238415973016764 37.6592
28.261374223145094 37.6719
28.284333631303806 37.3401
28.307294198589954 37.338
28.330435319167677 36.9019
28.353398217078915 36.6074
28.376362277420153 36.4123
28.39932750129032 36.2823
28.422473319286713 36.0882
28.44544088262495 36.0517
28.468409612800283 35.9486
28.491379510913497 35.8331
28.51453004413313 35.7283
28.53750229057244 35.7076
28.56047570826344 35.5517
28.583450298308804 35.57
28.606605564586562 35.4028
28.629582511831156 35.5124
28.65256063474956 35.306
28.675539934446338 35.3983
28.698699951647605 35.308
28.72168161743193 35.2758
28.74466446331978 35.2481
28.767648490417624 35.1624
28.790813276438353 35.0794
28.813799678527303 35.1876
28.836787265157085 35.1052
28.859955641890075 35.2225
28.882945610203045 35.1411
28.905936766392035 35.0491
28.928929111566863 34.999
28.952102288520145 34.9468
28.975097024308607 34.9503
28.998092952423807 34.6912
29.021090073977508 34.5078
29.04426806913204 34.5844
29.067267590245258 34.4804
29.090268308143695 34.352
29.11327022394099 34.3631
29.13645305530891 34.1932
29.159457379627167 34.1374
29.18246290519685 34.0908
29.20546963313352 34.1723
29.22865731875826 34.1565
29.25166646419296 34.0597
29.27467681535305 34.0158
29.29768837335608 34.0233
29.320880931312562 33.9644
29.34389491580634 33.9361
29.366910110507334 33.9587
29.38992651653503 33.9348
29.41312396492981 34.0061
29.436142806456754 33.8416
29.45916286268059 33.7998
29.48236399319994 33.7198
29.50538649169417 33.5389
29.528410208259935 33.5212
29.55143514402014 33.2528
29.574641196749695 33.1199
29.597668583816574 32.9942
29.6206971934585 32.843
29.64372702680042 32.8825
29.666938019934474 32.6646
29.689970313635285 32.7477
29.713003834422636 32.8182
29.73603858342347 32.7455
29.759254535188578 32.6286
29.78229175361658 32.5163
29.80533020365064 32.6566
29.82836988641968 32.6145
29.85159081507472 32.5097
29.874632976355343 32.5052
29.89767637376955 32.5056
29.920721008448314 32.335
29.9439469322847 32.3325
29.96699405457564 32.249
29.9900424175358 32.2841
30.013092022298157 32.3009
30.03632295963995 32.202
30.059375061131373 32.2005
30.08242840783577 32.3229
30.105483000888153 32.2323
30.128718970092244 32.1236
30.151776069006917 32.1204
30.17483441768648 32.1726
30.198074175317235 32.0745
30.221135036724256 32.1737
30.24419715131772 32.1017
30.267260520236203 31.9986
30.290505341942243 32.0835
30.313571232750228 32.0031
30.336638381310948 31.9886
30.35970678876503 31.9973
30.38295669299435 31.9168
30.40602763151657 32.0843
30.429099832366074 31.9876
30.452173296685572 31.9125
30.47542830191959 31.8373
30.498504306502497 31.8445
30.521581577995562 31.9098
30.544660117543582 32.0138
30.56792024229725 32.03
30.59100133132069 31.9765
30.614083691845494 31.9935
30.637167325018545 32.1092
30.660432587840603 32.0932
30.683518779717886 32.0398
30.70660624769615 31.9819
30.729694992924372 31.9929
30.75296541239743 31.9706
30.77605672557558 31.9053
30.799149319462742 31.8654
30.8224236211637 31.759
30.845518789950724 31.6514
30.868615242910597 31.6838
30.891712981195973 31.4723
30.91499247215866 31.3957
30.938092794619365 31.3213
30.96119440587579 31.316999999999997
30.984297307082752 31.158
31.00758200598383 31.108
31.030687500658694 31.0537
31.053794288760695 30.9944
31.076902371446767 30.8858
31.100192296997445 30.9634
31.12330298246119 30.8956
31.14641496599209 30.7622
31.169528248749216 30.8507
31.19282341969534 30.7591
31.215939314557186 30.7754
31.239056512134788 30.8171
31.262175013589378 30.6789
31.28547544871168 30.6283
31.30859657161541 30.5878
31.331719001892175 30.6504
31.35484274070538 30.7256
31.378148458819545 30.7396
31.401274828443725 30.7341
31.424402510106933 30.6662
31.447712205419993 30.7499
31.470842524931633 30.6459
31.493974159989783 30.5995
31.51710711176168 30.5692
31.54042212308802 30.7117
31.563557722100917 30.6318
31.586694641341655 30.5064
31.609832881979628 30.2953
31.63315322823208 30.1972
31.656294125521327 30.1285
31.679436347728515 30.0885
31.70257989602529 30.1036
31.725905596152327 29.9949
31.74905181052835 29.8745
31.772199354521323 29.9406
31.79534822930507 29.9669
31.818679302290967 29.9729
31.84183085259981 29.9673
31.864983737233473 30.0331
31.88813795736804 29.9461
31.911474422233013 29.8059
31.934631327356435 29.8803
31.9577895715215 29.91
31.980949155906522 29.8158
32.004291031706956 29.8499
32.027453310562606 29.7272
32.05061693318573 29.4994
32.07396288236386 29.5294
32.09712920658542 29.5089
32.12029687812702 29.3301
32.14346589817093 29.3664
32.166817291729984 29.3146
32.18998902288583 29.2091
32.21316210610336 29.0948
32.23633654256711 29.0414
32.259693399663725 29.0319
32.282870556771144 28.9632
32.30604907069099 29.0917
32.329228942610065 28.9114
32.35259128243769 28.7822
32.375773884550505 28.6596
32.398957848235646 28.6077
32.422143174682176 28.7111
32.445511016471215 28.6687
32.468699082679954 28.590999999999998
32.49188851523011 28.4217
32.51507931531304 28.3282
32.538452678331 28.4553
32.56164622776311 28.4126
32.58484114831493 28.2981
32.60803744118015 28.3126
32.631416344731896 28.2813
32.654615396551876 28.2607
32.67781582427913 28.2277
32.701198898634416 28.1182
32.72440209253756 28.0253
32.747606665947124 28.0595
32.77081262006088 27.8458
32.79420126883317 27.9666
32.81740999876112 27.9607
32.840620112999424 27.8871
32.86383161274818 27.8076
32.88722585534586 27.7873
32.91044014056596 27.8776
32.933655814909734 27.8527
32.95687287957963 27.8484
32.98027273544904 27.7366
33.00349259526636 27.6181
33.026713849030116 27.612
33.04993649794511 27.7083
33.073341986570746 27.6489
33.09656744032826 27.5916
33.11979429286444 27.6371
33.14302254538647 27.6173
33.166433686291185 27.6383
33.18966475336992 27.5163
33.212897224069096 27.4785
33.23613109959831 27.4145
33.259547912343415 27.4637
33.2827846121627 27.3749
33.306022720453775 27.3339
33.32926223842861 27.2566
33.352684742614166 27.2646
33.37592709463173 27.2058
33.399170859982064 27.1677
33.422597648419426 26.9954
33.44584425514446 26.9219
33.46909227885668 26.9821
33.4923417207723 26.7712
33.51577423505344 26.7027
33.539026528130385 26.6766
33.56228024307245 26.6937
33.585535381098246 26.5681
33.60897364093058 26.4998
33.63223163992385 26.5216
33.6554910656699 26.5905
33.678751919389796 26.6211
33.702195944520106 26.3548
33.72545966903325 26.355999999999998
33.74872482519663 26.3379
33.771991414233746 26.2587
33.79544122444841 26.2297
33.81871069412428 26.0945
33.84198160035767 26.1239
33.86525394437455 26.1691
33.88870955949969 26.1193
33.911984794020626 26.1765
33.93526147001624 26.086
33.958539588715006 25.9693
33.98200102861669 25.9659
34.0052820477047 25.9167
34.02856451319451 25.8719
34.05203033759056 25.7193
34.07531571090147 25.8061
34.09860253431845 25.8298
34.121890809074316 25.7352
34.145362493118924 25.6885
34.16865368561615 25.628
34.191946333164054 25.6536
34.21524043699793 25.6058
34.23871800066799 25.5528
34.26201503218366 25.4548
34.28531352370466 25.4907
34.30861347646881 25.3788
34.33209693978188 25.3847
34.3553998301885 25.3873
34.378704185565205 25.2917
34.402010007152356 25.275
34.42549939016683 25.2118
34.44880815937748 25.1133
34.472118398533134 25.096
34.49543010887669 25.0816
34.51892543169198 25.0336
34.54224009966052 24.9709
34.56555624255917 25.018
34.58887386163339 24.9365
34.61237514439016 24.8294
34.6356957311114 24.8212
34.65901779775809 24.7254
34.68252356662995 24.6514
34.705848608458616 24.7564
34.72917513396849 24.6685
34.75250314440949 24.6298
34.77601490857862 24.5423
34.799345904259795 24.5707
34.82267838863559 24.5539
34.846012362958525 24.5188
34.869530142679984 24.3902
34.89286711232212 24.4105
34.91620557568269 24.4248
34.93954553401677 24.4188
34.9630693495876 24.3764
34.986412313340814 24.3716
35.00975677584668 24.4041
35.033102738362956 24.3029
35.05663261012228 24.1198
35.0799815881786 24.1712
35.10333207003229 24.1834
35.12668405694369 24.1447
35.150220005273056 24.0754
35.17357501786656 23.997
35.19693153931268 23.9818
35.220289570874385 23.9978
35.24383161619786 24.0758
35.267192683604904 24.0271
35.290555264930376 23.9409
35.314101899412165 23.8946
35.33746752422433 23.8845
35.36083466676374 23.9663
35.38420332829803 23.8196
35.407756095629054 23.8124
35.43112781085063 23.8204
35.45450104888391 23.7628
35.477875810999194 23.749000000000002
35.50143473172161 23.7112
35.52481255774625 23.7012
35.54819191167777 23.5689
35.57157279478914 23.5544
35.595137889488406 23.5574
35.61852184675279 23.552
35.641907337029984 23.4558
35.665294361595684 23.4017
35.68886565090076 23.3728
35.7122557598848 23.3517
35.73564740699838 23.4032
35.759040593519934 23.2701
35.78261809810353 23.3454
35.80601437933051 23.2093
35.829412203814705 23.1823
35.85281157283719 23.0592
35.876395313415884 23.0853
35.8997977874528 23.0518
35.92320180988546 23.1035
35.946790244133936 22.9263
35.97019737933222 22.9963
35.993606066789866 22.916999999999998
36.01701630779276 22.9444
36.04061101440684 22.8084
36.06402437852291 22.7613
36.08743930005611 22.8126
36.1108557802951 22.7588
36.13445678011326 22.7219
36.15787639383515 22.6562
36.18129757014299 22.642
36.20472031032821 22.6613
36.22832762423364 22.5387
36.25175350829375 22.4774
36.275180960119776 22.4991
36.298609981005924 22.4832
36.32222362992669 22.3879
36.34565580510207 22.4863
36.36908955323448 22.3821
36.39252487562093 22.342
36.416144880530226 22.2777
36.43958336764275 22.271
36.463023432914625 22.2673
36.486465077645676 22.1873
36.51009145956204 22.2906
36.53353627947859 22.195
36.55698268276811 22.1233
36.58043067073321 22.0777
36.60406345072071 22.0317
36.62751462435344 22.0257
36.65096738658405 22.061
36.67460498210655 21.9805
36.69806093788647 22.011
36.72151848619297 21.8532
36.744977628333636 21.8234
36.76862165890998 21.7125
36.79208400512205 21.8302
36.81554794910557 21.8059
36.83901349217101 21.693
36.862663978991606 21.6438
36.88613273667352 21.6483
36.90960309738324 21.6168
36.933075062434064 21.4885
36.95673202673572 21.5074
36.98020721697122 21.5264
37.003684015502365 21.5083
37.027162423645365 21.4144
37.050825886711465 21.3683
37.07430753063053 21.3245
37.09779078812467 21.3144
37.121275660513014 21.334
37.144945643673694 21.3022
37.16843376245278 21.2769
37.19192350009803 21.2619
37.215414857931435 21.174
37.239091382563885 21.1061
37.262585997426164 21.0878
37.28608223645736 21.0587
37.309763684451696 21.0983
37.33326318851098 21.0314
37.356764320726555 20.9878
37.380267082425526 21.0039
37.40395510942588 20.9322
37.42746114683234 20.927
37.45096881771841 20.901
37.474478123414166 20.8448
37.49817275092816 20.8491
37.52168534303452 20.8268
37.54519957395567 20.7818
37.568715445024665 20.6833
37.592416694607714 20.6063
37.61593586281424 20.7011
37.63945667518264 20.5913
37.66297913304891 20.5069
37.68668702630454 20.4982
37.710212792059274 20.4853
37.733740207334854 20.4592
37.757269273470364 20.4366
37.780983832050374 20.4093
37.80451621684926 20.3497
37.82805025654007 20.3749
37.851585952464795 20.2843
37.8753071980695 20.1811
37.89884622345676 20.1389
37.92238690911902 20.1744
37.94611318753442 20.1173
37.969657210779765 20.1195
37.99320289834801 20.1121
38.016750251586465 20.0819
38.04048325513017 20.0185
38.06403395679343 19.958
38.087586328183946 19.9312
38.11114037065203 19.9389
38.13488012115898 19.9624
38.1584375229181 19.8607
38.181996599821 19.8416
38.205557353221124 19.78
38.229303872575656 19.7927
38.2528679961576 19.8369
38.27643380031219 19.7126
38.30000128639589 19.615
38.32375459653193 19.6618
38.34732546371299 19.7269
38.37089801690786 19.5617
38.39447225747609 19.609
38.418232380377425 19.5142
38.441810012983396 19.4953
38.46538933705673 19.5215
38.488970353960084 19.4246
38.51273731166058 19.4093
38.536321731567014 19.3257
38.55990784840681 19.351
38.58367995004091 19.2633
38.60726947812959 19.2482
38.63086070726198 19.2195
38.654453638806274 19.3223
38.678232613930824 19.1878
38.70182896773327 19.1602
38.72542702806741 19.1272
38.7490267963045 19.1026
38.77281266709232 19.0622
38.79641586862214 19.0358
38.8200207821842 19.004
38.843627409152944 19.0215
38.86742019782782 18.9393
38.891030269149255 18.89
38.914642058016156 18.9054
38.938255565806124 18.8685
38.96205529464307 18.8523
38.98567225787121 18.7932
39.00929094417078 18.8345
39.03291135492255 18.7923
39.05671804624804 18.7585
39.080341923549106 18.6794
39.103967529460334 18.6324
39.127594865365744 18.57
39.15140854155791 18.5817
39.17503935514948 18.5217
39.19867190290282 18.5396
39.22249083587951 18.521
39.24612686969409 18.5071
39.269764641845306 18.4579
39.293404153722804 18.351
39.317230110864074 18.3168
39.34087311998506 18.3355
39.36451787301696 18.3406
39.388164371352595 18.2732
39.41199737518003 18.2185
39.43564738196752 18.2014
39.45929913825317 18.1693
39.48295264543308 18.1936
39.506792718520884 18.1762
39.530449745387216 18.0441
39.55410852735203 18.0652
39.57776906581474 18.1245
39.60161623079 18.0039
39.625280300200025 17.9456
39.64894613032202 17.8722
39.67261372255866 17.9788
39.6964680021016 17.9432
39.72013913657293 17.8983
39.74381203738292 17.892
39.76748670593756 17.8871
39.79134812278169 17.838
39.81502634488497 17.8084
39.83870633896685 17.7809
39.862388106436654 17.7582
39.88625668336918 17.7199
39.90994201572829 17.769000000000002
39.933629125719285 17.6599
39.957503091207826 17.6134
39.9811937746168 17.6183
40.00488623990914 17.5056
40.02858048850006 17.5654
40.05246165409549 17.5141
40.076159487492085 17.4915
40.099859108448875 17.4563
40.123560518384345 17.3923
40.1474489070226 17.4032
40.171153913178564 17.3819
40.194860712584955 17.3542
40.2185693066637 17.297
40.242464941335314 17.2822
40.26617714307655 17.2774
40.289891143772046 17.2085
40.3136069448471 17.2284
40.33750984859743 17.1642
40.3612292688043 17.1517
40.3849504936829 17.1127
40.40867352466194 17.0623
40.43258372059144 17.0556
40.45631038219906 17.0648
40.48003885420956 17.003
40.503769138055105 16.9996
40.52768664931955 16.9802
40.55142057531802 16.9603
40.57515631746428 16.9012
40.599079334038514 16.8985
40.62281872700477 16.8273
40.64655994043941 16.8045
40.67030297578061 16.8
40.69423334835778 16.7326
40.71798004609188 16.7152
40.74172857006355 16.7081
40.76547892171441 16.6937
40.7894166736039 16.6324
40.813170699248566 16.5771
40.83692655691388 16.5551
40.86068424804498 16.5709
40.884629402612525 16.5941
40.908390779366385 16.5989
40.932153993938 16.4525
40.95591904777605 16.4642
40.979871628443995 16.4902
41.003640379561936 16.463
41.02741097430883 16.3782
41.05118341413683 16.3697
41.075143444384416 16.3514
41.098919593177826 16.3399
41.1226975914255 16.2835
41.14647744058318 16.2023
41.170444943946755 16.2357
41.19422851378379 16.2389
41.218013938914645 16.1886
41.24198706625173 16.1661
41.26577622087193 16.1326
41.289567235177785 16.1332
41.31336011063129 16.0439
41.337340752422875 16.0464
41.361137369129835 16.0393
41.38493585138705 16.0001
41.40873620066004 15.9304
41.43272438060107 15.9281
41.45652848292052 15.8971
41.48033445666918 15.8363
41.50414230331616 15.8189
41.528138045159764 15.8449
41.551949656675205 15.7719
41.575763145513235 15.7431
41.59957851314666 15.7305
41.62358184070442 15.6916
41.64740098505737 15.675
41.6712220126409 15.6232
41.69504492493139 15.6657
41.71905586207357 15.6588
41.74288256296395 15.6209
41.766711153007456 15.6029
41.79054163368412 15.5457
41.814560204340054 15.4699
41.838394485526365 15.4942
41.86223066180303 15.4202
41.88625497706819 15.4436
41.910094962812 15.4108
41.93393684811168 15.3394
41.95778063445365 15.3036
41.981812625263366 15.2959
42.00566023303407 15.3124
42.029509746323676 15.2663
42.05336116662236 15.2547
42.077400857069705 15.2581
42.10125611078846 15.2229
42.12511327600405 15.1922
42.14897235421036 15.1225
42.173019768448455 15.1332
42.19688269209613 15.1585
42.22074753323349 15.1169
42.24461429335818 15.129000000000001
42.268669455600495 15.0475
42.292540073217886 15.0288
42.31641261433284 14.9644
42.34028708044675 14.9081
42.36435001496739 14.9162
42.38822835065557 14.9038
42.41210861586426 14.9009
42.4359908120986 14.8941
42.46006154323262 14.8011
42.48394762115317 14.8122
42.507835634632315 14.8234
42.531912233047436 14.7749
42.55580413732265 14.6908
42.579697981698 14.6999
42.60359376768525 14.6482
42.62767820545945 14.6191
42.65157789440821 14.6875
42.67547952952185 14.6253
42.699383112316 14.6061
42.72347541395347 14.5209
42.74738291190531 14.522
42.771292362102166 14.5339
42.795203766063516 14.4784
42.819303956130405 14.4398
42.843219287476536 14.3769
42.86713657716324 14.3565
42.89105582671383 14.3594
42.91516392983864 14.3377
42.939087119032166 14.3479
42.963012272677304 14.3098
42.98693939230129 14.2775
43.01105543317513 14.2371
43.034986504731386 14.2381
43.05891954686589 14.2067
43.08285456110972 14.17
43.10697856448665 14.1423
43.130917542983475 14.0844
43.15485849820081 14.1371
43.17880143167367 14.1113
43.20293342237094 14.0208
43.226880332449 14.0119
43.25082922540554 13.9939
43.27496722682525 14.0164
43.29892010567796 13.9511
43.32287497204102 13.9425
43.34683182745632 13.9229
43.370977859791836 13.9038
43.39493871351105 13.9051
43.41890156092628 13.8585
43.44286640358341 13.8299
43.46702049182749 13.8192
43.49098934522816 13.7651
43.51496019852649 13.7252
43.5389330532723 13.7119
43.56309522248204 13.655
43.58707210044314 13.6749
43.61105098451946 13.6063
43.63503187626491 13.6097
43.659202151562134 13.5714
43.68318707902681 13.5943
43.70717401884041 13.5645
43.731162972560874 13.5355
43.75534137913236 13.5075
43.779334381108384 13.4859
43.803329401683186 13.4277
43.82732644241872 13.4096
43.8515130055166 13.4349
43.87551410707659 13.3879
43.89951723350145 13.3369
43.923709934595614 13.3374
43.94771713129917 13.3105
43.97172635758096 13.2428
43.99573761501002 13.2628
44.0199385169922 13.2368
44.04395385732619 13.2203
44.067971233533086 13.2616
44.09199064718605 13.1579
44.11619977548961 13.1856
44.14022328470671 13.1466
44.16424883610785 13.1341
44.18827643127035 13.1177
44.21249381139513 13.0832
44.236525514814076 13.0719
44.26055926674478 13.0188
44.28459506876863 13.0205
44.3088207262813 12.9794
44.33286064928722 12.9712
44.35690262714919 12.9593
44.38094666145278 12.847999999999999
44.4051806219871 12.8977
44.42922879003185 12.8922
44.45327901929361 12.8762
44.477331311362136 12.8208
44.501573600619416 12.7777
44.525630039221795 12.7456
44.54968854541895 12.7577
44.573937102200176 12.7966
44.5979997645541 12.7249
44.622064499300315 12.6972
44.64613130803592 12.6675
44.67038823869318 12.7153
44.69445921643748 12.6631
44.718532272981385 12.5862
44.742607409926194 12.5919
44.76687274034801 12.5714
44.79095205918753 12.5359
44.81503346325094 12.5346
44.839116954143876 12.4849
44.86339071028742 12.427999999999999
44.88747839599524 12.4562
44.91156817336837 12.4467
44.93566004401666 12.4359
44.959942251908146 12.4142
44.984038330325966 12.3522
45.00813650686762 12.3075
45.03223678314731 12.3316
45.05652746888232 12.3317
45.08063196592069 12.3044
45.104738567558705 12.2542
45.128847275414856 12.2701
45.15314646515866 12.2298
45.17725940679741 12.1945
45.20137445952892 12.1557
45.22568004865265 12.1856
45.24979934496396 12.1208
45.27392075725247 12.0774
45.29804428714431 12.0841
45.322358426247604 12.0534
45.346486212804315 12.0201
45.370616121861914 11.9989
45.39474815505086 11.9896
45.41907087049246 11.9946
45.4432071734666 11.9441
45.46734560548283 11.9535
45.49148616817604 11.9206
45.51581748638564 11.9321
45.5399623320197 11.9137
45.56410931325473 11.8537
45.58825843173002 11.806
45.61259837920865 11.78
45.636751793816 11.7692
45.66090735060093 11.7701
45.68506505120716 11.7598
45.7094136545275 11.7287
45.73357566449271 11.6641
45.75773982322992 11.6423
45.78190613238733 11.6471
45.806263418194064 11.6239
45.83043404997326 11.6492
45.85460683713677 11.5868
45.87897065658495 11.592
45.90314777634752 11.5119
45.92732705646868 11.5352
45.9515084986045 11.493
45.97588104735473 11.4806
46.00006683541565 11.4595
46.02425479047904 11.4425
46.04844491420549 11.4357
46.0728262191024 11.4302
46.09702070211635 11.401
46.12121735879483 11.3361
46.14541619080294 11.3582
46.169806278764455 11.3598
46.194009483459034 11.3244
46.21821486849841 11.2904
46.24242243555223 11.2594
46.266821333570014 11.2303
46.29103328674601 11.2242
46.31524742696538 11.2326
46.33946375590237 11.225999999999999
46.36387149104216 11.1609
46.38809221957392 11.1318
46.41231514186606 11.1388
46.436540259597464 11.1104
46.460956858999374 11.062000000000001
46.48518638983522 11.0442
46.509418121166966 11.038
46.533652054678114 11.0284
46.55807754555709 11.0258
46.58231590571962 11.0232
46.60655647313217 10.9527
46.630988654873654 10.9222
46.655233659129024 10.9092
46.67948087571551 10.9156
46.70373030632484 10.8606
46.72817142736393 10.8666
46.752425308428684 10.8229
46.77668140861147 10.7821
46.80093972960865 10.7394
46.82538981736788 10.7512
46.849652602470904 10.7525
46.87391761349769 10.7649
46.8981848521493 10.7264
46.9226439341274 10.7164
46.946915650573224 10.6729
46.97118959976749 10.6617
46.99546578341598 10.6486
47.019933887188216 10.6147
47.04421456235744 10.6237
47.06849747711879 10.585999999999999
47.09278263318286 10.5911
47.11725978640143 10.552
47.14154944775105 10.4881
47.165841355555656 10.4956
47.1901355115306 10.4891
47.214621741924994 10.4788
47.23892041698887 10.4733
47.26322134538975 10.4126
47.28771440635075 10.3884
47.31201986422527 10.3944
47.33632758061436 10.3431
47.360637557241866 10.3858
47.38513974410611 10.3763
47.40945426407847 10.317
47.43377104948137 10.3038
47.45809010204344 10.276
47.48260144275502 10.2532
47.506925052572285 10.2248
47.53125093475548 10.148
47.55557909103813 10.156
47.58009961361992 10.1773
47.60443234110732 10.1779
47.62876734791564 10.0972
47.65310463578333 10.1037
47.6776343683373 10.1129
47.7019762413987 10.0772
47.72632040075572 10.0424
47.75066684815169 10.047
47.77520581885936 10.0509
47.799556865477655 9.99088
47.823910205386 9.99056
47.84826584033272 9.96829
47.87281407745551 9.942839999999999
47.89717432569297 9.96368
47.92153687423484 9.94313
47.94609208429692 9.89811
47.97045925671401 9.89081
47.99482873471275 9.89033
48.01920052005013 9.855360000000001
48.04376504619224 9.81565
48.068141469543484 9.85183
48.09252020552573 9.83755
48.11690125590099 9.78546
48.1414751266064 9.766869999999999
48.16586082917454 9.74905
48.19024885144316 9.70118
48.2146391951793 9.72745
48.239222439012764 9.711269999999999
48.26361744916137 9.68829
48.28801478610016 9.6608
48.31241445160131 9.64719
48.337007097209366 9.63286
48.36141144338331 9.59442
48.38581812345755 9.54637
48.41022713920929 9.56343
48.434829215320704 9.54556
48.45924292604658 9.55313
48.48365897780325 9.54674
48.50807737237308 9.49307
48.532688907799276 9.48903
48.55711201168574 9.44892
48.581537463754074 9.454930000000001
48.60615611725119 9.42886
48.63058628942721 9.39587
48.65501881516546 9.38943
48.6794536962573 9.39462
48.70408185970339 9.38792
48.72852147531801 9.383410000000001
48.75296345168211 9.33105
48.77740779059232 9.31243
48.80204549302823 9.33954
48.82649458091802 9.27459
48.85094603676547 9.248619999999999
48.87539986237231 9.23047
48.90004713292306 9.22337
48.92450572200832 9.189639999999999
48.94896668628025 9.19471
48.97343002754588 9.18212
48.99808689542115 9.10747
49.02255501470614 9.18252
49.04702551642794 9.14568
49.0714984023988 9.09875
49.096164896893235 9.08765
49.120642575466796 9.04865
49.145122643748394 9.02679
49.16960510355558 9.028319999999999
49.19428125404938 9.00184
49.2187685210852 9.0223
49.243258185121555 8.986360000000001
49.26794160167084 8.98669
49.2924360839405 8.926919999999999
49.31693296869764 8.95887
49.34143225776915 8.89533
49.36612538195438 8.88976
49.39062950396021 8.88751
49.41513603578346 8.88129
49.4396449792564 8.87445
49.46434784069503 8.84362
49.488861631846454 8.7682
49.513377840166804 8.76215
49.537896467493745 8.76631
49.56260909589029 8.72283
49.587132585683285 8.74235
49.611658500018365 8.73701
49.636186840738596 8.7152
49.66090926588511 8.70612
49.685442483902584 8.67114
49.70997813385706 8.65109
49.734516217597076 8.6797
49.75924846937352 8.62778
49.7837914452858 8.58558
49.80833686055187 8.559460000000001
49.83288471702571 8.540189999999999
49.85762682540054 8.613710000000001
49.882179588965734 8.56357
49.9067347993235 8.496260000000001
49.93129245833333 8.50685
49.95604445336378 8.52533
49.98060703442832 8.46701
50.005172069746266 8.49789
50.02993150438364 8.44716
50.05450147301533 8.4412
50.07907390151433 8.41973
50.10364879174981 8.428889999999999
50.12841816587289 8.406039999999999
50.1529980044635 8.37614
50.17758031042124 8.35442
50.20216508562089 8.34025
50.22694442953363 8.30618
50.25153416817468 8.28379
50.27612638170508 8.29679
50.300721072005196 8.27871
50.325510416102105 8.264710000000001
50.350110084975064 8.21632
50.37471223628208 8.226939999999999
50.39931687190919 8.213289999999999
50.424116246675766 8.17452
50.44872587605249 8.14803
50.47333799543065 8.15595
50.49795260670191 8.16635
50.52276204271512 8.1426
50.54738166295838 8.128589999999999
50.57200378079314 8.10722
50.596628398116835 8.0899
50.62144792604559 8.0761
50.646077567609396 8.07876
50.670709714377715 8.08145
50.69553683636198 8.02438
50.72017401885922 8.00775
50.7448137122895 8.01618
50.76945591856022 7.977110000000001
50.79429318636823 7.985539999999999
50.818940443716784 7.9793
50.84359021965163 7.93156
50.868242516085964 7.90885
50.893089960641895 7.872839999999999
50.917747323549435 7.864210000000001
50.94240721271973 7.86062
50.96706963007175 7.8557
50.99192728239342 7.85889
51.01659478166073 7.8405
51.04126481489051 7.82123
51.06593738400761 7.78578
51.090805275207074 7.7930600000000005
51.11548294172845 7.76575
51.14016314993547 7.7209699999999994
51.164845901758845 7.73026
51.18972406304274 7.691210000000001
51.21441192780656 7.705239999999999
51.23910234200271 7.662539999999999
51.2637953075678 7.65857
51.288683770237945 7.615489999999999
51.31338186432707 7.64346
51.33808251561888 7.60905
51.362978729967345 7.56412
51.387684521509755 7.57643
51.41239287610203 7.54645
51.437103795691165 7.542439999999999
51.46201036644977 7.52084
51.486726441956634 7.51735
51.51144508832545 7.48125
51.536166307509156 7.48225
51.56108326624387 7.47853
51.58580965706056 7.427010000000001
51.61053862657523 7.43572
51.635270176746864 7.443219999999999
51.66019755512065 7.420089999999999
51.68493429268881 7.41145
51.70967361681515 7.398219999999999
51.73441552946465 7.383939999999999
51.759353359237934 7.40981
51.7841004750961 7.358630000000001
51.80885018539685 7.32183
51.833602492111254 7.326289999999999
51.8585508051424 7.31185
51.883308330926425 7.258789999999999
51.90806845906181 7.22403
51.932831191525715 7.215510000000001
51.95779001977161 7.21391
51.98255798721516 7.19804
52.00732856494335 7.178089999999999
52.03229530577543 7.160880000000001
52.057071130455945 7.175089999999999
52.081849571391054 7.150810000000001
52.106630630568695 7.11936
52.13160794279417 7.07822
52.15639426492067 7.08091
52.18118321127822 7.08448
52.205974783860896 7.07636
52.23096269971011 7.045719999999999
52.255759551287994 7.07138
52.280559035098186 7.028760000000001
52.30536115314103 6.98067
52.33035970494467 7.03367
52.35516711807904 7.01253
52.37997717147198 6.987589999999999
52.40478986713005 6.98255
52.42979908731974 6.95907
52.454617094216 6.936380000000001
52.47943774942214 6.934189999999999
52.50426105495102 6.87367
52.529280976059844 6.87772
52.554109609024096 6.88686
52.57894089837482 6.85197
52.60377484613117 6.83925
52.62880550079408 6.81378
52.65364479223379 6.796930000000001
52.67848674816189 6.7911399999999995
52.70352547971946 6.806010000000001
52.72837279155837 6.764010000000001
52.753222773982785 6.76588
52.778075429022984 6.745610000000001
52.80312495150885 6.72858
52.827982978797436 6.74615
52.85284368481815 6.679639999999999
52.87770707160767 6.64363
52.90276741793998 6.6900699999999995
52.92763619336701 6.66065
52.952507655698504 6.65389
52.977381806977576 6.62056
53.00245301017842 6.630039999999999
53.02733256653592 6.616569999999999
53.052214817996074 6.56049
53.077099766608484 6.57246
53.102181859804446 6.57667
53.127072229988265 6.5669
53.15196530349892 6.52382
53.17686108239249 6.49183
53.20195409881522 6.50589
53.22685531582556 6.50718
53.25175924441303 6.459309999999999
53.27666588664027 6.44006
53.30176985962693 6.45306
53.3266819565689 6.47198
53.35159677336455 6.4185
53.376514312083096 6.4279
53.40162927507703 6.4065199999999995
53.42655228516116 6.39317
53.45147802340193 6.33124
53.47660125628886 6.35974
53.50153247842639 6.35687
53.52646643496923 6.31024
53.55140312799818 6.313680000000001
53.576537409691696 6.296869999999999
53.60147960336152 6.27559
53.626424539786164 6.2745
53.65137222105307 6.2595
53.67651758529126 6.23546
53.70147078399681 6.22968
53.72642673383343 6.22428
53.75138543689533 6.21685
53.776541917524526 6.19937
53.801506154876755 6.2133199999999995
53.826473151763246 6.19412
53.851442910284916 6.11228
53.87661054126026 6.139959999999999
53.9015858509782 6.12875
53.92656392866066 6.1391800000000005
53.95154477641532 6.12986
53.976723591801296 6.09513
54.00171000771266 6.09371
54.02669920004598 6.04706
54.051691170915745 6.0134099999999995
54.076881204886796 5.99638
54.101878760928514 5.99981
54.12687910187696 5.98606
54.152077577768296 6.0056
54.1770835166946 5.94405
54.20209224691339 5.95806
54.22710377055121 5.94867
54.25231352511594 5.95161
54.27733066384342 5.91279
54.30235060239643 5.8955400000000004
54.32737334290836 5.87104
54.35259441062629 5.8406400000000005
54.377622783395324 5.849559999999999
54.40265396455061 5.84799
54.42768795623251 5.85438
54.45292037169559 5.79576
54.477960012857906 5.75917
54.50300247099511 5.77554
54.52804774825457 5.7438
54.55329154616743 5.7342900000000006
54.57834249018678 5.7344599999999994
54.6033962597977 5.69949
54.6284528571545 5.70099
54.653708072335164 5.65521
54.67877035378786 5.67034
54.70383546947698 5.64738
54.72890342156389 5.61486
54.7541700889442 5.56165
54.77924374251975 5.5749
54.8043202390049 5.53
54.82959552413022 5.515969999999999
54.8546777351945 5.49866
54.87976279569621 5.44423
54.90485070780914 5.4871
54.930137506558005 5.45866
54.95523115074295 5.43992
54.98032765308844 5.42579
55.005427015775496 5.3922300000000005
55.03072536339621 5.41772
55.05583047570572 5.40225
55.080938454927676 5.31875
55.10604930325027 5.3063
55.131359235107396 5.31961
55.15647585066083 5.26165
55.181595341907496 5.28905
55.20671771104285 5.22173
55.232039262617704 5.18182
55.25716741665048 5.16485
55.28229845518636 5.17985
55.30743238042802 5.15269
55.33276558731939 5.1528599999999996
55.357905315183636 5.11216
55.383047936390035 5.0513699999999995
55.40819345314859 5.01187
55.433538351073295 5.05398
55.458689688238415 5.041580000000001
55.483843927614096 5.00592
55.509197623043605 4.97812
55.53435769621134 4.951280000000001
55.55952067826466 4.8612
55.5846865714265 4.8723
55.61005202069737 4.88446
55.63522376553902 4.89102
55.66039842818645 4.83157
55.68557601087004 4.8749199999999995
55.7109532500271 4.82901
55.73613670233794 4.75892
