TT I
1.2716486653135266 6.732010000000001
1.2939594142134223 6.858110000000001
1.3162702121660406 6.41427
1.3385810600174564 6.13197
1.3608919586137629 6.29519
1.383202908801069 6.081840000000001
1.405513911425503 6.619960000000001
1.4278249673332093 6.58834
1.4501343378461518 6.20467
1.4724455028545926 5.41068
1.4947567236847858 6.03552
1.517068001182951 5.82357
1.5393793361953272 5.43025
1.5616907295681737 5.32161
1.5840021821477681 4.542330000000001
1.60631369478041 4.720219999999999
1.6286252683124185 4.8083800000000005
1.6509369035901333 4.8543400000000005
1.6732468618895553 4.528919999999999
1.695558623192809 4.48334
1.7178704487808514 4.51755
1.7401823395001077 3.93756
1.7625012545597203 4.50537
1.7848028405262486 4.39422
1.8071218901122095 4.34636
1.8294236121921872 4.67496
1.8517427996910911 4.12341
1.8740620574440425 3.9533099999999997
1.8963639900671978 4.26224
1.9186833908139995 4.27195
1.9409854680117449 4.3257900000000005
1.9633050151394713 4.73703
1.9856246367570705 4.5346
2.0079269371922672 4.52024
2.03024671027244 4.19059
2.0525491637446027 3.99712
2.074869091674931 3.94653
2.097171701569106 3.82191
2.1194917877373847 4.58137
2.141811954326636 4.6067
2.164114805233074 4.38136
2.186435135143035 5.10839
2.208738150935709 4.97841
2.231058647554722 6.40451
2.2533792288321184 5.83735
2.275682498336085 5.49389
2.298003251406138 5.64128
2.3203066942619714 5.44728
2.3426276225136022 5.36325
2.3649486396617507 5.52465
2.387252348930071 6.01072
2.4095735463442893 5.87242
2.4318774374315884 5.99112
2.4541988185014043 6.00999
2.476502894794693 7.40722
2.498824462909887 7.21703
2.521146125856138 7.09589
2.5434504863470337 7.81332
2.5657723414244717 8.20415
2.588076895590662 8.30171
2.610398946189713 8.30464
2.6327210958598384 8.39044
2.6550259469304716 8.19791
2.6773482972090137 8.39364
2.6996533504259 8.774510000000001
2.7219759047039602 9.02244
2.744298562293959 8.3622
2.7666039251246595 7.6760600000000005
2.7889267918020164 8.36271
2.8112323652516555 8.56917
2.833555444408179 8.77534
2.8558786311183852 8.165339999999999
2.8781845268938557 8.59262
2.9005079311721484 9.02006
2.9228140460410397 9.17067
2.9451376712799635 9.36806
2.967444008632326 9.02924
2.9897678582247247 9.84556
3.0120918213106695 10.0263
3.0343984987899373 10.7022
3.0567226913198637 11.2442
3.079029599759726 11.5597
3.101354025127254 12.1985
3.123678568232338 12.1595
3.145985829517914 12.6979
3.16831061055229 13.2004
3.1906181112775593 13.9232
3.212943133635653 14.2201
3.2352682779763207 14.6571
3.2575761442691227 14.7523
3.2799015350264273 15.0592
3.302209649240067 16.1139
3.3245352898092655 16.3353
3.3468436553365257 17.0775
3.369169549113219 17.1478
3.3914955708171384 17.614
3.413804319727358 18.2877
3.4361305997334863 18.346
3.4584396084414553 18.647000000000002
3.4807661501462652 19.9909
3.503092824025881 20.0641
3.5254022288463154 19.892
3.5477291695206588 20.2326
3.5700388426251948 20.5172
3.5923660534916446 21.3285
3.6146934007816114 22.949
3.637003482731501 28.2069
3.6593311053109985 30.7678
3.681641464033634 26.6379
3.7039693653009733 23.8623
3.726297407241705 24.079
3.7486081875460804 24.2452
3.7709365132734978 24.779
3.793247578841633 25.0982
3.8155761917550093 25.4993
3.8378875459837216 25.596999999999998
3.8602164494827234 26.2964
3.882545499606844 27.0331
3.9048572932539183 27.5764
3.9271866390645718 27.8041
3.9494987298666713 28.0824
3.971828374764527 28.9372
3.9941581705403255 29.0832
4.016470713506008 29.7573
4.038800813471445 30.2923
4.061113662089144 30.778000000000002
4.0834440696459176 31.2001
4.105774632334751 31.8854
4.128087945865126 32.3512
4.150418821249301 33.4048
4.172732448931298 33.7182
4.195063640413578 34.5126
4.2173775856475215 35.4668
4.239709096631102 38.0558
4.262040768704612 52.1862
4.284355196706267 64.4612
4.306687193387355 57.0535
4.329001947444346 44.4238
4.35133427213731 40.6627
4.373666762177566 40.699
4.395982011761091 40.8417
4.418314834921175 41.4274
4.44063041906622 43.4708
4.4629635787515625 45.1496
4.4852969080429785 45.8416
4.5076130004776225 46.3141
4.529946671403969 46.2871
4.552263106909177 46.9507
4.574597122877047 48.191
4.596931312711224 49.7507
4.619248269273446 50.4511
4.6415828092605835 51.3094
4.663900117405352 52.9456
4.686235010953232 53.8619
4.708552674085913 55.3935
4.730887924602802 56.7991
4.753223354952695 58.1587
4.775541557023902 58.988
4.797877349456786 60.3464
4.820195915032126 62.8715
4.842532072957498 63.8782
4.864868414979744 65.8976
4.88718753227192 67.676
4.909524244902505 69.7396
4.931843734218147 71.2522
4.954180820867835 74.1889
4.976518095879839 76.7424
4.998838149695359 79.4768
5.021175803844231 82.6949
5.043496238205739 85.9832
5.065834274903528 88.9343
5.088172504230693 92.777
5.1104935158799565 98.0301
5.132832132875765 105.26899999999999
5.155153533596801 117.991
5.1774925416746225 136.985
5.199814334878411 229.91400000000002
5.2221537374521505 782.9630000000001
5.244493338631803 2445.19
5.266815727034316 7121.79
5.289155727832427 13450.0
5.311478517248165 9553.25
5.333818921080011 3311.04
5.356159527788849 701.538
5.3784829252032536 218.507
5.400823940070432 146.83700000000002
5.423147747031976 124.62700000000001
5.445489173474152 114.51299999999999
5.467830807066149 108.366
5.490155234831516 104.459
5.512497285125229 100.79899999999999
5.534822130975162 99.3262
5.557164601388673 97.0096
5.579489868738879 94.4404
5.601832762690846 92.8356
5.6241758697774475 91.9968
5.646501775867269 91.1257
5.668845311622074 90.2472
5.691171647754637 89.4873
5.713515615597765 88.6629
5.735859800852677 87.398
5.758186788542988 86.3592
5.780531411018185 86.2835
5.802858837297399 86.0743
5.825203900414495 86.2198
5.8475491852224 86.3771
5.869877275883075 86.8781
5.892223006467101 88.0043
5.914551544266608 89.1016
5.936897724049891 90.9526
5.959244129804903 95.0331
5.981573344815301 106.01299999999999
6.0039202049061 161.635
6.026249875609095 386.541
6.04859719346037 877.06
6.070927323278297 2045.46
6.093275102315365 4576.56
6.115623113320588 5731.42
6.137953938319995 3549.08
6.160302415650845 1056.51
6.182633708324452 240.15900000000002
6.2049826554078376 108.949
6.227331838745022 87.1322
6.249663839443684 79.5833
6.27201349767565 75.9416
6.294345974611799 73.6867
6.316696111167083 72.8919
6.339046488263839 71.8773
6.361379686074702 68.6276
6.383730546639482 66.4573
6.406064229255215 64.607
6.428415576718203 64.3132
6.450749747566656 63.3033
6.47310158535871 62.1752
6.495453669698332 61.5427
6.517788579421056 61.2204
6.540141159237969 59.9718
6.562476565766648 59.3712
6.5848296444934045 58.9034
6.607182974060425 58.2322
6.6295191323281015 57.7767
6.651872965955752 57.6222
6.6742096296068985 58.8277
6.6965639707294615 63.0312
6.71891856698715 64.064
6.741255995248479 59.8737
6.763611104154477 56.2714
6.785949046381137 55.1907
6.808304671371482 54.3898
6.8306605557940046 54.3528
6.852999275508618 53.6582
6.875355681171544 53.4964
6.897694923437771 53.4146
6.92005185377892 53.3018
6.9423916220322655 53.07
6.964749080490181 52.6717
6.987106804399774 52.2118
7.009447368180821 52.2804
7.031805625367033 52.2981
7.054146723727803 52.5319
7.076505517631004 52.2867
7.098864581288365 52.4203
7.121206488070854 51.7518
7.143566093607822 51.6987
7.165908543567245 51.5912
7.188268694426048 51.2978
7.2106291193438095 50.9451
7.232972390625943 51.2375
7.255333366030969 51.7683
7.277677189091925 55.8386
7.300038718428332 61.8651
7.322400526130865 61.3208
7.344745183422596 55.6974
7.367107550224791 52.1329
7.389452767901992 51.2148
7.411815697249891 51.5064
7.434161478756298 51.1633
7.456524974096713 51.4365
7.478888753837185 51.7797
7.501235387657368 53.08
7.523599738562711 60.0566
7.545946944825532 72.1672
7.568311870344528 76.8613
7.5906770845765665 67.031
7.613025156078678 57.3347
7.635390950099687 54.2878
7.657739602662809 53.0642
7.680105979923558 52.4518
7.702472650212829 52.9567
7.724822180948224 52.9113
7.747189439655568 53.3999
7.769539560075357 52.958
7.791907410653562 53.1679
7.81425812420825 53.6342
7.836626570110925 53.869
7.858995315087906 54.7256
7.881346924933401 54.7861
7.903716270417482 55.2948
7.926068482028405 55.2886
7.948438431475253 56.0693
7.9708086843180235 56.5547
7.993161805171116 57.2574
8.015532667162402 57.2548
8.037886398416653 58.2374
8.060257873014221 58.7906
8.082629655331942 59.5381
8.104984308787587 60.0039
8.127356708900503 60.9077
8.149711981398308 62.376999999999995
8.172085002766314 63.1718
8.194458336181368 63.9722
8.216814543847752 64.32600000000001
8.23918850371002 65.6023
8.26154533906492 66.4917
8.283919928836452 68.0213
8.306277395339652 69.2419
8.328652618483376 70.4245
8.351028159736202 71.9537
8.373386579575245 73.7796
8.395762759396959 75.2078
8.418121819038275 77.3459
8.440498640894003 81.0372
8.462875785192262 86.0347
8.485235811156207 94.0456
8.507613602688501 126.90799999999999
8.529974277114228 224.894
8.552352719347912 362.62300000000005
8.574731488360351 603.346
8.59709314210385 1072.76
8.619472567021075 1816.65
8.64183487789147 2249.08
8.664214962183097 1955.21
8.686577933647762 1100.69
8.708958680784317 415.33099999999996
8.731339760774953 174.69299999999998
8.753703729764451 109.411
8.77608547780821 94.6848
8.798450116065078 90.8705
8.820832535634787 88.1372
8.843215292401656 86.3931
8.865580941199045 85.295
8.887964374703538 83.8504
8.910330701447199 83.40100000000001
8.932714815164482 82.7625
8.955099270424924 82.1912
8.977466620733543 81.22399999999999
8.999851761421976 81.0048
9.022219798361645 80.1322
9.04460562795561 79.8786
9.066991803441677 79.025
9.089360876979615 79.3603
9.111747746589993 79.2903
9.13411751544971 78.5937
9.156505082664324 78.4738
9.178875550323522 79.4296
9.20126381862328 81.8054
9.223652438908596 92.9339
9.246023961427412 111.149
9.26841328802173 118.53299999999999
9.290785518039224 106.182
9.313175554425882 90.2895
9.335565947154315 82.038
9.357939245086508 80.0734
9.380330352834827 79.7448
9.40270436697103 79.8524
9.425096193225055 79.6582
9.447488380180165 80.2734
9.469863475295412 80.5204
9.492256385987508 80.5696
9.514632206018318 81.4195
9.537025843935714 81.7683
9.559402392368193 82.1435
9.581796761000229 83.23200000000001
9.604191496441521 83.4386
9.626569144158516 84.2523
9.648964615551032 85.2585
9.671343000390081 86.14
9.693739211225699 87.1599
9.716135793237463 87.6254
9.738515290448102 88.3829
9.760912617143402 89.4511
9.783292860202891 90.2273
9.805690935076182 91.0894
9.828089385495742 92.1338
9.850470754023561 94.1009
9.872869957865444 95.9024
9.89525208097539 98.5919
9.917652041736662 102.43700000000001
9.940052382417589 105.921
9.962435644102392 114.637
9.984836746950979 146.393
10.007220771957746 223.981
10.029622640473708 340.98800000000006
10.052007432299963 503.87199999999996
10.074410069984072 761.3639999999999
10.096813093716005 1187.61
10.119199042482517 1748.27
10.141602840636468 2086.9
10.163989564971628 1681.29
10.186394141051062 1005.04
10.208799107559706 443.976
10.231187001965623 201.84799999999998
10.253592751657669 125.184
10.275981430388155 107.37700000000001
10.298387966769793 102.779
10.320794897965431 102.037
10.343184759907361 100.79700000000001
10.36559248305461 98.9092
10.387983138083852 97.5533
10.410391656691655 98.5779
10.432800574501677 106.905
10.455192425893369 128.716
10.47760214443012 158.815
10.499994797678786 199.183
10.522405320453982 265.541
10.54479877906917 376.176
10.567210109595656 503.916
10.5896218454736 591.6419999999999
10.612016518879773 542.306
10.634429067781074 379.30199999999996
10.656824555333241 225.456
10.679237920773568 140.757
10.701651695961992 104.705
10.724048411481384 93.5604
10.746463008485165 86.1626
10.768860546937125 82.4636
10.791275969274796 80.2122
10.81369180576079 78.6983
10.836090585366925 77.5303
10.858507252467449 76.545
10.88090686379991 75.2354
10.903324365036394 74.5132
10.925724811614439 73.4415
10.948143150509463 73.2238
10.970561909719066 72.2208
10.992963615930844 71.5085
11.015383218085756 70.5714
11.037785768347074 69.3399
11.06020621697282 68.8738
11.082627090322113 68.3073
11.105030913430326 68.1029
11.12745263854165 67.5125
11.149857314510728 66.9556
11.172279894912576 67.7799
11.194702904450653 67.0271
11.217108866490921 66.4449
11.239532736615194 65.482
11.26193956033512 65.0388
11.284364294577085 64.4742
11.306789462371718 64.1263
11.329197585398376 63.542
11.351623622610898 63.5887
11.37403261614354 62.6964
11.396459526308487 62.8392
11.418869393879497 62.2948
11.441297180532617 62.0138
11.463725406927658 61.4742
11.486136592353875 61.3458
11.508565700543707 60.9767
11.530977768845315 61.2579
11.553407762368774 60.8374
11.575838200059769 61.0581
11.598251599479612 60.7002
11.620682927815501 60.2741
11.64309721895548 60.3425
11.665529441478206 60.2396
11.687962112597958 60.0168
11.710377748130886 60.0792
11.732811318753434 59.9503
11.755227854859067 59.7862
11.777662328529495 59.8219
11.800079768750786 59.4358
11.822515149015453 59.5748
11.844950984084935 59.8769
11.867369787303163 59.5961
11.889806534289491 60.2169
11.912226250487029 62.1622
11.934663912939751 65.7569
11.9571020346363 69.1236
11.979523127133968 69.609
12.001962169624331 67.5421
12.024384183972964 64.2593
12.046824150809913 64.4596
12.069264581333726 68.7919
12.091687985297767 76.1299
12.11412934550045 85.2452
12.136553680195208 98.3
12.158995973632788 118.259
12.181438735204349 146.575
12.20386447284199 177.35
12.226308172985636 207.37099999999998
12.24873485024193 213.523
12.271179492516982 180.607
12.293607112949127 134.96
12.316052700916226 97.2195
12.338498763250042 73.3586
12.360927805303868 64.3071
12.383374818673879 61.9054
12.405804812803074 61.0985
12.428252780773262 61.0481
12.45070122756722 61.1346
12.473132656675375 60.7552
12.49558206341869 61.0329
12.518014453510101 61.0897
12.540464823770117 61.143
12.562915677315177 61.3112
12.58534951575545 61.5929
12.607801338171472 61.6675
12.630236146511358 62.2722
12.652688941369085 63.3925
12.675124723177234 63.7202
12.697578494048786 64.2269
12.720032754458185 63.8295
12.742470003354093 63.952
12.764925245138771 64.367
12.787363476431278 64.4999
12.809819703166806 65.0211
12.83227642391173 65.6062
12.854716135692716 66.1502
12.877173846755147 67.0583
12.899614549869717 67.6329
12.9220732548287 68.4885
12.94453245827299 68.96300000000001
12.966974655289818 69.7587
12.989434858002571 70.3672
13.011878055298721 71.4156
13.034339260862497 72.4288
13.056800969391883 74.0579
13.079245674017244 76.6032
13.101708390774869 78.2515
13.12415410463411 82.3901
13.146617833206086 92.2088
13.169064559883248 106.84200000000001
13.191529303857127 124.39399999999999
13.213994557076367 145.61
13.236442809902437 177.58900000000003
13.258909083908291 225.31400000000002
13.28135835851934 289.029
13.30382565690295 362.621
13.326293469022952 427.958
13.348744283242008 440.967
13.371213125129904 379.236
13.39366497011003 279.928
13.416134845360597 185.47299999999998
13.438605238843131 126.76
13.46105863690397 101.914
13.483530069144786 98.805
13.505984506951902 106.37799999999999
13.528456981549432 118.75299999999999
13.550929978879088 133.778
13.573385983253365 154.265
13.595860028340867 187.06799999999998
13.618317081455832 234.50799999999998
13.64079217790333 293.747
13.663250283359057 354.37
13.685726434770173 391.847
13.708203115221277 361.69
13.730662806148091 289.99
13.75314054697177 208.06900000000002
13.775601299246777 138.638
13.798080104050406 100.59100000000001
13.820559442405358 84.6053
13.843021793671388 79.339
13.865502201420897 77.237
13.887965623051947 76.4599
13.910447103807167 75.4171
13.932929122629764 74.3876
13.955394156785959 74.1533
13.977877254034569 73.2785
14.000343367582113 72.6022
14.022827546871707 71.6869
14.045294743423524 71.1813
14.06778000837062 70.428
14.090265817715476 70.9071
14.112734645763819 71.9268
14.13522154619454 74.03
14.157691466286913 76.1582
14.180179461423874 76.2916
14.202668005486178 73.9124
14.22513957064374 70.9879
14.247629214846473 68.7281
14.270101881097517 67.711
14.29259262906496 67.4625
14.315083930490205 67.1097
14.337558255389705 66.8675
14.360050666019726 66.8492
14.382526101071944 66.7576
14.405019624534942 66.399
14.427513705993134 65.9861
14.449990813291825 66.05
14.47248601302899 66.0389
14.49496423954951 66.1034
14.517460561197822 66.0711
14.539939910570322 65.8979
14.562437357763558 66.1744
14.58493536931253 66.2527
14.607416409993311 66.2485
14.62991555254159 66.6038
14.652397725157423 66.9514
14.674898002342799 67.1316
14.697398848433282 67.2286
14.719882725991326 68.1144
14.74238471217934 68.3796
14.764869730765593 70.1631
14.787372860692983 74.2249
14.809876564079925 80.47800000000001
14.83236330125751 87.8951
14.854868153850365 96.5911
14.877356041159485 108.495
14.899862046604186 124.25299999999999
14.922351087688757 146.798
14.944858249632887 177.292
14.967365991421232 206.72099999999998
14.989856770231246 226.327
15.012365673994204 229.206
15.03485761569738 200.298
15.05736768508665 160.821
15.07987833888692 122.305
15.102372032001655 93.446
15.124883856909658 77.1038
15.14737872204565 70.7865
15.169891721717274 68.6087
15.192405310371893 67.4988
15.214901940621196 67.1505
15.237416709527137 66.2969
15.259914520936249 66.202
15.282430473753607 65.3654
15.304947020131227 65.0263
15.327446610371178 64.6964
15.349964346154254 64.2154
15.372465126703139 64.065
15.394984055556009 64.0028
15.417486030076159 63.6718
15.44000615566487 63.5871
15.462526881230803 63.4143
15.485030653812652 63.2211
15.507552581617434 63.0892
15.530057557334603 63.2052
15.55258069104857 63.2077
15.575104429329837 63.3761
15.597611216864632 63.0053
15.620136166564563 63.1801
15.6426441664095 63.4611
15.665170331202765 64.827
15.687697105158826 68.0276
15.710206930593545 73.3179
15.732734925158933 78.7836
15.755245972089478 85.3676
15.77777519094324 93.16
15.800287463046663 104.229
15.822817909869592 121.18700000000001
15.84534897229804 142.793
15.867863089299354 168.102
15.890395385222186 189.669
15.912910736597423 201.335
15.935444269699861 191.81
15.957978423016485 168.00900000000001
15.980495633101265 132.67600000000002
16.003031029129367 103.22
16.02554948280019 81.2037
16.048086125229432 69.4033
16.070623392487107 64.8025
16.09314371869582 62.9607
16.11568223789321 61.358999999999995
16.13820381691126 59.9226
16.160743591742527 59.0685
16.183283996022084 58.3933
16.205807461423195 57.29
16.228349126881973 56.7853
16.25087385432698 56.6236
16.27341678466365 56.0243
16.29594277784926 55.6803
16.31848697676433 55.5211
16.341031811604868 55.0863
16.36355971058487 55.0517
16.3861058195587 54.6404
16.40863499352978 54.2775
16.431182380342005 54.0403
16.453730407713202 53.8031
16.476261501364792 53.4388
16.498810812136167 53.3748
16.52134319004079 53.3968
16.54389378792203 53.2324
16.566445031001553 53.1402
16.588979342490088 52.8169
16.61153187824822 52.8873
16.634067483263312 52.8586
16.656621315414416 52.676
16.679175797408888 52.4938
16.701713349928728 52.56100000000001
16.72426913389191 52.6635
16.74680798922351 52.6553
16.76936507887444 52.5896
16.791905240734874 52.4971
16.814463639794468 52.6324
16.837022695210294 52.7328
16.859564824093756 52.7557
16.882125194503903 52.9594
16.904668639217885 53.467
16.927230328348003 53.8022
16.949792678493612 54.2518
16.972338104193863 54.2658
16.994901778652235 53.9558
17.017448529496576 53.5731
17.040013531998152 53.6497
17.06257920018044 53.9771
17.0851279459922 54.4016
17.107694947817667 55.5016
17.130245028099072 56.6823
17.15281336730298 58.3084
17.17536478578733 59.7391
17.19793446610687 61.6335
17.220504818648422 64.2049
17.243058251703697 67.7685
17.265629950971032 72.1003
17.288184731571736 77.0041
17.310757781306908 81.3766
17.33333150794385 82.6346
17.355888317140174 82.4835
17.37846339986244 78.2028
17.401021565958885 71.7572
17.42359800851343 65.557
17.44617513265564 61.2054
17.468735341390783 58.8247
17.491261035594565 57.4353
17.51396340099364 57.0709
17.536490463869136 56.9844
17.559018209820174 56.9361
17.58154663977963 57.0402
17.604251766089718 57.0971
17.626781572227713 57.3856
17.64931206518155 57.5404
17.671843245885103 57.9134
17.69455114821572 58.1092
17.717083712612634 58.4712
17.739616967569667 59.0011
17.762150914021706 59.9991
17.78486160749854 60.1692
17.807396945166804 60.5171
17.829932977143503 60.8426
17.85246970436452 61.6391
17.875183204129467 63.2322
17.897721330097664 66.0572
17.920260154126645 69.2945
17.942799677153296 72.5783
17.9655159983646 76.3302
17.988056927677544 80.9139
18.010598558807683 88.0423
18.033140892692916 97.0838
18.05586005052525 108.314
18.07840379824407 120.70299999999999
18.10094825154059 132.736
18.12366954819864 141.67600000000002
18.146215420998306 143.639
18.16876200220057 136.964
18.191309292745153 123.54799999999999
18.214033452627167 108.875
18.236582170236648 95.5519
18.259131600016456 87.6686
18.281681742907335 85.4049
18.304408781233683 88.1854
18.32696035875955 93.6588
18.349512652227624 98.9068
18.372065662579683 104.706
18.394795594587553 106.68799999999999
18.41735004715306 104.286
18.43990521943684 97.8657
18.46246111238171 88.9844
18.485193953325208 79.2819
18.507751296070428 70.9975
18.530309362314178 65.6094
18.552868153000343 62.828
18.57560391815056 61.318999999999996
18.59816416623245 60.9111
18.620725141597372 59.891999999999996
18.643286845190268 59.165
18.666025549835414 58.6763
18.688588718427933 58.1969
18.711152618092243 57.8748
18.73389353884365 57.5142
18.75645890921984 57.2129
18.77902501351406 56.7749
18.801591852673102 56.9597
18.824335739722738 56.4878
18.846904057212626 56.1447
18.8694731124168 55.99
18.89204290628315 55.9393
18.914789774966803 55.7642
18.937361054791623 55.42100000000001
18.959933076131318 55.1979
18.982505839934877 55.1486
19.00525570560582 55.2669
19.027829963004184 54.9645
19.05040496572238 55.2266
19.072980714710468 54.7772
19.095733592739563 54.8823
19.11831084296757 55.12
19.140888842324735 55.7178
19.16346759176222 56.0221
19.18622349753803 56.5373
19.208803755869358 57.6365
19.231384767143577 59.1277
19.253966532312948 60.3901
19.276725481241822 62.5394
19.29930876296784 65.3173
19.3218928014549 68.6163
19.34465404436217 71.9658
19.36723960516257 74.7361
19.389825925592426 75.99600000000001
19.412413006605938 75.12100000000001
19.43517731967805 72.1349
19.457765930683355 67.7151
19.48035530514408 63.195
19.50294544401556 59.2973
19.525712842708348 55.9226
19.54830451925909 54.0585
19.570896963095727 52.7522
19.593490175174704 52.3478
19.616260674962184 52.3835
19.638855432416964 51.8861
19.661450960992624 51.9013
19.68404726164677 51.9759
19.706820878021247 51.5867
19.729418731756834 51.696999999999996
19.752017360452857 51.623000000000005
19.77461676506804 51.7409
19.797393513540218 51.8433
19.819994478951667 51.7606
19.84259622316767 52.4186
19.8651987471481 52.9293
19.887978643247177 53.4254
19.91058273574792 54.201
19.933187610901943 54.8519
19.955969879466828 55.7727
19.97857632894404 57.0919
20.00118356396599 58.5954
20.023791585494575 60.6871
20.046577028914875 63.7046
20.069186632506966 66.1216
20.091797025500632 68.7432
20.114408208858933 70.0585
20.137196842715273 70.2323
20.159809615886765 68.7177
20.18242318232135 66.2362
20.20503754298326 63.7356
20.227829382875154 62.196000000000005
20.250445341109344 61.4468
20.27306209647285 61.9811
20.29567964993108 63.3698
20.31847471147704 64.6113
20.34109387027612 65.3259
20.363713830075454 65.3253
20.386334591841646 64.1399
20.409132890679302 61.3312
20.431755265564437 58.0153
20.454378445325528 55.0127
20.477002430930366 52.5508
20.499803982716553 51.1119
20.522429589228004 49.8637
20.54505600449589 49.2714
20.567683229489194 49.2871
20.590488049900088 49.0126
20.61311690359731 48.7196
20.63574656993626 48.5275
20.658553853717297 48.1986
20.681185154618298 48.2318
20.703817271080066 48.1085
20.72645020407368 47.8833
20.749260783967177 47.8688
20.771895359337133 48.213
20.794530754161617 48.0323
20.817166969412938 47.9932
20.83998086114876 47.6752
20.86261872660049 47.4855
20.885257415405402 47.3506
20.90789692853701 47.2538
20.930714147864748 46.967
20.953355319030678 46.9504
20.97599731745334 47.0581
20.99864014410749 47.0744
21.021460706796564 47.1861
21.044105199328826 47.5494
21.06675052302631 47.7354
21.089396678865015 47.7505
21.112220600704806 48.0452
21.134868430275347 48.3098
21.15751709492456 48.5432
21.180166595629693 48.7713
21.202993892429635 49.4436
21.22564507473034 49.9801
21.24829709602816 50.2126
21.27112693608965 50.4638
21.293780644891275 50.4167
21.316435195634053 49.8673
21.339090589297417 49.0769
21.361923832041875 48.4639
21.384580921090404 47.754
21.407238856007325 47.0301
21.429897637773326 47.1858
21.45273429906592 47.0922
21.475394784108598 47.0145
21.498056118951983 47.0354
21.520718304578022 47.2261
21.543558400304388 47.2162
21.566222297108816 47.3845
21.58888704765135 47.5116
21.61155265291521 47.6949
21.63439619898156 48.2878
21.657063523335786 48.6706
21.67973170537063 49.2207
21.7024007460706 49.6781
21.72524775840385 50.49100000000001
21.747918526116475 51.5125
21.770590155457388 52.4847
21.79326264741238 53.784
21.816113141960237 55.705
21.838787368860547 57.8224
21.861462461341976 60.0606
21.884315579735777 62.45399999999999
21.90699241312273 64.283
21.92967011506078 64.9937
21.95234868653799 65.0196
21.9752053151131 63.9066
21.997885635446785 62.0039
22.020566828293532 59.784
22.04324889464272 57.5968
22.066109049404666 56.2571
22.088792872571794 55.7343
22.111477572219204 55.8342
22.1341631493376 55.8069
22.157026846313123 55.8867
22.179714188221507 55.3782
22.202402410582668 54.1331
22.22509151438863 52.4794
22.24795876962584 51.0055
22.270649646204486 49.7747
22.293341407213727 48.9354
22.316034053646906 48.2303
22.338904883215342 47.9329
22.36159931041458 47.6964
22.38429462602756 47.5889
22.40699083104897 47.3111
22.429865251039757 47.3702
22.452563244831367 47.206
22.47526213102522 47.5246
22.49813925616515 47.2055
22.520839937143307 47.2014
22.543541513520587 47.4086
22.56624398629403 47.2648
22.589124730075895 47.0554
22.611829005656723 47.3369
22.63453418063466 47.4394
22.657240256008077 47.4404
22.680124634582935 47.7622
22.70283252079775 48.0738
22.725541310413075 48.3723
22.74825100442868 48.8477
22.771139033969575 49.4069
22.79385054687155 49.5025
22.81656296718292 50.1532
22.83927629590484 50.7623
22.862167992606945 51.7104
22.88488314827121 53.0041
22.907599215359284 54.2554
22.93031619487366 55.5122
22.953211574954405 56.665
22.975930389478226 57.3777
22.998650119445763 58.0836
23.02137076586092 57.3521
23.044269845560063 56.0254
23.06699233506288 54.5343
23.089715744034912 52.6555
23.112617610931565 50.8116
23.135342869061212 49.5265
23.158069049684816 48.5145
23.1807961538087 47.8566
23.20370174880544 47.6874
23.226430710184808 47.503
23.249160598093425 47.4233
23.271891413539002 47.6479
23.294800752937697 47.6797
23.31753343374794 47.9883
23.340267045128353 48.2267
23.36300158808808 48.7617
23.38591468821339 49.0351
23.408651104658304 49.4781
23.431388455719986 50.1253
23.454126742409 50.9686
23.4770436196085 51.9747
23.499783787914662 53.3232
23.522524894889884 54.4792
23.54526694154616 55.7205
23.56818761219047 56.9643
23.59093154860734 57.7414
23.613676427751283 58.3944
23.636422250635754 57.8655
23.659346731118656 56.1993
23.68209445191868 54.3526
23.704843119509587 52.0598
23.72759273490623 49.8808
23.750521041644767 47.9254
23.77327256312355 46.7215
23.796025035462787 45.8276
23.818956224555475 45.177
23.841710609113413 45.0368
23.86446594758979 44.6841
23.887222241002014 44.4187
23.910157285144578 44.2354
23.932915498962537 44.203
23.955674670778713 43.9882
23.978434801611975 43.8572
24.001373717286125 43.7976
24.024135776723917 43.605
24.046898798245582 43.5337
24.06966278287146 43.3463
24.092605586582614 43.239
24.115371508023642 43.1558
24.1381383956401 42.9547
24.16090625045381 42.8562
24.183852958731244 42.8352
24.206622758582608 42.6895
24.229393528706886 42.416000000000004
24.252165270127392 42.5367
24.27511589952438 42.5932
24.297889594216997 42.2919
24.32066426328598 42.1306
24.34343990775613 42.1568
24.36639447485003 42.1252
24.38917208083877 42.1124
24.41195066531332 42.0077
24.43490819850244 42.1104
24.457688750692377 41.7456
24.48047028445616 41.8002
24.503252800821233 41.9865
24.526214300784112 42.0285
24.548998793132213 42.0796
24.57178427117417 41.8684
24.59457073593893 41.9241
24.617536219319863 42.0913
24.64032466834748 42.0542
24.663114107195035 41.8126
24.685904536893013 41.6765
24.708874020360852 41.673
24.731666442613744 41.4033
24.754459858818787 41.2735
24.777254270007962 41.2526
24.80022777025625 41.2511
24.82302418230472 41.1815
24.845821592443674 41.125
24.86862000170663 41.1171
24.891597535453727 41.0749
24.914397953892728 41.4189
24.93719937456671 41.2101
24.96000179851076 41.5152
24.98298338249997 41.5596
25.00578782394922 41.6679
25.028593271784167 41.8216
25.05157790644186 42.3109
25.07438537804115 42.4745
25.097193859145293 42.7406
25.120003350792075 43.0936
25.142992065061257 43.4885
25.165803588823465 43.736000000000004
25.18861612625217 43.9671
25.211429678386736 44.0276
25.234422489079968 44.2088
25.257238081693636 44.1802
25.280054692141732 44.5252
25.3028723214652 44.4246
25.325869245420463 44.5607
25.348688923599397 44.4464
25.371509623787006 44.5674
25.394331347025812 44.3776
25.41733240110666 43.9491
25.440156181590016 43.0738
25.46298098826268 42.6183
25.48580682216873 41.7294
25.50881202326435 41.175
25.53163992281684 40.7115
25.55446885274561 40.4643
25.577298814096377 40.1487
25.600308179121807 39.9634
25.623140214533745 39.9536
25.64597328451537 39.8922
25.66898578564376 39.6223
25.691820936010206 39.5833
25.714657124097695 39.5405
25.737494350954734 39.6661
25.760511045684957 39.4744
25.783350361364224 39.499
25.806190718969255 39.6179
25.82903211955018 39.5682
25.852053024868923 39.7071
25.874896522722523 39.9389
25.897741066713106 39.6203
25.920586657892454 39.8054
25.943611790812668 40.033
25.966459487728237 40.1693
25.989308234998564 40.1971
26.01215803367705 40.6096
26.03518741123814 40.8881
26.05803932412957 40.8372
26.080892291600094 40.8528
26.10374631470478 41.0276
26.12677995397268 41.2232
26.14963609978026 41.1558
26.172493304397875 40.7296
26.19535156888223 40.5741
26.218389486949604 40.1059
26.241249882640123 39.7915
26.26411134137826 39.5851
26.28715248187403 39.4318
26.31001607820869 39.2887
26.3328807407756 39.0868
26.35574647063438 39.211
26.37879191991473 39.2313
26.401659795896734 39.2917
26.424528742360263 39.4158
26.447398760366614 39.4789
26.470448535598294 39.6936
26.49332070826805 39.8591
26.516193955675355 40.2245
26.53906827888316 40.4603
26.562122397260108 40.6436
26.584998883685063 41.1822
26.607876449110325 41.4726
26.63075509460056 41.5879
26.65381357334404 41.7599
26.67669439061878 41.7532
26.699576291163382 41.7948
26.722459276044212 41.595
26.745522132402975 41.3391
26.768407297649354 41.0635
26.791293550442003 40.638000000000005
26.814180891848974 40.412
26.837248143099337 40.1344
26.860137673466657 39.8424
26.88302829566349 39.594
26.90592001075963 39.4794
26.92899167420566 39.3363
26.951885586870763 39.0174
26.974780595655517 38.6892
26.99785558178161 38.5556
27.020752794605112 38.3737
27.043651106772522 38.1254
27.06655051935668 38.0277
27.089629948036183 37.9706
27.112531573292053 37.9084
27.135434302194138 37.9586
27.158338135817015 37.6909
27.181422024430987 37.8336
27.204328079372566 37.7369
27.22723524226965 37.7299
27.250143514198573 37.8203
27.273231880156334 37.802
27.296142382065014 37.6396
27.319053996245536 37.5932
27.341966723775965 37.5909
27.365059584515222 37.6878
27.38797455070062 37.6963
27.410890633481237 37.608000000000004
27.433807833936918 37.6565
27.456905206923906 37.8319
27.47982465472398 37.8406
27.502745223449743 37.8773
27.525666914182825 37.9844
27.548768816912457 37.9754
27.571692763693633 37.8631
27.59461783573812 37.7972
27.617723149491244 37.5578
27.640650484125285 37.5228
27.66357894728264 37.4257
27.686508540048052 37.3453
27.709618414237887 37.3469
27.732550278321757 37.165
27.755483275279115 37.1232
27.778417406196485 37.1276
27.801531858397514 37.2158
27.824468269376716 37.1593
27.847405817586786 37.2268
27.870344504116094 37.395
27.893463551932008 37.403
27.916404527281053 37.6869
27.93934664422563 37.7463
27.962289903855886 37.9429
27.98541356491974 38.1878
28.00835912214229 38.2805
28.03130582533231 38.5948
28.054253675581805 38.6756
28.077381967556104 38.8339
28.100332124185126 38.7517
28.123283431160893 38.5638
28.146235889577238 38.5304
28.169368830154156 38.313
28.192323603752033 38.0669
28.215279532083304 37.9393
28.238415973016764 37.6182
28.261374223145094 37.4965
28.284333631303806 37.3854
28.307294198589954 37.0917
28.330435319167677 36.61
28.353398217078915 36.5435
28.376362277420153 36.1788
28.39932750129032 35.8794
28.422473319286713 35.7517
28.44544088262495 35.6837
28.468409612800283 35.5272
28.491379510913497 35.242
28.51453004413313 35.2152
28.53750229057244 35.251
28.56047570826344 35.2007
28.583450298308804 35.2254
28.606605564586562 35.0626
28.629582511831156 35.1681
28.65256063474956 35.0009
28.675539934446338 34.986999999999995
28.698699951647605 35.0356
28.72168161743193 34.7433
28.74466446331978 34.7794
28.767648490417624 34.6846
28.790813276438353 34.722
28.813799678527303 34.6708
28.836787265157085 34.7561
28.859955641890075 34.7939
28.882945610203045 34.7867
28.905936766392035 34.756
28.928929111566863 34.7088
28.952102288520145 34.6435
28.975097024308607 34.4421
28.998092952423807 34.3879
29.021090073977508 34.2576
29.04426806913204 34.2127
29.067267590245258 34.061
29.090268308143695 34.0423
29.11327022394099 33.8855
29.13645305530891 33.7246
29.159457379627167 33.7353
29.18246290519685 33.7798
29.20546963313352 33.5623
29.22865731875826 33.7111
29.25166646419296 33.6559
29.27467681535305 33.5876
29.29768837335608 33.5277
29.320880931312562 33.5419
29.34389491580634 33.6766
29.366910110507334 33.5589
29.38992651653503 33.5573
29.41312396492981 33.6149
29.436142806456754 33.5427
29.45916286268059 33.493
29.48236399319994 33.2965
29.50538649169417 33.2314
29.528410208259935 33.0974
29.55143514402014 32.866
29.574641196749695 32.7151
29.597668583816574 32.6767
29.6206971934585 32.4498
29.64372702680042 32.4705
29.666938019934474 32.4001
29.689970313635285 32.3514
29.713003834422636 32.3239
29.73603858342347 32.2615
29.759254535188578 32.1967
29.78229175361658 32.0097
29.80533020365064 32.0785
29.82836988641968 32.1901
29.85159081507472 32.0519
29.874632976355343 31.9597
29.89767637376955 31.9808
29.920721008448314 31.9435
29.9439469322847 31.8975
29.96699405457564 31.9468
29.9900424175358 32.0057
30.013092022298157 31.8213
30.03632295963995 31.7356
30.059375061131373 31.699
30.08242840783577 31.8263
30.105483000888153 31.8299
30.128718970092244 31.8146
30.151776069006917 31.7669
30.17483441768648 31.9107
30.198074175317235 31.8176
30.221135036724256 31.8427
30.24419715131772 31.7327
30.267260520236203 31.6039
30.290505341942243 31.6322
30.313571232750228 31.6635
30.336638381310948 31.7233
30.35970678876503 31.6913
30.38295669299435 31.5547
30.40602763151657 31.6672
30.429099832366074 31.5624
30.452173296685572 31.5019
30.47542830191959 31.5355
30.498504306502497 31.491999999999997
30.521581577995562 31.5002
30.544660117543582 31.5202
30.56792024229725 31.6015
30.59100133132069 31.5403
30.614083691845494 31.5194
30.637167325018545 31.6441
30.660432587840603 31.7092
30.683518779717886 31.7502
30.70660624769615 31.756
30.729694992924372 31.6726
30.75296541239743 31.8012
30.77605672557558 31.6945
30.799149319462742 31.6118
30.8224236211637 31.568
30.845518789950724 31.4275
30.868615242910597 31.3478
30.891712981195973 31.1936
30.91499247215866 31.1696
30.938092794619365 31.0093
30.96119440587579 30.9884
30.984297307082752 30.9147
31.00758200598383 30.7905
31.030687500658694 30.7198
31.053794288760695 30.6322
31.076902371446767 30.5277
31.100192296997445 30.6383
31.12330298246119 30.4763
31.14641496599209 30.3657
31.169528248749216 30.3885
31.19282341969534 30.3482
31.215939314557186 30.404
31.239056512134788 30.3648
31.262175013589378 30.4168
31.28547544871168 30.342
31.30859657161541 30.1528
31.331719001892175 30.2996
31.35484274070538 30.3627
31.378148458819545 30.3546
31.401274828443725 30.3449
31.424402510106933 30.4565
31.447712205419993 30.5509
31.470842524931633 30.2645
31.493974159989783 30.3425
31.51710711176168 30.3301
31.54042212308802 30.3972
31.563557722100917 30.2536
31.586694641341655 30.1605
31.609832881979628 30.085
31.63315322823208 29.9586
31.656294125521327 29.8731
31.679436347728515 29.7899
31.70257989602529 29.7562
31.725905596152327 29.7041
31.74905181052835 29.5613
31.772199354521323 29.6193
31.79534822930507 29.6664
31.818679302290967 29.6839
31.84183085259981 29.5986
31.864983737233473 29.6207
31.88813795736804 29.598000000000003
31.911474422233013 29.5734
31.934631327356435 29.6981
31.9577895715215 29.6959
31.980949155906522 29.5819
32.004291031706956 29.4925
32.027453310562606 29.5173
32.05061693318573 29.3846
32.07396288236386 29.3673
32.09712920658542 29.2523
32.12029687812702 29.1642
32.14346589817093 29.0844
32.166817291729984 29.0712
32.18998902288583 28.9977
32.21316210610336 28.9274
32.23633654256711 28.7267
32.259693399663725 28.7941
32.282870556771144 28.6716
32.30604907069099 28.6935
32.329228942610065 28.5744
32.35259128243769 28.4853
32.375773884550505 28.4132
32.398957848235646 28.3889
32.422143174682176 28.3316
32.445511016471215 28.2378
32.468699082679954 28.1894
32.49188851523011 28.1463
32.51507931531304 28.144000000000002
32.538452678331 28.0379
32.56164622776311 28.0404
32.58484114831493 27.9499
32.60803744118015 27.9879
32.631416344731896 27.9966
32.654615396551876 27.8797
32.67781582427913 27.8837
32.701198898634416 27.7997
32.72440209253756 27.7628
32.747606665947124 27.7493
32.77081262006088 27.6145
32.79420126883317 27.5475
32.81740999876112 27.6333
32.840620112999424 27.5961
32.86383161274818 27.488000000000003
32.88722585534586 27.4873
32.91044014056596 27.6308
32.933655814909734 27.5164
32.95687287957963 27.4698
32.98027273544904 27.4182
33.00349259526636 27.3267
33.026713849030116 27.4096
33.04993649794511 27.3497
33.073341986570746 27.3274
33.09656744032826 27.2513
33.11979429286444 27.3015
33.14302254538647 27.2282
33.166433686291185 27.149
33.18966475336992 27.1478
33.212897224069096 27.1236
33.23613109959831 27.1658
33.259547912343415 27.1621
33.2827846121627 27.1983
33.306022720453775 27.0253
33.32926223842861 26.9972
33.352684742614166 26.994
33.37592709463173 26.8533
33.399170859982064 26.8264
33.422597648419426 26.7934
33.44584425514446 26.655
33.46909227885668 26.596
33.4923417207723 26.5376
33.51577423505344 26.5585
33.539026528130385 26.4769
33.56228024307245 26.4695
33.585535381098246 26.3052
33.60897364093058 26.3092
33.63223163992385 26.2511
33.6554910656699 26.1533
33.678751919389796 26.1653
33.702195944520106 26.0657
33.72545966903325 26.0947
33.74872482519663 25.9732
33.771991414233746 26.0027
33.79544122444841 26.0234
33.81871069412428 25.8274
33.84198160035767 25.851999999999997
33.86525394437455 25.9696
33.88870955949969 25.8863
33.911984794020626 25.8454
33.93526147001624 25.8335
33.958539588715006 25.7461
33.98200102861669 25.7593
34.0052820477047 25.6244
34.02856451319451 25.5421
34.05203033759056 25.4801
34.07531571090147 25.5395
34.09860253431845 25.5415
34.121890809074316 25.4011
34.145362493118924 25.4016
34.16865368561615 25.3555
34.191946333164054 25.3313
34.21524043699793 25.2563
34.23871800066799 25.3311
34.26201503218366 25.1858
34.28531352370466 25.1988
34.30861347646881 25.0548
34.33209693978188 25.1474
34.3553998301885 25.0732
34.378704185565205 25.0044
34.402010007152356 24.9173
34.42549939016683 24.9174
34.44880815937748 24.938000000000002
34.472118398533134 24.8222
34.49543010887669 24.8121
34.51892543169198 24.6493
34.54224009966052 24.5994
34.56555624255917 24.6664
34.58887386163339 24.6167
34.61237514439016 24.5591
34.6356957311114 24.4533
34.65901779775809 24.476999999999997
34.68252356662995 24.534000000000002
34.705848608458616 24.4486
34.72917513396849 24.3472
34.75250314440949 24.2885
34.77601490857862 24.1851
34.799345904259795 24.1635
34.82267838863559 24.2272
34.846012362958525 24.1797
34.869530142679984 24.1822
34.89286711232212 24.1792
34.91620557568269 24.09
34.93954553401677 24.0527
34.9630693495876 23.9965
34.986412313340814 24.055999999999997
35.00975677584668 24.013
35.033102738362956 23.9422
35.05663261012228 23.874000000000002
35.0799815881786 23.9417
35.10333207003229 23.8842
35.12668405694369 23.8506
35.150220005273056 23.7517
35.17357501786656 23.7762
35.19693153931268 23.8323
35.220289570874385 23.6959
35.24383161619786 23.6783
35.267192683604904 23.6737
35.290555264930376 23.7115
35.314101899412165 23.6363
35.33746752422433 23.6349
35.36083466676374 23.6368
35.38420332829803 23.5227
35.407756095629054 23.5947
35.43112781085063 23.5639
35.45450104888391 23.5777
35.477875810999194 23.5006
35.50143473172161 23.4492
35.52481255774625 23.5519
35.54819191167777 23.4065
35.57157279478914 23.3679
35.595137889488406 23.2893
35.61852184675279 23.2613
35.641907337029984 23.2188
35.665294361595684 23.2976
35.68886565090076 23.1656
35.7122557598848 23.1767
35.73564740699838 23.1794
35.759040593519934 23.1203
35.78261809810353 23.0689
35.80601437933051 22.8975
35.829412203814705 22.8689
35.85281157283719 22.863000000000003
35.876395313415884 22.869
35.8997977874528 22.7867
35.92320180988546 22.7769
35.946790244133936 22.7324
35.97019737933222 22.7673
35.993606066789866 22.6885
36.01701630779276 22.6831
36.04061101440684 22.5618
36.06402437852291 22.6037
36.08743930005611 22.5872
36.1108557802951 22.4847
36.13445678011326 22.5072
36.15787639383515 22.4135
36.18129757014299 22.3885
36.20472031032821 22.434
36.22832762423364 22.3345
36.25175350829375 22.3044
36.275180960119776 22.1573
36.298609981005924 22.3491
36.32222362992669 22.3117
36.34565580510207 22.2319
36.36908955323448 22.1626
36.39252487562093 22.0319
36.416144880530226 22.0421
36.43958336764275 21.9985
36.463023432914625 21.9754
36.486465077645676 21.8986
36.51009145956204 22.0004
36.53353627947859 22.018
36.55698268276811 21.934
36.58043067073321 21.9024
36.60406345072071 21.7813
36.62751462435344 21.8371
36.65096738658405 21.837
36.67460498210655 21.8364
36.69806093788647 21.747
36.72151848619297 21.6989
36.744977628333636 21.6998
36.76862165890998 21.6258
36.79208400512205 21.6083
36.81554794910557 21.5401
36.83901349217101 21.4603
36.862663978991606 21.5347
36.88613273667352 21.5018
36.90960309738324 21.5296
36.933075062434064 21.3429
36.95673202673572 21.34
36.98020721697122 21.261999999999997
37.003684015502365 21.2244
37.027162423645365 21.1697
37.050825886711465 21.1173
37.07430753063053 20.9994
37.09779078812467 21.1375
37.121275660513014 21.1513
37.144945643673694 21.115
37.16843376245278 21.034000000000002
37.19192350009803 21.0529
37.215414857931435 21.0113
37.239091382563885 20.9271
37.262585997426164 20.9095
37.28608223645736 20.872
37.309763684451696 20.859
37.33326318851098 20.7711
37.356764320726555 20.7864
37.380267082425526 20.761
37.40395510942588 20.7011
37.42746114683234 20.6677
37.45096881771841 20.6517
37.474478123414166 20.6755
37.49817275092816 20.6103
37.52168534303452 20.5704
37.54519957395567 20.493000000000002
37.568715445024665 20.5538
37.592416694607714 20.414
37.61593586281424 20.4846
37.63945667518264 20.4449
37.66297913304891 20.4106
37.68668702630454 20.3512
37.710212792059274 20.2241
37.733740207334854 20.2193
37.757269273470364 20.1916
37.780983832050374 20.0782
37.80451621684926 20.1645
37.82805025654007 20.1656
37.851585952464795 20.0967
37.8753071980695 19.9956
37.89884622345676 19.9741
37.92238690911902 19.9176
37.94611318753442 19.922
37.969657210779765 19.8889
37.99320289834801 19.8662
38.016750251586465 19.8357
38.04048325513017 19.7938
38.06403395679343 19.7912
38.087586328183946 19.7124
38.11114037065203 19.7459
38.13488012115898 19.7314
38.1584375229181 19.6384
38.181996599821 19.6129
38.205557353221124 19.6732
38.229303872575656 19.5418
38.2528679961576 19.5213
38.27643380031219 19.4337
38.30000128639589 19.4739
38.32375459653193 19.4026
38.34732546371299 19.4037
38.37089801690786 19.3233
38.39447225747609 19.2815
38.418232380377425 19.3054
38.441810012983396 19.3237
38.46538933705673 19.2484
38.488970353960084 19.2586
38.51273731166058 19.1991
38.536321731567014 19.0991
38.55990784840681 19.1886
38.58367995004091 19.1388
38.60726947812959 19.0439
38.63086070726198 19.0253
38.654453638806274 19.0092
38.678232613930824 18.9346
38.70182896773327 18.9135
38.72542702806741 18.8774
38.7490267963045 18.8748
38.77281266709232 18.8157
38.79641586862214 18.8308
38.8200207821842 18.7613
38.843627409152944 18.7814
38.86742019782782 18.6633
38.891030269149255 18.6795
38.914642058016156 18.7371
38.938255565806124 18.69
38.96205529464307 18.5699
38.98567225787121 18.5854
39.00929094417078 18.5995
39.03291135492255 18.574
39.05671804624804 18.5798
39.080341923549106 18.5167
39.103967529460334 18.4292
39.127594865365744 18.3895
39.15140854155791 18.3314
39.17503935514948 18.3501
39.19867190290282 18.3695
39.22249083587951 18.3489
39.24612686969409 18.2966
39.269764641845306 18.3118
39.293404153722804 18.2238
39.317230110864074 18.08
39.34087311998506 18.0502
39.36451787301696 18.0945
39.388164371352595 18.1053
39.41199737518003 18.1156
39.43564738196752 18.0554
39.45929913825317 18.0194
39.48295264543308 17.9819
39.506792718520884 17.9405
39.530449745387216 17.8461
39.55410852735203 17.8759
39.57776906581474 17.8939
39.60161623079 17.7978
39.625280300200025 17.7607
39.64894613032202 17.7578
39.67261372255866 17.7447
39.6964680021016 17.8021
39.72013913657293 17.7698
39.74381203738292 17.6502
39.76748670593756 17.6267
39.79134812278169 17.6483
39.81502634488497 17.6501
39.83870633896685 17.5688
39.862388106436654 17.5522
39.88625668336918 17.4791
39.90994201572829 17.4685
39.933629125719285 17.4524
39.957503091207826 17.4184
39.9811937746168 17.4348
40.00488623990914 17.3774
40.02858048850006 17.3339
40.05246165409549 17.2874
40.076159487492085 17.2752
40.099859108448875 17.2741
40.123560518384345 17.2144
40.1474489070226 17.208
40.171153913178564 17.1739
40.194860712584955 17.1604
40.2185693066637 17.1704
40.242464941335314 17.0924
40.26617714307655 17.0871
40.289891143772046 17.0719
40.3136069448471 16.9996
40.33750984859743 16.9591
40.3612292688043 16.961
40.3849504936829 16.9393
40.40867352466194 16.8942
40.43258372059144 16.9023
40.45631038219906 16.8956
40.48003885420956 16.79
40.503769138055105 16.8377
40.52768664931955 16.7815
40.55142057531802 16.7463
40.57515631746428 16.7084
40.599079334038514 16.6766
40.62281872700477 16.6056
40.64655994043941 16.6475
40.67030297578061 16.5735
40.69423334835778 16.5995
40.71798004609188 16.5731
40.74172857006355 16.5013
40.76547892171441 16.5304
40.7894166736039 16.5647
40.813170699248566 16.4916
40.83692655691388 16.4024
40.86068424804498 16.4382
40.884629402612525 16.3946
40.908390779366385 16.3538
40.932153993938 16.2435
40.95591904777605 16.3229
40.979871628443995 16.3307
41.003640379561936 16.3066
41.02741097430883 16.235
41.05118341413683 16.1963
41.075143444384416 16.1874
41.098919593177826 16.1844
41.1226975914255 16.1875
41.14647744058318 16.0982
41.170444943946755 16.0345
41.19422851378379 16.0586
41.218013938914645 15.975
41.24198706625173 15.9713
41.26577622087193 15.9469
41.289567235177785 15.8833
41.31336011063129 15.8867
41.337340752422875 15.9435
41.361137369129835 15.8971
41.38493585138705 15.7699
41.40873620066004 15.7573
41.43272438060107 15.7453
41.45652848292052 15.7203
41.48033445666918 15.6852
41.50414230331616 15.67
41.528138045159764 15.7152
41.551949656675205 15.6389
41.575763145513235 15.5985
41.59957851314666 15.5781
41.62358184070442 15.5404
41.64740098505737 15.5377
41.6712220126409 15.4641
41.69504492493139 15.4885
41.71905586207357 15.4844
41.74288256296395 15.4574
41.766711153007456 15.4456
41.79054163368412 15.4193
41.814560204340054 15.3705
41.838394485526365 15.3533
41.86223066180303 15.2619
41.88625497706819 15.2613
41.910094962812 15.2901
41.93393684811168 15.2523
41.95778063445365 15.1203
41.981812625263366 15.1665
42.00566023303407 15.167
42.029509746323676 15.1236
42.05336116662236 15.0822
42.077400857069705 15.0911
42.10125611078846 15.0658
42.12511327600405 15.0676
42.14897235421036 15.0081
42.173019768448455 14.9301
42.19688269209613 14.9152
42.22074753323349 14.9031
42.24461429335818 14.8927
42.268669455600495 14.8716
42.292540073217886 14.8718
42.31641261433284 14.8163
42.34028708044675 14.7933
42.36435001496739 14.7892
42.38822835065557 14.717
42.41210861586426 14.7098
42.4359908120986 14.6939
42.46006154323262 14.6471
42.48394762115317 14.5728
42.507835634632315 14.6408
42.531912233047436 14.5563
42.55580413732265 14.5575
42.579697981698 14.5604
42.60359376768525 14.5597
42.62767820545945 14.5124
42.65157789440821 14.5068
42.67547952952185 14.5031
42.699383112316 14.4735
42.72347541395347 14.3954
42.74738291190531 14.3104
42.771292362102166 14.2881
42.795203766063516 14.3377
42.819303956130405 14.3647
42.843219287476536 14.2615
42.86713657716324 14.2529
42.89105582671383 14.2107
42.91516392983864 14.255
42.939087119032166 14.1839
42.963012272677304 14.1453
42.98693939230129 14.1144
43.01105543317513 14.0544
43.034986504731386 14.0911
43.05891954686589 14.0713
43.08285456110972 14.0623
43.10697856448665 13.9711
43.130917542983475 13.9814
43.15485849820081 13.9771
43.17880143167367 13.9714
43.20293342237094 13.9249
43.226880332449 13.845
43.25082922540554 13.8347
43.27496722682525 13.8691
43.29892010567796 13.7976
43.32287497204102 13.8045
43.34683182745632 13.7466
43.370977859791836 13.731
43.39493871351105 13.7305
43.41890156092628 13.6637
43.44286640358341 13.6692
43.46702049182749 13.6642
43.49098934522816 13.6228
43.51496019852649 13.6214
43.5389330532723 13.5786
43.56309522248204 13.5268
43.58707210044314 13.5412
43.61105098451946 13.4429
43.63503187626491 13.4664
43.659202151562134 13.4627
43.68318707902681 13.4581
43.70717401884041 13.3662
43.731162972560874 13.347000000000001
43.75534137913236 13.3458
43.779334381108384 13.2916
43.803329401683186 13.3578
43.82732644241872 13.3227
43.8515130055166 13.2692
43.87551410707659 13.2311
43.89951723350145 13.2257
43.923709934595614 13.1762
43.94771713129917 13.177
43.97172635758096 13.173
43.99573761501002 13.1343
44.0199385169922 13.107000000000001
44.04395385732619 13.0448
44.067971233533086 13.0893
44.09199064718605 13.0451
44.11619977548961 13.0016
44.14022328470671 12.9693
44.16424883610785 13.0021
44.18827643127035 12.9954
44.21249381139513 12.9223
44.236525514814076 12.9197
44.26055926674478 12.880999999999998
44.28459506876863 12.8894
44.3088207262813 12.9045
44.33286064928722 12.8584
44.35690262714919 12.7817
44.38094666145278 12.7303
44.4051806219871 12.75
44.42922879003185 12.725
44.45327901929361 12.705
44.477331311362136 12.7293
44.501573600619416 12.6748
44.525630039221795 12.7028
44.54968854541895 12.6727
44.573937102200176 12.5956
44.5979997645541 12.5548
44.622064499300315 12.5507
44.64613130803592 12.5336
44.67038823869318 12.512
44.69445921643748 12.4615
44.718532272981385 12.4744
44.742607409926194 12.4915
44.76687274034801 12.4128
44.79095205918753 12.3837
44.81503346325094 12.3714
44.839116954143876 12.3721
44.86339071028742 12.3766
44.88747839599524 12.3213
44.91156817336837 12.2828
44.93566004401666 12.2963
44.959942251908146 12.2475
44.984038330325966 12.2228
45.00813650686762 12.2048
45.03223678314731 12.2116
45.05652746888232 12.1706
45.08063196592069 12.1605
45.104738567558705 12.065
45.128847275414856 12.0668
45.15314646515866 12.0868
45.17725940679741 12.0764
45.20137445952892 12.0429
45.22568004865265 12.0173
45.24979934496396 11.9887
45.27392075725247 11.9643
45.29804428714431 11.9846
45.322358426247604 11.9569
45.346486212804315 11.9536
45.370616121861914 11.9073
45.39474815505086 11.8899
45.41907087049246 11.8275
45.4432071734666 11.7782
45.46734560548283 11.8044
45.49148616817604 11.8213
45.51581748638564 11.7842
45.5399623320197 11.777000000000001
45.56410931325473 11.7051
45.58825843173002 11.7565
45.61259837920865 11.7074
45.636751793816 11.7024
45.66090735060093 11.634
45.68506505120716 11.6328
45.7094136545275 11.5934
45.73357566449271 11.5522
45.75773982322992 11.5503
45.78190613238733 11.5628
45.806263418194064 11.5196
45.83043404997326 11.5084
45.85460683713677 11.4516
45.87897065658495 11.4723
45.90314777634752 11.453
45.92732705646868 11.424000000000001
45.9515084986045 11.3901
45.97588104735473 11.3815
46.00006683541565 11.3716
46.02425479047904 11.3681
46.04844491420549 11.3344
46.0728262191024 11.3261
46.09702070211635 11.2847
46.12121735879483 11.2407
46.14541619080294 11.2443
46.169806278764455 11.187999999999999
46.194009483459034 11.177999999999999
46.21821486849841 11.1822
46.24242243555223 11.1499
46.266821333570014 11.1458
46.29103328674601 11.129000000000001
46.31524742696538 11.1308
46.33946375590237 11.0619
46.36387149104216 11.0353
46.38809221957392 11.0069
46.41231514186606 11.0127
46.436540259597464 10.9829
46.460956858999374 10.9518
46.48518638983522 10.9654
46.509418121166966 10.9682
46.533652054678114 10.9241
46.55807754555709 10.8709
46.58231590571962 10.8767
46.60655647313217 10.834000000000001
46.630988654873654 10.8278
46.655233659129024 10.8444
46.67948087571551 10.7659
46.70373030632484 10.759
46.72817142736393 10.7573
46.752425308428684 10.7415
46.77668140861147 10.7269
46.80093972960865 10.6534
46.82538981736788 10.6736
46.849652602470904 10.6682
46.87391761349769 10.6307
46.8981848521493 10.6305
46.9226439341274 10.5731
46.946915650573224 10.5616
46.97118959976749 10.5822
46.99546578341598 10.4983
47.019933887188216 10.5215
47.04421456235744 10.5352
47.06849747711879 10.4638
47.09278263318286 10.4504
47.11725978640143 10.448
47.14154944775105 10.4304
47.165841355555656 10.4004
47.1901355115306 10.3444
47.214621741924994 10.3722
47.23892041698887 10.3477
47.26322134538975 10.2867
47.28771440635075 10.2896
47.31201986422527 10.2821
47.33632758061436 10.2353
47.360637557241866 10.2308
47.38513974410611 10.2151
47.40945426407847 10.1948
47.43377104948137 10.2027
47.45809010204344 10.1552
47.48260144275502 10.1355
47.506925052572285 10.1627
47.53125093475548 10.1115
47.55557909103813 10.0861
47.58009961361992 10.0668
47.60443234110732 10.0251
47.62876734791564 10.0158
47.65310463578333 10.0212
47.6776343683373 10.0188
47.7019762413987 9.94945
47.72632040075572 9.95615
47.75066684815169 9.94508
47.77520581885936 9.92477
47.799556865477655 9.9373
47.823910205386 9.90105
47.84826584033272 9.845460000000001
47.87281407745551 9.850769999999999
47.89717432569297 9.86072
47.92153687423484 9.81317
47.94609208429692 9.77663
47.97045925671401 9.77346
47.99482873471275 9.76368
48.01920052005013 9.74882
48.04376504619224 9.7035
48.068141469543484 9.74653
48.09252020552573 9.73652
48.11690125590099 9.72485
48.1414751266064 9.6574
48.16586082917454 9.62472
48.19024885144316 9.64211
48.2146391951793 9.61989
48.239222439012764 9.63976
48.26361744916137 9.59334
48.28801478610016 9.5966
48.31241445160131 9.53168
48.337007097209366 9.55374
48.36141144338331 9.49887
48.38581812345755 9.47598
48.41022713920929 9.49905
48.434829215320704 9.47604
48.45924292604658 9.45528
48.48365897780325 9.4122
48.50807737237308 9.369660000000001
48.532688907799276 9.373560000000001
48.55711201168574 9.40011
48.581537463754074 9.38821
48.60615611725119 9.35647
48.63058628942721 9.33355
48.65501881516546 9.33806
48.6794536962573 9.30767
48.70408185970339 9.279630000000001
48.72852147531801 9.26496
48.75296345168211 9.25312
48.77740779059232 9.21691
48.80204549302823 9.21362
48.82649458091802 9.213330000000001
48.85094603676547 9.18384
48.87539986237231 9.09953
48.90004713292306 9.13105
48.92450572200832 9.12803
48.94896668628025 9.10101
48.97343002754588 9.08535
48.99808689542115 9.10909
49.02255501470614 9.087010000000001
49.04702551642794 9.025730000000001
49.0714984023988 8.98869
49.096164896893235 8.99269
49.120642575466796 8.959
49.145122643748394 8.956710000000001
49.16960510355558 8.95406
49.19428125404938 8.950289999999999
49.2187685210852 8.87514
49.243258185121555 8.86238
49.26794160167084 8.896
49.2924360839405 8.86261
49.31693296869764 8.83659
49.34143225776915 8.81719
49.36612538195438 8.79537
49.39062950396021 8.81828
49.41513603578346 8.769910000000001
49.4396449792564 8.72903
49.46434784069503 8.753810000000001
49.488861631846454 8.728639999999999
49.513377840166804 8.71546
49.537896467493745 8.7016
49.56260909589029 8.68556
49.587132585683285 8.65966
49.611658500018365 8.588189999999999
49.636186840738596 8.59073
49.66090926588511 8.59402
49.685442483902584 8.59988
49.70997813385706 8.5496
49.734516217597076 8.557260000000001
49.75924846937352 8.54595
49.7837914452858 8.519060000000001
49.80833686055187 8.47424
49.83288471702571 8.467039999999999
49.85762682540054 8.479389999999999
49.882179588965734 8.44909
49.9067347993235 8.44769
49.93129245833333 8.42373
49.95604445336378 8.45507
49.98060703442832 8.42796
50.005172069746266 8.39198
50.02993150438364 8.36888
50.05450147301533 8.36914
50.07907390151433 8.321489999999999
50.10364879174981 8.31758
50.12841816587289 8.28415
50.1529980044635 8.261510000000001
50.17758031042124 8.26512
50.20216508562089 8.24972
50.22694442953363 8.2173
50.25153416817468 8.21372
50.27612638170508 8.20265
50.300721072005196 8.18587
50.325510416102105 8.183589999999999
50.350110084975064 8.130180000000001
50.37471223628208 8.11459
50.39931687190919 8.11859
50.424116246675766 8.11844
50.44872587605249 8.097539999999999
50.47333799543065 8.07263
50.49795260670191 8.03178
50.52276204271512 8.04053
50.54738166295838 8.01607
50.57200378079314 8.00201
50.596628398116835 7.97347
50.62144792604559 8.000689999999999
50.646077567609396 7.993810000000001
50.670709714377715 7.9729
50.69553683636198 7.95498
50.72017401885922 7.89584
50.7448137122895 7.892589999999999
50.76945591856022 7.901489999999999
50.79429318636823 7.850160000000001
50.818940443716784 7.80929
50.84359021965163 7.81964
50.868242516085964 7.83502
50.893089960641895 7.806010000000001
50.917747323549435 7.767760000000001
50.94240721271973 7.7727699999999995
50.96706963007175 7.7335199999999995
50.99192728239342 7.74768
51.01659478166073 7.7424
51.04126481489051 7.75754
51.06593738400761 7.72725
51.090805275207074 7.7004
51.11548294172845 7.69135
51.14016314993547 7.6822
51.164845901758845 7.652610000000001
51.18972406304274 7.63035
51.21441192780656 7.5876399999999995
51.23910234200271 7.600960000000001
51.2637953075678 7.5782
51.288683770237945 7.583989999999999
51.31338186432707 7.56033
51.33808251561888 7.5491399999999995
51.362978729967345 7.504230000000001
51.387684521509755 7.49102
51.41239287610203 7.479610000000001
51.437103795691165 7.45569
51.46201036644977 7.45487
51.486726441956634 7.4299800000000005
51.51144508832545 7.443460000000001
51.536166307509156 7.4154
51.56108326624387 7.379289999999999
51.58580965706056 7.384060000000001
51.61053862657523 7.37505
51.635270176746864 7.344110000000001
51.66019755512065 7.356260000000001
51.68493429268881 7.33177
51.70967361681515 7.3142
51.73441552946465 7.304119999999999
51.759353359237934 7.2754199999999996
51.7841004750961 7.2701899999999995
51.80885018539685 7.253260000000001
51.833602492111254 7.2547
51.8585508051424 7.209910000000001
51.883308330926425 7.20392
51.90806845906181 7.1573
51.932831191525715 7.12714
51.95779001977161 7.132999999999999
51.98255798721516 7.096260000000001
52.00732856494335 7.11675
52.03229530577543 7.1090100000000005
52.057071130455945 7.10013
52.081849571391054 7.11344
52.106630630568695 7.11015
52.13160794279417 7.0423
52.15639426492067 7.04335
52.18118321127822 7.030710000000001
52.205974783860896 6.993710000000001
52.23096269971011 7.00132
52.255759551287994 7.02309
52.280559035098186 6.948060000000001
52.30536115314103 6.9085600000000005
52.33035970494467 6.925660000000001
52.35516711807904 6.92789
52.37997717147198 6.92175
52.40478986713005 6.891260000000001
52.42979908731974 6.87783
52.454617094216 6.877460000000001
52.47943774942214 6.83224
52.50426105495102 6.8522300000000005
52.529280976059844 6.83893
52.554109609024096 6.82131
52.57894089837482 6.79142
52.60377484613117 6.77164
52.62880550079408 6.782439999999999
52.65364479223379 6.74375
52.67848674816189 6.74034
52.70352547971946 6.695710000000001
52.72837279155837 6.691739999999999
52.753222773982785 6.70213
52.778075429022984 6.7077
52.80312495150885 6.70317
52.827982978797436 6.68244
52.85284368481815 6.64071
52.87770707160767 6.63404
52.90276741793998 6.61297
52.92763619336701 6.6014
52.952507655698504 6.60815
52.977381806977576 6.562869999999999
53.00245301017842 6.5719
53.02733256653592 6.53872
53.052214817996074 6.5349699999999995
53.077099766608484 6.5304199999999994
53.102181859804446 6.48646
53.127072229988265 6.48733
53.15196530349892 6.4704
53.17686108239249 6.42537
53.20195409881522 6.4354
53.22685531582556 6.42703
53.25175924441303 6.40189
53.27666588664027 6.42342
53.30176985962693 6.41061
53.3266819565689 6.39387
53.35159677336455 6.3259300000000005
53.376514312083096 6.33855
53.40162927507703 6.36949
53.42655228516116 6.32341
53.45147802340193 6.31781
53.47660125628886 6.3064599999999995
53.50153247842639 6.26075
53.52646643496923 6.23154
53.55140312799818 6.28647
53.576537409691696 6.24008
53.60147960336152 6.223409999999999
53.626424539786164 6.21791
53.65137222105307 6.16175
53.67651758529126 6.2134599999999995
53.70147078399681 6.19841
53.72642673383343 6.16559
53.75138543689533 6.14184
53.776541917524526 6.172999999999999
53.801506154876755 6.14323
53.826473151763246 6.1222900000000005
53.851442910284916 6.057580000000001
53.87661054126026 6.08931
53.9015858509782 6.087359999999999
53.92656392866066 6.04484
53.95154477641532 6.0876
53.976723591801296 6.01465
54.00171000771266 6.01501
54.02669920004598 6.00494
54.051691170915745 5.986219999999999
54.076881204886796 5.98477
54.101878760928514 5.93438
54.12687910187696 5.91961
54.152077577768296 5.93196
54.1770835166946 5.89689
54.20209224691339 5.90171
54.22710377055121 5.920730000000001
54.25231352511594 5.90064
54.27733066384342 5.83714
54.30235060239643 5.8608
54.32737334290836 5.88002
54.35259441062629 5.780130000000001
54.377622783395324 5.77569
54.40265396455061 5.8023
54.42768795623251 5.79287
54.45292037169559 5.79055
54.477960012857906 5.733619999999999
54.50300247099511 5.72335
54.52804774825457 5.65091
54.55329154616743 5.67223
54.57834249018678 5.65995
54.6033962597977 5.66455
54.6284528571545 5.64622
54.653708072335164 5.60139
54.67877035378786 5.58285
54.70383546947698 5.526669999999999
54.72890342156389 5.562930000000001
54.7541700889442 5.57899
54.77924374251975 5.51043
54.8043202390049 5.486190000000001
54.82959552413022 5.4789900000000005
54.8546777351945 5.47386
54.87976279569621 5.4084
54.90485070780914 5.42495
54.930137506558005 5.424180000000001
54.95523115074295 5.42443
54.98032765308844 5.3663099999999995
55.005427015775496 5.3379199999999996
55.03072536339621 5.31953
55.05583047570572 5.34189
55.080938454927676 5.29591
55.10604930325027 5.24158
55.131359235107396 5.2657099999999994
55.15647585066083 5.21609
55.181595341907496 5.17836
55.20671771104285 5.16291
55.232039262617704 5.1121099999999995
55.25716741665048 5.11198
55.28229845518636 5.169569999999999
55.30743238042802 5.06607
55.33276558731939 5.0838
55.357905315183636 5.09817
55.383047936390035 4.97992
55.40819345314859 4.9774
55.433538351073295 4.981730000000001
55.458689688238415 4.96781
55.483843927614096 4.97766
55.509197623043605 4.88921
55.53435769621134 4.83487
55.55952067826466 4.86355
55.5846865714265 4.85344
55.61005202069737 4.80891
55.63522376553902 4.83093
55.66039842818645 4.8047
55.68557601087004 4.75079
55.7109532500271 4.690180000000001
55.73613670233794 4.7726
