TT I
1.2716486653135266 7.33957
1.2939594142134223 6.7344
1.3162702121660406 6.37579
1.3385810600174564 6.68187
1.3608919586137629 6.3409
1.383202908801069 6.02095
1.405513911425503 5.2049
1.4278249673332093 5.59667
1.4501343378461518 5.8671
1.4724455028545926 5.09089
1.4947567236847858 5.90689
1.517068001182951 6.00051
1.5393793361953272 5.80555
1.5616907295681737 5.38853
1.5840021821477681 5.0669900000000005
1.60631369478041 5.09541
1.6286252683124185 5.1748199999999995
1.6509369035901333 4.5730699999999995
1.6732468618895553 4.58991
1.695558623192809 4.5926800000000005
1.7178704487808514 5.10544
1.7401823395001077 4.17373
1.7625012545597203 4.21882
1.7848028405262486 4.257709999999999
1.8071218901122095 4.30387
1.8294236121921872 4.29195
1.8517427996910911 4.74921
1.8740620574440425 4.707990000000001
1.8963639900671978 4.651269999999999
1.9186833908139995 4.920719999999999
1.9409854680117449 5.05339
1.9633050151394713 5.11268
1.9856246367570705 4.9342
2.0079269371922672 4.6108
2.03024671027244 4.87084
2.0525491637446027 4.02714
2.074869091674931 4.62467
2.097171701569106 4.66218
2.1194917877373847 4.45772
2.141811954326636 4.56249
2.164114805233074 4.60269
2.186435135143035 5.26279
2.208738150935709 9.44315
2.231058647554722 16.2447
2.2533792288321184 13.5106
2.275682498336085 7.73135
2.298003251406138 5.26694
2.3203066942619714 5.40698
2.3426276225136022 5.24902
2.3649486396617507 5.49897
2.387252348930071 6.06379
2.4095735463442893 6.14733
2.4318774374315884 6.57218
2.4541988185014043 6.6546899999999996
2.476502894794693 6.86282
2.498824462909887 6.80088
2.521146125856138 7.311780000000001
2.5434504863470337 7.00795
2.5657723414244717 7.8638699999999995
2.588076895590662 8.58489
2.610398946189713 8.4751
2.6327210958598384 8.31129
2.6550259469304716 8.05594
2.6773482972090137 8.61456
2.6996533504259 8.328339999999999
2.7219759047039602 8.75789
2.744298562293959 8.1256
2.7666039251246595 8.25157
2.7889267918020164 8.43626
2.8112323652516555 8.64574
2.833555444408179 8.25313
2.8558786311183852 8.66412
2.8781845268938557 8.73522
2.9005079311721484 9.00071
2.9228140460410397 8.33323
2.9451376712799635 8.99083
2.967444008632326 9.46777
2.9897678582247247 10.4014
3.0120918213106695 10.2538
3.0343984987899373 10.8184
3.0567226913198637 11.199000000000002
3.079029599759726 12.0704
3.101354025127254 12.5507
3.123678568232338 12.9905
3.145985829517914 13.2107
3.16831061055229 13.3047
3.1906181112775593 14.5931
3.212943133635653 15.1781
3.2352682779763207 15.5604
3.2575761442691227 15.584000000000001
3.2799015350264273 15.6917
3.302209649240067 16.0984
3.3245352898092655 16.5149
3.3468436553365257 17.2081
3.369169549113219 17.6084
3.3914955708171384 18.6363
3.413804319727358 19.0698
3.4361305997334863 18.9471
3.4584396084414553 19.7102
3.4807661501462652 20.3378
3.503092824025881 20.4741
3.5254022288463154 20.5992
3.5477291695206588 21.1037
3.5700388426251948 22.4029
3.5923660534916446 23.1568
3.6146934007816114 31.2985
3.637003482731501 54.9839
3.6593311053109985 59.1157
3.681641464033634 39.8875
3.7039693653009733 27.3834
3.726297407241705 25.2682
3.7486081875460804 24.9984
3.7709365132734978 25.3181
3.793247578841633 26.0648
3.8155761917550093 25.9808
3.8378875459837216 26.8364
3.8602164494827234 27.3692
3.882545499606844 28.298000000000002
3.9048572932539183 28.3134
3.9271866390645718 28.7993
3.9494987298666713 29.3957
3.971828374764527 29.6451
3.9941581705403255 30.3041
4.016470713506008 30.5602
4.038800813471445 31.8476
4.061113662089144 32.3331
4.0834440696459176 33.2081
4.105774632334751 33.4087
4.128087945865126 34.3068
4.150418821249301 34.766
4.172732448931298 35.6655
4.195063640413578 37.0616
4.2173775856475215 39.3431
4.239709096631102 57.2062
4.262040768704612 137.819
4.284355196706267 174.541
4.306687193387355 117.689
4.329001947444346 59.9801
4.35133427213731 44.6382
4.373666762177566 42.6727
4.395982011761091 43.3277
4.418314834921175 44.5121
4.44063041906622 48.9739
4.4629635787515625 55.3984
4.4852969080429785 55.3595
4.5076130004776225 52.423
4.529946671403969 54.8132
4.552263106909177 57.7316
4.574597122877047 55.8051
4.596931312711224 53.5854
4.619248269273446 53.5147
4.6415828092605835 54.0542
4.663900117405352 55.1817
4.686235010953232 56.5183
4.708552674085913 57.9817
4.730887924602802 59.1248
4.753223354952695 60.9204
4.775541557023902 64.5164
4.797877349456786 67.5237
4.820195915032126 68.3891
4.842532072957498 67.973
4.864868414979744 70.291
4.88718753227192 73.7567
4.909524244902505 75.9826
4.931843734218147 76.1454
4.954180820867835 77.1633
4.976518095879839 80.5923
4.998838149695359 83.3932
5.021175803844231 87.0791
5.043496238205739 90.2132
5.065834274903528 94.3652
5.088172504230693 99.2628
5.1104935158799565 105.698
5.132832132875765 124.81299999999999
5.155153533596801 157.25
5.1774925416746225 196.44099999999997
5.199814334878411 392.972
5.2221537374521505 1027.39
5.244493338631803 2845.06
5.266815727034316 7891.65
5.289155727832427 12293.4
5.311478517248165 8149.02
5.333818921080011 2493.16
5.356159527788849 480.792
5.3784829252032536 185.945
5.400823940070432 147.84799999999998
5.423147747031976 127.596
5.445489173474152 118.605
5.467830807066149 117.27
5.490155234831516 115.70700000000001
5.512497285125229 109.995
5.534822130975162 105.125
5.557164601388673 101.491
5.579489868738879 99.01700000000001
5.601832762690846 98.0779
5.6241758697774475 96.8012
5.646501775867269 95.7185
5.668845311622074 94.5176
5.691171647754637 93.7125
5.713515615597765 92.6303
5.735859800852677 92.2842
5.758186788542988 93.2281
5.780531411018185 96.0382
5.802858837297399 96.1115
5.825203900414495 95.9647
5.8475491852224 98.8768
5.869877275883075 98.0656
5.892223006467101 95.4683
5.914551544266608 94.3319
5.936897724049891 97.2357
5.959244129804903 103.854
5.981573344815301 129.269
6.0039202049061 237.97799999999998
6.026249875609095 476.67400000000004
6.04859719346037 975.373
6.070927323278297 2261.86
6.093275102315365 4557.46
6.115623113320588 5171.77
6.137953938319995 2991.08
6.160302415650845 841.72
6.182633708324452 201.905
6.2049826554078376 107.04799999999999
6.227331838745022 89.3124
6.249663839443684 82.6593
6.27201349767565 80.1903
6.294345974611799 82.17200000000001
6.316696111167083 86.4636
6.339046488263839 83.1941
6.361379686074702 74.8255
6.383730546639482 70.3257
6.406064229255215 69.1447
6.428415576718203 69.8846
6.450749747566656 68.6532
6.47310158535871 66.5281
6.495453669698332 64.9013
6.517788579421056 64.0621
6.540141159237969 62.8989
6.562476565766648 62.5491
6.5848296444934045 62.613
6.607182974060425 62.4337
6.6295191323281015 62.4036
6.651872965955752 63.4182
6.6742096296068985 76.3656
6.6965639707294615 97.7603
6.71891856698715 96.9999
6.741255995248479 75.5651
6.763611104154477 62.7344
6.785949046381137 58.7106
6.808304671371482 58.6884
6.8306605557940046 59.8697
6.852999275508618 58.8971
6.875355681171544 57.4346
6.897694923437771 56.2254
6.92005185377892 55.9849
6.9423916220322655 55.7938
6.964749080490181 54.9889
6.987106804399774 55.2398
7.009447368180821 55.3375
7.031805625367033 55.1795
7.054146723727803 55.1241
7.076505517631004 54.7865
7.098864581288365 54.3893
7.121206488070854 54.1405
7.143566093607822 54.6902
7.165908543567245 55.6262
7.188268694426048 55.6743
7.2106291193438095 55.3396
7.232972390625943 55.0804
7.255333366030969 62.0007
7.277677189091925 87.2836
7.300038718428332 110.264
7.322400526130865 98.0942
7.344745183422596 70.6294
7.367107550224791 57.4181
7.389452767901992 54.5345
7.411815697249891 54.1238
7.434161478756298 53.4851
7.456524974096713 53.5898
7.478888753837185 53.3263
7.501235387657368 54.1128
7.523599738562711 54.038999999999994
7.545946944825532 54.2703
7.568311870344528 54.4614
7.5906770845765665 54.4906
7.613025156078678 55.5296
7.635390950099687 56.0093
7.657739602662809 55.7672
7.680105979923558 55.6266
7.702472650212829 56.1494
7.724822180948224 56.0612
7.747189439655568 55.8315
7.769539560075357 55.544
7.791907410653562 56.0153
7.81425812420825 56.1477
7.836626570110925 56.5051
7.858995315087906 57.4061
7.881346924933401 57.0487
7.903716270417482 57.8246
7.926068482028405 58.6328
7.948438431475253 58.9664
7.9708086843180235 59.0819
7.993161805171116 59.964
8.015532667162402 60.3759
8.037886398416653 61.8544
8.060257873014221 62.2957
8.082629655331942 62.9865
8.104984308787587 63.7042
8.127356708900503 66.015
8.149711981398308 70.5319
8.172085002766314 72.5759
8.194458336181368 70.2099
8.216814543847752 68.858
8.23918850371002 68.8154
8.26154533906492 69.9079
8.283919928836452 71.6209
8.306277395339652 72.3592
8.328652618483376 73.7032
8.351028159736202 75.999
8.373386579575245 77.8493
8.395762759396959 79.6347
8.418121819038275 83.7427
8.440498640894003 92.0387
8.462875785192262 103.802
8.485235811156207 126.322
8.507613602688501 177.148
8.529974277114228 260.885
8.552352719347912 386.722
8.574731488360351 662.255
8.59709314210385 1214.57
8.619472567021075 1958.4
8.64183487789147 2181.31
8.664214962183097 1727.12
8.686577933647762 841.607
8.708958680784317 311.29400000000004
8.731339760774953 146.313
8.753703729764451 106.57
8.77608547780821 97.0802
8.798450116065078 93.8438
8.820832535634787 92.0641
8.843215292401656 91.4927
8.865580941199045 90.8505
8.887964374703538 90.5954
8.910330701447199 90.9107
8.932714815164482 90.7543
8.955099270424924 89.0746
8.977466620733543 86.1741
8.999851761421976 84.7213
9.022219798361645 83.5079
9.04460562795561 83.2411
9.066991803441677 83.1169
9.089360876979615 83.4032
9.111747746589993 83.3112
9.13411751544971 82.1999
9.156505082664324 81.6704
9.178875550323522 82.2189
9.20126381862328 81.8375
9.223652438908596 81.8354
9.246023961427412 81.7508
9.26841328802173 81.4171
9.290785518039224 81.5922
9.313175554425882 83.8578
9.335565947154315 84.844
9.357939245086508 85.306
9.380330352834827 84.5909
9.40270436697103 84.8268
9.425096193225055 84.3513
9.447488380180165 84.76700000000001
9.469863475295412 84.4563
9.492256385987508 84.3624
9.514632206018318 84.7635
9.537025843935714 85.2786
9.559402392368193 86.5873
9.581796761000229 88.5801
9.604191496441521 90.5033
9.626569144158516 93.1278
9.648964615551032 95.1717
9.671343000390081 95.171
9.693739211225699 93.3792
9.716135793237463 92.3716
9.738515290448102 93.0478
9.760912617143402 93.964
9.783292860202891 95.9519
9.805690935076182 98.1456
9.828089385495742 99.2087
9.850470754023561 100.59100000000001
9.872869957865444 104.887
9.89525208097539 113.557
9.917652041736662 121.34899999999999
9.940052382417589 127.77600000000001
9.962435644102392 149.939
9.984836746950979 189.655
10.007220771957746 246.275
10.029622640473708 347.026
10.052007432299963 525.382
10.074410069984072 845.905
10.096813093716005 1318.73
10.119199042482517 1818.74
10.141602840636468 1979.12
10.163989564971628 1498.93
10.186394141051062 806.812
10.208799107559706 344.88
10.231187001965623 167.424
10.253592751657669 120.054
10.275981430388155 110.45299999999999
10.298387966769793 109.02799999999999
10.320794897965431 109.48
10.343184759907361 108.405
10.36559248305461 105.11399999999999
10.387983138083852 104.225
10.410391656691655 110.42200000000001
10.432800574501677 121.84700000000001
10.455192425893369 137.269
10.47760214443012 162.461
10.499994797678786 208.581
10.522405320453982 294.502
10.54479877906917 423.548
10.567210109595656 536.432
10.5896218454736 574.977
10.612016518879773 478.86800000000005
10.634429067781074 316.846
10.656824555333241 181.535
10.679237920773568 114.67
10.701651695961992 93.3258
10.724048411481384 88.1634
10.746463008485165 85.7307
10.768860546937125 84.0674
10.791275969274796 82.2846
10.81369180576079 81.4902
10.836090585366925 80.5431
10.858507252467449 79.2849
10.88090686379991 78.2573
10.903324365036394 77.6088
10.925724811614439 77.2784
10.948143150509463 77.9993
10.970561909719066 77.5376
10.992963615930844 76.3896
11.015383218085756 74.5011
11.037785768347074 72.8831
11.06020621697282 72.0402
11.082627090322113 71.6571
11.105030913430326 71.1006
11.12745263854165 70.9797
11.149857314510728 72.6457
11.172279894912576 75.2002
11.194702904450653 75.1395
11.217108866490921 72.6521
11.239532736615194 70.1064
11.26193956033512 68.9803
11.284364294577085 68.02600000000001
11.306789462371718 66.9466
11.329197585398376 66.5138
11.351623622610898 66.4148
11.37403261614354 65.4798
11.396459526308487 65.3463
11.418869393879497 65.0822
11.441297180532617 64.6454
11.463725406927658 64.2187
11.486136592353875 64.0652
11.508565700543707 64.1465
11.530977768845315 64.9848
11.553407762368774 65.3838
11.575838200059769 64.9271
11.598251599479612 63.8342
11.620682927815501 62.7682
11.64309721895548 62.9565
11.665529441478206 62.8108
11.687962112597958 62.4132
11.710377748130886 62.3784
11.732811318753434 62.2011
11.755227854859067 62.4588
11.777662328529495 62.207
11.800079768750786 62.1201
11.822515149015453 62.1831
11.844950984084935 62.5063
11.867369787303163 62.2979
11.889806534289491 61.9429
11.912226250487029 62.3086
11.934663912939751 62.5264
11.9571020346363 62.5321
11.979523127133968 62.9023
12.001962169624331 63.8107
12.024384183972964 65.1853
12.046824150809913 68.4168
12.069264581333726 72.6472
12.091687985297767 78.0043
12.11412934550045 87.0783
12.136553680195208 102.823
12.158995973632788 127.59
12.181438735204349 158.40200000000002
12.20386447284199 191.412
12.226308172985636 217.708
12.24873485024193 204.312
12.271179492516982 165.74
12.293607112949127 116.626
12.316052700916226 87.6202
12.338498763250042 72.6988
12.360927805303868 66.4292
12.383374818673879 64.52
12.405804812803074 63.3736
12.428252780773262 63.3469
12.45070122756722 63.3865
12.473132656675375 63.5811
12.49558206341869 64.0636
12.518014453510101 64.3179
12.540464823770117 64.2935
12.562915677315177 64.4709
12.58534951575545 64.687
12.607801338171472 65.7573
12.630236146511358 68.7406
12.652688941369085 70.96300000000001
12.675124723177234 71.2639
12.697578494048786 69.8038
12.720032754458185 67.727
12.742470003354093 67.00399999999999
12.764925245138771 67.2414
12.787363476431278 67.5275
12.809819703166806 67.7906
12.83227642391173 68.70100000000001
12.854716135692716 69.2654
12.877173846755147 70.5691
12.899614549869717 70.62100000000001
12.9220732548287 71.5015
12.94453245827299 72.0783
12.966974655289818 73.2485
12.989434858002571 73.9735
13.011878055298721 74.5204
13.034339260862497 75.5501
13.056800969391883 77.0306
13.079245674017244 79.73899999999999
13.101708390774869 83.5745
13.12415410463411 91.5265
13.146617833206086 101.59299999999999
13.169064559883248 111.61200000000001
13.191529303857127 126.12700000000001
13.213994557076367 149.57
13.236442809902437 189.136
13.258909083908291 248.69
13.28135835851934 315.178
13.30382565690295 392.605
13.326293469022952 431.224
13.348744283242008 414.20099999999996
13.371213125129904 334.686
13.39366497011003 234.88299999999998
13.416134845360597 155.783
13.438605238843131 117.42299999999999
13.46105863690397 105.11200000000001
13.483530069144786 105.64200000000001
13.505984506951902 110.55799999999999
13.528456981549432 120.074
13.550929978879088 135.365
13.573385983253365 160.434
13.595860028340867 200.923
13.618317081455832 259.096
13.64079217790333 317.268
13.663250283359057 367.458
13.685726434770173 377.305
13.708203115221277 328.21
13.730662806148091 244.03099999999998
13.75314054697177 167.183
13.775601299246777 117.20100000000001
13.798080104050406 92.5533
13.820559442405358 83.5305
13.843021793671388 80.766
13.865502201420897 79.4238
13.887965623051947 78.7923
13.910447103807167 77.8842
13.932929122629764 76.6524
13.955394156785959 76.0831
13.977877254034569 75.1101
14.000343367582113 74.4465
14.022827546871707 73.831
14.045294743423524 73.0535
14.06778000837062 72.4209
14.090265817715476 72.4194
14.112734645763819 72.0341
14.13522154619454 71.6836
14.157691466286913 71.5307
14.180179461423874 71.0435
14.202668005486178 70.6107
14.22513957064374 70.2289
14.247629214846473 69.8259
14.270101881097517 69.6602
14.29259262906496 69.6845
14.315083930490205 70.0264
14.337558255389705 70.0613
14.360050666019726 69.8387
14.382526101071944 69.15100000000001
14.405019624534942 68.6298
14.427513705993134 68.2937
14.449990813291825 68.3671
14.47248601302899 67.9554
14.49496423954951 68.0587
14.517460561197822 68.2113
14.539939910570322 68.0463
14.562437357763558 68.5844
14.58493536931253 69.1569
14.607416409993311 69.4336
14.62991555254159 70.1791
14.652397725157423 70.0391
14.674898002342799 69.9807
14.697398848433282 69.9955
14.719882725991326 71.211
14.74238471217934 73.2632
14.764869730765593 76.5441
14.787372860692983 79.4483
14.809876564079925 83.5028
14.83236330125751 88.9105
14.854868153850365 97.9601
14.877356041159485 111.899
14.899862046604186 132.025
14.922351087688757 159.655
14.944858249632887 189.763
14.967365991421232 219.25900000000001
14.989856770231246 228.75400000000002
15.012365673994204 219.75
15.03485761569738 186.627
15.05736768508665 139.041
15.07987833888692 105.914
15.102372032001655 85.5046
15.124883856909658 74.7054
15.14737872204565 71.5088
15.169891721717274 69.9549
15.192405310371893 69.3992
15.214901940621196 69.4598
15.237416709527137 69.1755
15.259914520936249 69.1848
15.282430473753607 68.3916
15.304947020131227 67.7466
15.327446610371178 67.1507
15.349964346154254 66.4365
15.372465126703139 66.2487
15.394984055556009 66.031
15.417486030076159 65.7073
15.44000615566487 65.2164
15.462526881230803 65.2774
15.485030653812652 65.4312
15.507552581617434 65.4451
15.530057557334603 65.4164
15.55258069104857 65.4745
15.575104429329837 65.6052
15.597611216864632 65.6066
15.620136166564563 65.8403
15.6426441664095 67.4998
15.665170331202765 69.968
15.687697105158826 72.5156
15.710206930593545 75.5424
15.732734925158933 79.5419
15.755245972089478 85.7972
15.77777519094324 95.3938
15.800287463046663 109.64299999999999
15.822817909869592 129.982
15.84534897229804 153.144
15.867863089299354 177.984
15.890395385222186 194.138
15.912910736597423 196.201
15.935444269699861 178.092
15.957978423016485 145.404
15.980495633101265 112.52799999999999
16.003031029129367 89.2296
16.02554948280019 72.1738
16.048086125229432 65.7889
16.070623392487107 63.4588
16.09314371869582 62.563
16.11568223789321 61.8441
16.13820381691126 60.9209
16.160743591742527 60.1555
16.183283996022084 59.7179
16.205807461423195 58.778
16.228349126881973 58.4757
16.25087385432698 58.2588
16.27341678466365 57.4996
16.29594277784926 57.5775
16.31848697676433 57.4187
16.341031811604868 57.3558
16.36355971058487 57.5793
16.3861058195587 57.3146
16.40863499352978 56.3969
16.431182380342005 55.9378
16.453730407713202 55.589
16.476261501364792 55.2741
16.498810812136167 55.0201
16.52134319004079 55.0932
16.54389378792203 54.7104
16.566445031001553 54.6195
16.588979342490088 54.5065
16.61153187824822 54.4575
16.634067483263312 54.3373
16.656621315414416 54.2439
16.679175797408888 53.9039
16.701713349928728 53.8754
16.72426913389191 54.1598
16.74680798922351 54.2614
16.76936507887444 54.214
16.791905240734874 54.3751
16.814463639794468 54.1695
16.837022695210294 54.277
16.859564824093756 54.4359
16.882125194503903 54.9276
16.904668639217885 55.1428
16.927230328348003 55.2541
16.949792678493612 55.4133
16.972338104193863 55.0106
16.994901778652235 54.8768
17.017448529496576 55.0566
17.040013531998152 55.4456
17.06257920018044 55.9618
17.0851279459922 56.79600000000001
17.107694947817667 57.466
17.130245028099072 58.152
17.15281336730298 59.3803
17.17536478578733 61.355
17.19793446610687 63.6473
17.220504818648422 66.9817
17.243058251703697 70.4113
17.265629950971032 75.1648
17.288184731571736 80.1623
17.310757781306908 83.4409
17.33333150794385 83.5511
17.355888317140174 80.7953
17.37846339986244 75.04
17.401021565958885 68.32300000000001
17.42359800851343 63.3172
17.44617513265564 60.4554
17.468735341390783 59.1666
17.491261035594565 58.663999999999994
17.51396340099364 58.341
17.536490463869136 58.5772
17.559018209820174 58.6235
17.58154663977963 58.6424
17.604251766089718 58.8456
17.626781572227713 58.9173
17.64931206518155 59.183
17.671843245885103 59.7278
17.69455114821572 59.7571
17.717083712612634 59.946000000000005
17.739616967569667 60.3404
17.762150914021706 60.7583
17.78486160749854 61.1598
17.807396945166804 61.9894
17.829932977143503 63.0482
17.85246970436452 64.7298
17.875183204129467 66.1795
17.897721330097664 67.7514
17.920260154126645 70.209
17.942799677153296 73.068
17.9655159983646 77.1731
17.988056927677544 82.76
18.010598558807683 91.2622
18.033140892692916 102.134
18.05586005052525 113.95299999999999
18.07840379824407 125.50399999999999
18.10094825154059 135.253
18.12366954819864 141.178
18.146215420998306 137.246
18.16876200220057 126.80799999999999
18.191309292745153 112.178
18.214033452627167 98.7047
18.236582170236648 88.5658
18.259131600016456 84.696
18.281681742907335 85.978
18.304408781233683 91.2733
18.32696035875955 97.6466
18.349512652227624 101.96600000000001
18.372065662579683 105.829
18.394795594587553 105.40799999999999
18.41735004715306 100.26700000000001
18.43990521943684 91.9562
18.46246111238171 82.1637
18.485193953325208 73.8954
18.507751296070428 67.6302
18.530309362314178 64.1455
18.552868153000343 62.5378
18.57560391815056 61.3961
18.59816416623245 60.983999999999995
18.620725141597372 60.388000000000005
18.643286845190268 59.9757
18.666025549835414 59.5944
18.688588718427933 59.1113
18.711152618092243 59.1653
18.73389353884365 58.8419
18.75645890921984 58.522
18.77902501351406 58.0805
18.801591852673102 58.0763
18.824335739722738 57.6708
18.846904057212626 57.6274
18.8694731124168 57.1515
18.89204290628315 57.1348
18.914789774966803 57.0723
18.937361054791623 56.6295
18.959933076131318 56.571999999999996
18.982505839934877 56.43899999999999
19.00525570560582 56.4742
19.027829963004184 56.1876
19.05040496572238 56.5176
19.072980714710468 56.5524
19.095733592739563 56.8748
19.11831084296757 56.8795
19.140888842324735 57.0763
19.16346759176222 57.3079
19.18622349753803 57.6808
19.208803755869358 58.7643
19.231384767143577 59.9364
19.253966532312948 61.7815
19.276725481241822 64.0696
19.29930876296784 66.4921
19.3218928014549 69.5342
19.34465404436217 72.4593
19.36723960516257 75.1981
19.389825925592426 75.5166
19.412413006605938 73.8418
19.43517731967805 69.7542
19.457765930683355 65.2921
19.48035530514408 60.7568
19.50294544401556 57.6007
19.525712842708348 55.3594
19.54830451925909 54.3045
19.570896963095727 53.5818
19.593490175174704 53.1838
19.616260674962184 53.1089
19.638855432416964 52.8711
19.661450960992624 53.1864
19.68404726164677 53.0113
19.706820878021247 52.8417
19.729418731756834 53.1562
19.752017360452857 52.8102
19.77461676506804 53.1035
19.797393513540218 53.3396
19.819994478951667 53.4779
19.84259622316767 53.8457
19.8651987471481 54.1946
19.887978643247177 54.4405
19.91058273574792 54.8853
19.933187610901943 55.8049
19.955969879466828 57.0964
19.97857632894404 58.7687
20.00118356396599 60.4887
20.023791585494575 62.9403
20.046577028914875 65.6153
20.069186632506966 67.7651
20.091797025500632 69.6338
20.114408208858933 69.6424
20.137196842715273 68.9629
20.159809615886765 66.933
20.18242318232135 64.207
20.20503754298326 62.2738
20.227829382875154 61.2819
20.250445341109344 61.5485
20.27306209647285 62.7749
20.29567964993108 63.9583
20.31847471147704 64.9147
20.34109387027612 65.3535
20.363713830075454 64.3542
20.386334591841646 62.6533
20.409132890679302 59.9133
20.431755265564437 56.7265
20.454378445325528 54.1933
20.477002430930366 52.4779
20.499803982716553 51.504
20.522429589228004 50.7516
20.54505600449589 50.1974
20.567683229489194 49.958999999999996
20.590488049900088 49.995
20.61311690359731 49.6798
20.63574656993626 49.4309
20.658553853717297 49.0864
20.681185154618298 49.1537
20.703817271080066 48.9696
20.72645020407368 48.6578
20.749260783967177 48.5356
20.771895359337133 48.4421
20.794530754161617 48.5266
20.817166969412938 48.4841
20.83998086114876 48.3275
20.86261872660049 48.2883
20.885257415405402 48.2732
20.90789692853701 48.233000000000004
20.930714147864748 48.0632
20.953355319030678 48.1252
20.97599731745334 48.281000000000006
20.99864014410749 48.1186
21.021460706796564 48.0607
21.044105199328826 48.2273
21.06675052302631 48.578
21.089396678865015 48.6025
21.112220600704806 49.0003
21.134868430275347 49.3719
21.15751709492456 49.6219
21.180166595629693 49.9151
21.202993892429635 50.537
21.22564507473034 50.8719
21.24829709602816 50.9773
21.27112693608965 51.0235
21.293780644891275 50.9335
21.316435195634053 50.2366
21.339090589297417 49.5207
21.361923832041875 49.052
21.384580921090404 48.4028
21.407238856007325 48.0085
21.429897637773326 48.0698
21.45273429906592 48.0646
21.475394784108598 47.9006
21.498056118951983 47.9585
21.520718304578022 47.989
21.543558400304388 48.2016
21.566222297108816 48.5264
21.58888704765135 48.6277
21.61155265291521 48.9558
21.63439619898156 49.3181
21.657063523335786 49.4307
21.67973170537063 49.9909
21.7024007460706 50.4733
21.72524775840385 51.1166
21.747918526116475 52.3279
21.770590155457388 53.5051
21.79326264741238 55.3114
21.816113141960237 57.287
21.838787368860547 59.3319
21.861462461341976 61.2038
21.884315579735777 63.1784
21.90699241312273 64.0138
21.92967011506078 64.2485
21.95234868653799 63.4108
21.9752053151131 61.8627
21.997885635446785 59.7575
22.020566828293532 57.9266
22.04324889464272 56.5081
22.066109049404666 55.9112
22.088792872571794 55.7196
22.111477572219204 55.8047
22.1341631493376 55.8137
22.157026846313123 55.4226
22.179714188221507 54.4548
22.202402410582668 53.2625
22.22509151438863 51.7059
22.24795876962584 50.5955
22.270649646204486 49.7982
22.293341407213727 48.9969
22.316034053646906 48.8648
22.338904883215342 48.4896
22.36159931041458 48.3542
22.38429462602756 48.2077
22.40699083104897 48.1316
22.429865251039757 48.2702
22.452563244831367 48.2644
22.47526213102522 48.2298
22.49813925616515 48.0042
22.520839937143307 48.1415
22.543541513520587 48.1255
22.56624398629403 48.0052
22.589124730075895 48.0332
22.611829005656723 48.2917
22.63453418063466 48.1513
22.657240256008077 48.4161
22.680124634582935 48.5893
22.70283252079775 48.7279
22.725541310413075 49.023
22.74825100442868 49.2624
22.771139033969575 49.7864
22.79385054687155 50.0713
22.81656296718292 50.972
22.83927629590484 51.7712
22.862167992606945 52.818000000000005
22.88488314827121 53.9715
22.907599215359284 55.0957
22.93031619487366 56.146
22.953211574954405 56.9279
22.975930389478226 57.5606
22.998650119445763 57.3909
23.02137076586092 56.405
23.044269845560063 54.9644
23.06699233506288 53.2631
23.089715744034912 51.5694
23.112617610931565 50.1242
23.135342869061212 49.2152
23.158069049684816 48.5586
23.1807961538087 48.2682
23.20370174880544 48.2182
23.226430710184808 48.4364
23.249160598093425 48.4748
23.271891413539002 48.3568
23.294800752937697 48.2361
23.31753343374794 48.5803
23.340267045128353 48.685
23.36300158808808 49.0157
23.38591468821339 49.2988
23.408651104658304 49.7098
23.431388455719986 50.4465
23.454126742409 51.3979
23.4770436196085 52.3511
23.499783787914662 53.7328
23.522524894889884 54.8518
23.54526694154616 55.978
23.56818761219047 57.2097
23.59093154860734 57.455
23.613676427751283 57.5103
23.636422250635754 56.1767
23.659346731118656 54.3287
23.68209445191868 52.2428
23.704843119509587 50.2604
23.72759273490623 48.56100000000001
23.750521041644767 47.4594
23.77327256312355 46.6676
23.796025035462787 46.0955
23.818956224555475 45.6547
23.841710609113413 45.4643
23.86446594758979 45.2529
23.887222241002014 44.8709
23.910157285144578 44.6605
23.932915498962537 44.5108
23.955674670778713 44.4639
23.978434801611975 44.3393
24.001373717286125 44.1595
24.024135776723917 44.2059
24.046898798245582 43.9878
24.06966278287146 43.9938
24.092605586582614 43.7638
24.115371508023642 43.6588
24.1381383956401 43.6837
24.16090625045381 43.4376
24.183852958731244 43.5342
24.206622758582608 43.3598
24.229393528706886 43.1078
24.252165270127392 43.1709
24.27511589952438 43.0924
24.297889594216997 42.9234
24.32066426328598 42.7781
24.34343990775613 42.7506
24.36639447485003 42.6751
24.38917208083877 42.6194
24.41195066531332 42.5938
24.43490819850244 42.7135
24.457688750692377 42.5424
24.48047028445616 42.586999999999996
24.503252800821233 42.6371
24.526214300784112 42.6303
24.548998793132213 42.5314
24.57178427117417 42.5824
24.59457073593893 42.507
24.617536219319863 42.5694
24.64032466834748 42.42100000000001
24.663114107195035 42.3225
24.685904536893013 42.1566
24.708874020360852 41.9691
24.731666442613744 42.0533
24.754459858818787 42.0084
24.777254270007962 41.8407
24.80022777025625 41.8063
24.82302418230472 41.8773
24.845821592443674 41.9145
24.86862000170663 41.9097
24.891597535453727 41.7349
24.914397953892728 41.8856
24.93719937456671 41.7885
24.96000179851076 41.9197
24.98298338249997 42.1485
25.00578782394922 42.3856
25.028593271784167 42.5756
25.05157790644186 42.8858
25.07438537804115 42.871
25.097193859145293 43.1925
25.120003350792075 43.4415
25.142992065061257 43.778999999999996
25.165803588823465 43.98
25.18861612625217 44.2094
25.211429678386736 44.25899999999999
25.234422489079968 44.3109
25.257238081693636 44.3404
25.280054692141732 44.5003
25.3028723214652 44.6177
25.325869245420463 44.6019
25.348688923599397 44.3691
25.371509623787006 44.434
25.394331347025812 43.9839
25.41733240110666 43.5442
25.440156181590016 42.8486
25.46298098826268 42.17
25.48580682216873 41.7497
25.50881202326435 41.2284
25.53163992281684 40.7896
25.55446885274561 40.8111
25.577298814096377 40.4444
25.600308179121807 40.3779
25.623140214533745 40.4325
25.64597328451537 40.2639
25.66898578564376 40.1168
25.691820936010206 40.1177
25.714657124097695 40.166
25.737494350954734 40.2016
25.760511045684957 39.9694
25.783350361364224 40.1241
25.806190718969255 40.1753
25.82903211955018 40.227
25.852053024868923 40.2013
25.874896522722523 40.2737
25.897741066713106 40.1999
25.920586657892454 40.3134
25.943611790812668 40.3664
25.966459487728237 40.5938
25.989308234998564 40.6322
26.01215803367705 40.9731
26.03518741123814 41.223
26.05803932412957 41.2708
26.080892291600094 41.2972
26.10374631470478 41.2126
26.12677995397268 41.2319
26.14963609978026 41.2003
26.172493304397875 40.8194
26.19535156888223 40.5246
26.218389486949604 40.2068
26.241249882640123 40.0904
26.26411134137826 39.7645
26.28715248187403 39.9046
26.31001607820869 39.6973
26.3328807407756 39.6005
26.35574647063438 39.6904
26.37879191991473 39.7249
26.401659795896734 39.6328
26.424528742360263 39.8095
26.447398760366614 40.05
26.470448535598294 40.1979
26.49332070826805 40.457
26.516193955675355 40.8574
26.53906827888316 40.9253
26.562122397260108 41.1271
26.584998883685063 41.3966
26.607876449110325 41.5798
26.63075509460056 41.8265
26.65381357334404 41.8822
26.67669439061878 41.7294
26.699576291163382 41.5735
26.722459276044212 41.4356
26.745522132402975 41.1088
26.768407297649354 40.8365
26.791293550442003 40.5092
26.814180891848974 40.3829
26.837248143099337 40.0043
26.860137673466657 39.9872
26.88302829566349 39.717
26.90592001075963 39.5671
26.92899167420566 39.4752
26.951885586870763 39.1157
26.974780595655517 38.8928
26.99785558178161 38.7887
27.020752794605112 38.7626
27.043651106772522 38.4934
27.06655051935668 38.4146
27.089629948036183 38.3825
27.112531573292053 38.3471
27.135434302194138 38.4544
27.158338135817015 38.2363
27.181422024430987 38.1856
27.204328079372566 38.0538
27.22723524226965 38.1137
27.250143514198573 38.1651
27.273231880156334 38.1976
27.296142382065014 37.8983
27.319053996245536 37.9458
27.341966723775965 38.0579
27.365059584515222 38.1895
27.38797455070062 38.2354
27.410890633481237 38.1103
27.433807833936918 38.0257
27.456905206923906 38.134
27.47982465472398 38.1595
27.502745223449743 38.1853
27.525666914182825 38.3893
27.548768816912457 38.2076
27.571692763693633 38.0105
27.59461783573812 37.88
27.617723149491244 37.7481
27.640650484125285 37.7054
27.66357894728264 37.7115
27.686508540048052 37.6776
27.709618414237887 37.4805
27.732550278321757 37.438
27.755483275279115 37.4271
27.778417406196485 37.5339
27.801531858397514 37.5237
27.824468269376716 37.5443
27.847405817586786 37.4664
27.870344504116094 37.6195
27.893463551932008 37.6685
27.916404527281053 37.9377
27.93934664422563 38.1028
27.962289903855886 38.0923
27.98541356491974 38.3804
28.00835912214229 38.4635
28.03130582533231 38.7304
28.054253675581805 38.8531
28.077381967556104 38.8546
28.100332124185126 38.6317
28.123283431160893 38.5719
28.146235889577238 38.4456
28.169368830154156 38.2717
28.192323603752033 38.0847
28.215279532083304 37.8705
28.238415973016764 37.6054
28.261374223145094 37.4092
28.284333631303806 37.2657
28.307294198589954 36.9948
28.330435319167677 36.6354
28.353398217078915 36.4044
28.376362277420153 36.1476
28.39932750129032 36.1363
28.422473319286713 35.9963
28.44544088262495 35.9241
28.468409612800283 35.7771
28.491379510913497 35.6083
28.51453004413313 35.6074
28.53750229057244 35.5293
28.56047570826344 35.4863
28.583450298308804 35.5078
28.606605564586562 35.3474
28.629582511831156 35.4257
28.65256063474956 35.28
28.675539934446338 35.3027
28.698699951647605 35.2447
28.72168161743193 35.0852
28.74466446331978 35.1547
28.767648490417624 35.1523
28.790813276438353 35.0916
28.813799678527303 35.1555
28.836787265157085 35.0868
28.859955641890075 35.0782
28.882945610203045 34.9916
28.905936766392035 34.9772
28.928929111566863 34.9443
28.952102288520145 34.9267
28.975097024308607 34.7944
28.998092952423807 34.6769
29.021090073977508 34.5158
29.04426806913204 34.3539
29.067267590245258 34.3461
29.090268308143695 34.1876
29.11327022394099 34.1563
29.13645305530891 34.0382
29.159457379627167 34.0325
29.18246290519685 33.9932
29.20546963313352 34.0125
29.22865731875826 34.0414
29.25166646419296 34.0167
29.27467681535305 33.8223
29.29768837335608 34.0099
29.320880931312562 33.9597
29.34389491580634 33.8628
29.366910110507334 33.9071
29.38992651653503 33.8693
29.41312396492981 33.8367
29.436142806456754 33.7732
29.45916286268059 33.7408
29.48236399319994 33.4741
29.50538649169417 33.429
29.528410208259935 33.3441
29.55143514402014 33.0356
29.574641196749695 33.0553
29.597668583816574 32.8707
29.6206971934585 32.7955
29.64372702680042 32.7657
29.666938019934474 32.7057
29.689970313635285 32.6327
29.713003834422636 32.6171
29.73603858342347 32.4982
29.759254535188578 32.5134
29.78229175361658 32.4756
29.80533020365064 32.5088
29.82836988641968 32.5808
29.85159081507472 32.4829
29.874632976355343 32.3778
29.89767637376955 32.505
29.920721008448314 32.3149
29.9439469322847 32.3069
29.96699405457564 32.2285
29.9900424175358 32.2874
30.013092022298157 32.1985
30.03632295963995 32.0345
30.059375061131373 32.2396
30.08242840783577 32.1873
30.105483000888153 32.1053
30.128718970092244 32.0859
30.151776069006917 32.1245
30.17483441768648 32.2188
30.198074175317235 32.1273
30.221135036724256 32.0836
30.24419715131772 32.0391
30.267260520236203 31.8494
30.290505341942243 31.9154
30.313571232750228 31.9548
30.336638381310948 31.9573
30.35970678876503 31.9041
30.38295669299435 31.7991
30.40602763151657 31.8354
30.429099832366074 31.7955
30.452173296685572 31.7793
30.47542830191959 31.748
30.498504306502497 31.7282
30.521581577995562 31.8245
30.544660117543582 31.8645
30.56792024229725 31.839000000000002
30.59100133132069 31.7882
30.614083691845494 31.8094
30.637167325018545 31.906999999999996
30.660432587840603 31.9061
30.683518779717886 31.991
30.70660624769615 31.8389
30.729694992924372 31.9292
30.75296541239743 31.8125
30.77605672557558 31.9519
30.799149319462742 31.8445
30.8224236211637 31.6985
30.845518789950724 31.5605
30.868615242910597 31.5124
30.891712981195973 31.3838
30.91499247215866 31.2432
30.938092794619365 31.2456
30.96119440587579 31.1681
30.984297307082752 30.9541
31.00758200598383 30.8675
31.030687500658694 30.8609
31.053794288760695 30.8137
31.076902371446767 30.8083
31.100192296997445 30.838
31.12330298246119 30.8249
31.14641496599209 30.6742
31.169528248749216 30.6139
31.19282341969534 30.6692
31.215939314557186 30.6963
31.239056512134788 30.7043
31.262175013589378 30.5937
31.28547544871168 30.5135
31.30859657161541 30.5514
31.331719001892175 30.5443
31.35484274070538 30.6992
31.378148458819545 30.6873
31.401274828443725 30.6542
31.424402510106933 30.7052
31.447712205419993 30.6658
31.470842524931633 30.5934
31.493974159989783 30.5315
31.51710711176168 30.5237
31.54042212308802 30.4377
31.563557722100917 30.4149
31.586694641341655 30.3073
31.609832881979628 30.1356
31.63315322823208 30.0472
31.656294125521327 30.1049
31.679436347728515 30.0007
31.70257989602529 29.9778
31.725905596152327 29.9734
31.74905181052835 29.7836
31.772199354521323 29.8332
31.79534822930507 29.8498
31.818679302290967 29.7684
31.84183085259981 29.7879
31.864983737233473 29.8366
31.88813795736804 29.8448
31.911474422233013 29.7158
31.934631327356435 29.7884
31.9577895715215 29.729
31.980949155906522 29.6621
32.004291031706956 29.7447
32.027453310562606 29.5219
32.05061693318573 29.459
32.07396288236386 29.4867
32.09712920658542 29.4577
32.12029687812702 29.3313
32.14346589817093 29.2631
32.166817291729984 29.246
32.18998902288583 29.0731
32.21316210610336 29.0856
32.23633654256711 28.9005
32.259693399663725 28.9394
32.282870556771144 28.8103
32.30604907069099 28.8837
32.329228942610065 28.7869
32.35259128243769 28.6848
32.375773884550505 28.6002
32.398957848235646 28.621
32.422143174682176 28.5569
32.445511016471215 28.4903
32.468699082679954 28.404
32.49188851523011 28.4317
32.51507931531304 28.3977
32.538452678331 28.3822
32.56164622776311 28.3571
32.58484114831493 28.2017
32.60803744118015 28.2909
32.631416344731896 28.2215
32.654615396551876 28.0499
32.67781582427913 28.105
32.701198898634416 28.0273
32.72440209253756 28.0366
32.747606665947124 27.973000000000003
32.77081262006088 27.7814
32.79420126883317 27.8194
32.81740999876112 27.8273
32.840620112999424 27.7924
32.86383161274818 27.6514
32.88722585534586 27.6989
32.91044014056596 27.759
32.933655814909734 27.7005
32.95687287957963 27.7574
32.98027273544904 27.6304
33.00349259526636 27.4403
33.026713849030116 27.5352
33.04993649794511 27.5409
33.073341986570746 27.545
33.09656744032826 27.5394
33.11979429286444 27.5566
33.14302254538647 27.5262
33.166433686291185 27.4445
33.18966475336992 27.4693
33.212897224069096 27.2803
33.23613109959831 27.3345
33.259547912343415 27.2328
33.2827846121627 27.2675
33.306022720453775 27.1512
33.32926223842861 27.1359
33.352684742614166 27.13
33.37592709463173 27.0549
33.399170859982064 27.0112
33.422597648419426 26.956
33.44584425514446 26.8852
33.46909227885668 26.8028
33.4923417207723 26.7028
33.51577423505344 26.7433
33.539026528130385 26.5645
33.56228024307245 26.6219
33.585535381098246 26.5367
33.60897364093058 26.4743
33.63223163992385 26.4298
33.6554910656699 26.3734
33.678751919389796 26.4312
33.702195944520106 26.379
33.72545966903325 26.3722
33.74872482519663 26.2349
33.771991414233746 26.1846
33.79544122444841 26.2136
33.81871069412428 26.1403
33.84198160035767 26.1568
33.86525394437455 26.201999999999998
33.88870955949969 26.0977
33.911984794020626 26.0864
33.93526147001624 25.978
33.958539588715006 25.9957
33.98200102861669 25.7774
34.0052820477047 25.7918
34.02856451319451 25.8162
34.05203033759056 25.6783
34.07531571090147 25.6355
34.09860253431845 25.7173
34.121890809074316 25.628
34.145362493118924 25.6165
34.16865368561615 25.568
34.191946333164054 25.5383
34.21524043699793 25.5031
34.23871800066799 25.4689
34.26201503218366 25.3879
34.28531352370466 25.3856
34.30861347646881 25.3557
34.33209693978188 25.2241
34.3553998301885 25.2118
34.378704185565205 25.1824
34.402010007152356 25.1
34.42549939016683 25.1331
34.44880815937748 25.0703
34.472118398533134 24.982
34.49543010887669 24.9037
34.51892543169198 24.894000000000002
34.54224009966052 24.869
34.56555624255917 24.8697
34.58887386163339 24.8074
34.61237514439016 24.7735
34.6356957311114 24.7712
34.65901779775809 24.7102
34.68252356662995 24.6185
34.705848608458616 24.6615
34.72917513396849 24.6008
34.75250314440949 24.5174
34.77601490857862 24.4804
34.799345904259795 24.463
34.82267838863559 24.3706
34.846012362958525 24.351999999999997
34.869530142679984 24.3968
34.89286711232212 24.3219
34.91620557568269 24.3581
34.93954553401677 24.3294
34.9630693495876 24.2283
34.986412313340814 24.2302
35.00975677584668 24.2577
35.033102738362956 24.1627
35.05663261012228 24.0597
35.0799815881786 24.0836
35.10333207003229 24.0022
35.12668405694369 24.0658
35.150220005273056 23.9065
35.17357501786656 23.994
35.19693153931268 23.9018
35.220289570874385 23.8868
35.24383161619786 23.8753
35.267192683604904 23.8178
35.290555264930376 23.8688
35.314101899412165 23.8283
35.33746752422433 23.8066
35.36083466676374 23.8743
35.38420332829803 23.8422
35.407756095629054 23.8201
35.43112781085063 23.7498
35.45450104888391 23.7315
35.477875810999194 23.666
35.50143473172161 23.5713
35.52481255774625 23.6377
35.54819191167777 23.5753
35.57157279478914 23.5418
35.595137889488406 23.5022
35.61852184675279 23.4644
35.641907337029984 23.366
35.665294361595684 23.3278
35.68886565090076 23.3601
35.7122557598848 23.3983
35.73564740699838 23.2793
35.759040593519934 23.2038
35.78261809810353 23.1732
35.80601437933051 23.1186
35.829412203814705 23.0989
35.85281157283719 23.0035
35.876395313415884 23.0703
35.8997977874528 22.9949
35.92320180988546 22.9935
35.946790244133936 22.8948
35.97019737933222 22.9446
35.993606066789866 22.9412
36.01701630779276 22.7969
36.04061101440684 22.7023
36.06402437852291 22.8023
36.08743930005611 22.7719
36.1108557802951 22.6485
36.13445678011326 22.6508
36.15787639383515 22.6276
36.18129757014299 22.5772
36.20472031032821 22.5495
36.22832762423364 22.4841
36.25175350829375 22.4814
36.275180960119776 22.3669
36.298609981005924 22.4255
36.32222362992669 22.4761
36.34565580510207 22.401
36.36908955323448 22.3699
36.39252487562093 22.2241
36.416144880530226 22.233
36.43958336764275 22.2558
36.463023432914625 22.1728
36.486465077645676 22.1495
36.51009145956204 22.1736
36.53353627947859 22.1959
36.55698268276811 22.1861
36.58043067073321 22.0739
36.60406345072071 21.9867
36.62751462435344 21.9739
36.65096738658405 21.9071
36.67460498210655 21.932
36.69806093788647 21.982
36.72151848619297 21.831
36.744977628333636 21.9351
36.76862165890998 21.7836
36.79208400512205 21.6786
36.81554794910557 21.6663
36.83901349217101 21.6207
36.862663978991606 21.5508
36.88613273667352 21.5749
36.90960309738324 21.5739
36.933075062434064 21.5404
36.95673202673572 21.4925
36.98020721697122 21.3946
37.003684015502365 21.3549
37.027162423645365 21.3522
37.050825886711465 21.3025
37.07430753063053 21.2528
37.09779078812467 21.2166
37.121275660513014 21.2105
37.144945643673694 21.1606
37.16843376245278 21.1799
37.19192350009803 21.2139
37.215414857931435 21.1245
37.239091382563885 21.0591
37.262585997426164 21.0293
37.28608223645736 21.0561
37.309763684451696 21.0981
37.33326318851098 20.9633
37.356764320726555 20.8937
37.380267082425526 20.9148
37.40395510942588 20.948
37.42746114683234 20.8267
37.45096881771841 20.7487
37.474478123414166 20.7726
37.49817275092816 20.6708
37.52168534303452 20.7333
37.54519957395567 20.6776
37.568715445024665 20.6279
37.592416694607714 20.5401
37.61593586281424 20.6108
37.63945667518264 20.5834
37.66297913304891 20.5207
37.68668702630454 20.5677
37.710212792059274 20.4375
37.733740207334854 20.399
37.757269273470364 20.3454
37.780983832050374 20.3029
37.80451621684926 20.333
37.82805025654007 20.2861
37.851585952464795 20.2063
37.8753071980695 20.1505
37.89884622345676 20.1893
37.92238690911902 20.1152
37.94611318753442 20.01
37.969657210779765 20.0719
37.99320289834801 20.0948
38.016750251586465 19.9722
38.04048325513017 19.9703
38.06403395679343 19.9594
38.087586328183946 19.8797
38.11114037065203 19.8897
38.13488012115898 19.8523
38.1584375229181 19.8085
38.181996599821 19.7492
38.205557353221124 19.7562
38.229303872575656 19.7218
38.2528679961576 19.6554
38.27643380031219 19.6183
38.30000128639589 19.6258
38.32375459653193 19.6462
38.34732546371299 19.590999999999998
38.37089801690786 19.5251
38.39447225747609 19.5114
38.418232380377425 19.4712
38.441810012983396 19.4333
38.46538933705673 19.4085
38.488970353960084 19.3721
38.51273731166058 19.3132
38.536321731567014 19.2773
38.55990784840681 19.2909
38.58367995004091 19.266
38.60726947812959 19.1974
38.63086070726198 19.2579
38.654453638806274 19.1857
38.678232613930824 19.1528
38.70182896773327 19.0741
38.72542702806741 19.0798
38.7490267963045 19.0144
38.77281266709232 18.9907
38.79641586862214 18.9764
38.8200207821842 18.9295
38.843627409152944 18.8928
38.86742019782782 18.9279
38.891030269149255 18.8581
38.914642058016156 18.8409
38.938255565806124 18.8767
38.96205529464307 18.7743
38.98567225787121 18.7626
39.00929094417078 18.6973
39.03291135492255 18.7164
39.05671804624804 18.6274
39.080341923549106 18.6158
39.103967529460334 18.6503
39.127594865365744 18.5999
39.15140854155791 18.5208
39.17503935514948 18.4813
39.19867190290282 18.4984
39.22249083587951 18.4195
39.24612686969409 18.4556
39.269764641845306 18.3767
39.293404153722804 18.3682
39.317230110864074 18.3172
39.34087311998506 18.2557
39.36451787301696 18.3068
39.388164371352595 18.1652
39.41199737518003 18.2016
39.43564738196752 18.2463
39.45929913825317 18.1856
39.48295264543308 18.0948
39.506792718520884 18.0873
39.530449745387216 18.05
39.55410852735203 18.0497
39.57776906581474 18.038
39.60161623079 17.9892
39.625280300200025 17.9724
39.64894613032202 17.8582
39.67261372255866 17.8562
39.6964680021016 17.8543
39.72013913657293 17.8689
39.74381203738292 17.8211
39.76748670593756 17.8209
39.79134812278169 17.7672
39.81502634488497 17.7621
39.83870633896685 17.7312
39.862388106436654 17.6751
39.88625668336918 17.715
39.90994201572829 17.6846
39.933629125719285 17.5823
39.957503091207826 17.5554
39.9811937746168 17.5713
40.00488623990914 17.5367
40.02858048850006 17.4894
40.05246165409549 17.377
40.076159487492085 17.3743
40.099859108448875 17.3631
40.123560518384345 17.3878
40.1474489070226 17.3083
40.171153913178564 17.2775
40.194860712584955 17.33
40.2185693066637 17.2878
40.242464941335314 17.2782
40.26617714307655 17.152
40.289891143772046 17.1954
40.3136069448471 17.1182
40.33750984859743 17.1341
40.3612292688043 17.0929
40.3849504936829 17.0999
40.40867352466194 17.0524
40.43258372059144 17.0233
40.45631038219906 17.0482
40.48003885420956 16.9443
40.503769138055105 16.9623
40.52768664931955 16.9558
40.55142057531802 16.9137
40.57515631746428 16.8772
40.599079334038514 16.8288
40.62281872700477 16.7994
40.64655994043941 16.7592
40.67030297578061 16.7346
40.69423334835778 16.7419
40.71798004609188 16.691
40.74172857006355 16.6711
40.76547892171441 16.6475
40.7894166736039 16.6551
40.813170699248566 16.5905
40.83692655691388 16.5446
40.86068424804498 16.5298
40.884629402612525 16.492
40.908390779366385 16.5184
40.932153993938 16.5101
40.95591904777605 16.4332
40.979871628443995 16.4489
41.003640379561936 16.3775
41.02741097430883 16.3961
41.05118341413683 16.3279
41.075143444384416 16.2488
41.098919593177826 16.2921
41.1226975914255 16.2542
41.14647744058318 16.2188
41.170444943946755 16.223
41.19422851378379 16.1959
41.218013938914645 16.1316
41.24198706625173 16.1321
41.26577622087193 16.0613
41.289567235177785 16.0363
41.31336011063129 16.0135
41.337340752422875 16.0243
41.361137369129835 15.9904
41.38493585138705 15.9692
41.40873620066004 15.8961
41.43272438060107 15.8405
41.45652848292052 15.8495
41.48033445666918 15.8146
41.50414230331616 15.7458
41.528138045159764 15.7518
41.551949656675205 15.6909
41.575763145513235 15.7285
41.59957851314666 15.6933
41.62358184070442 15.6367
41.64740098505737 15.6216
41.6712220126409 15.6351
41.69504492493139 15.5979
41.71905586207357 15.5708
41.74288256296395 15.502
41.766711153007456 15.5029
41.79054163368412 15.4524
41.814560204340054 15.4842
41.838394485526365 15.4847
41.86223066180303 15.4273
41.88625497706819 15.3735
41.910094962812 15.4101
41.93393684811168 15.3962
41.95778063445365 15.267999999999999
41.981812625263366 15.2182
42.00566023303407 15.2671
42.029509746323676 15.2692
42.05336116662236 15.1919
42.077400857069705 15.220999999999998
42.10125611078846 15.2332
42.12511327600405 15.1771
42.14897235421036 15.1487
42.173019768448455 15.0621
42.19688269209613 15.0377
42.22074753323349 15.0314
42.24461429335818 15.0463
42.268669455600495 14.995
42.292540073217886 14.9982
42.31641261433284 14.9963
42.34028708044675 14.9735
42.36435001496739 14.8813
42.38822835065557 14.8369
42.41210861586426 14.8332
42.4359908120986 14.8434
42.46006154323262 14.8016
42.48394762115317 14.7458
42.507835634632315 14.7528
42.531912233047436 14.706
42.55580413732265 14.6969
42.579697981698 14.7249
42.60359376768525 14.6463
42.62767820545945 14.6671
42.65157789440821 14.6472
42.67547952952185 14.5704
42.699383112316 14.5716
42.72347541395347 14.4885
42.74738291190531 14.4715
42.771292362102166 14.5153
42.795203766063516 14.4441
42.819303956130405 14.4117
42.843219287476536 14.4113
42.86713657716324 14.3565
42.89105582671383 14.3309
42.91516392983864 14.2952
42.939087119032166 14.3467
42.963012272677304 14.3228
42.98693939230129 14.2652
43.01105543317513 14.251
43.034986504731386 14.2161
43.05891954686589 14.1429
43.08285456110972 14.147
43.10697856448665 14.1017
43.130917542983475 14.0663
43.15485849820081 14.050999999999998
43.17880143167367 14.0026
43.20293342237094 13.9837
43.226880332449 14.0099
43.25082922540554 13.9699
43.27496722682525 13.9687
43.29892010567796 13.9827
43.32287497204102 13.9608
43.34683182745632 13.9023
43.370977859791836 13.8885
43.39493871351105 13.8705
43.41890156092628 13.8402
43.44286640358341 13.8107
43.46702049182749 13.7789
43.49098934522816 13.7258
43.51496019852649 13.7042
43.5389330532723 13.6735
43.56309522248204 13.6467
43.58707210044314 13.6641
43.61105098451946 13.5848
43.63503187626491 13.5885
43.659202151562134 13.5237
43.68318707902681 13.5448
43.70717401884041 13.5267
43.731162972560874 13.5039
43.75534137913236 13.4545
43.779334381108384 13.4301
43.803329401683186 13.4225
43.82732644241872 13.3919
43.8515130055166 13.395999999999999
43.87551410707659 13.3419
43.89951723350145 13.383
43.923709934595614 13.3202
43.94771713129917 13.2716
43.97172635758096 13.2615
43.99573761501002 13.2496
44.0199385169922 13.2055
44.04395385732619 13.2019
44.067971233533086 13.2321
44.09199064718605 13.1886
44.11619977548961 13.1371
44.14022328470671 13.1199
44.16424883610785 13.1245
44.18827643127035 13.0914
44.21249381139513 13.0988
44.236525514814076 13.0035
44.26055926674478 12.9911
44.28459506876863 13.0296
44.3088207262813 12.9573
44.33286064928722 12.9427
44.35690262714919 12.8969
44.38094666145278 12.8521
44.4051806219871 12.8756
44.42922879003185 12.8332
44.45327901929361 12.8278
44.477331311362136 12.8056
44.501573600619416 12.7565
44.525630039221795 12.728
44.54968854541895 12.7386
44.573937102200176 12.7271
44.5979997645541 12.6683
44.622064499300315 12.6141
44.64613130803592 12.6399
44.67038823869318 12.6379
44.69445921643748 12.6167
44.718532272981385 12.5874
44.742607409926194 12.5824
44.76687274034801 12.5453
44.79095205918753 12.4798
44.81503346325094 12.4907
44.839116954143876 12.4584
44.86339071028742 12.4315
44.88747839599524 12.4318
44.91156817336837 12.4199
44.93566004401666 12.3615
44.959942251908146 12.349
44.984038330325966 12.3345
45.00813650686762 12.2858
45.03223678314731 12.3081
45.05652746888232 12.2863
45.08063196592069 12.2736
45.104738567558705 12.2231
45.128847275414856 12.2396
45.15314646515866 12.1457
45.17725940679741 12.1743
45.20137445952892 12.1392
45.22568004865265 12.1276
45.24979934496396 12.1049
45.27392075725247 12.0826
45.29804428714431 12.0644
45.322358426247604 12.0225
45.346486212804315 12.0367
45.370616121861914 12.0076
45.39474815505086 12.0052
45.41907087049246 11.9306
45.4432071734666 11.8753
45.46734560548283 11.8992
45.49148616817604 11.8765
45.51581748638564 11.8671
45.5399623320197 11.8537
45.56410931325473 11.7948
45.58825843173002 11.8362
45.61259837920865 11.7719
45.636751793816 11.742
45.66090735060093 11.7585
45.68506505120716 11.7498
45.7094136545275 11.7301
45.73357566449271 11.6953
45.75773982322992 11.6713
45.78190613238733 11.6028
45.806263418194064 11.5654
45.83043404997326 11.5859
45.85460683713677 11.5951
45.87897065658495 11.5778
45.90314777634752 11.4912
45.92732705646868 11.4677
45.9515084986045 11.4682
45.97588104735473 11.4651
46.00006683541565 11.4692
46.02425479047904 11.4238
46.04844491420549 11.384
46.0728262191024 11.356
46.09702070211635 11.3512
46.12121735879483 11.3467
46.14541619080294 11.3462
46.169806278764455 11.3294
46.194009483459034 11.3043
46.21821486849841 11.2481
46.24242243555223 11.210999999999999
46.266821333570014 11.2131
46.29103328674601 11.2026
46.31524742696538 11.1788
46.33946375590237 11.1472
46.36387149104216 11.1484
46.38809221957392 11.1432
46.41231514186606 11.1458
46.436540259597464 11.0946
46.460956858999374 11.0467
46.48518638983522 11.0436
46.509418121166966 11.0239
46.533652054678114 10.9713
46.55807754555709 10.939
46.58231590571962 10.9739
46.60655647313217 10.9588
46.630988654873654 10.9259
46.655233659129024 10.9128
46.67948087571551 10.8757
46.70373030632484 10.8706
46.72817142736393 10.8692
46.752425308428684 10.8487
46.77668140861147 10.7786
46.80093972960865 10.770999999999999
46.82538981736788 10.7481
46.849652602470904 10.7391
46.87391761349769 10.7077
46.8981848521493 10.6787
46.9226439341274 10.6562
46.946915650573224 10.6576
46.97118959976749 10.6319
46.99546578341598 10.6126
47.019933887188216 10.5919
47.04421456235744 10.6044
47.06849747711879 10.5504
47.09278263318286 10.5524
47.11725978640143 10.5223
47.14154944775105 10.492
47.165841355555656 10.5091
47.1901355115306 10.4499
47.214621741924994 10.4514
47.23892041698887 10.4433
47.26322134538975 10.4181
47.28771440635075 10.4146
47.31201986422527 10.3973
47.33632758061436 10.3503
47.360637557241866 10.3571
47.38513974410611 10.3376
47.40945426407847 10.2826
47.43377104948137 10.2578
47.45809010204344 10.2532
47.48260144275502 10.2363
47.506925052572285 10.1922
47.53125093475548 10.222000000000001
47.55557909103813 10.1584
47.58009961361992 10.1163
47.60443234110732 10.1236
47.62876734791564 10.0826
47.65310463578333 10.0862
47.6776343683373 10.0793
47.7019762413987 10.0636
47.72632040075572 10.0667
47.75066684815169 10.0444
47.77520581885936 9.99404
47.799556865477655 9.959480000000001
47.823910205386 9.96566
47.84826584033272 9.96503
47.87281407745551 9.925939999999999
47.89717432569297 9.91019
47.92153687423484 9.91808
47.94609208429692 9.908339999999999
47.97045925671401 9.86347
47.99482873471275 9.79583
48.01920052005013 9.82565
48.04376504619224 9.801169999999999
48.068141469543484 9.8111
48.09252020552573 9.79117
48.11690125590099 9.75878
48.1414751266064 9.749419999999999
48.16586082917454 9.73064
48.19024885144316 9.68957
48.2146391951793 9.66804
48.239222439012764 9.68885
48.26361744916137 9.667539999999999
48.28801478610016 9.63526
48.31241445160131 9.61528
48.337007097209366 9.610610000000001
48.36141144338331 9.60929
48.38581812345755 9.53028
48.41022713920929 9.55668
48.434829215320704 9.51165
48.45924292604658 9.530660000000001
48.48365897780325 9.52162
48.50807737237308 9.47189
48.532688907799276 9.48742
48.55711201168574 9.461089999999999
48.581537463754074 9.42114
48.60615611725119 9.42864
48.63058628942721 9.394210000000001
48.65501881516546 9.38237
48.6794536962573 9.35592
48.70408185970339 9.35698
48.72852147531801 9.33498
48.75296345168211 9.26512
48.77740779059232 9.272310000000001
48.80204549302823 9.2951
48.82649458091802 9.26047
48.85094603676547 9.2294
48.87539986237231 9.22564
48.90004713292306 9.20986
48.92450572200832 9.184289999999999
48.94896668628025 9.14517
48.97343002754588 9.16815
48.99808689542115 9.11565
49.02255501470614 9.114310000000001
49.04702551642794 9.10293
49.0714984023988 9.09932
49.096164896893235 9.05148
49.120642575466796 9.02127
49.145122643748394 9.032639999999999
49.16960510355558 9.01401
49.19428125404938 8.98448
49.2187685210852 8.950339999999999
49.243258185121555 8.9522
49.26794160167084 8.939810000000001
49.2924360839405 8.89675
49.31693296869764 8.91611
49.34143225776915 8.90959
49.36612538195438 8.85747
49.39062950396021 8.894160000000001
49.41513603578346 8.86865
49.4396449792564 8.85207
49.46434784069503 8.8579
49.488861631846454 8.79951
49.513377840166804 8.77057
49.537896467493745 8.72837
49.56260909589029 8.691130000000001
49.587132585683285 8.7024
49.611658500018365 8.72492
49.636186840738596 8.71235
49.66090926588511 8.694939999999999
49.685442483902584 8.667489999999999
49.70997813385706 8.63265
49.734516217597076 8.611839999999999
49.75924846937352 8.58656
49.7837914452858 8.604610000000001
49.80833686055187 8.59414
49.83288471702571 8.52642
49.85762682540054 8.53984
49.882179588965734 8.51558
49.9067347993235 8.50026
49.93129245833333 8.47002
49.95604445336378 8.47023
49.98060703442832 8.47252
50.005172069746266 8.4782
50.02993150438364 8.425989999999999
50.05450147301533 8.4106
50.07907390151433 8.39048
50.10364879174981 8.3774
50.12841816587289 8.33196
50.1529980044635 8.33561
50.17758031042124 8.34702
50.20216508562089 8.33115
50.22694442953363 8.29623
50.25153416817468 8.29974
50.27612638170508 8.27225
50.300721072005196 8.228819999999999
50.325510416102105 8.2254
50.350110084975064 8.17285
50.37471223628208 8.21117
50.39931687190919 8.180539999999999
50.424116246675766 8.15172
50.44872587605249 8.11405
50.47333799543065 8.12504
50.49795260670191 8.12526
50.52276204271512 8.09716
50.54738166295838 8.07267
50.57200378079314 8.0327
50.596628398116835 8.05363
50.62144792604559 8.044210000000001
50.646077567609396 8.02967
50.670709714377715 8.001330000000001
50.69553683636198 8.003789999999999
50.72017401885922 7.98545
50.7448137122895 7.96127
50.76945591856022 7.927410000000001
50.79429318636823 7.9333
50.818940443716784 7.9441
50.84359021965163 7.936260000000001
50.868242516085964 7.91195
50.893089960641895 7.890280000000001
50.917747323549435 7.865310000000001
50.94240721271973 7.85335
50.96706963007175 7.83057
50.99192728239342 7.793819999999999
51.01659478166073 7.7919
51.04126481489051 7.78327
51.06593738400761 7.753760000000001
51.090805275207074 7.758769999999999
51.11548294172845 7.74488
51.14016314993547 7.74718
51.164845901758845 7.67472
51.18972406304274 7.68428
51.21441192780656 7.655069999999999
51.23910234200271 7.67663
51.2637953075678 7.6410800000000005
51.288683770237945 7.60313
51.31338186432707 7.62483
51.33808251561888 7.617319999999999
51.362978729967345 7.58475
51.387684521509755 7.5963899999999995
51.41239287610203 7.53786
51.437103795691165 7.510089999999999
51.46201036644977 7.50515
51.486726441956634 7.466589999999999
51.51144508832545 7.48508
51.536166307509156 7.48884
51.56108326624387 7.4442
51.58580965706056 7.468030000000001
51.61053862657523 7.44602
51.635270176746864 7.42048
51.66019755512065 7.420380000000001
51.68493429268881 7.38029
51.70967361681515 7.3863
51.73441552946465 7.36335
51.759353359237934 7.36942
51.7841004750961 7.335939999999999
51.80885018539685 7.297789999999999
51.833602492111254 7.308739999999999
51.8585508051424 7.24816
51.883308330926425 7.27957
51.90806845906181 7.2260100000000005
51.932831191525715 7.240810000000001
51.95779001977161 7.22918
51.98255798721516 7.1797699999999995
52.00732856494335 7.15375
52.03229530577543 7.169230000000001
52.057071130455945 7.15117
52.081849571391054 7.122960000000001
52.106630630568695 7.1714
52.13160794279417 7.0913699999999995
52.15639426492067 7.08678
52.18118321127822 7.07521
52.205974783860896 7.04847
52.23096269971011 7.04334
52.255759551287994 7.02445
52.280559035098186 7.02763
52.30536115314103 7.015960000000001
52.33035970494467 6.984310000000001
52.35516711807904 6.974539999999999
52.37997717147198 6.93987
52.40478986713005 6.90952
52.42979908731974 6.92616
52.454617094216 6.89205
52.47943774942214 6.88513
52.50426105495102 6.87977
52.529280976059844 6.866039999999999
52.554109609024096 6.8784600000000005
52.57894089837482 6.861389999999999
52.60377484613117 6.85003
52.62880550079408 6.81606
52.65364479223379 6.75917
52.67848674816189 6.77941
52.70352547971946 6.79745
52.72837279155837 6.78672
52.753222773982785 6.72152
52.778075429022984 6.7337
52.80312495150885 6.71891
52.827982978797436 6.70247
52.85284368481815 6.665089999999999
52.87770707160767 6.71375
52.90276741793998 6.685860000000001
52.92763619336701 6.67617
52.952507655698504 6.640680000000001
52.977381806977576 6.63805
53.00245301017842 6.6131899999999995
53.02733256653592 6.60567
53.052214817996074 6.57764
53.077099766608484 6.5681
53.102181859804446 6.52683
53.127072229988265 6.57983
53.15196530349892 6.503819999999999
53.17686108239249 6.52168
53.20195409881522 6.51336
53.22685531582556 6.4987
53.25175924441303 6.4884900000000005
53.27666588664027 6.41798
53.30176985962693 6.4172
53.3266819565689 6.41967
53.35159677336455 6.44198
53.376514312083096 6.36637
53.40162927507703 6.4048099999999994
53.42655228516116 6.41335
53.45147802340193 6.32444
53.47660125628886 6.31004
53.50153247842639 6.29645
53.52646643496923 6.3106800000000005
53.55140312799818 6.29725
53.576537409691696 6.25978
53.60147960336152 6.27495
53.626424539786164 6.218719999999999
53.65137222105307 6.248880000000001
53.67651758529126 6.27493
53.70147078399681 6.24592
53.72642673383343 6.23986
53.75138543689533 6.219869999999999
53.776541917524526 6.2035
53.801506154876755 6.20275
53.826473151763246 6.165769999999999
53.851442910284916 6.0995800000000004
53.87661054126026 6.11713
53.9015858509782 6.08284
53.92656392866066 6.1077
53.95154477641532 6.12159
53.976723591801296 6.1001
54.00171000771266 6.11895
54.02669920004598 6.045719999999999
54.051691170915745 6.03097
54.076881204886796 6.03432
54.101878760928514 6.01331
54.12687910187696 5.9709699999999994
54.152077577768296 5.99092
54.1770835166946 5.96319
54.20209224691339 5.94615
54.22710377055121 5.92779
54.25231352511594 5.94458
54.27733066384342 5.874140000000001
54.30235060239643 5.89463
54.32737334290836 5.9308
54.35259441062629 5.86088
54.377622783395324 5.82071
54.40265396455061 5.87793
54.42768795623251 5.80548
54.45292037169559 5.79887
54.477960012857906 5.78431
54.50300247099511 5.75216
54.52804774825457 5.75352
54.55329154616743 5.7228900000000005
54.57834249018678 5.71495
54.6033962597977 5.67736
54.6284528571545 5.6557
54.653708072335164 5.61038
54.67877035378786 5.58281
54.70383546947698 5.62156
54.72890342156389 5.55842
54.7541700889442 5.51674
54.77924374251975 5.57155
54.8043202390049 5.52018
54.82959552413022 5.50676
54.8546777351945 5.44459
54.87976279569621 5.4033
54.90485070780914 5.44683
54.930137506558005 5.4168
54.95523115074295 5.40054
54.98032765308844 5.41228
55.005427015775496 5.3722
55.03072536339621 5.35205
55.05583047570572 5.32353
55.080938454927676 5.30285
55.10604930325027 5.3655800000000005
55.131359235107396 5.312819999999999
55.15647585066083 5.213430000000001
55.181595341907496 5.20714
55.20671771104285 5.22666
55.232039262617704 5.1841
55.25716741665048 5.1757
55.28229845518636 5.14561
55.30743238042802 5.127000000000001
55.33276558731939 5.07556
55.357905315183636 5.1119
55.383047936390035 5.01973
55.40819345314859 5.00431
55.433538351073295 4.96995
55.458689688238415 5.04584
55.483843927614096 4.987419999999999
55.509197623043605 4.95786
55.53435769621134 4.9092
55.55952067826466 4.95316
55.5846865714265 4.91467
55.61005202069737 4.854769999999999
55.63522376553902 4.82015
55.66039842818645 4.81001
55.68557601087004 4.8173
55.7109532500271 4.73442
55.73613670233794 4.772930000000001
