TT I
1.2716486653135266 7.2989999999999995
1.2939594142134223 6.92966
1.3162702121660406 6.4257599999999995
1.3385810600174564 6.97337
1.3608919586137629 6.74413
1.383202908801069 6.831980000000001
1.405513911425503 7.15003
1.4278249673332093 5.79674
1.4501343378461518 6.2282
1.4724455028545926 6.11716
1.4947567236847858 5.86369
1.517068001182951 5.49979
1.5393793361953272 6.325130000000001
1.5616907295681737 5.65714
1.5840021821477681 5.39328
1.60631369478041 5.65667
1.6286252683124185 5.53523
1.6509369035901333 4.61463
1.6732468618895553 5.28138
1.695558623192809 5.296130000000001
1.7178704487808514 5.0412300000000005
1.7401823395001077 5.50823
1.7625012545597203 5.19256
1.7848028405262486 5.78441
1.8071218901122095 5.027419999999999
1.8294236121921872 4.95501
1.8517427996910911 4.8653
1.8740620574440425 5.43164
1.8963639900671978 5.00277
1.9186833908139995 4.74815
1.9409854680117449 5.29975
1.9633050151394713 5.25143
1.9856246367570705 4.98147
2.0079269371922672 4.46702
2.03024671027244 4.78378
2.0525491637446027 4.674930000000001
2.074869091674931 4.644419999999999
2.097171701569106 4.57764
2.1194917877373847 4.00282
2.141811954326636 5.02179
2.164114805233074 4.847519999999999
2.186435135143035 5.48648
2.208738150935709 8.92401
2.231058647554722 14.7165
2.2533792288321184 11.7569
2.275682498336085 6.570930000000001
2.298003251406138 4.90782
2.3203066942619714 5.26433
2.3426276225136022 5.19805
2.3649486396617507 5.2860000000000005
2.387252348930071 5.94128
2.4095735463442893 5.98905
2.4318774374315884 5.63539
2.4541988185014043 5.829269999999999
2.476502894794693 6.30834
2.498824462909887 6.54831
2.521146125856138 5.67812
2.5434504863470337 6.93133
2.5657723414244717 6.96473
2.588076895590662 7.33068
2.610398946189713 7.66988
2.6327210958598384 7.97297
2.6550259469304716 7.60188
2.6773482972090137 7.715739999999999
2.6996533504259 7.807639999999999
2.7219759047039602 7.265219999999999
2.744298562293959 7.784039999999999
2.7666039251246595 7.2939
2.7889267918020164 7.722519999999999
2.8112323652516555 8.14423
2.833555444408179 9.11792
2.8558786311183852 8.46097
2.8781845268938557 8.72747
2.9005079311721484 8.602319999999999
2.9228140460410397 8.97695
2.9451376712799635 8.9658
2.967444008632326 9.884089999999999
2.9897678582247247 9.640369999999999
3.0120918213106695 10.3059
3.0343984987899373 11.3488
3.0567226913198637 11.2572
3.079029599759726 11.5946
3.101354025127254 11.8005
3.123678568232338 13.1566
3.145985829517914 13.2292
3.16831061055229 13.8195
3.1906181112775593 13.963
3.212943133635653 14.7424
3.2352682779763207 14.9837
3.2575761442691227 15.4263
3.2799015350264273 15.5071
3.302209649240067 15.8848
3.3245352898092655 16.8565
3.3468436553365257 17.375
3.369169549113219 17.8309
3.3914955708171384 18.628
3.413804319727358 18.9573
3.4361305997334863 19.3485
3.4584396084414553 19.5044
3.4807661501462652 20.4202
3.503092824025881 20.9654
3.5254022288463154 20.9156
3.5477291695206588 21.6978
3.5700388426251948 22.2874
3.5923660534916446 23.1885
3.6146934007816114 30.7588
3.637003482731501 53.391000000000005
3.6593311053109985 56.9836
3.681641464033634 38.2412
3.7039693653009733 27.0677
3.726297407241705 25.4706
3.7486081875460804 25.5548
3.7709365132734978 26.3393
3.793247578841633 26.828000000000003
3.8155761917550093 26.5691
3.8378875459837216 27.119
3.8602164494827234 27.4523
3.882545499606844 28.4974
3.9048572932539183 28.8866
3.9271866390645718 29.1362
3.9494987298666713 29.8436
3.971828374764527 30.4255
3.9941581705403255 30.9871
4.016470713506008 31.5227
4.038800813471445 32.3095
4.061113662089144 32.9785
4.0834440696459176 33.7757
4.105774632334751 33.6636
4.128087945865126 34.4407
4.150418821249301 35.6348
4.172732448931298 36.7591
4.195063640413578 38.0648
4.2173775856475215 40.9151
4.239709096631102 56.9317
4.262040768704612 129.412
4.284355196706267 165.457
4.306687193387355 113.319
4.329001947444346 59.428000000000004
4.35133427213731 45.6397
4.373666762177566 44.1033
4.395982011761091 44.2109
4.418314834921175 45.2388
4.44063041906622 49.3288
4.4629635787515625 54.4941
4.4852969080429785 55.5566
4.5076130004776225 52.8926
4.529946671403969 54.1418
4.552263106909177 55.9273
4.574597122877047 54.8641
4.596931312711224 54.4993
4.619248269273446 54.2756
4.6415828092605835 55.7644
4.663900117405352 56.7257
4.686235010953232 57.8925
4.708552674085913 59.4658
4.730887924602802 60.5693
4.753223354952695 62.7865
4.775541557023902 65.1192
4.797877349456786 66.9175
4.820195915032126 68.8691
4.842532072957498 69.4897
4.864868414979744 71.7197
4.88718753227192 75.1061
4.909524244902505 77.0665
4.931843734218147 77.8017
4.954180820867835 80.7779
4.976518095879839 83.8519
4.998838149695359 86.2144
5.021175803844231 90.0987
5.043496238205739 93.8985
5.065834274903528 98.5537
5.088172504230693 104.351
5.1104935158799565 111.743
5.132832132875765 131.588
5.155153533596801 165.5
5.1774925416746225 227.185
5.199814334878411 541.727
5.2221537374521505 1432.03
5.244493338631803 3533.2
5.266815727034316 7850.37
5.289155727832427 11653.3
5.311478517248165 8430.79
5.333818921080011 2823.66
5.356159527788849 578.015
5.3784829252032536 205.718
5.400823940070432 157.488
5.423147747031976 135.237
5.445489173474152 124.139
5.467830807066149 120.821
5.490155234831516 117.53
5.512497285125229 112.064
5.534822130975162 107.74799999999999
5.557164601388673 105.211
5.579489868738879 101.91
5.601832762690846 100.854
5.6241758697774475 99.6532
5.646501775867269 98.4679
5.668845311622074 97.4125
5.691171647754637 96.9609
5.713515615597765 95.8113
5.735859800852677 95.2618
5.758186788542988 95.6629
5.780531411018185 98.0241
5.802858837297399 97.5133
5.825203900414495 97.1933
5.8475491852224 99.3705
5.869877275883075 99.4242
5.892223006467101 98.7289
5.914551544266608 99.2618
5.936897724049891 103.13799999999999
5.959244129804903 112.624
5.981573344815301 151.486
6.0039202049061 300.29200000000003
6.026249875609095 610.214
6.04859719346037 1194.58
6.070927323278297 2393.67
6.093275102315365 4270.49
6.115623113320588 5105.98
6.137953938319995 3272.97
6.160302415650845 1023.77
6.182633708324452 247.96200000000002
6.2049826554078376 118.78
6.227331838745022 95.9955
6.249663839443684 87.45
6.27201349767565 83.6595
6.294345974611799 84.5595
6.316696111167083 87.5494
6.339046488263839 84.4585
6.361379686074702 76.5677
6.383730546639482 72.3464
6.406064229255215 70.7153
6.428415576718203 70.7411
6.450749747566656 69.4268
6.47310158535871 67.5174
6.495453669698332 66.6707
6.517788579421056 65.9642
6.540141159237969 64.9336
6.562476565766648 64.2425
6.5848296444934045 64.0239
6.607182974060425 63.2681
6.6295191323281015 63.2679
6.651872965955752 64.3961
6.6742096296068985 75.5035
6.6965639707294615 96.1866
6.71891856698715 95.2585
6.741255995248479 75.5387
6.763611104154477 63.647
6.785949046381137 59.9678
6.808304671371482 59.6716
6.8306605557940046 60.4054
6.852999275508618 59.3297
6.875355681171544 58.122
6.897694923437771 57.3728
6.92005185377892 57.1635
6.9423916220322655 56.9108
6.964749080490181 56.2915
6.987106804399774 56.2084
7.009447368180821 56.7874
7.031805625367033 56.4431
7.054146723727803 56.1292
7.076505517631004 55.7852
7.098864581288365 55.6258
7.121206488070854 55.755
7.143566093607822 55.9484
7.165908543567245 56.4736
7.188268694426048 56.2143
7.2106291193438095 55.7714
7.232972390625943 56.2779
7.255333366030969 62.1157
7.277677189091925 86.1854
7.300038718428332 106.62899999999999
7.322400526130865 94.8278
7.344745183422596 70.0733
7.367107550224791 58.1946
7.389452767901992 56.1517
7.411815697249891 55.2743
7.434161478756298 54.7767
7.456524974096713 54.9421
7.478888753837185 54.7423
7.501235387657368 55.0335
7.523599738562711 54.8763
7.545946944825532 55.3798
7.568311870344528 55.7127
7.5906770845765665 56.1745
7.613025156078678 57.0265
7.635390950099687 57.7007
7.657739602662809 57.3022
7.680105979923558 56.8073
7.702472650212829 57.3612
7.724822180948224 56.9586
7.747189439655568 57.0303
7.769539560075357 56.6513
7.791907410653562 57.3535
7.81425812420825 57.1747
7.836626570110925 57.5708
7.858995315087906 58.5539
7.881346924933401 58.4908
7.903716270417482 59.222
7.926068482028405 59.4185
7.948438431475253 60.1513
7.9708086843180235 60.6666
7.993161805171116 61.3972
8.015532667162402 62.0063
8.037886398416653 63.3398
8.060257873014221 63.4842
8.082629655331942 64.0577
8.104984308787587 64.6525
8.127356708900503 67.2011
8.149711981398308 71.2246
8.172085002766314 72.7358
8.194458336181368 71.1267
8.216814543847752 70.141
8.23918850371002 70.8223
8.26154533906492 71.6631
8.283919928836452 73.6019
8.306277395339652 74.107
8.328652618483376 75.9576
8.351028159736202 77.9317
8.373386579575245 80.1422
8.395762759396959 82.095
8.418121819038275 86.6887
8.440498640894003 95.3296
8.462875785192262 109.242
8.485235811156207 142.19899999999998
8.507613602688501 212.588
8.529974277114228 317.144
8.552352719347912 468.32
8.574731488360351 752.174
8.59709314210385 1251.12
8.619472567021075 1849.26
8.64183487789147 2181.71
8.664214962183097 1781.1
8.686577933647762 948.441
8.708958680784317 365.161
8.731339760774953 164.003
8.753703729764451 113.405
8.77608547780821 101.413
8.798450116065078 97.7756
8.820832535634787 95.0975
8.843215292401656 94.3198
8.865580941199045 93.0355
8.887964374703538 91.9973
8.910330701447199 92.04700000000001
8.932714815164482 92.4975
8.955099270424924 90.3347
8.977466620733543 88.1766
8.999851761421976 86.3924
9.022219798361645 85.4753
9.04460562795561 85.3652
9.066991803441677 85.0609
9.089360876979615 85.2485
9.111747746589993 84.8427
9.13411751544971 84.0625
9.156505082664324 83.5366
9.178875550323522 83.3716
9.20126381862328 83.8603
9.223652438908596 83.8498
9.246023961427412 83.7504
9.26841328802173 83.5261
9.290785518039224 83.8841
9.313175554425882 85.5111
9.335565947154315 85.8884
9.357939245086508 85.8104
9.380330352834827 85.6886
9.40270436697103 86.178
9.425096193225055 85.6774
9.447488380180165 86.3183
9.469863475295412 86.2824
9.492256385987508 86.0998
9.514632206018318 87.1943
9.537025843935714 87.3795
9.559402392368193 88.2192
9.581796761000229 90.084
9.604191496441521 91.3273
9.626569144158516 93.7559
9.648964615551032 95.7982
9.671343000390081 96.1739
9.693739211225699 95.3876
9.716135793237463 94.5051
9.738515290448102 95.2723
9.760912617143402 96.8973
9.783292860202891 98.6013
9.805690935076182 100.23
9.828089385495742 100.913
9.850470754023561 102.845
9.872869957865444 107.684
9.89525208097539 115.887
9.917652041736662 124.139
9.940052382417589 134.52
9.962435644102392 167.87
9.984836746950979 224.93599999999998
10.007220771957746 297.426
10.029622640473708 414.098
10.052007432299963 608.0790000000001
10.074410069984072 893.123
10.096813093716005 1294.88
10.119199042482517 1703.08
10.141602840636468 1926.11
10.163989564971628 1610.01
10.186394141051062 918.3560000000001
10.208799107559706 398.07
10.231187001965623 189.983
10.253592751657669 129.336
10.275981430388155 115.256
10.298387966769793 112.477
10.320794897965431 112.765
10.343184759907361 111.43299999999999
10.36559248305461 108.449
10.387983138083852 108.679
10.410391656691655 117.911
10.432800574501677 132.092
10.455192425893369 151.256
10.47760214443012 180.479
10.499994797678786 225.824
10.522405320453982 304.29900000000004
10.54479877906917 404.277
10.567210109595656 500.846
10.5896218454736 560.187
10.612016518879773 490.17900000000003
10.634429067781074 341.11400000000003
10.656824555333241 197.356
10.679237920773568 123.027
10.701651695961992 97.1965
10.724048411481384 90.7531
10.746463008485165 88.2415
10.768860546937125 86.4289
10.791275969274796 84.8706
10.81369180576079 83.6302
10.836090585366925 82.3266
10.858507252467449 81.1796
10.88090686379991 80.3859
10.903324365036394 79.7212
10.925724811614439 79.1696
10.948143150509463 79.6706
10.970561909719066 78.9624
10.992963615930844 77.8444
11.015383218085756 76.0302
11.037785768347074 74.485
11.06020621697282 73.8737
11.082627090322113 73.3162
11.105030913430326 72.7627
11.12745263854165 72.5805
11.149857314510728 73.7857
11.172279894912576 76.4975
11.194702904450653 76.322
11.217108866490921 73.8808
11.239532736615194 71.5101
11.26193956033512 70.7144
11.284364294577085 69.6882
11.306789462371718 68.6404
11.329197585398376 68.1665
11.351623622610898 67.9778
11.37403261614354 67.0873
11.396459526308487 66.9287
11.418869393879497 66.5844
11.441297180532617 66.1069
11.463725406927658 65.8393
11.486136592353875 65.516
11.508565700543707 65.6587
11.530977768845315 66.8215
11.553407762368774 66.7911
11.575838200059769 66.4676
11.598251599479612 65.3557
11.620682927815501 64.7709
11.64309721895548 64.6084
11.665529441478206 64.3319
11.687962112597958 63.8218
11.710377748130886 63.8319
11.732811318753434 63.9113
11.755227854859067 63.9769
11.777662328529495 63.956
11.800079768750786 63.7269
11.822515149015453 63.8063
11.844950984084935 63.731
11.867369787303163 63.5936
11.889806534289491 63.3314
11.912226250487029 63.7382
11.934663912939751 64.1006
11.9571020346363 64.3047
11.979523127133968 64.5251
12.001962169624331 65.8325
12.024384183972964 68.6423
12.046824150809913 72.5649
12.069264581333726 78.1012
12.091687985297767 84.4135
12.11412934550045 94.4368
12.136553680195208 109.579
12.158995973632788 131.55
12.181438735204349 156.466
12.20386447284199 182.18900000000002
12.226308172985636 201.136
12.24873485024193 199.838
12.271179492516982 167.60299999999998
12.293607112949127 122.774
12.316052700916226 90.8701
12.338498763250042 75.2768
12.360927805303868 68.4469
12.383374818673879 66.3502
12.405804812803074 65.2864
12.428252780773262 65.2682
12.45070122756722 65.3114
12.473132656675375 65.1342
12.49558206341869 65.3824
12.518014453510101 65.5736
12.540464823770117 65.666
12.562915677315177 65.8246
12.58534951575545 66.3822
12.607801338171472 67.0072
12.630236146511358 69.6384
12.652688941369085 72.194
12.675124723177234 72.5462
12.697578494048786 71.4322
12.720032754458185 69.4038
12.742470003354093 69.0115
12.764925245138771 68.874
12.787363476431278 69.09899999999999
12.809819703166806 69.6909
12.83227642391173 70.2836
12.854716135692716 70.8628
12.877173846755147 71.9459
12.899614549869717 72.5072
12.9220732548287 73.5884
12.94453245827299 74.1336
12.966974655289818 75.2257
12.989434858002571 75.9084
13.011878055298721 76.5114
13.034339260862497 77.8143
13.056800969391883 79.1755
13.079245674017244 82.3049
13.101708390774869 87.5559
13.12415410463411 98.0048
13.146617833206086 110.46
13.169064559883248 122.46799999999999
13.191529303857127 139.037
13.213994557076367 163.74200000000002
13.236442809902437 201.40200000000002
13.258909083908291 252.755
13.28135835851934 307.428
13.30382565690295 368.466
13.326293469022952 417.91900000000004
13.348744283242008 419.07
13.371213125129904 352.64599999999996
13.39366497011003 258.374
13.416134845360597 170.08599999999998
13.438605238843131 124.805
13.46105863690397 112.684
13.483530069144786 114.416
13.505984506951902 120.145
13.528456981549432 131.452
13.550929978879088 147.764
13.573385983253365 172.688
13.595860028340867 209.36599999999999
13.618317081455832 255.18200000000002
13.64079217790333 303.091
13.663250283359057 340.065
13.685726434770173 370.31699999999995
13.708203115221277 339.19300000000004
13.730662806148091 266.11400000000003
13.75314054697177 187.113
13.775601299246777 128.325
13.798080104050406 97.3397
13.820559442405358 86.5009
13.843021793671388 83.0895
13.865502201420897 81.5685
13.887965623051947 80.7919
13.910447103807167 79.6564
13.932929122629764 78.4253
13.955394156785959 78.1905
13.977877254034569 76.9754
14.000343367582113 76.4506
14.022827546871707 75.8678
14.045294743423524 75.1637
14.06778000837062 74.4327
14.090265817715476 74.2694
14.112734645763819 73.6607
14.13522154619454 73.1233
14.157691466286913 73.281
14.180179461423874 73.2996
14.202668005486178 72.4869
14.22513957064374 72.1195
14.247629214846473 71.6341
14.270101881097517 71.5157
14.29259262906496 71.21
14.315083930490205 71.7334
14.337558255389705 71.5772
14.360050666019726 71.3261
14.382526101071944 70.9035
14.405019624534942 70.4364
14.427513705993134 70.1596
14.449990813291825 70.1215
14.47248601302899 69.7543
14.49496423954951 70.0025
14.517460561197822 70.2504
14.539939910570322 69.9968
14.562437357763558 70.3214
14.58493536931253 70.8503
14.607416409993311 71.2975
14.62991555254159 72.0429
14.652397725157423 71.7508
14.674898002342799 71.6931
14.697398848433282 71.9471
14.719882725991326 73.7537
14.74238471217934 76.3489
14.764869730765593 80.5977
14.787372860692983 83.9393
14.809876564079925 88.9345
14.83236330125751 95.4534
14.854868153850365 104.93
14.877356041159485 118.833
14.899862046604186 136.842
14.922351087688757 158.069
14.944858249632887 182.44299999999998
14.967365991421232 203.233
14.989856770231246 218.146
15.012365673994204 214.71400000000003
15.03485761569738 186.358
15.05736768508665 147.343
15.07987833888692 114.0
15.102372032001655 90.4268
15.124883856909658 77.7754
15.14737872204565 73.2727
15.169891721717274 71.6113
15.192405310371893 71.35300000000001
15.214901940621196 70.97800000000001
15.237416709527137 70.8671
15.259914520936249 70.9682
15.282430473753607 70.1225
15.304947020131227 69.2814
15.327446610371178 68.7096
15.349964346154254 68.3269
15.372465126703139 67.8479
15.394984055556009 67.8344
15.417486030076159 67.6694
15.44000615566487 67.2875
15.462526881230803 67.0257
15.485030653812652 67.1106
15.507552581617434 67.3381
15.530057557334603 66.949
15.55258069104857 67.3339
15.575104429329837 67.4556
15.597611216864632 67.2191
15.620136166564563 68.2668
15.6426441664095 70.6083
15.665170331202765 73.8077
15.687697105158826 76.8653
15.710206930593545 80.5418
15.732734925158933 85.1755
15.755245972089478 92.0356
15.77777519094324 101.55799999999999
15.800287463046663 114.38
15.822817909869592 131.637
15.84534897229804 149.726
15.867863089299354 169.627
15.890395385222186 184.08
15.912910736597423 190.618
15.935444269699861 179.518
15.957978423016485 153.797
15.980495633101265 120.87899999999999
16.003031029129367 95.1214
16.02554948280019 76.5721
16.048086125229432 68.0439
16.070623392487107 65.3063
16.09314371869582 64.3402
16.11568223789321 63.4816
16.13820381691126 62.5272
16.160743591742527 61.906000000000006
16.183283996022084 61.4611
16.205807461423195 60.443999999999996
16.228349126881973 59.8004
16.25087385432698 59.8534
16.27341678466365 59.2618
16.29594277784926 59.0597
16.31848697676433 58.8469
16.341031811604868 58.8448
16.36355971058487 58.885
16.3861058195587 58.5083
16.40863499352978 57.9225
16.431182380342005 57.4363
16.453730407713202 56.9059
16.476261501364792 56.6474
16.498810812136167 56.4972
16.52134319004079 56.4959
16.54389378792203 56.0638
16.566445031001553 56.1297
16.588979342490088 55.9133
16.61153187824822 55.9468
16.634067483263312 55.7102
16.656621315414416 55.7446
16.679175797408888 55.3303
16.701713349928728 55.4191
16.72426913389191 55.8188
16.74680798922351 55.8604
16.76936507887444 55.68899999999999
16.791905240734874 55.8698
16.814463639794468 55.5122
16.837022695210294 55.521
16.859564824093756 55.8378
16.882125194503903 56.2166
16.904668639217885 56.5135
16.927230328348003 56.5957
16.949792678493612 56.7865
16.972338104193863 56.5604
16.994901778652235 56.4478
17.017448529496576 56.7763
17.040013531998152 57.2035
17.06257920018044 57.9289
17.0851279459922 58.6701
17.107694947817667 59.6646
17.130245028099072 60.3145
17.15281336730298 61.9805
17.17536478578733 63.5939
17.19793446610687 66.0146
17.220504818648422 68.8757
17.243058251703697 71.598
17.265629950971032 75.2225
17.288184731571736 78.5288
17.310757781306908 82.3615
17.33333150794385 83.4151
17.355888317140174 81.7314
17.37846339986244 77.436
17.401021565958885 71.4508
17.42359800851343 66.0279
17.44617513265564 62.9403
17.468735341390783 61.1884
17.491261035594565 60.0589
17.51396340099364 60.0435
17.536490463869136 60.3093
17.559018209820174 60.2408
17.58154663977963 60.2185
17.604251766089718 60.3464
17.626781572227713 60.6735
17.64931206518155 61.0514
17.671843245885103 61.3399
17.69455114821572 61.4502
17.717083712612634 61.7594
17.739616967569667 62.1627
17.762150914021706 62.6034
17.78486160749854 62.9284
17.807396945166804 63.9021
17.829932977143503 65.5824
17.85246970436452 67.4607
17.875183204129467 69.3072
17.897721330097664 71.4766
17.920260154126645 74.1122
17.942799677153296 77.4532
17.9655159983646 81.5734
17.988056927677544 87.0411
18.010598558807683 94.5209
18.033140892692916 103.44200000000001
18.05586005052525 112.412
18.07840379824407 122.044
18.10094825154059 133.024
18.12366954819864 139.921
18.146215420998306 139.872
18.16876200220057 132.88
18.191309292745153 119.363
18.214033452627167 105.395
18.236582170236648 93.90700000000001
18.259131600016456 88.7852
18.281681742907335 88.6319
18.304408781233683 92.2192
18.32696035875955 96.03299999999999
18.349512652227624 100.45
18.372065662579683 105.225
18.394795594587553 106.38600000000001
18.41735004715306 103.245
18.43990521943684 96.8316
18.46246111238171 87.2332
18.485193953325208 77.9762
18.507751296070428 70.6632
18.530309362314178 66.5277
18.552868153000343 64.2973
18.57560391815056 63.1792
18.59816416623245 62.6639
18.620725141597372 62.2384
18.643286845190268 61.8288
18.666025549835414 61.3185
18.688588718427933 60.6544
18.711152618092243 60.5402
18.73389353884365 60.2018
18.75645890921984 59.8877
18.77902501351406 59.5707
18.801591852673102 59.7653
18.824335739722738 59.1929
18.846904057212626 59.0458
18.8694731124168 58.8006
18.89204290628315 58.9601
18.914789774966803 58.5694
18.937361054791623 58.066
18.959933076131318 57.7872
18.982505839934877 57.8995
19.00525570560582 57.92100000000001
19.027829963004184 57.7544
19.05040496572238 57.898999999999994
19.072980714710468 58.1181
19.095733592739563 58.4647
19.11831084296757 58.7056
19.140888842324735 59.0215
19.16346759176222 59.2495
19.18622349753803 59.7119
19.208803755869358 60.7479
19.231384767143577 62.0877
19.253966532312948 63.7807
19.276725481241822 65.7381
19.29930876296784 67.9111
19.3218928014549 70.5518
19.34465404436217 72.9393
19.36723960516257 75.5571
19.389825925592426 76.4306
19.412413006605938 75.585
19.43517731967805 72.4591
19.457765930683355 68.2516
19.48035530514408 63.8647
19.50294544401556 59.8435
19.525712842708348 57.32899999999999
19.54830451925909 55.8898
19.570896963095727 55.0907
19.593490175174704 54.6665
19.616260674962184 54.9437
19.638855432416964 54.57
19.661450960992624 54.5877
19.68404726164677 54.3548
19.706820878021247 54.152
19.729418731756834 54.5207
19.752017360452857 54.3617
19.77461676506804 54.6776
19.797393513540218 54.9382
19.819994478951667 55.0943
19.84259622316767 55.5981
19.8651987471481 55.9575
19.887978643247177 56.098
19.91058273574792 56.7713
19.933187610901943 57.7679
19.955969879466828 58.8916
19.97857632894404 60.2831
20.00118356396599 61.858999999999995
20.023791585494575 63.6659
20.046577028914875 66.0017
20.069186632506966 67.9224
20.091797025500632 69.8145
20.114408208858933 70.3887
20.137196842715273 70.7171
20.159809615886765 69.2229
20.18242318232135 66.7975
20.20503754298326 64.7206
20.227829382875154 63.363
20.250445341109344 63.1882
20.27306209647285 63.5113
20.29567964993108 64.2637
20.31847471147704 65.3385
20.34109387027612 66.1803
20.363713830075454 65.9377
20.386334591841646 64.5996
20.409132890679302 61.9196
20.431755265564437 58.6394
20.454378445325528 56.0318
20.477002430930366 54.0374
20.499803982716553 52.618
20.522429589228004 51.9276
20.54505600449589 51.7535
20.567683229489194 51.5217
20.590488049900088 51.2628
20.61311690359731 50.9872
20.63574656993626 50.8019
20.658553853717297 50.5566
20.681185154618298 50.4038
20.703817271080066 50.2919
20.72645020407368 49.9467
20.749260783967177 49.8042
20.771895359337133 49.6531
20.794530754161617 49.9105
20.817166969412938 49.7414
20.83998086114876 49.6055
20.86261872660049 49.5061
20.885257415405402 49.56399999999999
20.90789692853701 49.4952
20.930714147864748 49.4646
20.953355319030678 49.6549
20.97599731745334 49.6418
20.99864014410749 49.4346
21.021460706796564 49.6453
21.044105199328826 49.6592
21.06675052302631 49.9145
21.089396678865015 50.1601
21.112220600704806 50.458
21.134868430275347 50.8439
21.15751709492456 50.9557
21.180166595629693 51.0944
21.202993892429635 51.5581
21.22564507473034 51.7465
21.24829709602816 51.9453
21.27112693608965 52.091
21.293780644891275 52.218999999999994
21.316435195634053 51.4923
21.339090589297417 50.8917
21.361923832041875 50.3537
21.384580921090404 49.6786
21.407238856007325 49.2332
21.429897637773326 49.2279
21.45273429906592 49.4267
21.475394784108598 49.247
21.498056118951983 49.1318
21.520718304578022 49.4207
21.543558400304388 49.6434
21.566222297108816 49.9243
21.58888704765135 50.1466
21.61155265291521 50.3629
21.63439619898156 51.0925
21.657063523335786 51.22
21.67973170537063 51.506
21.7024007460706 52.1703
21.72524775840385 52.9972
21.747918526116475 54.1359
21.770590155457388 55.538000000000004
21.79326264741238 56.7973
21.816113141960237 58.3725
21.838787368860547 59.9304
21.861462461341976 61.6597
21.884315579735777 63.2945
21.90699241312273 64.4886
21.92967011506078 65.3327
21.95234868653799 65.2941
21.9752053151131 64.0484
21.997885635446785 62.0444
22.020566828293532 60.0955
22.04324889464272 58.1305
22.066109049404666 56.8489
22.088792872571794 56.5456
22.111477572219204 56.5483
22.1341631493376 56.6525
22.157026846313123 56.5036
22.179714188221507 55.7824
22.202402410582668 54.9639
22.22509151438863 53.6803
22.24795876962584 52.0993
22.270649646204486 51.1571
22.293341407213727 50.571999999999996
22.316034053646906 50.0297
22.338904883215342 49.7539
22.36159931041458 49.7106
22.38429462602756 49.6827
22.40699083104897 49.4076
22.429865251039757 49.4811
22.452563244831367 49.5636
22.47526213102522 49.2743
22.49813925616515 49.391000000000005
22.520839937143307 49.3884
22.543541513520587 49.5223
22.56624398629403 49.465
22.589124730075895 49.2894
22.611829005656723 49.622
22.63453418063466 49.6468
22.657240256008077 49.8626
22.680124634582935 49.9243
22.70283252079775 50.2397
22.725541310413075 50.5696
22.74825100442868 50.8955
22.771139033969575 51.4021
22.79385054687155 51.7173
22.81656296718292 52.2359
22.83927629590484 53.0563
22.862167992606945 53.8743
22.88488314827121 54.801
22.907599215359284 55.8862
22.93031619487366 56.7481
22.953211574954405 57.6268
22.975930389478226 58.3542
22.998650119445763 58.6145
23.02137076586092 57.9127
23.044269845560063 56.6233
23.06699233506288 54.93600000000001
23.089715744034912 53.1592
23.112617610931565 51.7604
23.135342869061212 50.5763
23.158069049684816 49.8964
23.1807961538087 49.6187
23.20370174880544 49.5784
23.226430710184808 49.8519
23.249160598093425 49.8364
23.271891413539002 49.8743
23.294800752937697 49.8208
23.31753343374794 49.9113
23.340267045128353 50.0705
23.36300158808808 50.5255
23.38591468821339 51.0751
23.408651104658304 51.3326
23.431388455719986 51.9752
23.454126742409 52.7951
23.4770436196085 53.753
23.499783787914662 54.6754
23.522524894889884 55.3808
23.54526694154616 56.2996
23.56818761219047 57.4903
23.59093154860734 57.8646
23.613676427751283 58.2248
23.636422250635754 57.5484
23.659346731118656 56.0978
23.68209445191868 54.31
23.704843119509587 52.1484
23.72759273490623 50.1641
23.750521041644767 48.7689
23.77327256312355 47.9169
23.796025035462787 47.2491
23.818956224555475 46.6876
23.841710609113413 46.7133
23.86446594758979 46.5162
23.887222241002014 46.1991
23.910157285144578 45.8264
23.932915498962537 45.9765
23.955674670778713 45.8273
23.978434801611975 45.6535
24.001373717286125 45.4227
24.024135776723917 45.2726
24.046898798245582 45.2192
24.06966278287146 45.1873
24.092605586582614 44.8957
24.115371508023642 44.9648
24.1381383956401 44.6556
24.16090625045381 44.7187
24.183852958731244 44.6176
24.206622758582608 44.516999999999996
24.229393528706886 44.2231
24.252165270127392 44.387
24.27511589952438 44.2574
24.297889594216997 44.0826
24.32066426328598 43.9583
24.34343990775613 43.9877
24.36639447485003 43.9083
24.38917208083877 43.8555
24.41195066531332 43.7607
24.43490819850244 43.9569
24.457688750692377 43.7271
24.48047028445616 43.5009
24.503252800821233 43.7719
24.526214300784112 43.7975
24.548998793132213 43.693000000000005
24.57178427117417 43.5713
24.59457073593893 43.6181
24.617536219319863 43.6803
24.64032466834748 43.4827
24.663114107195035 43.4376
24.685904536893013 43.1502
24.708874020360852 43.0131
24.731666442613744 43.1704
24.754459858818787 43.1026
24.777254270007962 43.0088
24.80022777025625 42.8911
24.82302418230472 42.818000000000005
24.845821592443674 42.9198
24.86862000170663 42.9033
24.891597535453727 42.7366
24.914397953892728 42.9536
24.93719937456671 42.9233
24.96000179851076 43.2813
24.98298338249997 43.4462
25.00578782394922 43.6104
25.028593271784167 43.7047
25.05157790644186 44.0473
25.07438537804115 43.9617
25.097193859145293 44.347
25.120003350792075 44.4506
25.142992065061257 44.775
25.165803588823465 45.0943
25.18861612625217 45.3069
25.211429678386736 45.309
25.234422489079968 45.6157
25.257238081693636 45.4357
25.280054692141732 45.4359
25.3028723214652 45.3777
25.325869245420463 45.5038
25.348688923599397 45.582
25.371509623787006 45.4522
25.394331347025812 45.3278
25.41733240110666 44.9662
25.440156181590016 44.0245
25.46298098826268 43.3585
25.48580682216873 43.0274
25.50881202326435 42.5219
25.53163992281684 42.0708
25.55446885274561 41.9169
25.577298814096377 41.5889
25.600308179121807 41.4281
25.623140214533745 41.5338
25.64597328451537 41.3022
25.66898578564376 41.2104
25.691820936010206 41.2858
25.714657124097695 41.263000000000005
25.737494350954734 41.2657
25.760511045684957 41.1169
25.783350361364224 41.1626
25.806190718969255 41.0818
25.82903211955018 41.17100000000001
25.852053024868923 41.2522
25.874896522722523 41.2523
25.897741066713106 41.2164
25.920586657892454 41.351000000000006
25.943611790812668 41.5367
25.966459487728237 41.6839
25.989308234998564 41.695
26.01215803367705 41.997
26.03518741123814 42.1539
26.05803932412957 42.1704
26.080892291600094 42.1122
26.10374631470478 42.1834
26.12677995397268 42.2896
26.14963609978026 42.2276
26.172493304397875 41.8804
26.19535156888223 41.7912
26.218389486949604 41.4936
26.241249882640123 41.3248
26.26411134137826 40.8771
26.28715248187403 40.9175
26.31001607820869 40.696999999999996
26.3328807407756 40.6267
26.35574647063438 40.8149
26.37879191991473 40.7844
26.401659795896734 40.8595
26.424528742360263 41.0161
26.447398760366614 41.266000000000005
26.470448535598294 41.2327
26.49332070826805 41.4782
26.516193955675355 41.7203
26.53906827888316 41.8147
26.562122397260108 42.068999999999996
26.584998883685063 42.3125
26.607876449110325 42.5067
26.63075509460056 42.7874
26.65381357334404 42.7659
26.67669439061878 42.7868
26.699576291163382 42.7656
26.722459276044212 42.4809
26.745522132402975 42.2419
26.768407297649354 41.9349
26.791293550442003 41.7255
26.814180891848974 41.3675
26.837248143099337 41.1148
26.860137673466657 40.9324
26.88302829566349 40.7381
26.90592001075963 40.5523
26.92899167420566 40.4651
26.951885586870763 40.0688
26.974780595655517 39.9009
26.99785558178161 39.773
27.020752794605112 39.6128
27.043651106772522 39.5478
27.06655051935668 39.4739
27.089629948036183 39.3681
27.112531573292053 39.4673
27.135434302194138 39.3912
27.158338135817015 39.2642
27.181422024430987 39.2683
27.204328079372566 39.1405
27.22723524226965 39.0978
27.250143514198573 39.1927
27.273231880156334 39.2491
27.296142382065014 39.018
27.319053996245536 38.9995
27.341966723775965 39.1101
27.365059584515222 39.1099
27.38797455070062 39.0951
27.410890633481237 39.0314
27.433807833936918 39.027
27.456905206923906 39.2465
27.47982465472398 39.1402
27.502745223449743 39.0973
27.525666914182825 39.213
27.548768816912457 39.1812
27.571692763693633 39.0786
27.59461783573812 38.98
27.617723149491244 38.7969
27.640650484125285 38.8188
27.66357894728264 38.8143
27.686508540048052 38.7448
27.709618414237887 38.6192
27.732550278321757 38.4517
27.755483275279115 38.4569
27.778417406196485 38.5433
27.801531858397514 38.6051
27.824468269376716 38.5313
27.847405817586786 38.5269
27.870344504116094 38.6373
27.893463551932008 38.7535
27.916404527281053 39.0183
27.93934664422563 39.0422
27.962289903855886 38.882
27.98541356491974 39.1911
28.00835912214229 39.3527
28.03130582533231 39.5213
28.054253675581805 39.6755
28.077381967556104 39.4322
28.100332124185126 39.6241
28.123283431160893 39.4688
28.146235889577238 39.3201
28.169368830154156 39.2097
28.192323603752033 39.1072
28.215279532083304 38.8401
28.238415973016764 38.5606
28.261374223145094 38.5499
28.284333631303806 38.2348
28.307294198589954 37.9583
28.330435319167677 37.6864
28.353398217078915 37.461
28.376362277420153 37.106
28.39932750129032 37.0214
28.422473319286713 36.9571
28.44544088262495 36.8646
28.468409612800283 36.869
28.491379510913497 36.6242
28.51453004413313 36.5542
28.53750229057244 36.5378
28.56047570826344 36.3579
28.583450298308804 36.3985
28.606605564586562 36.2823
28.629582511831156 36.2616
28.65256063474956 36.21
28.675539934446338 36.2011
28.698699951647605 36.1483
28.72168161743193 36.0254
28.74466446331978 36.1099
28.767648490417624 36.0515
28.790813276438353 36.0459
28.813799678527303 35.9512
28.836787265157085 35.9224
28.859955641890075 35.9216
28.882945610203045 35.9569
28.905936766392035 35.7776
28.928929111566863 35.7638
28.952102288520145 35.7561
28.975097024308607 35.7263
28.998092952423807 35.5951
29.021090073977508 35.4406
29.04426806913204 35.1911
29.067267590245258 35.167
29.090268308143695 35.2043
29.11327022394099 35.052
29.13645305530891 34.9466
29.159457379627167 34.9721
29.18246290519685 34.9095
29.20546963313352 34.8836
29.22865731875826 34.9595
29.25166646419296 34.9493
29.27467681535305 34.6986
29.29768837335608 34.8359
29.320880931312562 34.7273
29.34389491580634 34.6519
29.366910110507334 34.8034
29.38992651653503 34.8114
29.41312396492981 34.7954
29.436142806456754 34.7146
29.45916286268059 34.5368
29.48236399319994 34.4508
29.50538649169417 34.3007
29.528410208259935 34.1271
29.55143514402014 34.0237
29.574641196749695 33.836
29.597668583816574 33.7922
29.6206971934585 33.7408
29.64372702680042 33.7533
29.666938019934474 33.4446
29.689970313635285 33.4627
29.713003834422636 33.5878
29.73603858342347 33.3652
29.759254535188578 33.2796
29.78229175361658 33.4013
29.80533020365064 33.3679
29.82836988641968 33.3408
29.85159081507472 33.2669
29.874632976355343 33.1834
29.89767637376955 33.2448
29.920721008448314 33.126999999999995
29.9439469322847 33.1168
29.96699405457564 33.071
29.9900424175358 33.0644
30.013092022298157 33.0248
30.03632295963995 33.0133
30.059375061131373 32.98
30.08242840783577 33.1003
30.105483000888153 33.039
30.128718970092244 32.8766
30.151776069006917 32.8242
30.17483441768648 32.847
30.198074175317235 32.8398
30.221135036724256 32.9237
30.24419715131772 32.9391
30.267260520236203 32.8295
30.290505341942243 32.7668
30.313571232750228 32.8146
30.336638381310948 32.832
30.35970678876503 32.8459
30.38295669299435 32.6654
30.40602763151657 32.6004
30.429099832366074 32.6454
30.452173296685572 32.5938
30.47542830191959 32.5196
30.498504306502497 32.5665
30.521581577995562 32.6945
30.544660117543582 32.5783
30.56792024229725 32.6456
30.59100133132069 32.7356
30.614083691845494 32.6916
30.637167325018545 32.6788
30.660432587840603 32.7435
30.683518779717886 32.7171
30.70660624769615 32.7816
30.729694992924372 32.6662
30.75296541239743 32.7543
30.77605672557558 32.5948
30.799149319462742 32.6013
30.8224236211637 32.4553
30.845518789950724 32.328
30.868615242910597 32.3171
30.891712981195973 32.1755
30.91499247215866 32.1156
30.938092794619365 32.0995
30.96119440587579 32.0105
30.984297307082752 31.8672
31.00758200598383 31.9029
31.030687500658694 31.7169
31.053794288760695 31.5997
31.076902371446767 31.5844
31.100192296997445 31.5883
31.12330298246119 31.4971
31.14641496599209 31.4756
31.169528248749216 31.4787
31.19282341969534 31.386
31.215939314557186 31.3832
31.239056512134788 31.4254
31.262175013589378 31.4123
31.28547544871168 31.3614
31.30859657161541 31.2831
31.331719001892175 31.3145
31.35484274070538 31.3697
31.378148458819545 31.3414
31.401274828443725 31.246
31.424402510106933 31.3184
31.447712205419993 31.48
31.470842524931633 31.2701
31.493974159989783 31.2151
31.51710711176168 31.234
31.54042212308802 31.1592
31.563557722100917 31.2474
31.586694641341655 31.1253
31.609832881979628 31.0188
31.63315322823208 30.8838
31.656294125521327 30.801
31.679436347728515 30.7759
31.70257989602529 30.7311
31.725905596152327 30.6214
31.74905181052835 30.5878
31.772199354521323 30.6723
31.79534822930507 30.5867
31.818679302290967 30.5249
31.84183085259981 30.6137
31.864983737233473 30.5359
31.88813795736804 30.5894
31.911474422233013 30.4882
31.934631327356435 30.5512
31.9577895715215 30.4722
31.980949155906522 30.5982
32.004291031706956 30.4419
32.027453310562606 30.3987
32.05061693318573 30.1376
32.07396288236386 30.263
32.09712920658542 30.1697
32.12029687812702 29.9931
32.14346589817093 29.9612
32.166817291729984 29.9668
32.18998902288583 30.0206
32.21316210610336 29.7805
32.23633654256711 29.834
32.259693399663725 29.7502
32.282870556771144 29.6538
32.30604907069099 29.749000000000002
32.329228942610065 29.5131
32.35259128243769 29.4326
32.375773884550505 29.4717
32.398957848235646 29.3789
32.422143174682176 29.3671
32.445511016471215 29.2682
32.468699082679954 29.213
32.49188851523011 29.0454
32.51507931531304 29.0175
32.538452678331 29.0742
32.56164622776311 29.0828
32.58484114831493 28.9224
32.60803744118015 28.9453
32.631416344731896 28.8235
32.654615396551876 28.9038
32.67781582427913 28.9426
32.701198898634416 28.8875
32.72440209253756 28.7425
32.747606665947124 28.642
32.77081262006088 28.5654
32.79420126883317 28.5404
32.81740999876112 28.5851
32.840620112999424 28.5048
32.86383161274818 28.4011
32.88722585534586 28.5372
32.91044014056596 28.5084
32.933655814909734 28.3893
32.95687287957963 28.5084
32.98027273544904 28.3003
33.00349259526636 28.3006
33.026713849030116 28.395
33.04993649794511 28.2592
33.073341986570746 28.2491
33.09656744032826 28.2355
33.11979429286444 28.2395
33.14302254538647 28.2132
33.166433686291185 28.119
33.18966475336992 28.1087
33.212897224069096 28.0569
33.23613109959831 27.9828
33.259547912343415 27.9932
33.2827846121627 27.9868
33.306022720453775 27.88
33.32926223842861 27.7838
33.352684742614166 27.8375
33.37592709463173 27.8861
33.399170859982064 27.7702
33.422597648419426 27.6476
33.44584425514446 27.5025
33.46909227885668 27.5088
33.4923417207723 27.4034
33.51577423505344 27.3612
33.539026528130385 27.4246
33.56228024307245 27.3379
33.585535381098246 27.2251
33.60897364093058 27.1509
33.63223163992385 27.1064
33.6554910656699 27.1168
33.678751919389796 27.1414
33.702195944520106 27.0721
33.72545966903325 27.0531
33.74872482519663 26.921
33.771991414233746 26.9248
33.79544122444841 26.885
33.81871069412428 26.8189
33.84198160035767 26.7717
33.86525394437455 26.7715
33.88870955949969 26.7427
33.911984794020626 26.6867
33.93526147001624 26.7027
33.958539588715006 26.6095
33.98200102861669 26.5109
34.0052820477047 26.4759
34.02856451319451 26.496
34.05203033759056 26.3662
34.07531571090147 26.4159
34.09860253431845 26.3572
34.121890809074316 26.2986
34.145362493118924 26.3605
34.16865368561615 26.2092
34.191946333164054 26.2021
34.21524043699793 26.0955
34.23871800066799 26.1324
34.26201503218366 26.055
34.28531352370466 26.0216
34.30861347646881 25.8815
34.33209693978188 25.8965
34.3553998301885 25.9808
34.378704185565205 25.8279
34.402010007152356 25.7833
34.42549939016683 25.7378
34.44880815937748 25.6486
34.472118398533134 25.6137
34.49543010887669 25.5476
34.51892543169198 25.4644
34.54224009966052 25.4727
34.56555624255917 25.4545
34.58887386163339 25.4096
34.61237514439016 25.3818
34.6356957311114 25.3354
34.65901779775809 25.3819
34.68252356662995 25.344
34.705848608458616 25.2968
34.72917513396849 25.1271
34.75250314440949 25.1435
34.77601490857862 25.0955
34.799345904259795 25.0557
34.82267838863559 25.0631
34.846012362958525 25.1172
34.869530142679984 24.9446
34.89286711232212 24.9166
34.91620557568269 24.9814
34.93954553401677 24.9388
34.9630693495876 24.909000000000002
34.986412313340814 24.8806
35.00975677584668 24.8764
35.033102738362956 24.805999999999997
35.05663261012228 24.7338
35.0799815881786 24.6965
35.10333207003229 24.673000000000002
35.12668405694369 24.6836
35.150220005273056 24.5755
35.17357501786656 24.5652
35.19693153931268 24.5357
35.220289570874385 24.5003
35.24383161619786 24.5311
35.267192683604904 24.5841
35.290555264930376 24.4005
35.314101899412165 24.4693
35.33746752422433 24.4489
35.36083466676374 24.4201
35.38420332829803 24.3518
35.407756095629054 24.2859
35.43112781085063 24.3342
35.45450104888391 24.2935
35.477875810999194 24.3177
35.50143473172161 24.1965
35.52481255774625 24.2977
35.54819191167777 24.1426
35.57157279478914 24.0322
35.595137889488406 24.0211
35.61852184675279 24.1081
35.641907337029984 23.9301
35.665294361595684 23.9682
35.68886565090076 23.951
35.7122557598848 23.8302
35.73564740699838 23.8661
35.759040593519934 23.8171
35.78261809810353 23.7933
35.80601437933051 23.6406
35.829412203814705 23.6014
35.85281157283719 23.5643
35.876395313415884 23.6219
35.8997977874528 23.5581
35.92320180988546 23.5183
35.946790244133936 23.4236
35.97019737933222 23.5025
35.993606066789866 23.4593
36.01701630779276 23.3116
36.04061101440684 23.2991
36.06402437852291 23.3231
36.08743930005611 23.3431
36.1108557802951 23.2211
36.13445678011326 23.1738
36.15787639383515 23.215
36.18129757014299 23.2053
36.20472031032821 23.0766
36.22832762423364 23.0521
36.25175350829375 23.0802
36.275180960119776 22.9821
36.298609981005924 23.0329
36.32222362992669 23.0138
36.34565580510207 22.9973
36.36908955323448 22.8717
36.39252487562093 22.7555
36.416144880530226 22.766
36.43958336764275 22.739
36.463023432914625 22.8466
36.486465077645676 22.6826
36.51009145956204 22.8357
36.53353627947859 22.6949
36.55698268276811 22.7183
36.58043067073321 22.5951
36.60406345072071 22.4734
36.62751462435344 22.4874
36.65096738658405 22.4864
36.67460498210655 22.329
36.69806093788647 22.4167
36.72151848619297 22.3615
36.744977628333636 22.3516
36.76862165890998 22.2277
36.79208400512205 22.2981
36.81554794910557 22.2795
36.83901349217101 22.2242
36.862663978991606 22.1071
36.88613273667352 22.1062
36.90960309738324 22.1014
36.933075062434064 22.0657
36.95673202673572 22.0462
36.98020721697122 22.029
37.003684015502365 21.9033
37.027162423645365 21.8482
37.050825886711465 21.8634
37.07430753063053 21.8387
37.09779078812467 21.7609
37.121275660513014 21.7761
37.144945643673694 21.7042
37.16843376245278 21.6871
37.19192350009803 21.6693
37.215414857931435 21.6337
37.239091382563885 21.6066
37.262585997426164 21.6117
37.28608223645736 21.5378
37.309763684451696 21.48
37.33326318851098 21.4937
37.356764320726555 21.430999999999997
37.380267082425526 21.465
37.40395510942588 21.4623
37.42746114683234 21.3269
37.45096881771841 21.2726
37.474478123414166 21.2837
37.49817275092816 21.278000000000002
37.52168534303452 21.255
37.54519957395567 21.114
37.568715445024665 21.1789
37.592416694607714 21.11
37.61593586281424 21.1055
37.63945667518264 21.0949
37.66297913304891 21.0482
37.68668702630454 20.9902
37.710212792059274 20.9619
37.733740207334854 20.9603
37.757269273470364 20.8844
37.780983832050374 20.8169
37.80451621684926 20.877
37.82805025654007 20.8025
37.851585952464795 20.7744
37.8753071980695 20.706999999999997
37.89884622345676 20.6334
37.92238690911902 20.5696
37.94611318753442 20.5564
37.969657210779765 20.4853
37.99320289834801 20.5556
38.016750251586465 20.5489
38.04048325513017 20.4071
38.06403395679343 20.4249
38.087586328183946 20.4892
38.11114037065203 20.384
38.13488012115898 20.4182
38.1584375229181 20.3164
38.181996599821 20.2309
38.205557353221124 20.2548
38.229303872575656 20.2412
38.2528679961576 20.2273
38.27643380031219 20.1716
38.30000128639589 20.1239
38.32375459653193 20.1088
38.34732546371299 20.1478
38.37089801690786 19.9963
38.39447225747609 19.9579
38.418232380377425 19.9853
38.441810012983396 19.9152
38.46538933705673 19.8851
38.488970353960084 19.8571
38.51273731166058 19.8441
38.536321731567014 19.7804
38.55990784840681 19.727
38.58367995004091 19.6442
38.60726947812959 19.5906
38.63086070726198 19.6541
38.654453638806274 19.7111
38.678232613930824 19.5842
38.70182896773327 19.5695
38.72542702806741 19.5384
38.7490267963045 19.5581
38.77281266709232 19.4411
38.79641586862214 19.4339
38.8200207821842 19.4157
38.843627409152944 19.4455
38.86742019782782 19.3371
38.891030269149255 19.2777
38.914642058016156 19.3323
38.938255565806124 19.2832
38.96205529464307 19.2406
38.98567225787121 19.2455
39.00929094417078 19.246
39.03291135492255 19.1747
39.05671804624804 19.1531
39.080341923549106 19.1447
39.103967529460334 19.1073
39.127594865365744 19.0245
39.15140854155791 18.9356
39.17503935514948 18.9391
39.19867190290282 18.9523
39.22249083587951 18.9216
39.24612686969409 18.9168
39.269764641845306 18.9025
39.293404153722804 18.8666
39.317230110864074 18.8327
39.34087311998506 18.7406
39.36451787301696 18.7258
39.388164371352595 18.6417
39.41199737518003 18.5873
39.43564738196752 18.6267
39.45929913825317 18.5957
39.48295264543308 18.567999999999998
39.506792718520884 18.5304
39.530449745387216 18.5094
39.55410852735203 18.5185
39.57776906581474 18.5348
39.60161623079 18.4202
39.625280300200025 18.4249
39.64894613032202 18.3737
39.67261372255866 18.3897
39.6964680021016 18.3219
39.72013913657293 18.3176
39.74381203738292 18.2633
39.76748670593756 18.2501
39.79134812278169 18.253
39.81502634488497 18.1986
39.83870633896685 18.1482
39.862388106436654 18.1264
39.88625668336918 18.0193
39.90994201572829 18.1272
39.933629125719285 18.0282
39.957503091207826 17.9838
39.9811937746168 18.0097
40.00488623990914 18.0285
40.02858048850006 17.945999999999998
40.05246165409549 17.8462
40.076159487492085 17.824
40.099859108448875 17.8285
40.123560518384345 17.7774
40.1474489070226 17.7749
40.171153913178564 17.7316
40.194860712584955 17.7189
40.2185693066637 17.7128
40.242464941335314 17.6479
40.26617714307655 17.6277
40.289891143772046 17.5654
40.3136069448471 17.6128
40.33750984859743 17.5984
40.3612292688043 17.5478
40.3849504936829 17.5002
40.40867352466194 17.4754
40.43258372059144 17.42
40.45631038219906 17.4535
40.48003885420956 17.3323
40.503769138055105 17.3668
40.52768664931955 17.3753
40.55142057531802 17.3601
40.57515631746428 17.3045
40.599079334038514 17.2685
40.62281872700477 17.1805
40.64655994043941 17.1677
40.67030297578061 17.1421
40.69423334835778 17.1412
40.71798004609188 17.1334
40.74172857006355 17.0708
40.76547892171441 17.0835
40.7894166736039 17.0699
40.813170699248566 16.9924
40.83692655691388 16.9424
40.86068424804498 16.9925
40.884629402612525 16.9215
40.908390779366385 16.855
40.932153993938 16.8636
40.95591904777605 16.8517
40.979871628443995 16.8026
41.003640379561936 16.7741
41.02741097430883 16.7728
41.05118341413683 16.7481
41.075143444384416 16.7291
41.098919593177826 16.730999999999998
41.1226975914255 16.6888
41.14647744058318 16.6103
41.170444943946755 16.5771
41.19422851378379 16.5725
41.218013938914645 16.4967
41.24198706625173 16.4886
41.26577622087193 16.4554
41.289567235177785 16.4311
41.31336011063129 16.4696
41.337340752422875 16.3931
41.361137369129835 16.4214
41.38493585138705 16.3213
41.40873620066004 16.3026
41.43272438060107 16.2976
41.45652848292052 16.2119
41.48033445666918 16.1839
41.50414230331616 16.1838
41.528138045159764 16.2299
41.551949656675205 16.1685
41.575763145513235 16.0935
41.59957851314666 16.0794
41.62358184070442 16.0388
41.64740098505737 16.0151
41.6712220126409 16.0171
41.69504492493139 15.9863
41.71905586207357 15.9493
41.74288256296395 15.9319
41.766711153007456 15.9074
41.79054163368412 15.8969
41.814560204340054 15.8718
41.838394485526365 15.8949
41.86223066180303 15.8413
41.88625497706819 15.7731
41.910094962812 15.7644
41.93393684811168 15.6889
41.95778063445365 15.599
41.981812625263366 15.5922
42.00566023303407 15.6408
42.029509746323676 15.6459
42.05336116662236 15.6186
42.077400857069705 15.5107
42.10125611078846 15.5298
42.12511327600405 15.5237
42.14897235421036 15.5118
42.173019768448455 15.5033
42.19688269209613 15.4067
42.22074753323349 15.3941
42.24461429335818 15.3763
42.268669455600495 15.3827
42.292540073217886 15.321
42.31641261433284 15.2716
42.34028708044675 15.2794
42.36435001496739 15.2632
42.38822835065557 15.2683
42.41210861586426 15.2072
42.4359908120986 15.1611
42.46006154323262 15.1392
42.48394762115317 15.1281
42.507835634632315 15.079
42.531912233047436 15.0831
42.55580413732265 15.014000000000001
42.579697981698 14.9719
42.60359376768525 14.9887
42.62767820545945 15.0399
42.65157789440821 14.9407
42.67547952952185 14.8944
42.699383112316 14.9336
42.72347541395347 14.8709
42.74738291190531 14.8429
42.771292362102166 14.8319
42.795203766063516 14.7884
42.819303956130405 14.7421
42.843219287476536 14.6889
42.86713657716324 14.7028
42.89105582671383 14.7045
42.91516392983864 14.699000000000002
42.939087119032166 14.7027
42.963012272677304 14.6392
42.98693939230129 14.6257
43.01105543317513 14.5843
43.034986504731386 14.5729
43.05891954686589 14.5213
43.08285456110972 14.5096
43.10697856448665 14.4382
43.130917542983475 14.3964
43.15485849820081 14.4495
43.17880143167367 14.4043
43.20293342237094 14.3769
43.226880332449 14.3541
43.25082922540554 14.3404
43.27496722682525 14.2945
43.29892010567796 14.2401
43.32287497204102 14.2413
43.34683182745632 14.2006
43.370977859791836 14.1855
43.39493871351105 14.1882
43.41890156092628 14.1723
43.44286640358341 14.1302
43.46702049182749 14.1555
43.49098934522816 14.0821
43.51496019852649 14.0383
43.5389330532723 14.0096
43.56309522248204 14.0096
43.58707210044314 13.9775
43.61105098451946 13.9023
43.63503187626491 13.9282
43.659202151562134 13.9522
43.68318707902681 13.9062
43.70717401884041 13.8462
43.731162972560874 13.8666
43.75534137913236 13.835
43.779334381108384 13.7911
43.803329401683186 13.7807
43.82732644241872 13.7735
43.8515130055166 13.7416
43.87551410707659 13.6722
43.89951723350145 13.6634
43.923709934595614 13.6731
43.94771713129917 13.62
43.97172635758096 13.6157
43.99573761501002 13.5805
44.0199385169922 13.5636
44.04395385732619 13.556
44.067971233533086 13.5236
44.09199064718605 13.4839
44.11619977548961 13.4434
44.14022328470671 13.4014
44.16424883610785 13.4652
44.18827643127035 13.3766
44.21249381139513 13.4102
44.236525514814076 13.312000000000001
44.26055926674478 13.3506
44.28459506876863 13.3088
44.3088207262813 13.2445
44.33286064928722 13.2786
44.35690262714919 13.2371
44.38094666145278 13.1673
44.4051806219871 13.1532
44.42922879003185 13.1648
44.45327901929361 13.1603
44.477331311362136 13.124
44.501573600619416 13.061
44.525630039221795 13.0264
44.54968854541895 13.0348
44.573937102200176 13.0105
44.5979997645541 13.0133
44.622064499300315 12.9884
44.64613130803592 12.9264
44.67038823869318 12.918
44.69445921643748 12.8888
44.718532272981385 12.8258
44.742607409926194 12.8503
44.76687274034801 12.7999
44.79095205918753 12.8192
44.81503346325094 12.7395
44.839116954143876 12.7903
44.86339071028742 12.7466
44.88747839599524 12.7271
44.91156817336837 12.6397
44.93566004401666 12.6651
44.959942251908146 12.6813
44.984038330325966 12.6247
45.00813650686762 12.6195
45.03223678314731 12.5676
45.05652746888232 12.552999999999999
45.08063196592069 12.5709
45.104738567558705 12.47
45.128847275414856 12.5207
45.15314646515866 12.4296
45.17725940679741 12.4188
45.20137445952892 12.4019
45.22568004865265 12.4275
45.24979934496396 12.4024
45.27392075725247 12.3734
45.29804428714431 12.3259
45.322358426247604 12.3188
45.346486212804315 12.2948
45.370616121861914 12.2819
45.39474815505086 12.258
45.41907087049246 12.196
45.4432071734666 12.2223
45.46734560548283 12.2161
45.49148616817604 12.2158
45.51581748638564 12.1611
45.5399623320197 12.1235
45.56410931325473 12.0989
45.58825843173002 12.0682
45.61259837920865 12.0175
45.636751793816 12.0734
45.66090735060093 11.9984
45.68506505120716 11.9767
45.7094136545275 11.975999999999999
45.73357566449271 11.9009
45.75773982322992 11.924000000000001
45.78190613238733 11.9099
45.806263418194064 11.8704
45.83043404997326 11.8402
45.85460683713677 11.8665
45.87897065658495 11.8266
45.90314777634752 11.7492
45.92732705646868 11.7664
45.9515084986045 11.7748
45.97588104735473 11.7372
46.00006683541565 11.7162
46.02425479047904 11.6945
46.04844491420549 11.6689
46.0728262191024 11.6662
46.09702070211635 11.684000000000001
46.12121735879483 11.6666
46.14541619080294 11.6046
46.169806278764455 11.6052
46.194009483459034 11.5731
46.21821486849841 11.5302
46.24242243555223 11.5409
46.266821333570014 11.503
46.29103328674601 11.4817
46.31524742696538 11.4619
46.33946375590237 11.42
46.36387149104216 11.3891
46.38809221957392 11.3786
46.41231514186606 11.3923
46.436540259597464 11.3442
46.460956858999374 11.3396
46.48518638983522 11.318
46.509418121166966 11.287
46.533652054678114 11.2653
46.55807754555709 11.2425
46.58231590571962 11.2391
46.60655647313217 11.222000000000001
46.630988654873654 11.1773
46.655233659129024 11.1703
46.67948087571551 11.1545
46.70373030632484 11.1066
46.72817142736393 11.1066
46.752425308428684 11.0854
46.77668140861147 11.0682
46.80093972960865 11.0011
46.82538981736788 11.001
46.849652602470904 11.0275
46.87391761349769 10.9859
46.8981848521493 10.9486
46.9226439341274 10.9201
46.946915650573224 10.88
46.97118959976749 10.8708
46.99546578341598 10.852
47.019933887188216 10.8751
47.04421456235744 10.8179
47.06849747711879 10.7874
47.09278263318286 10.7593
47.11725978640143 10.7714
47.14154944775105 10.7631
47.165841355555656 10.7615
47.1901355115306 10.7362
47.214621741924994 10.697000000000001
47.23892041698887 10.6642
47.26322134538975 10.6726
47.28771440635075 10.607999999999999
47.31201986422527 10.6131
47.33632758061436 10.5746
47.360637557241866 10.5656
47.38513974410611 10.5564
47.40945426407847 10.5356
47.43377104948137 10.5125
47.45809010204344 10.4837
47.48260144275502 10.4802
47.506925052572285 10.4709
47.53125093475548 10.4122
47.55557909103813 10.4249
47.58009961361992 10.4049
47.60443234110732 10.3857
47.62876734791564 10.3375
47.65310463578333 10.3423
47.6776343683373 10.3242
47.7019762413987 10.3003
47.72632040075572 10.264000000000001
47.75066684815169 10.287
47.77520581885936 10.2307
47.799556865477655 10.2093
47.823910205386 10.2246
47.84826584033272 10.1742
47.87281407745551 10.1573
47.89717432569297 10.1606
47.92153687423484 10.1508
47.94609208429692 10.1413
47.97045925671401 10.0859
47.99482873471275 10.0569
48.01920052005013 10.0403
48.04376504619224 10.0344
48.068141469543484 10.0498
48.09252020552573 10.0013
48.11690125590099 9.98258
48.1414751266064 9.97963
48.16586082917454 9.96377
48.19024885144316 9.93272
48.2146391951793 9.94985
48.239222439012764 9.92738
48.26361744916137 9.89927
48.28801478610016 9.88738
48.31241445160131 9.811160000000001
48.337007097209366 9.847010000000001
48.36141144338331 9.87565
48.38581812345755 9.77105
48.41022713920929 9.79229
48.434829215320704 9.75793
48.45924292604658 9.74126
48.48365897780325 9.74722
48.50807737237308 9.71446
48.532688907799276 9.69356
48.55711201168574 9.67211
48.581537463754074 9.6639
48.60615611725119 9.67065
48.63058628942721 9.669
48.65501881516546 9.565380000000001
48.6794536962573 9.561169999999999
48.70408185970339 9.56771
48.72852147531801 9.566130000000001
48.75296345168211 9.55824
48.77740779059232 9.4971
48.80204549302823 9.51201
48.82649458091802 9.497710000000001
48.85094603676547 9.480410000000001
48.87539986237231 9.45907
48.90004713292306 9.45382
48.92450572200832 9.42612
48.94896668628025 9.42919
48.97343002754588 9.41916
48.99808689542115 9.33966
49.02255501470614 9.34758
49.04702551642794 9.288789999999999
49.0714984023988 9.28566
49.096164896893235 9.3025
49.120642575466796 9.2748
49.145122643748394 9.26803
49.16960510355558 9.2188
49.19428125404938 9.19775
49.2187685210852 9.19205
49.243258185121555 9.16639
49.26794160167084 9.15818
49.2924360839405 9.12129
49.31693296869764 9.1252
49.34143225776915 9.145660000000001
49.36612538195438 9.093689999999999
49.39062950396021 9.05226
49.41513603578346 9.01792
49.4396449792564 9.0422
49.46434784069503 9.01527
49.488861631846454 8.98985
49.513377840166804 8.99948
49.537896467493745 8.960930000000001
49.56260909589029 8.939589999999999
49.587132585683285 8.93697
49.611658500018365 8.90829
49.636186840738596 8.881160000000001
49.66090926588511 8.85341
49.685442483902584 8.86735
49.70997813385706 8.81259
49.734516217597076 8.84153
49.75924846937352 8.81656
49.7837914452858 8.78128
49.80833686055187 8.77738
49.83288471702571 8.73434
49.85762682540054 8.7246
49.882179588965734 8.738430000000001
49.9067347993235 8.693480000000001
49.93129245833333 8.69919
49.95604445336378 8.691880000000001
49.98060703442832 8.65317
50.005172069746266 8.62417
50.02993150438364 8.64808
50.05450147301533 8.62272
50.07907390151433 8.60495
50.10364879174981 8.54004
50.12841816587289 8.54744
50.1529980044635 8.55222
50.17758031042124 8.51966
50.20216508562089 8.50785
50.22694442953363 8.46671
50.25153416817468 8.49896
50.27612638170508 8.47203
50.300721072005196 8.45101
50.325510416102105 8.4272
50.350110084975064 8.40354
50.37471223628208 8.44472
50.39931687190919 8.35935
50.424116246675766 8.32906
50.44872587605249 8.378789999999999
50.47333799543065 8.34825
50.49795260670191 8.33123
50.52276204271512 8.314039999999999
50.54738166295838 8.295010000000001
50.57200378079314 8.29141
50.596628398116835 8.230039999999999
50.62144792604559 8.278739999999999
50.646077567609396 8.21463
50.670709714377715 8.1923
50.69553683636198 8.185089999999999
50.72017401885922 8.19064
50.7448137122895 8.16233
50.76945591856022 8.1445
50.79429318636823 8.1168
50.818940443716784 8.13321
50.84359021965163 8.10843
50.868242516085964 8.092
50.893089960641895 8.08182
50.917747323549435 8.04584
50.94240721271973 8.0541
50.96706963007175 8.00655
50.99192728239342 7.9970300000000005
51.01659478166073 8.03088
51.04126481489051 7.97518
51.06593738400761 7.96168
51.090805275207074 7.92963
51.11548294172845 7.92468
51.14016314993547 7.934139999999999
51.164845901758845 7.87993
51.18972406304274 7.87405
51.21441192780656 7.86229
51.23910234200271 7.85352
51.2637953075678 7.8232800000000005
51.288683770237945 7.8112699999999995
51.31338186432707 7.79979
51.33808251561888 7.81871
51.362978729967345 7.787089999999999
51.387684521509755 7.75735
51.41239287610203 7.76558
51.437103795691165 7.70905
51.46201036644977 7.68577
51.486726441956634 7.697889999999999
51.51144508832545 7.7044
51.536166307509156 7.65233
51.56108326624387 7.6223
51.58580965706056 7.624630000000001
51.61053862657523 7.61295
51.635270176746864 7.56043
51.66019755512065 7.552239999999999
51.68493429268881 7.543419999999999
51.70967361681515 7.5746
51.73441552946465 7.51899
51.759353359237934 7.546639999999999
51.7841004750961 7.49635
51.80885018539685 7.5123
51.833602492111254 7.4842
51.8585508051424 7.44314
51.883308330926425 7.45063
51.90806845906181 7.364
51.932831191525715 7.370139999999999
51.95779001977161 7.39685
51.98255798721516 7.40245
52.00732856494335 7.390610000000001
52.03229530577543 7.32137
52.057071130455945 7.33392
52.081849571391054 7.31036
52.106630630568695 7.31146
52.13160794279417 7.273060000000001
52.15639426492067 7.266539999999999
52.18118321127822 7.2495899999999995
52.205974783860896 7.2662
52.23096269971011 7.21254
52.255759551287994 7.20569
52.280559035098186 7.21962
52.30536115314103 7.17235
52.33035970494467 7.18755
52.35516711807904 7.186310000000001
52.37997717147198 7.1535
52.40478986713005 7.1391
52.42979908731974 7.077139999999999
52.454617094216 7.08055
52.47943774942214 7.058439999999999
52.50426105495102 7.060060000000001
52.529280976059844 7.024780000000001
52.554109609024096 7.02993
52.57894089837482 6.99414
52.60377484613117 6.9817100000000005
52.62880550079408 6.975239999999999
52.65364479223379 6.96703
52.67848674816189 6.936
52.70352547971946 6.9406
52.72837279155837 6.93536
52.753222773982785 6.88777
52.778075429022984 6.903460000000001
52.80312495150885 6.88772
52.827982978797436 6.862769999999999
52.85284368481815 6.88048
52.87770707160767 6.84045
52.90276741793998 6.8316300000000005
52.92763619336701 6.80135
52.952507655698504 6.76467
52.977381806977576 6.818739999999999
53.00245301017842 6.807189999999999
53.02733256653592 6.7158
53.052214817996074 6.7508300000000006
53.077099766608484 6.71581
53.102181859804446 6.71638
53.127072229988265 6.72376
53.15196530349892 6.6967300000000005
53.17686108239249 6.65004
53.20195409881522 6.6238399999999995
53.22685531582556 6.62979
53.25175924441303 6.60094
53.27666588664027 6.62102
53.30176985962693 6.579039999999999
53.3266819565689 6.57722
53.35159677336455 6.59456
53.376514312083096 6.612989999999999
53.40162927507703 6.53648
53.42655228516116 6.506069999999999
53.45147802340193 6.5080800000000005
53.47660125628886 6.51253
53.50153247842639 6.50666
53.52646643496923 6.46672
53.55140312799818 6.46514
53.576537409691696 6.456840000000001
53.60147960336152 6.3941300000000005
53.626424539786164 6.4278699999999995
53.65137222105307 6.4235
53.67651758529126 6.4135599999999995
53.70147078399681 6.36412
53.72642673383343 6.35616
53.75138543689533 6.36661
53.776541917524526 6.375859999999999
53.801506154876755 6.3579300000000005
53.826473151763246 6.299259999999999
53.851442910284916 6.2627
53.87661054126026 6.24255
53.9015858509782 6.28636
53.92656392866066 6.27286
53.95154477641532 6.3011800000000004
53.976723591801296 6.25301
54.00171000771266 6.2352
54.02669920004598 6.216880000000001
54.051691170915745 6.18387
54.076881204886796 6.17281
54.101878760928514 6.16184
54.12687910187696 6.12749
54.152077577768296 6.13657
54.1770835166946 6.1153699999999995
54.20209224691339 6.09701
54.22710377055121 6.09782
54.25231352511594 6.1029599999999995
54.27733066384342 6.0445
54.30235060239643 6.0109900000000005
54.32737334290836 5.99632
54.35259441062629 5.97725
54.377622783395324 5.97295
54.40265396455061 5.98535
54.42768795623251 5.92963
54.45292037169559 5.88075
54.477960012857906 5.93847
54.50300247099511 5.89174
54.52804774825457 5.91429
54.55329154616743 5.87237
54.57834249018678 5.84087
54.6033962597977 5.8186
54.6284528571545 5.75627
54.653708072335164 5.78541
54.67877035378786 5.7544900000000005
54.70383546947698 5.7511
54.72890342156389 5.74769
54.7541700889442 5.72998
54.77924374251975 5.64124
54.8043202390049 5.64295
54.82959552413022 5.59355
54.8546777351945 5.60979
54.87976279569621 5.60762
54.90485070780914 5.55318
54.930137506558005 5.5370099999999995
54.95523115074295 5.57627
54.98032765308844 5.55626
55.005427015775496 5.51233
55.03072536339621 5.48155
55.05583047570572 5.47351
55.080938454927676 5.45212
55.10604930325027 5.45359
55.131359235107396 5.42414
55.15647585066083 5.39321
55.181595341907496 5.35669
55.20671771104285 5.34964
55.232039262617704 5.38537
55.25716741665048 5.26555
55.28229845518636 5.34663
55.30743238042802 5.2325099999999996
55.33276558731939 5.19205
55.357905315183636 5.21098
55.383047936390035 5.21951
55.40819345314859 5.128419999999999
55.433538351073295 5.129519999999999
55.458689688238415 5.126530000000001
55.483843927614096 5.05149
55.509197623043605 5.10939
55.53435769621134 5.02996
55.55952067826466 5.02091
55.5846865714265 5.02302
55.61005202069737 5.00724
55.63522376553902 4.965319999999999
55.66039842818645 4.91659
55.68557601087004 4.92338
55.7109532500271 4.86179
55.73613670233794 4.88427
