TT I
1.2716486653135266 7.65447
1.2939594142134223 6.891369999999999
1.3162702121660406 7.090339999999999
1.3385810600174564 6.81451
1.3608919586137629 6.674760000000001
1.383202908801069 6.24175
1.405513911425503 6.11819
1.4278249673332093 6.20401
1.4501343378461518 6.22699
1.4724455028545926 5.93521
1.4947567236847858 5.66704
1.517068001182951 6.1557699999999995
1.5393793361953272 6.05524
1.5616907295681737 5.45038
1.5840021821477681 5.24451
1.60631369478041 5.87828
1.6286252683124185 5.458819999999999
1.6509369035901333 5.07693
1.6732468618895553 5.18107
1.695558623192809 5.41054
1.7178704487808514 4.88213
1.7401823395001077 4.4596599999999995
1.7625012545597203 4.79402
1.7848028405262486 4.86017
1.8071218901122095 4.7409099999999995
1.8294236121921872 4.54761
1.8517427996910911 4.70953
1.8740620574440425 4.58303
1.8963639900671978 4.80219
1.9186833908139995 4.79079
1.9409854680117449 5.3495
1.9633050151394713 5.07643
1.9856246367570705 4.4196599999999995
2.0079269371922672 4.50309
2.03024671027244 4.2129199999999996
2.0525491637446027 4.24223
2.074869091674931 4.7338
2.097171701569106 5.3560300000000005
2.1194917877373847 5.09355
2.141811954326636 5.30058
2.164114805233074 5.5464
2.186435135143035 6.65641
2.208738150935709 14.2371
2.231058647554722 29.9749
2.2533792288321184 22.5271
2.275682498336085 10.2103
2.298003251406138 5.34422
2.3203066942619714 4.85905
2.3426276225136022 5.3066
2.3649486396617507 5.7470099999999995
2.387252348930071 5.35882
2.4095735463442893 5.50477
2.4318774374315884 5.9768
2.4541988185014043 5.9901
2.476502894794693 6.32541
2.498824462909887 6.45669
2.521146125856138 6.81986
2.5434504863470337 6.8616399999999995
2.5657723414244717 7.3094
2.588076895590662 7.30006
2.610398946189713 7.139689999999999
2.6327210958598384 7.19613
2.6550259469304716 7.39158
2.6773482972090137 7.48447
2.6996533504259 7.9015699999999995
2.7219759047039602 7.86365
2.744298562293959 7.8365800000000005
2.7666039251246595 7.541110000000001
2.7889267918020164 7.43964
2.8112323652516555 8.310189999999999
2.833555444408179 8.45602
2.8558786311183852 7.96127
2.8781845268938557 8.5496
2.9005079311721484 9.11045
2.9228140460410397 8.98356
2.9451376712799635 8.61255
2.967444008632326 9.4314
2.9897678582247247 9.81279
3.0120918213106695 10.4348
3.0343984987899373 10.8335
3.0567226913198637 11.6184
3.079029599759726 12.4571
3.101354025127254 12.0133
3.123678568232338 12.2891
3.145985829517914 12.6043
3.16831061055229 13.3928
3.1906181112775593 14.5994
3.212943133635653 14.8549
3.2352682779763207 15.1439
3.2575761442691227 14.9967
3.2799015350264273 15.8361
3.302209649240067 16.6417
3.3245352898092655 16.3525
3.3468436553365257 17.555999999999997
3.369169549113219 18.2056
3.3914955708171384 18.2357
3.413804319727358 18.519000000000002
3.4361305997334863 19.4529
3.4584396084414553 19.5575
3.4807661501462652 20.6012
3.503092824025881 21.0358
3.5254022288463154 21.5812
3.5477291695206588 22.016
3.5700388426251948 22.4943
3.5923660534916446 24.2013
3.6146934007816114 39.7207
3.637003482731501 93.7093
3.6593311053109985 103.90899999999999
3.681641464033634 58.9365
3.7039693653009733 31.5423
3.726297407241705 26.5372
3.7486081875460804 25.6761
3.7709365132734978 26.3937
3.793247578841633 27.2575
3.8155761917550093 27.0909
3.8378875459837216 27.3001
3.8602164494827234 27.9421
3.882545499606844 28.6059
3.9048572932539183 29.375999999999998
3.9271866390645718 29.4245
3.9494987298666713 29.9156
3.971828374764527 30.7181
3.9941581705403255 31.5861
4.016470713506008 31.5294
4.038800813471445 32.3819
4.061113662089144 33.5541
4.0834440696459176 33.8263
4.105774632334751 34.4964
4.128087945865126 35.4859
4.150418821249301 36.1564
4.172732448931298 37.5859
4.195063640413578 39.7816
4.2173775856475215 44.3922
4.239709096631102 77.5156
4.262040768704612 251.84799999999998
4.284355196706267 337.065
4.306687193387355 216.18400000000003
4.329001947444346 84.2378
4.35133427213731 48.9654
4.373666762177566 44.9443
4.395982011761091 45.0279
4.418314834921175 45.9361
4.44063041906622 54.8196
4.4629635787515625 66.4281
4.4852969080429785 65.7512
4.5076130004776225 55.1042
4.529946671403969 51.5221
4.552263106909177 50.7934
4.574597122877047 51.6099
4.596931312711224 53.0634
4.619248269273446 53.8905
4.6415828092605835 54.6583
4.663900117405352 56.0115
4.686235010953232 57.4929
4.708552674085913 58.9256
4.730887924602802 60.1288
4.753223354952695 61.9972
4.775541557023902 62.9086
4.797877349456786 64.4431
4.820195915032126 66.7815
4.842532072957498 68.4027
4.864868414979744 70.0333
4.88718753227192 72.2213
4.909524244902505 74.0924
4.931843734218147 76.0581
4.954180820867835 78.7856
4.976518095879839 82.0371
4.998838149695359 84.5733
5.021175803844231 88.2724
5.043496238205739 91.6317
5.065834274903528 96.5453
5.088172504230693 102.12799999999999
5.1104935158799565 108.809
5.132832132875765 132.885
5.155153533596801 181.012
5.1774925416746225 216.91299999999998
5.199814334878411 394.776
5.2221537374521505 1123.81
5.244493338631803 3037.73
5.266815727034316 7428.45
5.289155727832427 12043.3
5.311478517248165 9110.24
5.333818921080011 3275.05
5.356159527788849 667.258
5.3784829252032536 204.641
5.400823940070432 153.466
5.423147747031976 133.936
5.445489173474152 123.117
5.467830807066149 116.484
5.490155234831516 112.081
5.512497285125229 108.258
5.534822130975162 106.16
5.557164601388673 104.1
5.579489868738879 101.649
5.601832762690846 100.54799999999999
5.6241758697774475 99.6501
5.646501775867269 98.9892
5.668845311622074 97.1696
5.691171647754637 96.0481
5.713515615597765 94.572
5.735859800852677 93.3501
5.758186788542988 93.04799999999999
5.780531411018185 93.1647
5.802858837297399 92.4451
5.825203900414495 93.1187
5.8475491852224 93.0127
5.869877275883075 93.2327
5.892223006467101 94.9772
5.914551544266608 97.0275
5.936897724049891 99.5544
5.959244129804903 105.09299999999999
5.981573344815301 125.265
6.0039202049061 221.342
6.026249875609095 487.14099999999996
6.04859719346037 1018.14
6.070927323278297 2232.38
6.093275102315365 4168.1
6.115623113320588 5208.78
6.137953938319995 3433.44
6.160302415650845 1215.78
6.182633708324452 295.704
6.2049826554078376 124.119
6.227331838745022 97.3658
6.249663839443684 87.955
6.27201349767565 85.1308
6.294345974611799 91.9094
6.316696111167083 104.214
6.339046488263839 97.9368
6.361379686074702 82.1543
6.383730546639482 73.2263
6.406064229255215 70.0927
6.428415576718203 69.657
6.450749747566656 68.4011
6.47310158535871 67.2505
6.495453669698332 66.6331
6.517788579421056 66.0146
6.540141159237969 64.6116
6.562476565766648 64.3395
6.5848296444934045 63.8937
6.607182974060425 63.6584
6.6295191323281015 63.6869
6.651872965955752 67.6283
6.6742096296068985 95.9481
6.6965639707294615 146.056
6.71891856698715 145.45
6.741255995248479 97.7567
6.763611104154477 69.3791
6.785949046381137 61.5121
6.808304671371482 59.5054
6.8306605557940046 59.3908
6.852999275508618 58.1492
6.875355681171544 58.0086
6.897694923437771 57.8224
6.92005185377892 57.5731
6.9423916220322655 57.1883
6.964749080490181 57.1175
6.987106804399774 56.7225
7.009447368180821 56.6871
7.031805625367033 56.3098
7.054146723727803 56.2838
7.076505517631004 56.2148
7.098864581288365 56.0305
7.121206488070854 56.0343
7.143566093607822 55.4279
7.165908543567245 55.9414
7.188268694426048 56.1485
7.2106291193438095 56.5344
7.232972390625943 57.6649
7.255333366030969 71.4866
7.277677189091925 129.42
7.300038718428332 179.87900000000002
7.322400526130865 151.265
7.344745183422596 91.9215
7.367107550224791 63.1846
7.389452767901992 57.2683
7.411815697249891 56.2065
7.434161478756298 55.538000000000004
7.456524974096713 55.0934
7.478888753837185 55.4201
7.501235387657368 55.8327
7.523599738562711 55.4995
7.545946944825532 55.8815
7.568311870344528 56.5246
7.5906770845765665 56.3962
7.613025156078678 57.8833
7.635390950099687 59.1541
7.657739602662809 58.0262
7.680105979923558 57.0387
7.702472650212829 56.9745
7.724822180948224 56.5802
7.747189439655568 56.8729
7.769539560075357 57.1881
7.791907410653562 57.5382
7.81425812420825 57.5345
7.836626570110925 57.7484
7.858995315087906 58.2538
7.881346924933401 58.5072
7.903716270417482 59.1359
7.926068482028405 59.4375
7.948438431475253 59.8348
7.9708086843180235 60.733000000000004
7.993161805171116 61.2306
8.015532667162402 61.7229
8.037886398416653 62.495
8.060257873014221 62.985
8.082629655331942 63.665
8.104984308787587 64.8657
8.127356708900503 68.3481
8.149711981398308 74.4894
8.172085002766314 76.7142
8.194458336181368 73.0294
8.216814543847752 70.3024
8.23918850371002 70.0838
8.26154533906492 71.2857
8.283919928836452 73.1004
8.306277395339652 73.809
8.328652618483376 75.1315
8.351028159736202 76.9999
8.373386579575245 79.2754
8.395762759396959 81.709
8.418121819038275 86.6561
8.440498640894003 100.99799999999999
8.462875785192262 115.86
8.485235811156207 128.269
8.507613602688501 170.048
8.529974277114228 263.659
8.552352719347912 405.695
8.574731488360351 677.4580000000001
8.59709314210385 1166.57
8.619472567021075 1795.32
8.64183487789147 2149.46
8.664214962183097 1872.28
8.686577933647762 1063.7
8.708958680784317 409.54400000000004
8.731339760774953 179.50599999999997
8.753703729764451 116.884
8.77608547780821 102.74
8.798450116065078 98.0186
8.820832535634787 94.5421
8.843215292401656 92.8471
8.865580941199045 91.1049
8.887964374703538 90.1404
8.910330701447199 91.3963
8.932714815164482 93.6737
8.955099270424924 93.1215
8.977466620733543 89.4817
8.999851761421976 86.4935
9.022219798361645 84.9747
9.04460562795561 84.8099
9.066991803441677 84.1253
9.089360876979615 83.9352
9.111747746589993 83.6402
9.13411751544971 83.1484
9.156505082664324 82.8981
9.178875550323522 83.0749
9.20126381862328 83.5732
9.223652438908596 84.02799999999999
9.246023961427412 83.6604
9.26841328802173 83.2464
9.290785518039224 83.2433
9.313175554425882 83.5451
9.335565947154315 83.5394
9.357939245086508 84.057
9.380330352834827 84.2018
9.40270436697103 84.2845
9.425096193225055 84.2385
9.447488380180165 84.9825
9.469863475295412 85.3308
9.492256385987508 85.6189
9.514632206018318 86.40100000000001
9.537025843935714 86.7769
9.559402392368193 87.48899999999999
9.581796761000229 88.5868
9.604191496441521 89.8622
9.626569144158516 93.1416
9.648964615551032 97.8619
9.671343000390081 100.01700000000001
9.693739211225699 97.8058
9.716135793237463 94.8229
9.738515290448102 94.61399999999999
9.760912617143402 95.5859
9.783292860202891 96.1841
9.805690935076182 97.5053
9.828089385495742 98.7044
9.850470754023561 101.044
9.872869957865444 109.59700000000001
9.89525208097539 125.958
9.917652041736662 139.543
9.940052382417589 138.241
9.962435644102392 144.03799999999998
9.984836746950979 181.72299999999998
10.007220771957746 250.083
10.029622640473708 358.514
10.052007432299963 536.337
10.074410069984072 814.3489999999999
10.096813093716005 1224.53
10.119199042482517 1647.37
10.141602840636468 1891.58
10.163989564971628 1617.94
10.186394141051062 983.341
10.208799107559706 444.30800000000005
10.231187001965623 213.55
10.253592751657669 134.959
10.275981430388155 116.764
10.298387966769793 115.906
10.320794897965431 118.37100000000001
10.343184759907361 116.649
10.36559248305461 110.34200000000001
10.387983138083852 106.479
10.410391656691655 109.09299999999999
10.432800574501677 120.56299999999999
10.455192425893369 137.72
10.47760214443012 164.205
10.499994797678786 207.393
10.522405320453982 284.031
10.54479877906917 393.621
10.567210109595656 494.767
10.5896218454736 556.206
10.612016518879773 508.088
10.634429067781074 378.735
10.656824555333241 224.574
10.679237920773568 133.803
10.701651695961992 99.9206
10.724048411481384 91.0106
10.746463008485165 88.2037
10.768860546937125 86.0234
10.791275969274796 84.3968
10.81369180576079 83.3481
10.836090585366925 81.8532
10.858507252467449 80.7583
10.88090686379991 79.9709
10.903324365036394 79.4692
10.925724811614439 79.4171
10.948143150509463 80.9004
10.970561909719066 80.0809
10.992963615930844 77.955
11.015383218085756 75.5619
11.037785768347074 74.405
11.06020621697282 73.8108
11.082627090322113 73.0202
11.105030913430326 72.5364
11.12745263854165 73.4964
11.149857314510728 77.2293
11.172279894912576 83.9446
11.194702904450653 84.4491
11.217108866490921 79.6497
11.239532736615194 75.2955
11.26193956033512 72.9643
11.284364294577085 71.373
11.306789462371718 69.6096
11.329197585398376 68.6417
11.351623622610898 68.1601
11.37403261614354 66.8031
11.396459526308487 66.9411
11.418869393879497 66.373
11.441297180532617 66.3137
11.463725406927658 65.9411
11.486136592353875 65.7795
11.508565700543707 66.4648
11.530977768845315 68.2617
11.553407762368774 69.3224
11.575838200059769 68.3079
11.598251599479612 66.2033
11.620682927815501 64.9921
11.64309721895548 64.6792
11.665529441478206 63.9975
11.687962112597958 63.706
11.710377748130886 63.7235
11.732811318753434 63.8163
11.755227854859067 63.7889
11.777662328529495 63.745
11.800079768750786 63.3589
11.822515149015453 63.3009
11.844950984084935 63.4655
11.867369787303163 63.0935
11.889806534289491 63.2122
11.912226250487029 63.5065
11.934663912939751 63.8369
11.9571020346363 63.7869
11.979523127133968 63.9654
12.001962169624331 64.5017
12.024384183972964 65.4908
12.046824150809913 68.7874
12.069264581333726 74.4689
12.091687985297767 81.0089
12.11412934550045 90.4392
12.136553680195208 105.726
12.158995973632788 128.296
12.181438735204349 154.55100000000002
12.20386447284199 180.21099999999998
12.226308172985636 200.826
12.24873485024193 201.555
12.271179492516982 170.979
12.293607112949127 135.22799999999998
12.316052700916226 101.962
12.338498763250042 82.8302
12.360927805303868 72.0831
12.383374818673879 67.7309
12.405804812803074 65.7346
12.428252780773262 65.3734
12.45070122756722 65.2339
12.473132656675375 65.2282
12.49558206341869 65.058
12.518014453510101 65.4284
12.540464823770117 65.45
12.562915677315177 65.3477
12.58534951575545 66.4162
12.607801338171472 68.5639
12.630236146511358 74.3828
12.652688941369085 79.2697
12.675124723177234 79.7322
12.697578494048786 75.8636
12.720032754458185 70.9224
12.742470003354093 69.0526
12.764925245138771 68.9
12.787363476431278 68.8264
12.809819703166806 69.2441
12.83227642391173 70.2127
12.854716135692716 70.8691
12.877173846755147 71.7917
12.899614549869717 71.8199
12.9220732548287 72.7041
12.94453245827299 72.8996
12.966974655289818 74.2031
12.989434858002571 75.1133
13.011878055298721 75.797
13.034339260862497 76.5906
13.056800969391883 78.0696
13.079245674017244 79.8438
13.101708390774869 82.1273
13.12415410463411 89.6044
13.146617833206086 102.04899999999999
13.169064559883248 114.759
13.191529303857127 129.984
13.213994557076367 152.42
13.236442809902437 187.847
13.258909083908291 237.916
13.28135835851934 296.808
13.30382565690295 361.536
13.326293469022952 414.12
13.348744283242008 424.39599999999996
13.371213125129904 371.394
13.39366497011003 277.89599999999996
13.416134845360597 188.299
13.438605238843131 131.362
13.46105863690397 109.416
13.483530069144786 107.943
13.505984506951902 113.204
13.528456981549432 123.59700000000001
13.550929978879088 137.958
13.573385983253365 161.24
13.595860028340867 197.17700000000002
13.618317081455832 244.8
13.64079217790333 292.56
13.663250283359057 334.07300000000004
13.685726434770173 359.61699999999996
13.708203115221277 338.744
13.730662806148091 272.97900000000004
13.75314054697177 201.386
13.775601299246777 139.9
13.798080104050406 103.061
13.820559442405358 87.8838
13.843021793671388 83.3735
13.865502201420897 81.3848
13.887965623051947 80.6062
13.910447103807167 79.5785
13.932929122629764 78.1343
13.955394156785959 77.6563
13.977877254034569 76.938
14.000343367582113 75.9942
14.022827546871707 75.3438
14.045294743423524 74.4467
14.06778000837062 73.9772
14.090265817715476 74.1239
14.112734645763819 73.5814
14.13522154619454 73.3677
14.157691466286913 73.4473
14.180179461423874 73.2073
14.202668005486178 72.57600000000001
14.22513957064374 71.6599
14.247629214846473 71.5076
14.270101881097517 71.23
14.29259262906496 71.5953
14.315083930490205 72.5902
14.337558255389705 72.8307
14.360050666019726 72.3057
14.382526101071944 71.1177
14.405019624534942 70.346
14.427513705993134 69.7641
14.449990813291825 69.5943
14.47248601302899 69.6469
14.49496423954951 69.8354
14.517460561197822 69.6509
14.539939910570322 69.5303
14.562437357763558 69.9845
14.58493536931253 71.1987
14.607416409993311 72.1194
14.62991555254159 72.791
14.652397725157423 72.6821
14.674898002342799 71.9595
14.697398848433282 71.5846
14.719882725991326 71.7976
14.74238471217934 73.0342
14.764869730765593 76.1242
14.787372860692983 79.9136
14.809876564079925 84.6228
14.83236330125751 90.8816
14.854868153850365 99.3611
14.877356041159485 112.141
14.899862046604186 129.745
14.922351087688757 152.609
14.944858249632887 178.938
14.967365991421232 200.33
14.989856770231246 216.463
15.012365673994204 214.815
15.03485761569738 191.928
15.05736768508665 155.018
15.07987833888692 120.59100000000001
15.102372032001655 95.1845
15.124883856909658 79.34
15.14737872204565 73.7638
15.169891721717274 71.9109
15.192405310371893 71.4131
15.214901940621196 72.0727
15.237416709527137 72.2124
15.259914520936249 72.3268
15.282430473753607 71.3434
15.304947020131227 70.2187
15.327446610371178 69.3585
15.349964346154254 68.1703
15.372465126703139 67.6292
15.394984055556009 67.301
15.417486030076159 67.6138
15.44000615566487 66.9987
15.462526881230803 66.8883
15.485030653812652 67.0478
15.507552581617434 67.2886
15.530057557334603 67.2805
15.55258069104857 67.0218
15.575104429329837 66.983
15.597611216864632 66.4975
15.620136166564563 66.9302
15.6426441664095 67.5889
15.665170331202765 70.1635
15.687697105158826 73.3355
15.710206930593545 76.8707
15.732734925158933 81.5057
15.755245972089478 87.6279
15.77777519094324 96.3783
15.800287463046663 108.723
15.822817909869592 126.369
15.84534897229804 145.379
15.867863089299354 166.783
15.890395385222186 181.255
15.912910736597423 189.62900000000002
15.935444269699861 181.382
15.957978423016485 159.889
15.980495633101265 129.232
16.003031029129367 102.565
16.02554948280019 80.6381
16.048086125229432 70.2512
16.070623392487107 66.8094
16.09314371869582 65.9135
16.11568223789321 64.8423
16.13820381691126 63.8124
16.160743591742527 62.4938
16.183283996022084 61.7436
16.205807461423195 60.4556
16.228349126881973 59.754
16.25087385432698 59.8954
16.27341678466365 59.3516
16.29594277784926 59.2201
16.31848697676433 59.6297
16.341031811604868 60.0316
16.36355971058487 60.2689
16.3861058195587 59.9363
16.40863499352978 58.619
16.431182380342005 57.6901
16.453730407713202 57.085
16.476261501364792 56.5333
16.498810812136167 56.2673
16.52134319004079 56.4633
16.54389378792203 56.2648
16.566445031001553 56.0618
16.588979342490088 56.0083
16.61153187824822 55.7529
16.634067483263312 55.6427
16.656621315414416 55.7705
16.679175797408888 55.2552
16.701713349928728 55.4085
16.72426913389191 55.4644
16.74680798922351 55.8418
16.76936507887444 55.891999999999996
16.791905240734874 55.8828
16.814463639794468 55.6052
16.837022695210294 55.5574
16.859564824093756 56.0126
16.882125194503903 56.8722
16.904668639217885 57.6424
16.927230328348003 57.6896
16.949792678493612 57.7819
16.972338104193863 57.1679
16.994901778652235 56.4315
17.017448529496576 56.4765
17.040013531998152 56.5656
17.06257920018044 56.9129
17.0851279459922 57.8447
17.107694947817667 58.6325
17.130245028099072 59.5828
17.15281336730298 60.8557
17.17536478578733 62.5082
17.19793446610687 64.6378
17.220504818648422 67.3944
17.243058251703697 70.3451
17.265629950971032 74.6444
17.288184731571736 78.6856
17.310757781306908 81.7214
17.33333150794385 83.5081
17.355888317140174 82.4384
17.37846339986244 78.7073
17.401021565958885 72.58800000000001
17.42359800851343 67.5012
17.44617513265564 63.5629
17.468735341390783 60.9226
17.491261035594565 59.955
17.51396340099364 59.7481
17.536490463869136 59.9331
17.559018209820174 59.9696
17.58154663977963 60.1397
17.604251766089718 60.1051
17.626781572227713 60.4124
17.64931206518155 60.7154
17.671843245885103 61.1256
17.69455114821572 61.4328
17.717083712612634 61.9175
17.739616967569667 61.9562
17.762150914021706 62.067
17.78486160749854 61.9623
17.807396945166804 62.6007
17.829932977143503 63.5043
17.85246970436452 64.9925
17.875183204129467 67.0123
17.897721330097664 69.3001
17.920260154126645 71.5735
17.942799677153296 74.7866
17.9655159983646 78.582
17.988056927677544 83.5566
18.010598558807683 90.766
18.033140892692916 99.7678
18.05586005052525 109.40799999999999
18.07840379824407 119.882
18.10094825154059 130.239
18.12366954819864 137.4
18.146215420998306 139.295
18.16876200220057 133.809
18.191309292745153 121.34899999999999
18.214033452627167 107.556
18.236582170236648 95.0961
18.259131600016456 88.84700000000001
18.281681742907335 87.9385
18.304408781233683 91.1822
18.32696035875955 95.3432
18.349512652227624 100.065
18.372065662579683 104.175
18.394795594587553 105.524
18.41735004715306 104.539
18.43990521943684 98.7701
18.46246111238171 89.9876
18.485193953325208 80.6638
18.507751296070428 72.6189
18.530309362314178 67.6916
18.552868153000343 64.7141
18.57560391815056 63.0254
18.59816416623245 62.5577
18.620725141597372 62.0096
18.643286845190268 61.6089
18.666025549835414 61.1299
18.688588718427933 60.5285
18.711152618092243 60.4332
18.73389353884365 60.232
18.75645890921984 59.7096
18.77902501351406 59.4
18.801591852673102 59.4737
18.824335739722738 58.9032
18.846904057212626 58.9306
18.8694731124168 58.5187
18.89204290628315 58.4585
18.914789774966803 58.4195
18.937361054791623 58.1934
18.959933076131318 57.8664
18.982505839934877 57.8665
19.00525570560582 57.8888
19.027829963004184 57.7796
19.05040496572238 57.7729
19.072980714710468 57.775
19.095733592739563 57.8959
19.11831084296757 58.1641
19.140888842324735 58.9079
19.16346759176222 59.3288
19.18622349753803 59.6045
19.208803755869358 60.4784
19.231384767143577 61.4879
19.253966532312948 62.9758
19.276725481241822 64.7933
19.29930876296784 66.8878
19.3218928014549 69.8355
19.34465404436217 72.9172
19.36723960516257 75.4772
19.389825925592426 76.5606
19.412413006605938 76.3144
19.43517731967805 73.395
19.457765930683355 69.3052
19.48035530514408 64.8351
19.50294544401556 60.7889
19.525712842708348 57.9617
19.54830451925909 56.3047
19.570896963095727 55.2859
19.593490175174704 54.8601
19.616260674962184 54.6806
19.638855432416964 54.2582
19.661450960992624 54.5245
19.68404726164677 54.3568
19.706820878021247 53.9652
19.729418731756834 54.2049
19.752017360452857 54.0028
19.77461676506804 54.1693
19.797393513540218 54.3786
19.819994478951667 54.5274
19.84259622316767 55.2578
19.8651987471481 55.5636
19.887978643247177 55.8757
19.91058273574792 56.5001
19.933187610901943 57.292
19.955969879466828 57.9508
19.97857632894404 59.4169
20.00118356396599 60.9686
20.023791585494575 63.2005
20.046577028914875 65.0228
20.069186632506966 67.1489
20.091797025500632 68.8959
20.114408208858933 70.0328
20.137196842715273 70.1774
20.159809615886765 69.1651
20.18242318232135 66.8943
20.20503754298326 64.8418
20.227829382875154 63.4563
20.250445341109344 63.0407
20.27306209647285 63.3335
20.29567964993108 64.2165
20.31847471147704 64.8403
20.34109387027612 65.6676
20.363713830075454 65.8179
20.386334591841646 65.0235
20.409132890679302 62.9276
20.431755265564437 59.6864
20.454378445325528 56.9599
20.477002430930366 54.9438
20.499803982716553 53.4343
20.522429589228004 52.5002
20.54505600449589 51.9749
20.567683229489194 51.8793
20.590488049900088 51.453
20.61311690359731 51.1363
20.63574656993626 50.858999999999995
20.658553853717297 50.2152
20.681185154618298 50.3966
20.703817271080066 50.2376
20.72645020407368 49.9121
20.749260783967177 49.7492
20.771895359337133 49.7592
20.794530754161617 49.618
20.817166969412938 49.5177
20.83998086114876 49.6004
20.86261872660049 49.4344
20.885257415405402 49.4114
20.90789692853701 49.1828
20.930714147864748 49.1273
20.953355319030678 49.3299
20.97599731745334 49.5823
20.99864014410749 49.2468
21.021460706796564 49.2842
21.044105199328826 49.4902
21.06675052302631 49.6017
21.089396678865015 49.8559
21.112220600704806 50.1166
21.134868430275347 50.5584
21.15751709492456 50.83
21.180166595629693 51.0421
21.202993892429635 51.3935
21.22564507473034 51.5606
21.24829709602816 51.8617
21.27112693608965 51.9983
21.293780644891275 52.0982
21.316435195634053 51.6094
21.339090589297417 51.0266
21.361923832041875 50.3938
21.384580921090404 49.74100000000001
21.407238856007325 49.1976
21.429897637773326 49.1495
21.45273429906592 49.1895
21.475394784108598 48.9521
21.498056118951983 48.9114
21.520718304578022 49.2968
21.543558400304388 49.2597
21.566222297108816 49.4113
21.58888704765135 49.547
21.61155265291521 49.8786
21.63439619898156 50.3772
21.657063523335786 50.7432
21.67973170537063 51.1514
21.7024007460706 51.5824
21.72524775840385 52.306999999999995
21.747918526116475 53.3429
21.770590155457388 54.2244
21.79326264741238 55.9136
21.816113141960237 57.3467
21.838787368860547 59.1527
21.861462461341976 60.982
21.884315579735777 62.5706
21.90699241312273 63.8515
21.92967011506078 64.7759
21.95234868653799 64.8972
21.9752053151131 64.2318
21.997885635446785 62.5054
22.020566828293532 60.8607
22.04324889464272 59.3049
22.066109049404666 57.6836
22.088792872571794 56.8664
22.111477572219204 56.5979
22.1341631493376 56.7533
22.157026846313123 56.6731
22.179714188221507 55.8807
22.202402410582668 55.1942
22.22509151438863 53.9468
22.24795876962584 52.4828
22.270649646204486 51.5101
22.293341407213727 50.8296
22.316034053646906 50.0628
22.338904883215342 49.8613
22.36159931041458 49.7874
22.38429462602756 49.8129
22.40699083104897 49.6139
22.429865251039757 49.6477
22.452563244831367 49.6437
22.47526213102522 49.5254
22.49813925616515 49.5743
22.520839937143307 49.3239
22.543541513520587 49.2267
22.56624398629403 49.1885
22.589124730075895 49.1177
22.611829005656723 49.3832
22.63453418063466 49.3922
22.657240256008077 49.5918
22.680124634582935 49.6816
22.70283252079775 50.08
22.725541310413075 50.2869
22.74825100442868 50.3817
22.771139033969575 51.0821
22.79385054687155 51.2117
22.81656296718292 51.8103
22.83927629590484 52.5598
22.862167992606945 53.4993
22.88488314827121 54.4997
22.907599215359284 55.4979
22.93031619487366 56.6173
22.953211574954405 57.3311
22.975930389478226 58.173
22.998650119445763 58.4467
23.02137076586092 57.9655
23.044269845560063 56.8254
23.06699233506288 55.4836
23.089715744034912 53.6912
23.112617610931565 52.0563
23.135342869061212 50.8581
23.158069049684816 49.9524
23.1807961538087 49.6986
23.20370174880544 49.5876
23.226430710184808 49.4866
23.249160598093425 49.5487
23.271891413539002 49.4903
23.294800752937697 49.4029
23.31753343374794 49.702
23.340267045128353 49.6814
23.36300158808808 50.3039
23.38591468821339 50.4741
23.408651104658304 50.903999999999996
23.431388455719986 51.3168
23.454126742409 52.0889
23.4770436196085 53.096000000000004
23.499783787914662 54.2021
23.522524894889884 54.8926
23.54526694154616 56.0014
23.56818761219047 56.9045
23.59093154860734 57.5808
23.613676427751283 58.1822
23.636422250635754 57.8838
23.659346731118656 56.4909
23.68209445191868 54.8051
23.704843119509587 52.6877
23.72759273490623 50.7005
23.750521041644767 49.2679
23.77327256312355 48.0893
23.796025035462787 47.3599
23.818956224555475 46.784
23.841710609113413 46.8293
23.86446594758979 46.4429
23.887222241002014 46.2411
23.910157285144578 45.8907
23.932915498962537 45.9477
23.955674670778713 45.7272
23.978434801611975 45.5701
24.001373717286125 45.3645
24.024135776723917 45.3027
24.046898798245582 45.1591
24.06966278287146 45.0048
24.092605586582614 44.972
24.115371508023642 44.7949
24.1381383956401 44.5718
24.16090625045381 44.5772
24.183852958731244 44.5492
24.206622758582608 44.4974
24.229393528706886 44.3874
24.252165270127392 44.2623
24.27511589952438 44.2428
24.297889594216997 44.1113
24.32066426328598 43.8293
24.34343990775613 43.8535
24.36639447485003 43.8299
24.38917208083877 43.7404
24.41195066531332 43.6253
24.43490819850244 43.5495
24.457688750692377 43.5527
24.48047028445616 43.4987
24.503252800821233 43.4521
24.526214300784112 43.6071
24.548998793132213 43.5783
24.57178427117417 43.4651
24.59457073593893 43.5149
24.617536219319863 43.4084
24.64032466834748 43.5133
24.663114107195035 43.4416
24.685904536893013 43.2197
24.708874020360852 43.0599
24.731666442613744 43.1849
24.754459858818787 42.9099
24.777254270007962 42.8003
24.80022777025625 42.7229
24.82302418230472 42.7857
24.845821592443674 42.8396
24.86862000170663 42.7593
24.891597535453727 42.5135
24.914397953892728 42.8891
24.93719937456671 42.6323
24.96000179851076 42.8972
24.98298338249997 43.1584
25.00578782394922 43.3392
25.028593271784167 43.4509
25.05157790644186 43.7209
25.07438537804115 43.9167
25.097193859145293 44.0489
25.120003350792075 44.3378
25.142992065061257 44.5506
25.165803588823465 44.7879
25.18861612625217 45.1276
25.211429678386736 45.2224
25.234422489079968 45.4188
25.257238081693636 45.2925
25.280054692141732 45.4143
25.3028723214652 45.31
25.325869245420463 45.4478
25.348688923599397 45.4003
25.371509623787006 45.326
25.394331347025812 45.2899
25.41733240110666 44.9128
25.440156181590016 44.3236
25.46298098826268 43.8188
25.48580682216873 43.1119
25.50881202326435 42.6154
25.53163992281684 42.1337
25.55446885274561 41.8159
25.577298814096377 41.5518
25.600308179121807 41.507
25.623140214533745 41.5303
25.64597328451537 41.4049
25.66898578564376 41.1487
25.691820936010206 41.1998
25.714657124097695 41.1017
25.737494350954734 41.0554
25.760511045684957 41.0768
25.783350361364224 41.1623
25.806190718969255 41.1705
25.82903211955018 41.2272
25.852053024868923 41.1602
25.874896522722523 41.1685
25.897741066713106 41.1309
25.920586657892454 41.2367
25.943611790812668 41.4112
25.966459487728237 41.4128
25.989308234998564 41.4789
26.01215803367705 41.7835
26.03518741123814 42.1058
26.05803932412957 42.2054
26.080892291600094 41.9442
26.10374631470478 42.1133
26.12677995397268 42.173
26.14963609978026 42.1566
26.172493304397875 41.9417
26.19535156888223 41.7041
26.218389486949604 41.3999
26.241249882640123 41.0663
26.26411134137826 40.8609
26.28715248187403 41.0095
26.31001607820869 40.6696
26.3328807407756 40.5563
26.35574647063438 40.5823
26.37879191991473 40.6296
26.401659795896734 40.6127
26.424528742360263 40.7724
26.447398760366614 40.9942
26.470448535598294 41.1699
26.49332070826805 41.2565
26.516193955675355 41.582
26.53906827888316 41.7016
26.562122397260108 41.9701
26.584998883685063 42.2048
26.607876449110325 42.3869
26.63075509460056 42.4551
26.65381357334404 42.7048
26.67669439061878 42.6615
26.699576291163382 42.5573
26.722459276044212 42.5382
26.745522132402975 42.1377
26.768407297649354 42.0162
26.791293550442003 41.7113
26.814180891848974 41.4829
26.837248143099337 41.0569
26.860137673466657 40.8527
26.88302829566349 40.7064
26.90592001075963 40.6814
26.92899167420566 40.5083
26.951885586870763 40.1116
26.974780595655517 39.897
26.99785558178161 39.7661
27.020752794605112 39.6764
27.043651106772522 39.4464
27.06655051935668 39.5614
27.089629948036183 39.3358
27.112531573292053 39.2285
27.135434302194138 39.2954
27.158338135817015 39.1399
27.181422024430987 39.041
27.204328079372566 39.0082
27.22723524226965 39.1058
27.250143514198573 39.1327
27.273231880156334 39.1043
27.296142382065014 39.0103
27.319053996245536 38.9475
27.341966723775965 38.8857
27.365059584515222 39.0182
27.38797455070062 38.9533
27.410890633481237 38.8482
27.433807833936918 38.8563
27.456905206923906 39.0168
27.47982465472398 39.0709
27.502745223449743 38.9913
27.525666914182825 39.1127
27.548768816912457 39.0491
27.571692763693633 39.0206
27.59461783573812 38.9636
27.617723149491244 38.7508
27.640650484125285 38.7668
27.66357894728264 38.626999999999995
27.686508540048052 38.5233
27.709618414237887 38.5717
27.732550278321757 38.5197
27.755483275279115 38.335
27.778417406196485 38.4568
27.801531858397514 38.3524
27.824468269376716 38.3207
27.847405817586786 38.3937
27.870344504116094 38.5912
27.893463551932008 38.6089
27.916404527281053 38.8551
27.93934664422563 38.8578
27.962289903855886 38.8431
27.98541356491974 39.1779
28.00835912214229 39.1846
28.03130582533231 39.3671
28.054253675581805 39.5458
28.077381967556104 39.5505
28.100332124185126 39.501
28.123283431160893 39.4257
28.146235889577238 39.3544
28.169368830154156 39.2454
28.192323603752033 39.0254
28.215279532083304 38.8137
28.238415973016764 38.455
28.261374223145094 38.2935
28.284333631303806 38.0406
28.307294198589954 37.9419
28.330435319167677 37.6833
28.353398217078915 37.4085
28.376362277420153 37.229
28.39932750129032 37.0863
28.422473319286713 36.8961
28.44544088262495 36.8665
28.468409612800283 36.6887
28.491379510913497 36.5848
28.51453004413313 36.483000000000004
28.53750229057244 36.4357
28.56047570826344 36.3019
28.583450298308804 36.3423
28.606605564586562 36.1111
28.629582511831156 36.2305
28.65256063474956 36.065
28.675539934446338 36.1503
28.698699951647605 36.0831
28.72168161743193 35.7923
28.74466446331978 35.9622
28.767648490417624 36.0065
28.790813276438353 35.9212
28.813799678527303 35.8497
28.836787265157085 35.9842
28.859955641890075 35.986999999999995
28.882945610203045 35.8288
28.905936766392035 35.7698
28.928929111566863 35.8035
28.952102288520145 35.7011
28.975097024308607 35.6922
28.998092952423807 35.4874
29.021090073977508 35.4132
29.04426806913204 35.3934
29.067267590245258 35.1368
29.090268308143695 35.048
29.11327022394099 35.0238
29.13645305530891 34.9336
29.159457379627167 34.8263
29.18246290519685 34.784
29.20546963313352 34.7677
29.22865731875826 34.913000000000004
29.25166646419296 34.7687
29.27467681535305 34.7038
29.29768837335608 34.8047
29.320880931312562 34.8603
29.34389491580634 34.7082
29.366910110507334 34.689
29.38992651653503 34.7948
29.41312396492981 34.6977
29.436142806456754 34.5837
29.45916286268059 34.5459
29.48236399319994 34.3849
29.50538649169417 34.2474
29.528410208259935 34.2785
29.55143514402014 33.9757
29.574641196749695 33.8598
29.597668583816574 33.8038
29.6206971934585 33.5162
29.64372702680042 33.6454
29.666938019934474 33.5283
29.689970313635285 33.4166
29.713003834422636 33.4027
29.73603858342347 33.3718
29.759254535188578 33.3475
29.78229175361658 33.2245
29.80533020365064 33.4053
29.82836988641968 33.3856
29.85159081507472 33.2336
29.874632976355343 33.2591
29.89767637376955 33.2443
29.920721008448314 33.0469
29.9439469322847 33.0545
29.96699405457564 33.0285
29.9900424175358 33.0885
30.013092022298157 32.9214
30.03632295963995 32.8697
30.059375061131373 32.9139
30.08242840783577 32.9071
30.105483000888153 32.864000000000004
30.128718970092244 32.8573
30.151776069006917 32.8203
30.17483441768648 32.8896
30.198074175317235 32.8467
30.221135036724256 32.8069
30.24419715131772 32.7502
30.267260520236203 32.7588
30.290505341942243 32.8299
30.313571232750228 32.7716
30.336638381310948 32.717
30.35970678876503 32.7154
30.38295669299435 32.571
30.40602763151657 32.6011
30.429099832366074 32.543
30.452173296685572 32.5332
30.47542830191959 32.4693
30.498504306502497 32.3819
30.521581577995562 32.6476
30.544660117543582 32.639
30.56792024229725 32.6488
30.59100133132069 32.5807
30.614083691845494 32.5322
30.637167325018545 32.6817
30.660432587840603 32.6994
30.683518779717886 32.599000000000004
30.70660624769615 32.6816
30.729694992924372 32.5961
30.75296541239743 32.6076
30.77605672557558 32.617
30.799149319462742 32.4924
30.8224236211637 32.4045
30.845518789950724 32.3927
30.868615242910597 32.2986
30.891712981195973 32.0716
30.91499247215866 32.085
30.938092794619365 32.0999
30.96119440587579 32.0017
30.984297307082752 31.9313
31.00758200598383 31.8175
31.030687500658694 31.7109
31.053794288760695 31.5671
31.076902371446767 31.5316
31.100192296997445 31.5671
31.12330298246119 31.5219
31.14641496599209 31.3831
31.169528248749216 31.3643
31.19282341969534 31.3354
31.215939314557186 31.4478
31.239056512134788 31.4546
31.262175013589378 31.3809
31.28547544871168 31.2618
31.30859657161541 31.2573
31.331719001892175 31.2213
31.35484274070538 31.3005
31.378148458819545 31.3304
31.401274828443725 31.3804
31.424402510106933 31.3031
31.447712205419993 31.394000000000002
31.470842524931633 31.2007
31.493974159989783 31.2521
31.51710711176168 31.1527
31.54042212308802 31.1933
31.563557722100917 31.0878
31.586694641341655 31.0126
31.609832881979628 31.011999999999997
31.63315322823208 30.9576
31.656294125521327 30.7357
31.679436347728515 30.6683
31.70257989602529 30.6997
31.725905596152327 30.6263
31.74905181052835 30.5348
31.772199354521323 30.5473
31.79534822930507 30.6076
31.818679302290967 30.5916
31.84183085259981 30.5202
31.864983737233473 30.5093
31.88813795736804 30.4762
31.911474422233013 30.355999999999998
31.934631327356435 30.5526
31.9577895715215 30.5495
31.980949155906522 30.4336
32.004291031706956 30.4926
32.027453310562606 30.3138
32.05061693318573 30.1387
32.07396288236386 30.163
32.09712920658542 30.1181
32.12029687812702 30.0186
32.14346589817093 29.9757
32.166817291729984 29.8699
32.18998902288583 29.8293
32.21316210610336 29.7674
32.23633654256711 29.7367
32.259693399663725 29.6793
32.282870556771144 29.5939
32.30604907069099 29.5111
32.329228942610065 29.4856
32.35259128243769 29.3554
32.375773884550505 29.3815
32.398957848235646 29.2673
32.422143174682176 29.2164
32.445511016471215 29.2244
32.468699082679954 29.1678
32.49188851523011 29.0597
32.51507931531304 29.0133
32.538452678331 29.0911
32.56164622776311 28.9577
32.58484114831493 28.8454
32.60803744118015 28.9084
32.631416344731896 28.8467
32.654615396551876 28.8399
32.67781582427913 28.8551
32.701198898634416 28.8356
32.72440209253756 28.6803
32.747606665947124 28.6592
32.77081262006088 28.5463
32.79420126883317 28.5237
32.81740999876112 28.6273
32.840620112999424 28.4633
32.86383161274818 28.4026
32.88722585534586 28.3369
32.91044014056596 28.4577
32.933655814909734 28.4124
32.95687287957963 28.4028
32.98027273544904 28.3421
33.00349259526636 28.1796
33.026713849030116 28.1102
33.04993649794511 28.2136
33.073341986570746 28.1692
33.09656744032826 28.1689
33.11979429286444 28.2049
33.14302254538647 28.2362
33.166433686291185 28.1222
33.18966475336992 28.0449
33.212897224069096 27.9235
33.23613109959831 27.9833
33.259547912343415 27.9238
33.2827846121627 27.9534
33.306022720453775 27.9003
33.32926223842861 27.6918
33.352684742614166 27.774
33.37592709463173 27.7983
33.399170859982064 27.6983
33.422597648419426 27.6475
33.44584425514446 27.4515
33.46909227885668 27.4277
33.4923417207723 27.3713
33.51577423505344 27.5113
33.539026528130385 27.2875
33.56228024307245 27.2787
33.585535381098246 27.1455
33.60897364093058 27.0647
33.63223163992385 27.0745
33.6554910656699 26.9596
33.678751919389796 27.0417
33.702195944520106 27.0486
33.72545966903325 27.0109
33.74872482519663 26.8607
33.771991414233746 26.9475
33.79544122444841 26.9321
33.81871069412428 26.7854
33.84198160035767 26.7292
33.86525394437455 26.7778
33.88870955949969 26.6586
33.911984794020626 26.6268
33.93526147001624 26.6112
33.958539588715006 26.5312
33.98200102861669 26.4282
34.0052820477047 26.4338
34.02856451319451 26.3745
34.05203033759056 26.2885
34.07531571090147 26.3298
34.09860253431845 26.3203
34.121890809074316 26.2903
34.145362493118924 26.2699
34.16865368561615 26.2029
34.191946333164054 26.1422
34.21524043699793 26.0474
34.23871800066799 25.9193
34.26201503218366 25.9216
34.28531352370466 25.8917
34.30861347646881 25.8844
34.33209693978188 25.9104
34.3553998301885 25.9164
34.378704185565205 25.7946
34.402010007152356 25.7332
34.42549939016683 25.7699
34.44880815937748 25.6989
34.472118398533134 25.6131
34.49543010887669 25.5888
34.51892543169198 25.4525
34.54224009966052 25.5263
34.56555624255917 25.4521
34.58887386163339 25.3533
34.61237514439016 25.2974
34.6356957311114 25.3366
34.65901779775809 25.3206
34.68252356662995 25.2953
34.705848608458616 25.1936
34.72917513396849 25.1477
34.75250314440949 25.1292
34.77601490857862 25.1119
34.799345904259795 24.9767
34.82267838863559 25.035999999999998
34.846012362958525 25.0633
34.869530142679984 24.9575
34.89286711232212 24.9396
34.91620557568269 24.9363
34.93954553401677 24.8778
34.9630693495876 24.7594
34.986412313340814 24.7209
35.00975677584668 24.7213
35.033102738362956 24.6407
35.05663261012228 24.6906
35.0799815881786 24.6632
35.10333207003229 24.5942
35.12668405694369 24.5472
35.150220005273056 24.5679
35.17357501786656 24.6128
35.19693153931268 24.5346
35.220289570874385 24.5242
35.24383161619786 24.5292
35.267192683604904 24.5236
35.290555264930376 24.3512
35.314101899412165 24.4853
35.33746752422433 24.3173
35.36083466676374 24.3217
35.38420332829803 24.2293
35.407756095629054 24.3687
35.43112781085063 24.3808
35.45450104888391 24.2848
35.477875810999194 24.2155
35.50143473172161 24.2361
35.52481255774625 24.2661
35.54819191167777 24.0668
35.57157279478914 24.0332
35.595137889488406 24.0595
35.61852184675279 23.9706
35.641907337029984 23.9365
35.665294361595684 23.8615
35.68886565090076 23.8835
35.7122557598848 23.8265
35.73564740699838 23.8214
35.759040593519934 23.801
35.78261809810353 23.730999999999998
35.80601437933051 23.65
35.829412203814705 23.518
35.85281157283719 23.5347
35.876395313415884 23.6023
35.8997977874528 23.4757
35.92320180988546 23.4663
35.946790244133936 23.3601
35.97019737933222 23.4072
35.993606066789866 23.3818
36.01701630779276 23.3689
36.04061101440684 23.353
36.06402437852291 23.3147
36.08743930005611 23.328000000000003
36.1108557802951 23.1253
36.13445678011326 23.1667
36.15787639383515 23.1321
36.18129757014299 23.1327
36.20472031032821 23.0853
36.22832762423364 22.978
36.25175350829375 23.0477
36.275180960119776 22.9416
36.298609981005924 22.9979
36.32222362992669 22.8676
36.34565580510207 22.8555
36.36908955323448 22.8272
36.39252487562093 22.706
36.416144880530226 22.6818
36.43958336764275 22.7049
36.463023432914625 22.7636
36.486465077645676 22.6503
36.51009145956204 22.6543
36.53353627947859 22.6728
36.55698268276811 22.7011
36.58043067073321 22.6537
36.60406345072071 22.4897
36.62751462435344 22.4671
36.65096738658405 22.5109
36.67460498210655 22.4577
36.69806093788647 22.4392
36.72151848619297 22.3187
36.744977628333636 22.3605
36.76862165890998 22.2219
36.79208400512205 22.2536
36.81554794910557 22.3222
36.83901349217101 22.2102
36.862663978991606 22.1532
36.88613273667352 22.1199
36.90960309738324 22.1024
36.933075062434064 21.9348
36.95673202673572 21.9764
36.98020721697122 21.9364
37.003684015502365 21.8494
37.027162423645365 21.8645
37.050825886711465 21.9271
37.07430753063053 21.7614
37.09779078812467 21.7777
37.121275660513014 21.6895
37.144945643673694 21.6433
37.16843376245278 21.6507
37.19192350009803 21.7091
37.215414857931435 21.6377
37.239091382563885 21.5246
37.262585997426164 21.5045
37.28608223645736 21.5114
37.309763684451696 21.4704
37.33326318851098 21.3925
37.356764320726555 21.4211
37.380267082425526 21.4193
37.40395510942588 21.3434
37.42746114683234 21.3129
37.45096881771841 21.2789
37.474478123414166 21.2861
37.49817275092816 21.2817
37.52168534303452 21.2462
37.54519957395567 21.1309
37.568715445024665 21.1448
37.592416694607714 21.0466
37.61593586281424 21.0456
37.63945667518264 21.0517
37.66297913304891 21.0118
37.68668702630454 20.9781
37.710212792059274 20.8901
37.733740207334854 20.904
37.757269273470364 20.8769
37.780983832050374 20.7407
37.80451621684926 20.7957
37.82805025654007 20.8422
37.851585952464795 20.7484
37.8753071980695 20.6502
37.89884622345676 20.6226
37.92238690911902 20.677
37.94611318753442 20.544
37.969657210779765 20.5558
37.99320289834801 20.5126
38.016750251586465 20.4136
38.04048325513017 20.409000000000002
38.06403395679343 20.4074
38.087586328183946 20.3174
38.11114037065203 20.3343
38.13488012115898 20.3406
38.1584375229181 20.3519
38.181996599821 20.2101
38.205557353221124 20.2822
38.229303872575656 20.2379
38.2528679961576 20.1862
38.27643380031219 20.1091
38.30000128639589 20.0887
38.32375459653193 20.0369
38.34732546371299 20.0284
38.37089801690786 20.0223
38.39447225747609 19.973
38.418232380377425 19.952
38.441810012983396 19.9234
38.46538933705673 19.8704
38.488970353960084 19.8832
38.51273731166058 19.86
38.536321731567014 19.7804
38.55990784840681 19.7589
38.58367995004091 19.7556
38.60726947812959 19.6555
38.63086070726198 19.695
38.654453638806274 19.6337
38.678232613930824 19.5234
38.70182896773327 19.4838
38.72542702806741 19.5099
38.7490267963045 19.4922
38.77281266709232 19.4903
38.79641586862214 19.4193
38.8200207821842 19.4091
38.843627409152944 19.4208
38.86742019782782 19.3245
38.891030269149255 19.2691
38.914642058016156 19.2466
38.938255565806124 19.2328
38.96205529464307 19.1818
38.98567225787121 19.2134
39.00929094417078 19.1317
39.03291135492255 19.1465
39.05671804624804 19.1081
39.080341923549106 19.0535
39.103967529460334 19.0566
39.127594865365744 18.9862
39.15140854155791 18.9632
39.17503935514948 19.0145
39.19867190290282 18.9683
39.22249083587951 18.884
39.24612686969409 18.8446
39.269764641845306 18.8606
39.293404153722804 18.8567
39.317230110864074 18.7326
39.34087311998506 18.6705
39.36451787301696 18.7092
39.388164371352595 18.6143
39.41199737518003 18.6104
39.43564738196752 18.6057
39.45929913825317 18.5212
39.48295264543308 18.5145
39.506792718520884 18.4988
39.530449745387216 18.4647
39.55410852735203 18.4672
39.57776906581474 18.4563
39.60161623079 18.4016
39.625280300200025 18.454
39.64894613032202 18.3745
39.67261372255866 18.3346
39.6964680021016 18.3127
39.72013913657293 18.2855
39.74381203738292 18.2796
39.76748670593756 18.2331
39.79134812278169 18.2277
39.81502634488497 18.184
39.83870633896685 18.1217
39.862388106436654 18.0976
39.88625668336918 18.0367
39.90994201572829 18.0462
39.933629125719285 17.9925
39.957503091207826 17.9899
39.9811937746168 17.9689
40.00488623990914 17.9211
40.02858048850006 17.9246
40.05246165409549 17.8628
40.076159487492085 17.8084
40.099859108448875 17.8463
40.123560518384345 17.7542
40.1474489070226 17.7567
40.171153913178564 17.701
40.194860712584955 17.7073
40.2185693066637 17.7226
40.242464941335314 17.6019
40.26617714307655 17.5471
40.289891143772046 17.6049
40.3136069448471 17.577
40.33750984859743 17.5288
40.3612292688043 17.5424
40.3849504936829 17.4702
40.40867352466194 17.4251
40.43258372059144 17.4429
40.45631038219906 17.4508
40.48003885420956 17.3716
40.503769138055105 17.3086
40.52768664931955 17.3804
40.55142057531802 17.3986
40.57515631746428 17.244
40.599079334038514 17.2107
40.62281872700477 17.1726
40.64655994043941 17.166
40.67030297578061 17.1514
40.69423334835778 17.0951
40.71798004609188 17.1002
40.74172857006355 17.0514
40.76547892171441 17.0851
40.7894166736039 17.051
40.813170699248566 17.0045
40.83692655691388 17.0105
40.86068424804498 16.9768
40.884629402612525 16.9211
40.908390779366385 16.8793
40.932153993938 16.8787
40.95591904777605 16.8349
40.979871628443995 16.8546
41.003640379561936 16.8022
41.02741097430883 16.8184
41.05118341413683 16.7491
41.075143444384416 16.7166
41.098919593177826 16.668
41.1226975914255 16.6857
41.14647744058318 16.5876
41.170444943946755 16.5689
41.19422851378379 16.6254
41.218013938914645 16.5348
41.24198706625173 16.5065
41.26577622087193 16.4638
41.289567235177785 16.3856
41.31336011063129 16.3619
41.337340752422875 16.3847
41.361137369129835 16.3827
41.38493585138705 16.38
41.40873620066004 16.3092
41.43272438060107 16.2292
41.45652848292052 16.1967
41.48033445666918 16.204
41.50414230331616 16.133
41.528138045159764 16.1789
41.551949656675205 16.1137
41.575763145513235 16.0683
41.59957851314666 16.0431
41.62358184070442 16.0246
41.64740098505737 15.9916
41.6712220126409 16.0061
41.69504492493139 16.0009
41.71905586207357 15.9705
41.74288256296395 15.9672
41.766711153007456 15.9215
41.79054163368412 15.847000000000001
41.814560204340054 15.8418
41.838394485526365 15.8373
41.86223066180303 15.7656
41.88625497706819 15.713
41.910094962812 15.7051
41.93393684811168 15.6614
41.95778063445365 15.6033
41.981812625263366 15.6304
42.00566023303407 15.6222
42.029509746323676 15.5854
42.05336116662236 15.5713
42.077400857069705 15.5179
42.10125611078846 15.5044
42.12511327600405 15.5185
42.14897235421036 15.48
42.173019768448455 15.4319
42.19688269209613 15.4016
42.22074753323349 15.405999999999999
42.24461429335818 15.3855
42.268669455600495 15.3375
42.292540073217886 15.2923
42.31641261433284 15.2851
42.34028708044675 15.3001
42.36435001496739 15.2667
42.38822835065557 15.276
42.41210861586426 15.1937
42.4359908120986 15.1673
42.46006154323262 15.1067
42.48394762115317 15.1278
42.507835634632315 15.1057
42.531912233047436 15.0751
42.55580413732265 15.0581
42.579697981698 15.0242
42.60359376768525 14.9701
42.62767820545945 14.9694
42.65157789440821 14.956
42.67547952952185 14.9332
42.699383112316 14.8934
42.72347541395347 14.8486
42.74738291190531 14.8167
42.771292362102166 14.7967
42.795203766063516 14.7924
42.819303956130405 14.7575
42.843219287476536 14.6803
42.86713657716324 14.7001
42.89105582671383 14.7142
42.91516392983864 14.6832
42.939087119032166 14.6947
42.963012272677304 14.5935
42.98693939230129 14.5854
43.01105543317513 14.5468
43.034986504731386 14.5673
43.05891954686589 14.4889
43.08285456110972 14.4321
43.10697856448665 14.4112
43.130917542983475 14.4053
43.15485849820081 14.4253
43.17880143167367 14.4013
43.20293342237094 14.3311
43.226880332449 14.3584
43.25082922540554 14.3472
43.27496722682525 14.3216
43.29892010567796 14.2475
43.32287497204102 14.2207
43.34683182745632 14.1743
43.370977859791836 14.1506
43.39493871351105 14.145
43.41890156092628 14.1642
43.44286640358341 14.1434
43.46702049182749 14.113
43.49098934522816 14.0446
43.51496019852649 14.0146
43.5389330532723 14.0237
43.56309522248204 13.9599
43.58707210044314 13.9744
43.61105098451946 13.9511
43.63503187626491 13.8944
43.659202151562134 13.8963
43.68318707902681 13.9477
43.70717401884041 13.8597
43.731162972560874 13.8491
43.75534137913236 13.8167
43.779334381108384 13.7704
43.803329401683186 13.7176
43.82732644241872 13.7069
43.8515130055166 13.705
43.87551410707659 13.6315
43.89951723350145 13.6736
43.923709934595614 13.6636
43.94771713129917 13.6162
43.97172635758096 13.6241
43.99573761501002 13.5738
44.0199385169922 13.5425
44.04395385732619 13.5145
44.067971233533086 13.4971
44.09199064718605 13.4534
44.11619977548961 13.4407
44.14022328470671 13.4588
44.16424883610785 13.4771
44.18827643127035 13.3963
44.21249381139513 13.3084
44.236525514814076 13.2761
44.26055926674478 13.3081
44.28459506876863 13.2844
44.3088207262813 13.2586
44.33286064928722 13.247
44.35690262714919 13.2393
44.38094666145278 13.1985
44.4051806219871 13.1986
44.42922879003185 13.1635
44.45327901929361 13.0939
44.477331311362136 13.1159
44.501573600619416 13.0588
44.525630039221795 13.0609
44.54968854541895 13.0421
44.573937102200176 13.029000000000002
44.5979997645541 12.9935
44.622064499300315 12.9863
44.64613130803592 12.9594
44.67038823869318 12.9974
44.69445921643748 12.9096
44.718532272981385 12.8117
44.742607409926194 12.8583
44.76687274034801 12.8358
44.79095205918753 12.776
44.81503346325094 12.7622
44.839116954143876 12.7631
44.86339071028742 12.698
44.88747839599524 12.7159
44.91156817336837 12.6786
44.93566004401666 12.634
44.959942251908146 12.6658
44.984038330325966 12.689
45.00813650686762 12.5894
45.03223678314731 12.6141
45.05652746888232 12.5383
45.08063196592069 12.4936
45.104738567558705 12.4792
45.128847275414856 12.5187
45.15314646515866 12.4371
45.17725940679741 12.4448
45.20137445952892 12.3827
45.22568004865265 12.3952
45.24979934496396 12.3738
45.27392075725247 12.3613
45.29804428714431 12.3211
45.322358426247604 12.3769
45.346486212804315 12.2964
45.370616121861914 12.2893
45.39474815505086 12.2375
45.41907087049246 12.2442
45.4432071734666 12.2173
45.46734560548283 12.2424
45.49148616817604 12.1856
45.51581748638564 12.1653
45.5399623320197 12.1068
45.56410931325473 12.1001
45.58825843173002 12.1187
45.61259837920865 12.0623
45.636751793816 12.0641
45.66090735060093 12.0177
45.68506505120716 11.9844
45.7094136545275 11.9592
45.73357566449271 11.9244
45.75773982322992 11.9137
45.78190613238733 11.9131
45.806263418194064 11.8434
45.83043404997326 11.8833
45.85460683713677 11.8825
45.87897065658495 11.832
45.90314777634752 11.7904
45.92732705646868 11.7786
45.9515084986045 11.773
45.97588104735473 11.7513
46.00006683541565 11.7114
46.02425479047904 11.7064
46.04844491420549 11.6603
46.0728262191024 11.6734
46.09702070211635 11.6388
46.12121735879483 11.6276
46.14541619080294 11.5939
46.169806278764455 11.5619
46.194009483459034 11.5569
46.21821486849841 11.5128
46.24242243555223 11.4681
46.266821333570014 11.4446
46.29103328674601 11.4206
46.31524742696538 11.4701
46.33946375590237 11.4729
46.36387149104216 11.3942
46.38809221957392 11.3558
46.41231514186606 11.3455
46.436540259597464 11.3751
46.460956858999374 11.3441
46.48518638983522 11.3455
46.509418121166966 11.3446
46.533652054678114 11.2578
46.55807754555709 11.2095
46.58231590571962 11.216
46.60655647313217 11.1844
46.630988654873654 11.1703
46.655233659129024 11.0947
46.67948087571551 11.1434
46.70373030632484 11.1146
46.72817142736393 11.1236
46.752425308428684 11.1095
46.77668140861147 11.0332
46.80093972960865 10.9627
46.82538981736788 10.9939
46.849652602470904 11.0075
46.87391761349769 10.9963
46.8981848521493 10.9609
46.9226439341274 10.8968
46.946915650573224 10.8943
46.97118959976749 10.902000000000001
46.99546578341598 10.8754
47.019933887188216 10.8433
47.04421456235744 10.8041
47.06849747711879 10.7612
47.09278263318286 10.8051
47.11725978640143 10.7379
47.14154944775105 10.7196
47.165841355555656 10.6947
47.1901355115306 10.7099
47.214621741924994 10.6889
47.23892041698887 10.7213
47.26322134538975 10.6321
47.28771440635075 10.609000000000002
47.31201986422527 10.6281
47.33632758061436 10.5446
47.360637557241866 10.4936
47.38513974410611 10.5399
47.40945426407847 10.5547
47.43377104948137 10.5227
47.45809010204344 10.478
47.48260144275502 10.468
47.506925052572285 10.413
47.53125093475548 10.4196
47.55557909103813 10.4031
47.58009961361992 10.3885
47.60443234110732 10.3416
47.62876734791564 10.3613
47.65310463578333 10.3442
47.6776343683373 10.3236
47.7019762413987 10.3086
47.72632040075572 10.2677
47.75066684815169 10.2641
47.77520581885936 10.2229
47.799556865477655 10.2137
47.823910205386 10.1955
47.84826584033272 10.2208
47.87281407745551 10.1749
47.89717432569297 10.1577
47.92153687423484 10.1729
47.94609208429692 10.1262
47.97045925671401 10.101
47.99482873471275 10.0761
48.01920052005013 10.027999999999999
48.04376504619224 10.0361
48.068141469543484 10.029
48.09252020552573 10.0042
48.11690125590099 9.97038
48.1414751266064 9.972760000000001
48.16586082917454 9.96768
48.19024885144316 9.923
48.2146391951793 9.9004
48.239222439012764 9.89676
48.26361744916137 9.85661
48.28801478610016 9.88376
48.31241445160131 9.86484
48.337007097209366 9.7873
48.36141144338331 9.820319999999999
48.38581812345755 9.75206
48.41022713920929 9.782869999999999
48.434829215320704 9.76383
48.45924292604658 9.75866
48.48365897780325 9.75808
48.50807737237308 9.74894
48.532688907799276 9.69116
48.55711201168574 9.66573
48.581537463754074 9.65894
48.60615611725119 9.65598
48.63058628942721 9.64348
48.65501881516546 9.59634
48.6794536962573 9.590019999999999
48.70408185970339 9.59678
48.72852147531801 9.53905
48.75296345168211 9.50296
48.77740779059232 9.53943
48.80204549302823 9.51109
48.82649458091802 9.46702
48.85094603676547 9.4528
48.87539986237231 9.42958
48.90004713292306 9.4692
48.92450572200832 9.44793
48.94896668628025 9.38609
48.97343002754588 9.358080000000001
48.99808689542115 9.40085
49.02255501470614 9.396989999999999
49.04702551642794 9.32808
49.0714984023988 9.29089
49.096164896893235 9.26891
49.120642575466796 9.280380000000001
49.145122643748394 9.23591
49.16960510355558 9.21389
49.19428125404938 9.202119999999999
49.2187685210852 9.1771
49.243258185121555 9.17768
49.26794160167084 9.14777
49.2924360839405 9.10435
49.31693296869764 9.07775
49.34143225776915 9.10866
49.36612538195438 9.10135
49.39062950396021 9.08072
49.41513603578346 9.04832
49.4396449792564 9.00833
49.46434784069503 8.99288
49.488861631846454 9.011619999999999
49.513377840166804 9.007719999999999
49.537896467493745 8.97965
49.56260909589029 8.92881
49.587132585683285 8.95527
49.611658500018365 8.92298
49.636186840738596 8.91351
49.66090926588511 8.90053
49.685442483902584 8.8546
49.70997813385706 8.85603
49.734516217597076 8.85031
49.75924846937352 8.81211
49.7837914452858 8.77232
49.80833686055187 8.76952
49.83288471702571 8.7522
49.85762682540054 8.7676
49.882179588965734 8.75709
49.9067347993235 8.694980000000001
49.93129245833333 8.67941
49.95604445336378 8.6827
49.98060703442832 8.6948
50.005172069746266 8.656839999999999
50.02993150438364 8.638869999999999
50.05450147301533 8.62824
50.07907390151433 8.59538
50.10364879174981 8.6091
50.12841816587289 8.572389999999999
50.1529980044635 8.51666
50.17758031042124 8.51912
50.20216508562089 8.54747
50.22694442953363 8.50421
50.25153416817468 8.45145
50.27612638170508 8.461039999999999
50.300721072005196 8.42046
50.325510416102105 8.38917
50.350110084975064 8.412410000000001
50.37471223628208 8.42656
50.39931687190919 8.37556
50.424116246675766 8.36166
50.44872587605249 8.33728
50.47333799543065 8.35251
50.49795260670191 8.32736
50.52276204271512 8.32056
50.54738166295838 8.27717
50.57200378079314 8.26411
50.596628398116835 8.27308
50.62144792604559 8.250010000000001
50.646077567609396 8.203330000000001
50.670709714377715 8.199710000000001
50.69553683636198 8.18806
50.72017401885922 8.1777
50.7448137122895 8.17107
50.76945591856022 8.15418
50.79429318636823 8.120989999999999
50.818940443716784 8.12456
50.84359021965163 8.10864
50.868242516085964 8.11257
50.893089960641895 8.102739999999999
50.917747323549435 8.03252
50.94240721271973 8.00513
50.96706963007175 7.9673300000000005
50.99192728239342 7.98297
51.01659478166073 7.9907
51.04126481489051 7.939310000000001
51.06593738400761 7.940910000000001
51.090805275207074 7.9424399999999995
51.11548294172845 7.938860000000001
51.14016314993547 7.900289999999999
51.164845901758845 7.8883600000000005
51.18972406304274 7.8810899999999995
51.21441192780656 7.885610000000001
51.23910234200271 7.88665
51.2637953075678 7.82635
51.288683770237945 7.7942
51.31338186432707 7.793989999999999
51.33808251561888 7.784889999999999
51.362978729967345 7.76731
51.387684521509755 7.756419999999999
51.41239287610203 7.75352
51.437103795691165 7.68485
51.46201036644977 7.67992
51.486726441956634 7.698239999999999
51.51144508832545 7.6908199999999995
51.536166307509156 7.6428899999999995
51.56108326624387 7.598310000000001
51.58580965706056 7.595330000000001
51.61053862657523 7.60895
51.635270176746864 7.57022
51.66019755512065 7.584919999999999
51.68493429268881 7.54445
51.70967361681515 7.53518
51.73441552946465 7.53552
51.759353359237934 7.54414
51.7841004750961 7.52152
51.80885018539685 7.48526
51.833602492111254 7.48808
51.8585508051424 7.4522699999999995
51.883308330926425 7.465160000000001
51.90806845906181 7.4418
51.932831191525715 7.37587
51.95779001977161 7.375189999999999
51.98255798721516 7.362260000000001
52.00732856494335 7.36786
52.03229530577543 7.341589999999999
52.057071130455945 7.30922
52.081849571391054 7.27509
52.106630630568695 7.302560000000001
52.13160794279417 7.2896
52.15639426492067 7.2693
52.18118321127822 7.26041
52.205974783860896 7.242369999999999
52.23096269971011 7.2183399999999995
52.255759551287994 7.18227
52.280559035098186 7.19035
52.30536115314103 7.15756
52.33035970494467 7.1673800000000005
52.35516711807904 7.1705
52.37997717147198 7.1071800000000005
52.40478986713005 7.12179
52.42979908731974 7.09554
52.454617094216 7.09704
52.47943774942214 7.066139999999999
52.50426105495102 7.0635699999999995
52.529280976059844 7.05628
52.554109609024096 7.04013
52.57894089837482 7.00104
52.60377484613117 6.96802
52.62880550079408 6.99998
52.65364479223379 6.963310000000001
52.67848674816189 6.90292
52.70352547971946 6.94539
52.72837279155837 6.93967
52.753222773982785 6.9052
52.778075429022984 6.912960000000001
52.80312495150885 6.92208
52.827982978797436 6.843089999999999
52.85284368481815 6.856260000000001
52.87770707160767 6.81358
52.90276741793998 6.79063
52.92763619336701 6.80553
52.952507655698504 6.802510000000001
52.977381806977576 6.81675
53.00245301017842 6.807119999999999
53.02733256653592 6.788310000000001
53.052214817996074 6.761830000000001
53.077099766608484 6.77533
53.102181859804446 6.72075
53.127072229988265 6.72543
53.15196530349892 6.678539999999999
53.17686108239249 6.7028
53.20195409881522 6.676480000000001
53.22685531582556 6.673760000000001
53.25175924441303 6.625960000000001
53.27666588664027 6.6071
53.30176985962693 6.5930100000000005
53.3266819565689 6.61797
53.35159677336455 6.59623
53.376514312083096 6.5892
53.40162927507703 6.55864
53.42655228516116 6.53001
53.45147802340193 6.50655
53.47660125628886 6.49257
53.50153247842639 6.49301
53.52646643496923 6.47342
53.55140312799818 6.500290000000001
53.576537409691696 6.47344
53.60147960336152 6.42095
53.626424539786164 6.4221900000000005
53.65137222105307 6.40826
53.67651758529126 6.3842099999999995
53.70147078399681 6.3113
53.72642673383343 6.32987
53.75138543689533 6.32031
53.776541917524526 6.3506
53.801506154876755 6.31285
53.826473151763246 6.27822
53.851442910284916 6.29448
53.87661054126026 6.28239
53.9015858509782 6.24932
53.92656392866066 6.18698
53.95154477641532 6.22789
53.976723591801296 6.232530000000001
54.00171000771266 6.216419999999999
54.02669920004598 6.235930000000001
54.051691170915745 6.20023
54.076881204886796 6.16933
54.101878760928514 6.1513599999999995
54.12687910187696 6.12617
54.152077577768296 6.11221
54.1770835166946 6.09681
54.20209224691339 6.10958
54.22710377055121 6.11485
54.25231352511594 6.08367
54.27733066384342 6.02886
54.30235060239643 6.03756
54.32737334290836 6.0235199999999995
54.35259441062629 5.99103
54.377622783395324 5.9556
54.40265396455061 5.96884
54.42768795623251 5.9583900000000005
54.45292037169559 5.89069
54.477960012857906 5.90271
54.50300247099511 5.92773
54.52804774825457 5.91188
54.55329154616743 5.876530000000001
54.57834249018678 5.837619999999999
54.6033962597977 5.82967
54.6284528571545 5.8163
54.653708072335164 5.74718
54.67877035378786 5.76405
54.70383546947698 5.71692
54.72890342156389 5.67066
54.7541700889442 5.6987
54.77924374251975 5.6535
54.8043202390049 5.66599
54.82959552413022 5.64246
54.8546777351945 5.6119
54.87976279569621 5.58182
54.90485070780914 5.5987
54.930137506558005 5.54552
54.95523115074295 5.55098
54.98032765308844 5.53754
55.005427015775496 5.44992
55.03072536339621 5.53337
55.05583047570572 5.48321
55.080938454927676 5.443309999999999
55.10604930325027 5.44992
55.131359235107396 5.44911
55.15647585066083 5.4373
55.181595341907496 5.36233
55.20671771104285 5.36076
55.232039262617704 5.29424
55.25716741665048 5.30045
55.28229845518636 5.26269
55.30743238042802 5.2405800000000005
55.33276558731939 5.20589
55.357905315183636 5.20437
55.383047936390035 5.14722
55.40819345314859 5.13237
55.433538351073295 5.1147599999999995
55.458689688238415 5.1207400000000005
55.483843927614096 5.07174
55.509197623043605 5.01788
55.53435769621134 5.05354
55.55952067826466 5.00866
55.5846865714265 5.01308
55.61005202069737 4.95564
55.63522376553902 4.95403
55.66039842818645 4.93088
55.68557601087004 4.9862400000000004
55.7109532500271 4.92136
55.73613670233794 4.8551400000000005
