TT I
1.2716486653135266 7.82298
1.2939594142134223 7.610130000000001
1.3162702121660406 6.713019999999999
1.3385810600174564 6.81658
1.3608919586137629 7.19906
1.383202908801069 6.591889999999999
1.405513911425503 6.47695
1.4278249673332093 6.25274
1.4501343378461518 6.25625
1.4724455028545926 6.12475
1.4947567236847858 6.7409
1.517068001182951 6.44594
1.5393793361953272 6.01192
1.5616907295681737 6.1587
1.5840021821477681 5.51914
1.60631369478041 5.1630199999999995
1.6286252683124185 5.34172
1.6509369035901333 5.96571
1.6732468618895553 5.28155
1.695558623192809 5.40032
1.7178704487808514 6.32252
1.7401823395001077 5.19031
1.7625012545597203 4.67518
1.7848028405262486 5.55871
1.8071218901122095 4.75253
1.8294236121921872 4.62624
1.8517427996910911 5.0169
1.8740620574440425 4.77766
1.8963639900671978 4.9191199999999995
1.9186833908139995 4.64927
1.9409854680117449 5.21094
1.9633050151394713 5.09502
1.9856246367570705 4.5210300000000005
2.0079269371922672 4.72185
2.03024671027244 4.69255
2.0525491637446027 4.66202
2.074869091674931 4.606240000000001
2.097171701569106 4.72628
2.1194917877373847 4.5707699999999996
2.141811954326636 4.307230000000001
2.164114805233074 4.2903199999999995
2.186435135143035 4.39887
2.208738150935709 5.01663
2.231058647554722 4.41731
2.2533792288321184 4.3982
2.275682498336085 4.49791
2.298003251406138 4.29472
2.3203066942619714 4.9553199999999995
2.3426276225136022 4.01999
2.3649486396617507 4.368180000000001
2.387252348930071 4.22391
2.4095735463442893 3.80075
2.4318774374315884 3.88565
2.4541988185014043 4.09321
2.476502894794693 4.226030000000001
2.498824462909887 4.76685
2.521146125856138 5.341069999999999
2.5434504863470337 4.58911
2.5657723414244717 5.27765
2.588076895590662 5.37946
2.610398946189713 5.69418
2.6327210958598384 4.47538
2.6550259469304716 4.850230000000001
2.6773482972090137 5.95988
2.6996533504259 6.07446
2.7219759047039602 6.47701
2.744298562293959 6.1218
2.7666039251246595 6.60058
2.7889267918020164 6.65203
2.8112323652516555 6.7079699999999995
2.833555444408179 7.13323
2.8558786311183852 7.421939999999999
2.8781845268938557 7.77199
2.9005079311721484 7.86591
2.9228140460410397 8.63112
2.9451376712799635 8.76631
2.967444008632326 9.39657
2.9897678582247247 9.92216
3.0120918213106695 10.356
3.0343984987899373 10.8657
3.0567226913198637 11.6906
3.079029599759726 11.7031
3.101354025127254 12.8017
3.123678568232338 12.8408
3.145985829517914 13.2668
3.16831061055229 13.7618
3.1906181112775593 14.6561
3.212943133635653 14.4163
3.2352682779763207 15.2335
3.2575761442691227 15.4523
3.2799015350264273 15.9643
3.302209649240067 16.4351
3.3245352898092655 16.8104
3.3468436553365257 17.3234
3.369169549113219 18.0898
3.3914955708171384 18.464000000000002
3.413804319727358 18.5288
3.4361305997334863 18.9789
3.4584396084414553 19.5055
3.4807661501462652 20.2194
3.503092824025881 20.3412
3.5254022288463154 20.6436
3.5477291695206588 21.0766
3.5700388426251948 21.3905
3.5923660534916446 21.7499
3.6146934007816114 22.1412
3.637003482731501 22.5728
3.6593311053109985 22.983
3.681641464033634 23.3824
3.7039693653009733 23.6681
3.726297407241705 24.4373
3.7486081875460804 24.319000000000003
3.7709365132734978 25.1141
3.793247578841633 25.6214
3.8155761917550093 26.3065
3.8378875459837216 26.5202
3.8602164494827234 26.9778
3.882545499606844 27.3913
3.9048572932539183 28.0772
3.9271866390645718 28.2926
3.9494987298666713 28.7947
3.971828374764527 29.497
3.9941581705403255 29.8024
4.016470713506008 30.3793
4.038800813471445 30.6728
4.061113662089144 31.1634
4.0834440696459176 31.7724
4.105774632334751 32.5992
4.128087945865126 33.4738
4.150418821249301 33.3962
4.172732448931298 34.4602
4.195063640413578 34.6961
4.2173775856475215 35.9799
4.239709096631102 36.608000000000004
4.262040768704612 36.7329
4.284355196706267 37.010999999999996
4.306687193387355 38.3492
4.329001947444346 39.6145
4.35133427213731 39.7883
4.373666762177566 40.7049
4.395982011761091 41.4243
4.418314834921175 42.4807
4.44063041906622 43.5364
4.4629635787515625 43.7826
4.4852969080429785 44.7952
4.5076130004776225 46.4987
4.529946671403969 47.8285
4.552263106909177 48.3044
4.574597122877047 49.4133
4.596931312711224 51.2467
4.619248269273446 52.0288
4.6415828092605835 52.9614
4.663900117405352 54.1164
4.686235010953232 55.6672
4.708552674085913 56.9806
4.730887924602802 58.5153
4.753223354952695 59.9886
4.775541557023902 61.6196
4.797877349456786 62.8059
4.820195915032126 65.2563
4.842532072957498 66.6634
4.864868414979744 68.7345
4.88718753227192 70.7852
4.909524244902505 73.0477
4.931843734218147 75.7554
4.954180820867835 78.943
4.976518095879839 82.3889
4.998838149695359 86.1328
5.021175803844231 91.3024
5.043496238205739 95.3529
5.065834274903528 101.36
5.088172504230693 108.118
5.1104935158799565 116.98700000000001
5.132832132875765 130.187
5.155153533596801 152.605
5.1774925416746225 203.71900000000002
5.199814334878411 523.556
5.2221537374521505 1871.05
5.244493338631803 3751.74
5.266815727034316 5599.67
5.289155727832427 8603.08
5.311478517248165 9785.68
5.333818921080011 6161.69
5.356159527788849 1781.67
5.3784829252032536 406.126
5.400823940070432 204.456
5.423147747031976 159.457
5.445489173474152 137.916
5.467830807066149 126.76700000000001
5.490155234831516 119.84700000000001
5.512497285125229 113.84299999999999
5.534822130975162 110.89
5.557164601388673 107.831
5.579489868738879 104.179
5.601832762690846 101.65899999999999
5.6241758697774475 99.9785
5.646501775867269 99.5304
5.668845311622074 98.3108
5.691171647754637 97.6921
5.713515615597765 96.6039
5.735859800852677 95.7644
5.758186788542988 94.7389
5.780531411018185 95.3741
5.802858837297399 95.2241
5.825203900414495 95.9118
5.8475491852224 96.3394
5.869877275883075 97.9886
5.892223006467101 100.926
5.914551544266608 105.036
5.936897724049891 111.414
5.959244129804903 122.59
5.981573344815301 152.124
6.0039202049061 279.791
6.026249875609095 730.073
6.04859719346037 1371.88
6.070927323278297 1973.41
6.093275102315365 2879.17
6.115623113320588 3971.61
6.137953938319995 4006.49
6.160302415650845 2109.68
6.182633708324452 629.23
6.2049826554078376 200.50400000000002
6.227331838745022 119.52600000000001
6.249663839443684 98.1279
6.27201349767565 88.75299999999999
6.294345974611799 82.9518
6.316696111167083 78.2108
6.339046488263839 75.7451
6.361379686074702 73.0459
6.383730546639482 70.9228
6.406064229255215 68.7034
6.428415576718203 68.3423
6.450749747566656 66.7083
6.47310158535871 65.3459
6.495453669698332 64.6339
6.517788579421056 63.6635
6.540141159237969 62.6355
6.562476565766648 62.0809
6.5848296444934045 61.3989
6.607182974060425 60.7281
6.6295191323281015 59.8862
6.651872965955752 59.505
6.6742096296068985 58.6653
6.6965639707294615 58.6287
6.71891856698715 58.2761
6.741255995248479 57.3644
6.763611104154477 57.0888
6.785949046381137 56.8237
6.808304671371482 56.0099
6.8306605557940046 55.8103
6.852999275508618 55.5726
6.875355681171544 55.1067
6.897694923437771 55.0663
6.92005185377892 54.8575
6.9423916220322655 54.6984
6.964749080490181 53.9016
6.987106804399774 53.8356
7.009447368180821 54.1484
7.031805625367033 53.6368
7.054146723727803 53.4637
7.076505517631004 53.1542
7.098864581288365 53.1093
7.121206488070854 52.7823
7.143566093607822 52.6677
7.165908543567245 52.8045
7.188268694426048 52.7028
7.2106291193438095 52.5296
7.232972390625943 52.6519
7.255333366030969 52.2981
7.277677189091925 52.1541
7.300038718428332 52.3345
7.322400526130865 51.9941
7.344745183422596 52.4713
7.367107550224791 52.7994
7.389452767901992 52.4848
7.411815697249891 52.6771
7.434161478756298 51.9399
7.456524974096713 51.7876
7.478888753837185 52.1903
7.501235387657368 53.1967
7.523599738562711 55.5452
7.545946944825532 60.3405
7.568311870344528 61.8936
7.5906770845765665 58.318000000000005
7.613025156078678 55.0519
7.635390950099687 54.5486
7.657739602662809 53.9871
7.680105979923558 53.7904
7.702472650212829 54.4687
7.724822180948224 54.0861
7.747189439655568 54.5626
7.769539560075357 54.8003
7.791907410653562 55.1972
7.81425812420825 55.2135
7.836626570110925 55.7585
7.858995315087906 56.4578
7.881346924933401 56.7687
7.903716270417482 57.2229
7.926068482028405 57.593
7.948438431475253 57.9228
7.9708086843180235 58.5733
7.993161805171116 59.1055
8.015532667162402 60.0177
8.037886398416653 60.7401
8.060257873014221 60.8724
8.082629655331942 61.6881
8.104984308787587 62.3135
8.127356708900503 63.5762
8.149711981398308 64.1607
8.172085002766314 65.00399999999999
8.194458336181368 65.3638
8.216814543847752 66.8156
8.23918850371002 68.2483
8.26154533906492 69.2769
8.283919928836452 71.1799
8.306277395339652 72.5084
8.328652618483376 73.6669
8.351028159736202 75.8465
8.373386579575245 78.318
8.395762759396959 80.4631
8.418121819038275 84.0428
8.440498640894003 88.4646
8.462875785192262 95.535
8.485235811156207 109.485
8.507613602688501 171.21400000000003
8.529974277114228 360.76099999999997
8.552352719347912 589.606
8.574731488360351 773.2189999999999
8.59709314210385 923.706
8.619472567021075 1176.25
8.64183487789147 1588.03
8.664214962183097 1891.76
8.686577933647762 1621.9
8.708958680784317 916.6189999999999
8.731339760774953 396.615
8.753703729764451 170.217
8.77608547780821 114.806
8.798450116065078 103.47
8.820832535634787 97.3539
8.843215292401656 93.7064
8.865580941199045 91.26700000000001
8.887964374703538 89.5797
8.910330701447199 88.071
8.932714815164482 86.8279
8.955099270424924 85.6463
8.977466620733543 84.8239
8.999851761421976 84.515
9.022219798361645 83.514
9.04460562795561 83.3531
9.066991803441677 82.671
9.089360876979615 82.5853
9.111747746589993 82.4495
9.13411751544971 81.7252
9.156505082664324 81.6749
9.178875550323522 81.9173
9.20126381862328 82.4001
9.223652438908596 86.5481
9.246023961427412 93.6598
9.26841328802173 94.5426
9.290785518039224 90.3653
9.313175554425882 85.9195
9.335565947154315 83.1566
9.357939245086508 82.7611
9.380330352834827 82.8135
9.40270436697103 82.8687
9.425096193225055 82.4806
9.447488380180165 83.3736
9.469863475295412 83.6276
9.492256385987508 84.4009
9.514632206018318 84.484
9.537025843935714 84.7166
9.559402392368193 85.8445
9.581796761000229 86.6924
9.604191496441521 86.694
9.626569144158516 87.3728
9.648964615551032 88.4316
9.671343000390081 89.1967
9.693739211225699 90.2555
9.716135793237463 91.1374
9.738515290448102 92.1684
9.760912617143402 93.4953
9.783292860202891 94.9424
9.805690935076182 96.3154
9.828089385495742 97.29
9.850470754023561 99.5247
9.872869957865444 101.61
9.89525208097539 104.52799999999999
9.917652041736662 108.02799999999999
9.940052382417589 114.20700000000001
9.962435644102392 129.964
9.984836746950979 184.135
10.007220771957746 336.074
10.029622640473708 535.12
10.052007432299963 675.7719999999999
10.074410069984072 755.0269999999999
10.096813093716005 869.1410000000001
10.119199042482517 1095.29
10.141602840636468 1446.74
10.163989564971628 1703.05
10.186394141051062 1528.72
10.208799107559706 932.836
10.231187001965623 451.716
10.253592751657669 205.308
10.275981430388155 131.805
10.298387966769793 116.198
10.320794897965431 111.096
10.343184759907361 107.935
10.36559248305461 105.866
10.387983138083852 104.969
10.410391656691655 106.962
10.432800574501677 121.48100000000001
10.455192425893369 163.263
10.47760214443012 212.735
10.499994797678786 247.25
10.522405320453982 266.668
10.54479877906917 294.862
10.567210109595656 346.624
10.5896218454736 426.056
10.612016518879773 508.18300000000005
10.634429067781074 495.472
10.656824555333241 363.157
10.679237920773568 220.27
10.701651695961992 131.738
10.724048411481384 99.9242
10.746463008485165 90.6615
10.768860546937125 86.9178
10.791275969274796 84.2156
10.81369180576079 82.8668
10.836090585366925 81.0143
10.858507252467449 80.0285
10.88090686379991 78.5952
10.903324365036394 77.9632
10.925724811614439 76.5588
10.948143150509463 75.7958
10.970561909719066 75.0945
10.992963615930844 74.0829
11.015383218085756 73.3309
11.037785768347074 72.1659
11.06020621697282 71.9343
11.082627090322113 71.1359
11.105030913430326 70.7853
11.12745263854165 70.3091
11.149857314510728 69.4068
11.172279894912576 69.4203
11.194702904450653 68.5222
11.217108866490921 67.7811
11.239532736615194 67.1671
11.26193956033512 66.8198
11.284364294577085 66.9309
11.306789462371718 66.2739
11.329197585398376 65.7194
11.351623622610898 65.8998
11.37403261614354 65.2023
11.396459526308487 65.0473
11.418869393879497 64.49
11.441297180532617 63.9535
11.463725406927658 63.9819
11.486136592353875 63.5807
11.508565700543707 63.1108
11.530977768845315 63.3787
11.553407762368774 62.8035
11.575838200059769 62.951
11.598251599479612 62.3808
11.620682927815501 62.4954
11.64309721895548 62.5649
11.665529441478206 62.193000000000005
11.687962112597958 61.9171
11.710377748130886 62.3847
11.732811318753434 61.91
11.755227854859067 61.825
11.777662328529495 61.6381
11.800079768750786 61.4605
11.822515149015453 61.2985
11.844950984084935 61.9079
11.867369787303163 61.7956
11.889806534289491 61.7312
11.912226250487029 62.6935
11.934663912939751 64.2355
11.9571020346363 65.717
11.979523127133968 65.4144
12.001962169624331 65.0883
12.024384183972964 65.1333
12.046824150809913 67.8544
12.069264581333726 77.8211
12.091687985297767 90.5251
12.11412934550045 101.18799999999999
12.136553680195208 108.412
12.158995973632788 114.29700000000001
12.181438735204349 121.802
12.20386447284199 135.24200000000002
12.226308172985636 157.64
12.24873485024193 182.408
12.271179492516982 194.842
12.293607112949127 175.71599999999998
12.316052700916226 134.309
12.338498763250042 94.1813
12.360927805303868 73.3144
12.383374818673879 66.5168
12.405804812803074 64.4946
12.428252780773262 64.0315
12.45070122756722 63.7449
12.473132656675375 63.3085
12.49558206341869 63.5227
12.518014453510101 63.5517
12.540464823770117 63.5178
12.562915677315177 63.9411
12.58534951575545 64.1765
12.607801338171472 64.079
12.630236146511358 64.3265
12.652688941369085 64.6308
12.675124723177234 64.9257
12.697578494048786 65.6109
12.720032754458185 65.6329
12.742470003354093 66.0098
12.764925245138771 66.5694
12.787363476431278 66.9398
12.809819703166806 67.7502
12.83227642391173 68.4481
12.854716135692716 68.8201
12.877173846755147 70.2259
12.899614549869717 70.3405
12.9220732548287 71.1962
12.94453245827299 71.7182
12.966974655289818 72.7347
12.989434858002571 73.6603
13.011878055298721 74.5565
13.034339260862497 75.7279
13.056800969391883 76.8811
13.079245674017244 79.4265
13.101708390774869 81.5801
13.12415410463411 86.8571
13.146617833206086 102.78299999999999
13.169064559883248 132.424
13.191529303857127 162.656
13.213994557076367 185.66400000000002
13.236442809902437 198.762
13.258909083908291 209.97
13.28135835851934 227.27
13.30382565690295 258.357
13.326293469022952 307.46
13.348744283242008 365.603
13.371213125129904 400.79900000000004
13.39366497011003 376.764
13.416134845360597 294.418
13.438605238843131 201.299
13.46105863690397 138.471
13.483530069144786 118.04700000000001
13.505984506951902 129.266
13.528456981549432 153.059
13.550929978879088 171.53099999999998
13.573385983253365 181.755
13.595860028340867 188.668
13.618317081455832 199.734
13.64079217790333 218.882
13.663250283359057 250.06799999999998
13.685726434770173 294.1
13.708203115221277 340.06800000000004
13.730662806148091 347.968
13.75314054697177 300.242
13.775601299246777 221.66400000000002
13.798080104050406 149.488
13.820559442405358 104.73700000000001
13.843021793671388 88.0268
13.865502201420897 82.5588
13.887965623051947 80.9309
13.910447103807167 79.3342
13.932929122629764 77.9954
13.955394156785959 77.45
13.977877254034569 76.7339
14.000343367582113 75.8628
14.022827546871707 74.8939
14.045294743423524 74.0809
14.06778000837062 73.4244
14.090265817715476 73.2088
14.112734645763819 73.14699999999999
14.13522154619454 73.6329
14.157691466286913 74.0657
14.180179461423874 73.4296
14.202668005486178 72.745
14.22513957064374 71.7928
14.247629214846473 70.9928
14.270101881097517 70.2198
14.29259262906496 69.8295
14.315083930490205 69.8355
14.337558255389705 69.5142
14.360050666019726 69.4085
14.382526101071944 69.1976
14.405019624534942 68.7638
14.427513705993134 68.8599
14.449990813291825 68.8944
14.47248601302899 68.4715
14.49496423954951 68.627
14.517460561197822 68.7414
14.539939910570322 68.5414
14.562437357763558 68.6951
14.58493536931253 69.1149
14.607416409993311 69.1554
14.62991555254159 69.3928
14.652397725157423 69.6034
14.674898002342799 69.7835
14.697398848433282 70.2462
14.719882725991326 71.2448
14.74238471217934 72.0514
14.764869730765593 74.4032
14.787372860692983 81.0011
14.809876564079925 93.6299
14.83236330125751 106.766
14.854868153850365 115.84700000000001
14.877356041159485 121.463
14.899862046604186 125.164
14.922351087688757 130.80700000000002
14.944858249632887 140.403
14.967365991421232 154.912
14.989856770231246 174.52200000000002
15.012365673994204 199.514
15.03485761569738 213.52700000000002
15.05736768508665 205.24
15.07987833888692 172.99200000000002
15.102372032001655 133.531
15.124883856909658 99.4503
15.14737872204565 81.2951
15.169891721717274 73.7993
15.192405310371893 71.6905
15.214901940621196 70.6007
15.237416709527137 69.5675
15.259914520936249 69.1881
15.282430473753607 68.4616
15.304947020131227 67.7639
15.327446610371178 67.3794
15.349964346154254 67.1923
15.372465126703139 66.8097
15.394984055556009 66.6949
15.417486030076159 66.492
15.44000615566487 66.2758
15.462526881230803 66.1885
15.485030653812652 66.3083
15.507552581617434 66.0778
15.530057557334603 65.9525
15.55258069104857 65.8241
15.575104429329837 66.411
15.597611216864632 66.2184
15.620136166564563 66.3505
15.6426441664095 66.8648
15.665170331202765 68.742
15.687697105158826 74.2041
15.710206930593545 84.2785
15.732734925158933 94.7521
15.755245972089478 102.63799999999999
15.77777519094324 107.59299999999999
15.800287463046663 110.333
15.822817909869592 113.633
15.84534897229804 119.23100000000001
15.867863089299354 129.737
15.890395385222186 142.994
15.912910736597423 161.643
15.935444269699861 180.178
15.957978423016485 187.363
15.980495633101265 176.31900000000002
16.003031029129367 148.951
16.02554948280019 113.649
16.048086125229432 86.8477
16.070623392487107 72.6179
16.09314371869582 66.17
16.11568223789321 63.3814
16.13820381691126 62.0932
16.160743591742527 61.6403
16.183283996022084 60.6823
16.205807461423195 59.6476
16.228349126881973 59.1045
16.25087385432698 59.0488
16.27341678466365 58.519
16.29594277784926 58.2173
16.31848697676433 57.6247
16.341031811604868 57.2994
16.36355971058487 57.1676
16.3861058195587 56.9377
16.40863499352978 56.4762
16.431182380342005 56.2783
16.453730407713202 55.8387
16.476261501364792 55.6015
16.498810812136167 55.5005
16.52134319004079 55.6653
16.54389378792203 55.4348
16.566445031001553 55.2684
16.588979342490088 55.2347
16.61153187824822 55.1228
16.634067483263312 54.9235
16.656621315414416 54.7173
16.679175797408888 54.3855
16.701713349928728 54.3943
16.72426913389191 54.5586
16.74680798922351 54.4553
16.76936507887444 54.3326
16.791905240734874 54.7051
16.814463639794468 54.5152
16.837022695210294 54.7041
16.859564824093756 54.6797
16.882125194503903 54.6182
16.904668639217885 54.9811
16.927230328348003 55.217
16.949792678493612 55.4589
16.972338104193863 55.371
16.994901778652235 55.2555
17.017448529496576 55.5072
17.040013531998152 55.8732
17.06257920018044 55.9666
17.0851279459922 57.2934
17.107694947817667 59.246
17.130245028099072 61.5015
17.15281336730298 63.4246
17.17536478578733 64.7307
17.19793446610687 65.314
17.220504818648422 65.9952
17.243058251703697 66.5987
17.265629950971032 68.4692
17.288184731571736 70.7525
17.310757781306908 74.0704
17.33333150794385 77.361
17.355888317140174 81.1745
17.37846339986244 83.035
17.401021565958885 81.4587
17.42359800851343 76.9872
17.44617513265564 71.0603
17.468735341390783 65.3848
17.491261035594565 61.7538
17.51396340099364 60.2353
17.536490463869136 59.5731
17.559018209820174 59.5372
17.58154663977963 59.5149
17.604251766089718 59.4705
17.626781572227713 59.6508
17.64931206518155 59.818000000000005
17.671843245885103 60.3828
17.69455114821572 60.6026
17.717083712612634 60.827
17.739616967569667 61.1527
17.762150914021706 61.8082
17.78486160749854 62.0128
17.807396945166804 62.8675
17.829932977143503 63.1868
17.85246970436452 64.2554
17.875183204129467 66.9292
17.897721330097664 72.4226
17.920260154126645 78.8685
17.942799677153296 83.8608
17.9655159983646 87.0741
17.988056927677544 89.1019
18.010598558807683 90.4978
18.033140892692916 92.9541
18.05586005052525 96.1327
18.07840379824407 101.022
18.10094825154059 108.59899999999999
18.12366954819864 118.848
18.146215420998306 131.909
18.16876200220057 143.12
18.191309292745153 146.089
18.214033452627167 140.704
18.236582170236648 125.786
18.259131600016456 109.555
18.281681742907335 96.2522
18.304408781233683 89.4008
18.32696035875955 87.5777
18.349512652227624 88.8104
18.372065662579683 92.602
18.394795594587553 97.4122
18.41735004715306 102.742
18.43990521943684 105.054
18.46246111238171 102.32600000000001
18.485193953325208 94.5883
18.507751296070428 84.8326
18.530309362314178 75.6232
18.552868153000343 69.1469
18.57560391815056 65.2546
18.59816416623245 63.4198
18.620725141597372 62.4698
18.643286845190268 62.0163
18.666025549835414 61.386
18.688588718427933 60.7087
18.711152618092243 60.6048
18.73389353884365 60.2099
18.75645890921984 59.6375
18.77902501351406 59.4421
18.801591852673102 59.4134
18.824335739722738 58.6964
18.846904057212626 58.6543
18.8694731124168 58.3564
18.89204290628315 58.4168
18.914789774966803 58.0729
18.937361054791623 57.9028
18.959933076131318 57.4791
18.982505839934877 57.3991
19.00525570560582 57.4369
19.027829963004184 57.1114
19.05040496572238 57.1716
19.072980714710468 57.2171
19.095733592739563 57.4133
19.11831084296757 57.6608
19.140888842324735 58.8837
19.16346759176222 59.9829
19.18622349753803 61.1126
19.208803755869358 61.9652
19.231384767143577 62.628
19.253966532312948 63.0296
19.276725481241822 63.396
19.29930876296784 63.8853
19.3218928014549 65.0619
19.34465404436217 66.4824
19.36723960516257 68.2244
19.389825925592426 70.2911
19.412413006605938 72.6606
19.43517731967805 74.8219
19.457765930683355 74.7978
19.48035530514408 72.3591
19.50294544401556 68.2069
19.525712842708348 63.6399
19.54830451925909 59.483000000000004
19.570896963095727 56.5077
19.593490175174704 54.8952
19.616260674962184 54.617
19.638855432416964 54.1971
19.661450960992624 54.2976
19.68404726164677 53.8268
19.706820878021247 53.7188
19.729418731756834 54.1257
19.752017360452857 53.7818
19.77461676506804 53.9902
19.797393513540218 53.9263
19.819994478951667 54.2988
19.84259622316767 55.1003
19.8651987471481 56.3529
19.887978643247177 57.1348
19.91058273574792 57.9081
19.933187610901943 58.6598
19.955969879466828 59.0866
19.97857632894404 59.3941
20.00118356396599 59.4652
20.023791585494575 60.0881
20.046577028914875 61.4993
20.069186632506966 62.9715
20.091797025500632 65.5959
20.114408208858933 68.1748
20.137196842715273 71.0765
20.159809615886765 73.1737
20.18242318232135 72.9499
20.20503754298326 71.3262
20.227829382875154 68.4186
20.250445341109344 65.8163
20.27306209647285 63.2441
20.29567964993108 61.8633
20.31847471147704 61.6923
20.34109387027612 62.7722
20.363713830075454 64.18
20.386334591841646 65.4884
20.409132890679302 66.0089
20.431755265564437 64.7012
20.454378445325528 62.3169
20.477002430930366 59.0128
20.499803982716553 56.1016
20.522429589228004 53.4931
20.54505600449589 51.9862
20.567683229489194 51.4334
20.590488049900088 50.9434
20.61311690359731 50.5776
20.63574656993626 50.6129
20.658553853717297 50.0905
20.681185154618298 50.2384
20.703817271080066 50.0657
20.72645020407368 49.6867
20.749260783967177 49.5448
20.771895359337133 49.5056
20.794530754161617 49.5677
20.817166969412938 49.4376
20.83998086114876 49.4904
20.86261872660049 49.3176
20.885257415405402 49.2776
20.90789692853701 49.1967
20.930714147864748 49.0801
20.953355319030678 48.9738
20.97599731745334 49.2242
20.99864014410749 49.3087
21.021460706796564 49.3653
21.044105199328826 49.6972
21.06675052302631 49.7894
21.089396678865015 49.8041
21.112220600704806 49.9771
21.134868430275347 50.1603
21.15751709492456 50.0375
21.180166595629693 49.9208
21.202993892429635 50.1748
21.22564507473034 50.5192
21.24829709602816 50.9643
21.27112693608965 51.3708
21.293780644891275 51.8789
21.316435195634053 51.9883
21.339090589297417 51.7524
21.361923832041875 51.5463
21.384580921090404 50.9396
21.407238856007325 49.9967
21.429897637773326 49.7289
21.45273429906592 49.2703
21.475394784108598 48.9639
21.498056118951983 48.9142
21.520718304578022 49.1353
21.543558400304388 49.245
21.566222297108816 49.1943
21.58888704765135 49.3005
21.61155265291521 49.9185
21.63439619898156 50.8751
21.657063523335786 51.6107
21.67973170537063 52.6522
21.7024007460706 53.2818
21.72524775840385 54.1475
21.747918526116475 54.4066
21.770590155457388 54.5829
21.79326264741238 55.1954
21.816113141960237 55.5563
21.838787368860547 56.4996
21.861462461341976 57.8876
21.884315579735777 59.4794
21.90699241312273 61.2626
21.92967011506078 63.1596
21.95234868653799 65.0627
21.9752053151131 66.7505
21.997885635446785 66.8999
22.020566828293532 65.8994
22.04324889464272 63.6916
22.066109049404666 60.6525
22.088792872571794 58.3526
22.111477572219204 56.8374
22.1341631493376 56.2035
22.157026846313123 56.3149
22.179714188221507 56.8319
22.202402410582668 57.1078
22.22509151438863 56.407
22.24795876962584 55.3223
22.270649646204486 54.2606
22.293341407213727 52.7735
22.316034053646906 51.4688
22.338904883215342 50.4703
22.36159931041458 50.0828
22.38429462602756 49.7254
22.40699083104897 49.2547
22.429865251039757 49.3062
22.452563244831367 49.2914
22.47526213102522 49.2844
22.49813925616515 49.1788
22.520839937143307 49.2387
22.543541513520587 49.2858
22.56624398629403 49.3166
22.589124730075895 49.1783
22.611829005656723 49.3644
22.63453418063466 49.3475
22.657240256008077 49.6219
22.680124634582935 49.9696
22.70283252079775 50.8236
22.725541310413075 51.5024
22.74825100442868 51.8352
22.771139033969575 52.2653
22.79385054687155 52.3296
22.81656296718292 52.3932
22.83927629590484 52.6463
22.862167992606945 53.1138
22.88488314827121 53.4836
22.907599215359284 53.71
22.93031619487366 54.2299
22.953211574954405 54.9369
22.975930389478226 55.8706
22.998650119445763 57.0676
23.02137076586092 58.1551
23.044269845560063 58.9079
23.06699233506288 58.873999999999995
23.089715744034912 57.8966
23.112617610931565 56.2834
23.135342869061212 54.1744
23.158069049684816 52.4172
23.1807961538087 51.013999999999996
23.20370174880544 50.2301
23.226430710184808 49.8725
23.249160598093425 49.6354
23.271891413539002 49.7305
23.294800752937697 50.1715
23.31753343374794 50.9737
23.340267045128353 51.4829
23.36300158808808 51.7979
23.38591468821339 52.0402
23.408651104658304 52.1257
23.431388455719986 52.2314
23.454126742409 52.4472
23.4770436196085 52.5472
23.499783787914662 53.1825
23.522524894889884 53.1771
23.54526694154616 53.677
23.56818761219047 54.4777
23.59093154860734 55.3534
23.613676427751283 56.8258
23.636422250635754 57.9429
23.659346731118656 58.6282
23.68209445191868 58.6914
23.704843119509587 57.6869
23.72759273490623 55.5266
23.750521041644767 53.0945
23.77327256312355 51.0849
23.796025035462787 49.2518
23.818956224555475 47.8828
23.841710609113413 47.3259
23.86446594758979 46.8139
23.887222241002014 46.5363
23.910157285144578 46.0911
23.932915498962537 45.9588
23.955674670778713 45.7639
23.978434801611975 45.6301
24.001373717286125 45.5164
24.024135776723917 45.4227
24.046898798245582 45.3265
24.06966278287146 45.2683
24.092605586582614 44.9493
24.115371508023642 44.7992
24.1381383956401 44.5363
24.16090625045381 44.6144
24.183852958731244 44.4218
24.206622758582608 44.4084
24.229393528706886 44.145
24.252165270127392 44.2024
24.27511589952438 44.3941
24.297889594216997 44.1889
24.32066426328598 43.9251
24.34343990775613 43.8337
24.36639447485003 43.9136
24.38917208083877 43.8009
24.41195066531332 43.6541
24.43490819850244 43.7067
24.457688750692377 43.4823
24.48047028445616 43.4432
24.503252800821233 43.647
24.526214300784112 43.5763
24.548998793132213 43.4783
24.57178427117417 43.3594
24.59457073593893 43.4604
24.617536219319863 43.4115
24.64032466834748 43.5661
24.663114107195035 43.6118
24.685904536893013 43.2612
24.708874020360852 43.1727
24.731666442613744 43.2556
24.754459858818787 43.0347
24.777254270007962 43.0459
24.80022777025625 42.8991
24.82302418230472 42.9056
24.845821592443674 42.8231
24.86862000170663 42.8167
24.891597535453727 42.858000000000004
24.914397953892728 43.1698
24.93719937456671 42.9731
24.96000179851076 43.2128
24.98298338249997 43.3235
25.00578782394922 43.3872
25.028593271784167 43.4058
25.05157790644186 43.7597
25.07438537804115 43.9439
25.097193859145293 44.1372
25.120003350792075 44.3302
25.142992065061257 44.5417
25.165803588823465 44.8697
25.18861612625217 44.8325
25.211429678386736 45.0514
25.234422489079968 45.3769
25.257238081693636 45.5429
25.280054692141732 45.6105
25.3028723214652 45.5239
25.325869245420463 45.4009
25.348688923599397 45.2597
25.371509623787006 45.445
25.394331347025812 45.4784
25.41733240110666 45.4708
25.440156181590016 45.3883
25.46298098826268 45.2011
25.48580682216873 44.8264
25.50881202326435 44.1138
25.53163992281684 43.2806
25.55446885274561 42.6756
25.577298814096377 42.0858
25.600308179121807 41.7764
25.623140214533745 41.6238
25.64597328451537 41.4421
25.66898578564376 41.1363
25.691820936010206 41.3355
25.714657124097695 41.1581
25.737494350954734 41.1547
25.760511045684957 41.0901
25.783350361364224 41.2912
25.806190718969255 41.38399999999999
25.82903211955018 41.4227
25.852053024868923 41.4582
25.874896522722523 41.5527
25.897741066713106 41.4372
25.920586657892454 41.5071
25.943611790812668 41.3623
25.966459487728237 41.3975
25.989308234998564 41.4319
26.01215803367705 41.738
26.03518741123814 41.6996
26.05803932412957 41.7389
26.080892291600094 41.657
26.10374631470478 41.8464
26.12677995397268 42.2004
26.14963609978026 42.3857
26.172493304397875 42.46
26.19535156888223 42.5487
26.218389486949604 42.2979
26.241249882640123 42.0862
26.26411134137826 41.8095
26.28715248187403 41.6126
26.31001607820869 41.1739
26.3328807407756 40.9837
26.35574647063438 41.0941
26.37879191991473 41.0831
26.401659795896734 41.1425
26.424528742360263 41.2874
26.447398760366614 41.2009
26.470448535598294 41.1979
26.49332070826805 41.5077
26.516193955675355 41.5504
26.53906827888316 41.68
26.562122397260108 41.7398
26.584998883685063 41.9619
26.607876449110325 42.0602
26.63075509460056 42.1932
26.65381357334404 42.3391
26.67669439061878 42.5171
26.699576291163382 42.8016
26.722459276044212 43.1189
26.745522132402975 43.0907
26.768407297649354 43.0501
26.791293550442003 42.8423
26.814180891848974 42.4657
26.837248143099337 41.9815
26.860137673466657 41.7032
26.88302829566349 41.2834
26.90592001075963 41.2999
26.92899167420566 41.3245
26.951885586870763 40.8407
26.974780595655517 40.5869
26.99785558178161 40.4393
27.020752794605112 40.2411
27.043651106772522 39.7971
27.06655051935668 39.676
27.089629948036183 39.5482
27.112531573292053 39.3565
27.135434302194138 39.4723
27.158338135817015 39.3217
27.181422024430987 39.4802
27.204328079372566 39.2975
27.22723524226965 39.3976
27.250143514198573 39.3844
27.273231880156334 39.2187
27.296142382065014 39.1067
27.319053996245536 39.1664
27.341966723775965 39.2019
27.365059584515222 39.1735
27.38797455070062 39.2131
27.410890633481237 38.9542
27.433807833936918 38.9295
27.456905206923906 38.9509
27.47982465472398 39.0326
27.502745223449743 38.9633
27.525666914182825 39.1809
27.548768816912457 39.0855
27.571692763693633 39.0848
27.59461783573812 39.1205
27.617723149491244 39.092
27.640650484125285 39.2761
27.66357894728264 39.1909
27.686508540048052 38.9989
27.709618414237887 39.0571
27.732550278321757 38.9472
27.755483275279115 38.8954
27.778417406196485 38.8695
27.801531858397514 38.6637
27.824468269376716 38.6442
27.847405817586786 38.7463
27.870344504116094 38.7178
27.893463551932008 38.8214
27.916404527281053 38.8047
27.93934664422563 38.8644
27.962289903855886 38.9082
27.98541356491974 39.0536
28.00835912214229 39.0153
28.03130582533231 39.2662
28.054253675581805 39.2499
28.077381967556104 39.407
28.100332124185126 39.5617
28.123283431160893 39.7529
28.146235889577238 39.8183
28.169368830154156 39.8415
28.192323603752033 39.7756
28.215279532083304 39.3746
28.238415973016764 39.0948
28.261374223145094 39.0012
28.284333631303806 38.6546
28.307294198589954 38.5891
28.330435319167677 38.3649
28.353398217078915 38.2747
28.376362277420153 38.051
28.39932750129032 37.7461
28.422473319286713 37.4692
28.44544088262495 37.3516
28.468409612800283 37.117
28.491379510913497 36.7134
28.51453004413313 36.6899
28.53750229057244 36.6564
28.56047570826344 36.5591
28.583450298308804 36.5873
28.606605564586562 36.321
28.629582511831156 36.4778
28.65256063474956 36.2522
28.675539934446338 36.2723
28.698699951647605 36.2843
28.72168161743193 36.0786
28.74466446331978 36.0634
28.767648490417624 35.9564
28.790813276438353 35.8977
28.813799678527303 35.9069
28.836787265157085 35.9156
28.859955641890075 35.9851
28.882945610203045 35.9451
28.905936766392035 35.7549
28.928929111566863 35.7268
28.952102288520145 35.8395
28.975097024308607 35.9133
28.998092952423807 35.7905
29.021090073977508 35.6421
29.04426806913204 35.6435
29.067267590245258 35.501999999999995
29.090268308143695 35.4008
29.11327022394099 35.3399
29.13645305530891 35.1442
29.159457379627167 35.1202
29.18246290519685 35.114000000000004
29.20546963313352 34.885999999999996
29.22865731875826 34.855
29.25166646419296 34.8231
29.27467681535305 34.8106
29.29768837335608 34.7297
29.320880931312562 34.6868
29.34389491580634 34.6027
29.366910110507334 34.5928
29.38992651653503 34.6252
29.41312396492981 34.6398
29.436142806456754 34.7556
29.45916286268059 34.5118
29.48236399319994 34.6188
29.50538649169417 34.5892
29.528410208259935 34.5745
29.55143514402014 34.3154
29.574641196749695 34.2259
29.597668583816574 34.0913
29.6206971934585 33.8625
29.64372702680042 33.894
29.666938019934474 33.6571
29.689970313635285 33.6271
29.713003834422636 33.4755
29.73603858342347 33.547
29.759254535188578 33.3626
29.78229175361658 33.3561
29.80533020365064 33.3622
29.82836988641968 33.3875
29.85159081507472 33.2663
29.874632976355343 33.1441
29.89767637376955 33.2827
29.920721008448314 33.1392
29.9439469322847 33.1387
29.96699405457564 33.0833
29.9900424175358 33.1155
30.013092022298157 33.0111
30.03632295963995 32.9509
30.059375061131373 33.0209
30.08242840783577 33.114000000000004
30.105483000888153 33.0858
30.128718970092244 32.8768
30.151776069006917 32.8832
30.17483441768648 32.8971
30.198074175317235 32.8169
30.221135036724256 32.9113
30.24419715131772 32.9165
30.267260520236203 32.8036
30.290505341942243 32.8945
30.313571232750228 33.0144
30.336638381310948 33.0076
30.35970678876503 32.8762
30.38295669299435 32.8189
30.40602763151657 32.7647
30.429099832366074 32.9217
30.452173296685572 32.7076
30.47542830191959 32.6923
30.498504306502497 32.635999999999996
30.521581577995562 32.6998
30.544660117543582 32.7427
30.56792024229725 32.6669
30.59100133132069 32.6463
30.614083691845494 32.5523
30.637167325018545 32.6747
30.660432587840603 32.6776
30.683518779717886 32.5359
30.70660624769615 32.6292
30.729694992924372 32.6833
30.75296541239743 32.8518
30.77605672557558 32.7285
30.799149319462742 32.8491
30.8224236211637 32.755
30.845518789950724 32.6959
30.868615242910597 32.6368
30.891712981195973 32.5478
30.91499247215866 32.4019
30.938092794619365 32.2928
30.96119440587579 32.2246
30.984297307082752 32.0457
31.00758200598383 31.9986
31.030687500658694 31.9264
31.053794288760695 31.8985
31.076902371446767 31.7839
31.100192296997445 31.746
31.12330298246119 31.6903
31.14641496599209 31.6225
31.169528248749216 31.5602
31.19282341969534 31.5959
31.215939314557186 31.572
31.239056512134788 31.5404
31.262175013589378 31.5333
31.28547544871168 31.4324
31.30859657161541 31.4361
31.331719001892175 31.4626
31.35484274070538 31.4834
31.378148458819545 31.4071
31.401274828443725 31.3066
31.424402510106933 31.4035
31.447712205419993 31.3964
31.470842524931633 31.2457
31.493974159989783 31.2976
31.51710711176168 31.3076
31.54042212308802 31.3771
31.563557722100917 31.4253
31.586694641341655 31.3027
31.609832881979628 31.2129
31.63315322823208 31.2027
31.656294125521327 31.114
31.679436347728515 31.076999999999998
31.70257989602529 31.0888
31.725905596152327 30.9044
31.74905181052835 30.8898
31.772199354521323 30.8319
31.79534822930507 30.7864
31.818679302290967 30.7108
31.84183085259981 30.7174
31.864983737233473 30.6341
31.88813795736804 30.6461
31.911474422233013 30.4987
31.934631327356435 30.7054
31.9577895715215 30.5407
31.980949155906522 30.5882
32.004291031706956 30.6765
32.027453310562606 30.5129
32.05061693318573 30.3995
32.07396288236386 30.5249
32.09712920658542 30.4605
32.12029687812702 30.3116
32.14346589817093 30.1934
32.166817291729984 30.2228
32.18998902288583 30.1123
32.21316210610336 30.0033
32.23633654256711 29.9091
32.259693399663725 29.8938
32.282870556771144 29.7789
32.30604907069099 29.7092
32.329228942610065 29.5637
32.35259128243769 29.4779
32.375773884550505 29.5516
32.398957848235646 29.4591
32.422143174682176 29.4126
32.445511016471215 29.3075
32.468699082679954 29.2438
32.49188851523011 29.1933
32.51507931531304 29.2107
32.538452678331 29.1869
32.56164622776311 29.0392
32.58484114831493 29.0445
32.60803744118015 28.9709
32.631416344731896 29.0217
32.654615396551876 28.88
32.67781582427913 28.8882
32.701198898634416 28.8035
32.72440209253756 28.7604
32.747606665947124 28.8189
32.77081262006088 28.6622
32.79420126883317 28.7568
32.81740999876112 28.6753
32.840620112999424 28.5424
32.86383161274818 28.5555
32.88722585534586 28.4537
32.91044014056596 28.5593
32.933655814909734 28.5289
32.95687287957963 28.5572
32.98027273544904 28.3644
33.00349259526636 28.2959
33.026713849030116 28.4396
33.04993649794511 28.3073
33.073341986570746 28.2947
33.09656744032826 28.2454
33.11979429286444 28.249000000000002
33.14302254538647 28.2146
33.166433686291185 28.2036
33.18966475336992 28.1347
33.212897224069096 28.1678
33.23613109959831 28.1457
33.259547912343415 27.9655
33.2827846121627 28.0461
33.306022720453775 28.0286
33.32926223842861 27.9321
33.352684742614166 28.0748
33.37592709463173 28.035999999999998
33.399170859982064 27.9009
33.422597648419426 27.846
33.44584425514446 27.8559
33.46909227885668 27.7562
33.4923417207723 27.6324
33.51577423505344 27.6035
33.539026528130385 27.533
33.56228024307245 27.5099
33.585535381098246 27.3283
33.60897364093058 27.2552
33.63223163992385 27.2043
33.6554910656699 27.2017
33.678751919389796 27.1732
33.702195944520106 27.1421
33.72545966903325 27.1137
33.74872482519663 27.0467
33.771991414233746 27.0167
33.79544122444841 26.9661
33.81871069412428 26.791999999999998
33.84198160035767 26.7977
33.86525394437455 26.8041
33.88870955949969 26.7393
33.911984794020626 26.7969
33.93526147001624 26.7822
33.958539588715006 26.7251
33.98200102861669 26.5753
34.0052820477047 26.5423
34.02856451319451 26.5979
34.05203033759056 26.5214
34.07531571090147 26.4616
34.09860253431845 26.4328
34.121890809074316 26.3339
34.145362493118924 26.3082
34.16865368561615 26.261999999999997
34.191946333164054 26.2214
34.21524043699793 26.2602
34.23871800066799 26.1661
34.26201503218366 26.0662
34.28531352370466 26.0509
34.30861347646881 26.0223
34.33209693978188 25.9291
34.3553998301885 25.9508
34.378704185565205 25.9373
34.402010007152356 25.7713
34.42549939016683 25.72
34.44880815937748 25.6951
34.472118398533134 25.6906
34.49543010887669 25.6852
34.51892543169198 25.6634
34.54224009966052 25.6066
34.56555624255917 25.6023
34.58887386163339 25.4518
34.61237514439016 25.3993
34.6356957311114 25.4162
34.65901779775809 25.3154
34.68252356662995 25.3244
34.705848608458616 25.3984
34.72917513396849 25.2722
34.75250314440949 25.1558
34.77601490857862 25.1293
34.799345904259795 25.1165
34.82267838863559 25.239
34.846012362958525 25.1564
34.869530142679984 25.1777
34.89286711232212 25.037
34.91620557568269 24.8836
34.93954553401677 24.936999999999998
34.9630693495876 24.9614
34.986412313340814 24.9323
35.00975677584668 24.9501
35.033102738362956 24.7942
35.05663261012228 24.7446
35.0799815881786 24.8671
35.10333207003229 24.7253
35.12668405694369 24.7149
35.150220005273056 24.7416
35.17357501786656 24.6211
35.19693153931268 24.5606
35.220289570874385 24.5647
35.24383161619786 24.5295
35.267192683604904 24.5804
35.290555264930376 24.4999
35.314101899412165 24.4631
35.33746752422433 24.5298
35.36083466676374 24.5243
35.38420332829803 24.3287
35.407756095629054 24.4194
35.43112781085063 24.3383
35.45450104888391 24.33
35.477875810999194 24.4048
35.50143473172161 24.2852
35.52481255774625 24.3326
35.54819191167777 24.2028
35.57157279478914 24.217
35.595137889488406 24.2294
35.61852184675279 24.104
35.641907337029984 24.0805
35.665294361595684 24.0235
35.68886565090076 23.9844
35.7122557598848 23.9767
35.73564740699838 23.9604
35.759040593519934 23.9009
35.78261809810353 23.9259
35.80601437933051 23.7959
35.829412203814705 23.7373
35.85281157283719 23.7296
35.876395313415884 23.714000000000002
35.8997977874528 23.607
35.92320180988546 23.5824
35.946790244133936 23.511999999999997
35.97019737933222 23.6077
35.993606066789866 23.5388
36.01701630779276 23.4941
36.04061101440684 23.3492
36.06402437852291 23.4417
36.08743930005611 23.386
36.1108557802951 23.3002
36.13445678011326 23.2239
36.15787639383515 23.2572
36.18129757014299 23.1731
36.20472031032821 23.1225
36.22832762423364 23.105
36.25175350829375 23.1542
36.275180960119776 23.0663
36.298609981005924 23.0996
36.32222362992669 23.1314
36.34565580510207 23.0615
36.36908955323448 23.0315
36.39252487562093 22.8993
36.416144880530226 22.7818
36.43958336764275 22.8366
36.463023432914625 22.8104
36.486465077645676 22.6759
36.51009145956204 22.7831
36.53353627947859 22.7998
36.55698268276811 22.7305
36.58043067073321 22.6677
36.60406345072071 22.6828
36.62751462435344 22.6665
36.65096738658405 22.5722
36.67460498210655 22.5275
36.69806093788647 22.5019
36.72151848619297 22.4801
36.744977628333636 22.4697
36.76862165890998 22.373
36.79208400512205 22.4584
36.81554794910557 22.3193
36.83901349217101 22.2304
36.862663978991606 22.2387
36.88613273667352 22.1662
36.90960309738324 22.2192
36.933075062434064 22.1777
36.95673202673572 22.0218
36.98020721697122 22.0094
37.003684015502365 21.9754
37.027162423645365 21.9934
37.050825886711465 22.0262
37.07430753063053 21.8818
37.09779078812467 21.8572
37.121275660513014 21.9189
37.144945643673694 21.8015
37.16843376245278 21.7303
37.19192350009803 21.7092
37.215414857931435 21.7387
37.239091382563885 21.6585
37.262585997426164 21.611
37.28608223645736 21.5981
37.309763684451696 21.5179
37.33326318851098 21.5697
37.356764320726555 21.5571
37.380267082425526 21.4684
37.40395510942588 21.4627
37.42746114683234 21.4372
37.45096881771841 21.3789
37.474478123414166 21.3835
37.49817275092816 21.3561
37.52168534303452 21.3305
37.54519957395567 21.2089
37.568715445024665 21.1926
37.592416694607714 21.1795
37.61593586281424 21.2428
37.63945667518264 21.1841
37.66297913304891 21.0868
37.68668702630454 21.0974
37.710212792059274 21.011999999999997
37.733740207334854 21.0512
37.757269273470364 20.9481
37.780983832050374 20.8969
37.80451621684926 20.8661
37.82805025654007 20.8267
37.851585952464795 20.8013
37.8753071980695 20.7343
37.89884622345676 20.6986
37.92238690911902 20.6993
37.94611318753442 20.6009
37.969657210779765 20.6042
37.99320289834801 20.6483
38.016750251586465 20.5793
38.04048325513017 20.5541
38.06403395679343 20.4548
38.087586328183946 20.4493
38.11114037065203 20.4761
38.13488012115898 20.4308
38.1584375229181 20.314
38.181996599821 20.2468
38.205557353221124 20.2499
38.229303872575656 20.2418
38.2528679961576 20.2336
38.27643380031219 20.2074
38.30000128639589 20.1589
38.32375459653193 20.2281
38.34732546371299 20.1061
38.37089801690786 20.1055
38.39447225747609 19.997
38.418232380377425 19.9951
38.441810012983396 20.023
38.46538933705673 19.9955
38.488970353960084 20.0195
38.51273731166058 19.9146
38.536321731567014 19.8092
38.55990784840681 19.82
38.58367995004091 19.811
38.60726947812959 19.7481
38.63086070726198 19.7376
38.654453638806274 19.8018
38.678232613930824 19.6056
38.70182896773327 19.5796
38.72542702806741 19.6041
38.7490267963045 19.602999999999998
38.77281266709232 19.5762
38.79641586862214 19.5505
38.8200207821842 19.4905
38.843627409152944 19.4635
38.86742019782782 19.4522
38.891030269149255 19.4295
38.914642058016156 19.3647
38.938255565806124 19.3265
38.96205529464307 19.2751
38.98567225787121 19.2236
39.00929094417078 19.2442
39.03291135492255 19.1963
39.05671804624804 19.1799
39.080341923549106 19.1362
39.103967529460334 19.0998
39.127594865365744 19.1219
39.15140854155791 19.0574
39.17503935514948 19.0226
39.19867190290282 19.0038
39.22249083587951 18.9968
39.24612686969409 18.9399
39.269764641845306 18.913
39.293404153722804 18.9162
39.317230110864074 18.8608
39.34087311998506 18.8445
39.36451787301696 18.7774
39.388164371352595 18.7257
39.41199737518003 18.6879
39.43564738196752 18.6314
39.45929913825317 18.6494
39.48295264543308 18.6525
39.506792718520884 18.6127
39.530449745387216 18.5816
39.55410852735203 18.5263
39.57776906581474 18.482
39.60161623079 18.4989
39.625280300200025 18.4629
39.64894613032202 18.4007
39.67261372255866 18.3761
39.6964680021016 18.3679
39.72013913657293 18.3854
39.74381203738292 18.3194
39.76748670593756 18.2733
39.79134812278169 18.3257
39.81502634488497 18.246
39.83870633896685 18.163
39.862388106436654 18.1644
39.88625668336918 18.1193
39.90994201572829 18.1789
39.933629125719285 18.052
39.957503091207826 18.0257
39.9811937746168 18.0822
40.00488623990914 18.0193
40.02858048850006 17.949
40.05246165409549 17.9166
40.076159487492085 17.8578
40.099859108448875 17.9231
40.123560518384345 17.8598
40.1474489070226 17.8667
40.171153913178564 17.742
40.194860712584955 17.7041
40.2185693066637 17.7655
40.242464941335314 17.6818
40.26617714307655 17.6706
40.289891143772046 17.7341
40.3136069448471 17.6393
40.33750984859743 17.6136
40.3612292688043 17.6083
40.3849504936829 17.5803
40.40867352466194 17.54
40.43258372059144 17.5045
40.45631038219906 17.4776
40.48003885420956 17.4275
40.503769138055105 17.464000000000002
40.52768664931955 17.3964
40.55142057531802 17.3709
40.57515631746428 17.3208
40.599079334038514 17.2718
40.62281872700477 17.2432
40.64655994043941 17.1832
40.67030297578061 17.2032
40.69423334835778 17.1784
40.71798004609188 17.1061
40.74172857006355 17.1345
40.76547892171441 17.0993
40.7894166736039 17.1084
40.813170699248566 17.0685
40.83692655691388 17.0554
40.86068424804498 17.0025
40.884629402612525 16.9667
40.908390779366385 16.9769
40.932153993938 16.9201
40.95591904777605 16.9394
40.979871628443995 16.9327
41.003640379561936 16.881
41.02741097430883 16.7708
41.05118341413683 16.7312
41.075143444384416 16.7608
41.098919593177826 16.7623
41.1226975914255 16.7561
41.14647744058318 16.6959
41.170444943946755 16.6335
41.19422851378379 16.6465
41.218013938914645 16.5991
41.24198706625173 16.5256
41.26577622087193 16.5226
41.289567235177785 16.5137
41.31336011063129 16.4851
41.337340752422875 16.4654
41.361137369129835 16.4462
41.38493585138705 16.3696
41.40873620066004 16.3675
41.43272438060107 16.3722
41.45652848292052 16.3563
41.48033445666918 16.2692
41.50414230331616 16.2485
41.528138045159764 16.2383
41.551949656675205 16.1919
41.575763145513235 16.1139
41.59957851314666 16.0946
41.62358184070442 16.0575
41.64740098505737 16.087
41.6712220126409 16.0473
41.69504492493139 16.0107
41.71905586207357 15.9602
41.74288256296395 15.9694
41.766711153007456 16.0128
41.79054163368412 15.9649
41.814560204340054 15.8736
41.838394485526365 15.8709
41.86223066180303 15.8185
41.88625497706819 15.8337
41.910094962812 15.7901
41.93393684811168 15.7658
41.95778063445365 15.6697
41.981812625263366 15.693
42.00566023303407 15.6521
42.029509746323676 15.6372
42.05336116662236 15.6536
42.077400857069705 15.6647
42.10125611078846 15.6292
42.12511327600405 15.5892
42.14897235421036 15.4641
42.173019768448455 15.465
42.19688269209613 15.4564
42.22074753323349 15.436
42.24461429335818 15.4297
42.268669455600495 15.3667
42.292540073217886 15.3928
42.31641261433284 15.3776
42.34028708044675 15.312000000000001
42.36435001496739 15.3178
42.38822835065557 15.2854
42.41210861586426 15.2115
42.4359908120986 15.2444
42.46006154323262 15.2283
42.48394762115317 15.1858
42.507835634632315 15.1395
42.531912233047436 15.1403
42.55580413732265 15.0987
42.579697981698 15.1049
42.60359376768525 15.0309
42.62767820545945 15.001
42.65157789440821 15.0098
42.67547952952185 14.9218
42.699383112316 14.9673
42.72347541395347 14.940999999999999
42.74738291190531 14.8802
42.771292362102166 14.8777
42.795203766063516 14.8937
42.819303956130405 14.8132
42.843219287476536 14.7696
42.86713657716324 14.7631
42.89105582671383 14.7278
42.91516392983864 14.7249
42.939087119032166 14.6949
42.963012272677304 14.628
42.98693939230129 14.6151
43.01105543317513 14.6141
43.034986504731386 14.532
43.05891954686589 14.5261
43.08285456110972 14.5279
43.10697856448665 14.4901
43.130917542983475 14.4296
43.15485849820081 14.4458
43.17880143167367 14.4031
43.20293342237094 14.3846
43.226880332449 14.3914
43.25082922540554 14.3676
43.27496722682525 14.3227
43.29892010567796 14.2787
43.32287497204102 14.2813
43.34683182745632 14.2488
43.370977859791836 14.2445
43.39493871351105 14.2035
43.41890156092628 14.1507
43.44286640358341 14.1558
43.46702049182749 14.1297
43.49098934522816 14.0923
43.51496019852649 14.0432
43.5389330532723 13.9751
43.56309522248204 14.0005
43.58707210044314 14.0105
43.61105098451946 13.9881
43.63503187626491 13.9562
43.659202151562134 13.9776
43.68318707902681 13.9683
43.70717401884041 13.9162
43.731162972560874 13.8567
43.75534137913236 13.8602
43.779334381108384 13.8576
43.803329401683186 13.8134
43.82732644241872 13.7899
43.8515130055166 13.7801
43.87551410707659 13.732999999999999
43.89951723350145 13.7058
43.923709934595614 13.7027
43.94771713129917 13.6759
43.97172635758096 13.6543
43.99573761501002 13.6081
44.0199385169922 13.5537
44.04395385732619 13.5754
44.067971233533086 13.5773
44.09199064718605 13.5348
44.11619977548961 13.4758
44.14022328470671 13.4426
44.16424883610785 13.4744
44.18827643127035 13.4563
44.21249381139513 13.3742
44.236525514814076 13.353
44.26055926674478 13.3704
44.28459506876863 13.3776
44.3088207262813 13.290999999999999
44.33286064928722 13.2757
44.35690262714919 13.2135
44.38094666145278 13.2288
44.4051806219871 13.2551
44.42922879003185 13.1987
44.45327901929361 13.1629
44.477331311362136 13.1304
44.501573600619416 13.1306
44.525630039221795 13.1354
44.54968854541895 13.0746
44.573937102200176 13.0356
44.5979997645541 13.0296
44.622064499300315 13.0114
44.64613130803592 13.0011
44.67038823869318 12.9947
44.69445921643748 12.901
44.718532272981385 12.8858
44.742607409926194 12.9022
44.76687274034801 12.8651
44.79095205918753 12.867
44.81503346325094 12.8206
44.839116954143876 12.8088
44.86339071028742 12.7738
44.88747839599524 12.7155
44.91156817336837 12.7416
44.93566004401666 12.7355
44.959942251908146 12.7164
44.984038330325966 12.6671
45.00813650686762 12.6194
45.03223678314731 12.6184
45.05652746888232 12.5669
45.08063196592069 12.5701
45.104738567558705 12.5226
45.128847275414856 12.542
45.15314646515866 12.497
45.17725940679741 12.494000000000002
45.20137445952892 12.4252
45.22568004865265 12.4348
45.24979934496396 12.4196
45.27392075725247 12.3743
45.29804428714431 12.4058
45.322358426247604 12.4016
45.346486212804315 12.3237
45.370616121861914 12.3173
45.39474815505086 12.3058
45.41907087049246 12.2189
45.4432071734666 12.2396
45.46734560548283 12.2241
45.49148616817604 12.1935
45.51581748638564 12.1502
45.5399623320197 12.1833
45.56410931325473 12.1447
45.58825843173002 12.1412
45.61259837920865 12.088
45.636751793816 12.0656
45.66090735060093 12.0609
45.68506505120716 11.9883
45.7094136545275 12.0102
45.73357566449271 11.956
45.75773982322992 11.936
45.78190613238733 11.9476
45.806263418194064 11.9112
45.83043404997326 11.9066
45.85460683713677 11.9078
45.87897065658495 11.8845
45.90314777634752 11.8102
45.92732705646868 11.8138
45.9515084986045 11.8159
45.97588104735473 11.7721
46.00006683541565 11.7773
46.02425479047904 11.7145
46.04844491420549 11.7334
46.0728262191024 11.6998
46.09702070211635 11.7001
46.12121735879483 11.6243
46.14541619080294 11.6457
46.169806278764455 11.6425
46.194009483459034 11.5924
46.21821486849841 11.5804
46.24242243555223 11.5448
46.266821333570014 11.5057
46.29103328674601 11.472000000000001
46.31524742696538 11.4754
46.33946375590237 11.460999999999999
46.36387149104216 11.4156
46.38809221957392 11.4119
46.41231514186606 11.449000000000002
46.436540259597464 11.4265
46.460956858999374 11.3982
46.48518638983522 11.3348
46.509418121166966 11.2924
46.533652054678114 11.2945
46.55807754555709 11.2513
46.58231590571962 11.2828
46.60655647313217 11.2454
46.630988654873654 11.2078
46.655233659129024 11.157
46.67948087571551 11.1511
46.70373030632484 11.1008
46.72817142736393 11.1192
46.752425308428684 11.1513
46.77668140861147 11.1048
46.80093972960865 11.062000000000001
46.82538981736788 10.9917
46.849652602470904 10.9715
46.87391761349769 11.0046
46.8981848521493 10.9808
46.9226439341274 10.9691
46.946915650573224 10.9457
46.97118959976749 10.8846
46.99546578341598 10.8442
47.019933887188216 10.8753
47.04421456235744 10.8386
47.06849747711879 10.825999999999999
47.09278263318286 10.7626
47.11725978640143 10.7874
47.14154944775105 10.8059
47.165841355555656 10.7661
47.1901355115306 10.7039
47.214621741924994 10.7443
47.23892041698887 10.7104
47.26322134538975 10.6716
47.28771440635075 10.6504
47.31201986422527 10.6389
47.33632758061436 10.618
47.360637557241866 10.6261
47.38513974410611 10.6039
47.40945426407847 10.5645
47.43377104948137 10.5735
47.45809010204344 10.5443
47.48260144275502 10.5112
47.506925052572285 10.4535
47.53125093475548 10.4289
47.55557909103813 10.4581
47.58009961361992 10.4168
47.60443234110732 10.3841
47.62876734791564 10.3873
47.65310463578333 10.3792
47.6776343683373 10.3284
47.7019762413987 10.3219
47.72632040075572 10.2905
47.75066684815169 10.3037
47.77520581885936 10.2682
47.799556865477655 10.2554
47.823910205386 10.2545
47.84826584033272 10.2373
47.87281407745551 10.2118
47.89717432569297 10.1667
47.92153687423484 10.134
47.94609208429692 10.1473
47.97045925671401 10.125
47.99482873471275 10.0755
48.01920052005013 10.0749
48.04376504619224 10.0632
48.068141469543484 10.0584
48.09252020552573 10.0422
48.11690125590099 10.0591
48.1414751266064 10.0045
48.16586082917454 9.96498
48.19024885144316 9.94095
48.2146391951793 10.0253
48.239222439012764 9.96642
48.26361744916137 9.93365
48.28801478610016 9.89631
48.31241445160131 9.90515
48.337007097209366 9.894969999999999
48.36141144338331 9.846589999999999
48.38581812345755 9.8185
48.41022713920929 9.84803
48.434829215320704 9.8322
48.45924292604658 9.79526
48.48365897780325 9.76704
48.50807737237308 9.7423
48.532688907799276 9.73185
48.55711201168574 9.67651
48.581537463754074 9.6565
48.60615611725119 9.6784
48.63058628942721 9.6331
48.65501881516546 9.64354
48.6794536962573 9.63642
48.70408185970339 9.60488
48.72852147531801 9.57513
48.75296345168211 9.55317
48.77740779059232 9.55563
48.80204549302823 9.54487
48.82649458091802 9.50944
48.85094603676547 9.49939
48.87539986237231 9.44994
48.90004713292306 9.45708
48.92450572200832 9.42309
48.94896668628025 9.424430000000001
48.97343002754588 9.39685
48.99808689542115 9.42595
49.02255501470614 9.42216
49.04702551642794 9.37332
49.0714984023988 9.33255
49.096164896893235 9.30827
49.120642575466796 9.31283
49.145122643748394 9.2816
49.16960510355558 9.24732
49.19428125404938 9.22397
49.2187685210852 9.24436
49.243258185121555 9.240269999999999
49.26794160167084 9.18552
49.2924360839405 9.18158
49.31693296869764 9.16411
49.34143225776915 9.163789999999999
49.36612538195438 9.14758
49.39062950396021 9.1199
49.41513603578346 9.07673
49.4396449792564 9.05879
49.46434784069503 9.030669999999999
49.488861631846454 9.02904
49.513377840166804 9.05353
49.537896467493745 8.98971
49.56260909589029 8.94241
49.587132585683285 9.00255
49.611658500018365 8.93919
49.636186840738596 8.906419999999999
49.66090926588511 8.91618
49.685442483902584 8.89397
49.70997813385706 8.86789
49.734516217597076 8.85827
49.75924846937352 8.85599
49.7837914452858 8.82354
49.80833686055187 8.817689999999999
49.83288471702571 8.76552
49.85762682540054 8.790410000000001
49.882179588965734 8.7739
49.9067347993235 8.75591
49.93129245833333 8.72344
49.95604445336378 8.72565
49.98060703442832 8.705739999999999
50.005172069746266 8.70647
50.02993150438364 8.68592
50.05450147301533 8.66492
50.07907390151433 8.64723
50.10364879174981 8.62779
50.12841816587289 8.611089999999999
50.1529980044635 8.58806
50.17758031042124 8.55033
50.20216508562089 8.56673
50.22694442953363 8.531239999999999
50.25153416817468 8.53835
50.27612638170508 8.51867
50.300721072005196 8.4777
50.325510416102105 8.45
50.350110084975064 8.43464
50.37471223628208 8.45075
50.39931687190919 8.40273
50.424116246675766 8.386510000000001
50.44872587605249 8.37317
50.47333799543065 8.38236
50.49795260670191 8.377460000000001
50.52276204271512 8.34164
50.54738166295838 8.32756
50.57200378079314 8.34126
50.596628398116835 8.273710000000001
50.62144792604559 8.27864
50.646077567609396 8.252130000000001
50.670709714377715 8.23594
50.69553683636198 8.24912
50.72017401885922 8.2323
50.7448137122895 8.24014
50.76945591856022 8.203489999999999
50.79429318636823 8.16643
50.818940443716784 8.15167
50.84359021965163 8.14683
50.868242516085964 8.10033
50.893089960641895 8.108080000000001
50.917747323549435 8.091569999999999
50.94240721271973 8.07473
50.96706963007175 7.9999199999999995
50.99192728239342 8.02616
51.01659478166073 8.04383
51.04126481489051 8.03952
51.06593738400761 7.998360000000001
51.090805275207074 7.966660000000001
51.11548294172845 7.968039999999999
51.14016314993547 7.9363600000000005
51.164845901758845 7.92853
51.18972406304274 7.914510000000001
51.21441192780656 7.893610000000001
51.23910234200271 7.86215
51.2637953075678 7.86702
51.288683770237945 7.87909
51.31338186432707 7.810219999999999
51.33808251561888 7.79827
51.362978729967345 7.81235
51.387684521509755 7.79045
51.41239287610203 7.77515
51.437103795691165 7.71632
51.46201036644977 7.705419999999999
51.486726441956634 7.72635
51.51144508832545 7.72686
51.536166307509156 7.6894100000000005
51.56108326624387 7.673830000000001
51.58580965706056 7.67885
51.61053862657523 7.654089999999999
51.635270176746864 7.603210000000001
51.66019755512065 7.58246
51.68493429268881 7.5716
51.70967361681515 7.56226
51.73441552946465 7.550489999999999
51.759353359237934 7.51922
51.7841004750961 7.511239999999999
51.80885018539685 7.535889999999999
51.833602492111254 7.4651
51.8585508051424 7.46088
51.883308330926425 7.43508
51.90806845906181 7.43796
51.932831191525715 7.4186
51.95779001977161 7.41248
51.98255798721516 7.37334
52.00732856494335 7.38076
52.03229530577543 7.39319
52.057071130455945 7.37183
52.081849571391054 7.30548
52.106630630568695 7.33674
52.13160794279417 7.2902
52.15639426492067 7.29735
52.18118321127822 7.329
52.205974783860896 7.242780000000001
52.23096269971011 7.212389999999999
52.255759551287994 7.2358
52.280559035098186 7.23183
52.30536115314103 7.228160000000001
52.33035970494467 7.189610000000001
52.35516711807904 7.1719800000000005
52.37997717147198 7.17943
52.40478986713005 7.21731
52.42979908731974 7.1092
52.454617094216 7.12372
52.47943774942214 7.0657
52.50426105495102 7.06112
52.529280976059844 7.0690100000000005
52.554109609024096 7.023110000000001
52.57894089837482 7.02919
52.60377484613117 7.03189
52.62880550079408 7.010110000000001
52.65364479223379 7.007439999999999
52.67848674816189 6.96828
52.70352547971946 6.97933
52.72837279155837 6.94468
52.753222773982785 6.94175
52.778075429022984 6.910480000000001
52.80312495150885 6.91075
52.827982978797436 6.90128
52.85284368481815 6.89055
52.87770707160767 6.84287
52.90276741793998 6.83375
52.92763619336701 6.85025
52.952507655698504 6.8272699999999995
52.977381806977576 6.80543
53.00245301017842 6.809410000000001
53.02733256653592 6.767639999999999
53.052214817996074 6.78108
53.077099766608484 6.77739
53.102181859804446 6.73528
53.127072229988265 6.735239999999999
53.15196530349892 6.7452
53.17686108239249 6.6978100000000005
53.20195409881522 6.663469999999999
53.22685531582556 6.66625
53.25175924441303 6.65
53.27666588664027 6.652810000000001
53.30176985962693 6.6184
53.3266819565689 6.5991800000000005
53.35159677336455 6.58684
53.376514312083096 6.612489999999999
53.40162927507703 6.536969999999999
53.42655228516116 6.5343
53.45147802340193 6.55319
53.47660125628886 6.5281
53.50153247842639 6.49412
53.52646643496923 6.43888
53.55140312799818 6.46972
53.576537409691696 6.4848
53.60147960336152 6.42446
53.626424539786164 6.41723
53.65137222105307 6.4065
53.67651758529126 6.42748
53.70147078399681 6.44106
53.72642673383343 6.40575
53.75138543689533 6.41257
53.776541917524526 6.34066
53.801506154876755 6.318980000000001
53.826473151763246 6.28059
53.851442910284916 6.28592
53.87661054126026 6.2804400000000005
53.9015858509782 6.2778599999999996
53.92656392866066 6.26119
53.95154477641532 6.29364
53.976723591801296 6.2645800000000005
54.00171000771266 6.22358
54.02669920004598 6.17836
54.051691170915745 6.22992
54.076881204886796 6.20171
54.101878760928514 6.197430000000001
54.12687910187696 6.192080000000001
54.152077577768296 6.14268
54.1770835166946 6.13197
54.20209224691339 6.09663
54.22710377055121 6.1009400000000005
54.25231352511594 6.0677900000000005
54.27733066384342 6.00298
54.30235060239643 6.02687
54.32737334290836 6.02919
54.35259441062629 5.958019999999999
54.377622783395324 5.92995
54.40265396455061 5.95293
54.42768795623251 5.90639
54.45292037169559 5.8871
54.477960012857906 5.90446
54.50300247099511 5.84368
54.52804774825457 5.83384
54.55329154616743 5.80934
54.57834249018678 5.79734
54.6033962597977 5.77843
54.6284528571545 5.71591
54.653708072335164 5.69848
54.67877035378786 5.73724
54.70383546947698 5.7328
54.72890342156389 5.71375
54.7541700889442 5.64294
54.77924374251975 5.6028
54.8043202390049 5.574269999999999
54.82959552413022 5.5864400000000005
54.8546777351945 5.55915
54.87976279569621 5.5240599999999995
54.90485070780914 5.56623
54.930137506558005 5.529
54.95523115074295 5.51992
54.98032765308844 5.47558
55.005427015775496 5.46936
55.03072536339621 5.44528
55.05583047570572 5.4364099999999995
55.080938454927676 5.43535
55.10604930325027 5.3234900000000005
55.131359235107396 5.38056
55.15647585066083 5.33499
55.181595341907496 5.329619999999999
55.20671771104285 5.26167
55.232039262617704 5.25433
55.25716741665048 5.2452
55.28229845518636 5.27415
55.30743238042802 5.15537
55.33276558731939 5.13852
55.357905315183636 5.11857
55.383047936390035 5.08249
55.40819345314859 5.09928
55.433538351073295 5.06996
55.458689688238415 5.08125
55.483843927614096 5.01322
55.509197623043605 4.996169999999999
55.53435769621134 4.98246
55.55952067826466 4.89541
55.5846865714265 4.93064
55.61005202069737 4.86719
55.63522376553902 4.87235
55.66039842818645 4.852580000000001
55.68557601087004 4.91515
55.7109532500271 4.8246400000000005
55.73613670233794 4.82252
