TT I
1.2716486653135266 7.7444
1.2939594142134223 7.46997
1.3162702121660406 6.97284
1.3385810600174564 6.4231300000000005
1.3608919586137629 6.81451
1.383202908801069 6.567769999999999
1.405513911425503 6.97917
1.4278249673332093 6.42772
1.4501343378461518 6.1759900000000005
1.4724455028545926 5.78601
1.4947567236847858 5.8059199999999995
1.517068001182951 6.284680000000001
1.5393793361953272 6.72001
1.5616907295681737 6.81243
1.5840021821477681 5.73048
1.60631369478041 5.52171
1.6286252683124185 5.41843
1.6509369035901333 4.57359
1.6732468618895553 5.0898
1.695558623192809 4.73979
1.7178704487808514 4.4186
1.7401823395001077 4.63865
1.7625012545597203 5.11801
1.7848028405262486 5.31511
1.8071218901122095 5.08747
1.8294236121921872 4.68001
1.8517427996910911 4.68691
1.8740620574440425 5.06484
1.8963639900671978 5.18516
1.9186833908139995 4.72693
1.9409854680117449 5.29791
1.9633050151394713 4.97149
1.9856246367570705 4.95064
2.0079269371922672 5.0903599999999996
2.03024671027244 3.95669
2.0525491637446027 4.23656
2.074869091674931 4.099880000000001
2.097171701569106 4.44951
2.1194917877373847 5.229509999999999
2.141811954326636 4.68099
2.164114805233074 5.0553
2.186435135143035 6.5853600000000005
2.208738150935709 16.9294
2.231058647554722 37.4022
2.2533792288321184 28.5363
2.275682498336085 11.703
2.298003251406138 5.83765
2.3203066942619714 5.3301300000000005
2.3426276225136022 4.44266
2.3649486396617507 4.54599
2.387252348930071 5.2253099999999995
2.4095735463442893 4.955769999999999
2.4318774374315884 4.74585
2.4541988185014043 5.66099
2.476502894794693 6.1006
2.498824462909887 6.24538
2.521146125856138 5.8891
2.5434504863470337 5.93826
2.5657723414244717 6.72443
2.588076895590662 7.069719999999999
2.610398946189713 6.5011
2.6327210958598384 6.28276
2.6550259469304716 6.35533
2.6773482972090137 7.35352
2.6996533504259 7.033810000000001
2.7219759047039602 6.90608
2.744298562293959 7.354439999999999
2.7666039251246595 7.41487
2.7889267918020164 7.641089999999999
2.8112323652516555 7.57492
2.833555444408179 7.895010000000001
2.8558786311183852 7.415769999999999
2.8781845268938557 8.612960000000001
2.9005079311721484 9.25388
2.9228140460410397 8.959010000000001
2.9451376712799635 9.44215
2.967444008632326 9.455110000000001
2.9897678582247247 9.73602
3.0120918213106695 10.2954
3.0343984987899373 10.9244
3.0567226913198637 11.1536
3.079029599759726 11.3377
3.101354025127254 12.442
3.123678568232338 12.8467
3.145985829517914 13.1325
3.16831061055229 13.7522
3.1906181112775593 14.3597
3.212943133635653 14.6734
3.2352682779763207 15.1347
3.2575761442691227 15.4829
3.2799015350264273 15.9829
3.302209649240067 16.7035
3.3245352898092655 17.2082
3.3468436553365257 17.4418
3.369169549113219 17.9593
3.3914955708171384 19.5099
3.413804319727358 19.4149
3.4361305997334863 19.1034
3.4584396084414553 19.8618
3.4807661501462652 20.9206
3.503092824025881 21.5415
3.5254022288463154 22.1954
3.5477291695206588 22.3451
3.5700388426251948 23.3725
3.5923660534916446 25.2827
3.6146934007816114 44.1104
3.637003482731501 114.335
3.6593311053109985 129.349
3.681641464033634 70.9014
3.7039693653009733 33.6208
3.726297407241705 27.0288
3.7486081875460804 26.3398
3.7709365132734978 26.1423
3.793247578841633 27.0587
3.8155761917550093 27.5678
3.8378875459837216 27.3526
3.8602164494827234 28.4097
3.882545499606844 29.2282
3.9048572932539183 29.5328
3.9271866390645718 29.8186
3.9494987298666713 30.4513
3.971828374764527 31.2714
3.9941581705403255 31.4421
4.016470713506008 31.9979
4.038800813471445 33.1776
4.061113662089144 33.763000000000005
4.0834440696459176 34.561
4.105774632334751 34.8743
4.128087945865126 35.6881
4.150418821249301 36.658
4.172732448931298 38.3344
4.195063640413578 40.499
4.2173775856475215 45.2444
4.239709096631102 85.9556
4.262040768704612 312.346
4.284355196706267 433.961
4.306687193387355 276.487
4.329001947444346 98.3474
4.35133427213731 51.8893
4.373666762177566 46.8337
4.395982011761091 46.6585
4.418314834921175 47.9284
4.44063041906622 57.391999999999996
4.4629635787515625 72.7294
4.4852969080429785 72.9184
4.5076130004776225 58.4393
4.529946671403969 53.423
4.552263106909177 53.0213
4.574597122877047 53.3845
4.596931312711224 53.5394
4.619248269273446 54.6472
4.6415828092605835 56.128
4.663900117405352 56.8834
4.686235010953232 58.663999999999994
4.708552674085913 59.5729
4.730887924602802 60.9948
4.753223354952695 62.5107
4.775541557023902 63.8979
4.797877349456786 65.572
4.820195915032126 68.2122
4.842532072957498 69.237
4.864868414979744 71.137
4.88718753227192 73.7009
4.909524244902505 75.8627
4.931843734218147 77.1009
4.954180820867835 80.0816
4.976518095879839 83.2914
4.998838149695359 86.4503
5.021175803844231 90.695
5.043496238205739 94.5809
5.065834274903528 99.2603
5.088172504230693 105.2
5.1104935158799565 114.175
5.132832132875765 145.78799999999998
5.155153533596801 210.798
5.1774925416746225 259.471
5.199814334878411 485.23699999999997
5.2221537374521505 1283.08
5.244493338631803 3051.92
5.266815727034316 6720.8
5.289155727832427 11405.4
5.311478517248165 9698.14
5.333818921080011 3902.25
5.356159527788849 841.222
5.3784829252032536 237.18
5.400823940070432 166.373
5.423147747031976 141.466
5.445489173474152 127.508
5.467830807066149 120.859
5.490155234831516 115.874
5.512497285125229 110.861
5.534822130975162 108.279
5.557164601388673 106.26700000000001
5.579489868738879 103.14299999999999
5.601832762690846 102.21799999999999
5.6241758697774475 101.529
5.646501775867269 100.546
5.668845311622074 98.5552
5.691171647754637 97.9735
5.713515615597765 96.7457
5.735859800852677 95.5293
5.758186788542988 95.1509
5.780531411018185 95.9377
5.802858837297399 95.6051
5.825203900414495 95.62899999999999
5.8475491852224 96.6175
5.869877275883075 97.031
5.892223006467101 98.2886
5.914551544266608 99.8711
5.936897724049891 103.721
5.959244129804903 111.45700000000001
5.981573344815301 136.423
6.0039202049061 253.446
6.026249875609095 545.646
6.04859719346037 1051.8
6.070927323278297 2044.82
6.093275102315365 3841.75
6.115623113320588 4897.84
6.137953938319995 3635.79
6.160302415650845 1286.06
6.182633708324452 317.002
6.2049826554078376 135.30200000000002
6.227331838745022 102.946
6.249663839443684 91.89
6.27201349767565 88.3179
6.294345974611799 96.3555
6.316696111167083 114.016
6.339046488263839 106.82
6.361379686074702 86.3988
6.383730546639482 75.4708
6.406064229255215 71.6133
6.428415576718203 71.2194
6.450749747566656 69.7544
6.47310158535871 68.4393
6.495453669698332 68.1372
6.517788579421056 66.7887
6.540141159237969 65.9722
6.562476565766648 65.6686
6.5848296444934045 64.9068
6.607182974060425 64.8864
6.6295191323281015 65.1248
6.651872965955752 69.4497
6.6742096296068985 103.916
6.6965639707294615 170.03900000000002
6.71891856698715 173.06400000000002
6.741255995248479 111.29799999999999
6.763611104154477 73.7381
6.785949046381137 62.9119
6.808304671371482 60.6981
6.8306605557940046 60.4824
6.852999275508618 59.7308
6.875355681171544 59.167
6.897694923437771 58.8136
6.92005185377892 58.4842
6.9423916220322655 58.7653
6.964749080490181 57.43899999999999
6.987106804399774 57.5217
7.009447368180821 57.5202
7.031805625367033 57.4177
7.054146723727803 57.4331
7.076505517631004 57.1205
7.098864581288365 57.1995
7.121206488070854 57.4731
7.143566093607822 57.0443
7.165908543567245 57.6113
7.188268694426048 57.2089
7.2106291193438095 57.7436
7.232972390625943 59.4517
7.255333366030969 75.524
7.277677189091925 149.49200000000002
7.300038718428332 220.50099999999998
7.322400526130865 185.102
7.344745183422596 106.596
7.367107550224791 66.7687
7.389452767901992 58.5646
7.411815697249891 57.50899999999999
7.434161478756298 56.2313
7.456524974096713 56.1798
7.478888753837185 56.0982
7.501235387657368 56.2252
7.523599738562711 56.3489
7.545946944825532 56.7799
7.568311870344528 57.3055
7.5906770845765665 57.4829
7.613025156078678 59.1607
7.635390950099687 61.2513
7.657739602662809 60.0997
7.680105979923558 58.2929
7.702472650212829 57.7893
7.724822180948224 57.4544
7.747189439655568 57.91
7.769539560075357 58.0488
7.791907410653562 58.1853
7.81425812420825 58.3203
7.836626570110925 58.549
7.858995315087906 59.2002
7.881346924933401 59.5475
7.903716270417482 60.2629
7.926068482028405 60.489
7.948438431475253 61.3468
7.9708086843180235 61.5623
7.993161805171116 62.3361
8.015532667162402 62.629
8.037886398416653 63.818000000000005
8.060257873014221 64.0967
8.082629655331942 64.8228
8.104984308787587 65.9267
8.127356708900503 70.184
8.149711981398308 78.1772
8.172085002766314 81.4737
8.194458336181368 76.1919
8.216814543847752 72.0731
8.23918850371002 71.8494
8.26154533906492 72.2704
8.283919928836452 73.9865
8.306277395339652 74.8956
8.328652618483376 76.1804
8.351028159736202 78.4881
8.373386579575245 81.158
8.395762759396959 83.0086
8.418121819038275 89.18700000000001
8.440498640894003 107.11399999999999
8.462875785192262 127.161
8.485235811156207 142.181
8.507613602688501 187.736
8.529974277114228 287.039
8.552352719347912 423.75199999999995
8.574731488360351 643.441
8.59709314210385 1048.63
8.619472567021075 1616.59
8.64183487789147 2098.98
8.664214962183097 1957.0
8.686577933647762 1174.66
8.708958680784317 478.68699999999995
8.731339760774953 198.19299999999998
8.753703729764451 123.36399999999999
8.77608547780821 105.73100000000001
8.798450116065078 100.412
8.820832535634787 96.4507
8.843215292401656 94.4055
8.865580941199045 92.7646
8.887964374703538 91.7634
8.910330701447199 93.2357
8.932714815164482 97.0261
8.955099270424924 96.4012
8.977466620733543 92.3431
8.999851761421976 88.3194
9.022219798361645 86.5872
9.04460562795561 85.9475
9.066991803441677 85.17200000000001
9.089360876979615 84.9787
9.111747746589993 84.6097
9.13411751544971 84.4342
9.156505082664324 84.116
9.178875550323522 84.2093
9.20126381862328 85.0196
9.223652438908596 85.5541
9.246023961427412 84.6329
9.26841328802173 84.0837
9.290785518039224 83.9458
9.313175554425882 85.1864
9.335565947154315 85.2254
9.357939245086508 85.2453
9.380330352834827 85.3231
9.40270436697103 85.5659
9.425096193225055 85.1538
9.447488380180165 86.2591
9.469863475295412 86.3675
9.492256385987508 86.7025
9.514632206018318 87.5649
9.537025843935714 87.8521
9.559402392368193 88.8922
9.581796761000229 90.1183
9.604191496441521 91.4701
9.626569144158516 95.8433
9.648964615551032 101.81
9.671343000390081 104.417
9.693739211225699 101.04700000000001
9.716135793237463 96.8659
9.738515290448102 95.6929
9.760912617143402 96.8425
9.783292860202891 97.9945
9.805690935076182 99.1682
9.828089385495742 100.376
9.850470754023561 103.022
9.872869957865444 112.79700000000001
9.89525208097539 133.391
9.917652041736662 151.378
9.940052382417589 151.196
9.962435644102392 156.234
9.984836746950979 195.575
10.007220771957746 268.556
10.029622640473708 373.06
10.052007432299963 522.569
10.074410069984072 737.495
10.096813093716005 1097.56
10.119199042482517 1565.72
10.141602840636468 1930.98
10.163989564971628 1783.96
10.186394141051062 1156.49
10.208799107559706 521.101
10.231187001965623 234.97099999999998
10.253592751657669 142.503
10.275981430388155 121.67399999999999
10.298387966769793 119.889
10.320794897965431 123.684
10.343184759907361 123.06299999999999
10.36559248305461 115.07
10.387983138083852 109.492
10.410391656691655 112.12200000000001
10.432800574501677 125.434
10.455192425893369 143.975
10.47760214443012 169.253
10.499994797678786 204.718
10.522405320453982 263.2
10.54479877906917 359.649
10.567210109595656 474.77
10.5896218454736 565.327
10.612016518879773 540.691
10.634429067781074 400.046
10.656824555333241 235.085
10.679237920773568 138.311
10.701651695961992 102.354
10.724048411481384 93.3136
10.746463008485165 89.4536
10.768860546937125 87.7885
10.791275969274796 86.0604
10.81369180576079 84.6568
10.836090585366925 83.6526
10.858507252467449 82.0943
10.88090686379991 81.4523
10.903324365036394 80.8936
10.925724811614439 81.3691
10.948143150509463 83.4281
10.970561909719066 82.7968
10.992963615930844 80.23899999999999
11.015383218085756 77.5081
11.037785768347074 75.7038
11.06020621697282 75.0359
11.082627090322113 74.4586
11.105030913430326 74.2152
11.12745263854165 74.9718
11.149857314510728 79.9365
11.172279894912576 88.3285
11.194702904450653 90.6057
11.217108866490921 84.9663
11.239532736615194 78.7635
11.26193956033512 75.4353
11.284364294577085 73.15100000000001
11.306789462371718 71.0399
11.329197585398376 69.32300000000001
11.351623622610898 69.0827
11.37403261614354 68.3108
11.396459526308487 68.0618
11.418869393879497 67.8145
11.441297180532617 67.3482
11.463725406927658 66.8753
11.486136592353875 67.0376
11.508565700543707 67.9924
11.530977768845315 70.3014
11.553407762368774 71.9959
11.575838200059769 71.1611
11.598251599479612 68.1593
11.620682927815501 66.3017
11.64309721895548 65.5158
11.665529441478206 65.115
11.687962112597958 64.7873
11.710377748130886 64.8119
11.732811318753434 64.958
11.755227854859067 64.9937
11.777662328529495 64.9054
11.800079768750786 64.6402
11.822515149015453 64.3234
11.844950984084935 64.6786
11.867369787303163 64.4338
11.889806534289491 64.4254
11.912226250487029 64.7492
11.934663912939751 65.0813
11.9571020346363 64.94
11.979523127133968 64.9367
12.001962169624331 65.7231
12.024384183972964 67.1923
12.046824150809913 70.7956
12.069264581333726 76.6812
12.091687985297767 83.2237
12.11412934550045 91.6978
12.136553680195208 102.79899999999999
12.158995973632788 119.51100000000001
12.181438735204349 141.864
12.20386447284199 174.09
12.226308172985636 202.61599999999999
12.24873485024193 212.03799999999998
12.271179492516982 186.65599999999998
12.293607112949127 145.33100000000002
12.316052700916226 108.337
12.338498763250042 86.5674
12.360927805303868 75.4573
12.383374818673879 69.6128
12.405804812803074 67.0317
12.428252780773262 66.6658
12.45070122756722 66.5054
12.473132656675375 66.3022
12.49558206341869 66.4664
12.518014453510101 66.5309
12.540464823770117 66.5891
12.562915677315177 66.9277
12.58534951575545 67.86
12.607801338171472 70.264
12.630236146511358 77.5935
12.652688941369085 84.6054
12.675124723177234 85.3209
12.697578494048786 79.7679
12.720032754458185 73.4146
12.742470003354093 70.6397
12.764925245138771 69.6973
12.787363476431278 69.9273
12.809819703166806 70.4681
12.83227642391173 71.1792
12.854716135692716 71.7755
12.877173846755147 73.115
12.899614549869717 73.1091
12.9220732548287 73.8876
12.94453245827299 74.4923
12.966974655289818 75.2491
12.989434858002571 76.0669
13.011878055298721 76.8663
13.034339260862497 77.9182
13.056800969391883 78.9423
13.079245674017244 81.2493
13.101708390774869 83.7061
13.12415410463411 92.0031
13.146617833206086 105.75
13.169064559883248 119.51299999999999
13.191529303857127 135.025
13.213994557076367 152.872
13.236442809902437 179.15599999999998
13.258909083908291 220.33900000000003
13.28135835851934 271.601
13.30382565690295 339.76199999999994
13.326293469022952 409.98900000000003
13.348744283242008 441.33099999999996
13.371213125129904 403.651
13.39366497011003 304.915
13.416134845360597 203.045
13.438605238843131 139.105
13.46105863690397 114.041
13.483530069144786 112.005
13.505984506951902 118.105
13.528456981549432 127.885
13.550929978879088 140.408
13.573385983253365 157.32299999999998
13.595860028340867 184.00900000000001
13.618317081455832 223.21900000000002
13.64079217790333 273.762
13.663250283359057 325.866
13.685726434770173 371.416
13.708203115221277 362.769
13.730662806148091 301.689
13.75314054697177 216.886
13.775601299246777 146.658
13.798080104050406 106.259
13.820559442405358 89.96600000000001
13.843021793671388 85.0184
13.865502201420897 83.09200000000001
13.887965623051947 82.4783
13.910447103807167 81.3673
13.932929122629764 79.4487
13.955394156785959 79.234
13.977877254034569 78.0797
14.000343367582113 77.2782
14.022827546871707 76.7802
14.045294743423524 75.9532
14.06778000837062 75.185
14.090265817715476 75.1348
14.112734645763819 74.6988
14.13522154619454 74.905
14.157691466286913 75.1915
14.180179461423874 74.6108
14.202668005486178 73.87899999999999
14.22513957064374 72.7912
14.247629214846473 72.533
14.270101881097517 72.3701
14.29259262906496 72.9576
14.315083930490205 73.7303
14.337558255389705 74.2355
14.360050666019726 73.9223
14.382526101071944 72.6074
14.405019624534942 71.4051
14.427513705993134 70.9785
14.449990813291825 70.8777
14.47248601302899 70.5837
14.49496423954951 70.8048
14.517460561197822 71.0182
14.539939910570322 70.6158
14.562437357763558 71.2936
14.58493536931253 72.4517
14.607416409993311 73.9492
14.62991555254159 74.6893
14.652397725157423 74.6815
14.674898002342799 73.4455
14.697398848433282 72.5155
14.719882725991326 73.2773
14.74238471217934 74.195
14.764869730765593 77.9213
14.787372860692983 82.0292
14.809876564079925 87.1459
14.83236330125751 93.0407
14.854868153850365 100.061
14.877356041159485 110.598
14.899862046604186 123.156
14.922351087688757 142.622
14.944858249632887 166.768
14.967365991421232 193.86700000000002
14.989856770231246 218.347
15.012365673994204 227.657
15.03485761569738 205.753
15.05736768508665 165.743
15.07987833888692 128.079
15.102372032001655 98.7926
15.124883856909658 81.472
15.14737872204565 75.3026
15.169891721717274 73.2398
15.192405310371893 73.1894
15.214901940621196 73.7674
15.237416709527137 74.1874
15.259914520936249 74.3815
15.282430473753607 73.2718
15.304947020131227 71.7697
15.327446610371178 70.5044
15.349964346154254 69.5105
15.372465126703139 69.322
15.394984055556009 68.6424
15.417486030076159 68.5128
15.44000615566487 68.1139
15.462526881230803 68.0443
15.485030653812652 68.3958
15.507552581617434 68.4837
15.530057557334603 68.59
15.55258069104857 68.6356
15.575104429329837 68.499
15.597611216864632 67.9013
15.620136166564563 68.1246
15.6426441664095 68.9838
15.665170331202765 71.7883
15.687697105158826 75.5445
15.710206930593545 79.3524
15.732734925158933 83.6894
15.755245972089478 88.8748
15.77777519094324 95.6307
15.800287463046663 105.08
15.822817909869592 119.14299999999999
15.84534897229804 136.757
15.867863089299354 159.4
15.890395385222186 182.81400000000002
15.912910736597423 199.27599999999998
15.935444269699861 199.21099999999998
15.957978423016485 176.66099999999997
15.980495633101265 141.861
16.003031029129367 109.331
16.02554948280019 84.0614
16.048086125229432 72.1764
16.070623392487107 68.6205
16.09314371869582 67.794
16.11568223789321 66.9556
16.13820381691126 65.5429
16.160743591742527 64.18
16.183283996022084 62.9234
16.205807461423195 61.8458
16.228349126881973 61.0502
16.25087385432698 61.0222
16.27341678466365 60.398
16.29594277784926 60.2049
16.31848697676433 60.8387
16.341031811604868 61.4826
16.36355971058487 61.9212
16.3861058195587 61.6549
16.40863499352978 60.2847
16.431182380342005 59.0777
16.453730407713202 58.2269
16.476261501364792 57.8183
16.498810812136167 57.4177
16.52134319004079 57.4371
16.54389378792203 57.1925
16.566445031001553 57.066
16.588979342490088 56.8757
16.61153187824822 56.6866
16.634067483263312 56.6137
16.656621315414416 56.6588
16.679175797408888 56.373999999999995
16.701713349928728 56.3956
16.72426913389191 56.6787
16.74680798922351 56.5892
16.76936507887444 56.7099
16.791905240734874 56.9498
16.814463639794468 56.6386
16.837022695210294 56.6411
16.859564824093756 56.9989
16.882125194503903 58.0038
16.904668639217885 59.1191
16.927230328348003 59.3517
16.949792678493612 59.2685
16.972338104193863 58.5176
16.994901778652235 57.8081
17.017448529496576 57.6273
17.040013531998152 57.6436
17.06257920018044 58.023999999999994
17.0851279459922 58.9745
17.107694947817667 59.9569
17.130245028099072 60.7477
17.15281336730298 62.2505
17.17536478578733 63.5761
17.19793446610687 65.1843
17.220504818648422 67.3553
17.243058251703697 69.5044
17.265629950971032 73.515
17.288184731571736 77.7844
17.310757781306908 82.8707
17.33333150794385 85.2897
17.355888317140174 85.1457
17.37846339986244 81.7345
17.401021565958885 75.6727
17.42359800851343 69.5288
17.44617513265564 65.2378
17.468735341390783 62.576
17.491261035594565 61.29
17.51396340099364 61.0709
17.536490463869136 61.0657
17.559018209820174 61.1004
17.58154663977963 61.178999999999995
17.604251766089718 61.3103
17.626781572227713 61.4174
17.64931206518155 61.7042
17.671843245885103 62.4871
17.69455114821572 62.7128
17.717083712612634 62.9357
17.739616967569667 63.016999999999996
17.762150914021706 63.1807
17.78486160749854 63.1142
17.807396945166804 63.8124
17.829932977143503 64.692
17.85246970436452 66.4815
17.875183204129467 68.5557
17.897721330097664 70.9998
17.920260154126645 73.5467
17.942799677153296 76.6465
17.9655159983646 79.4101
17.988056927677544 83.3891
18.010598558807683 88.9569
18.033140892692916 96.5139
18.05586005052525 105.29799999999999
18.07840379824407 116.18799999999999
18.10094825154059 128.582
18.12366954819864 141.054
18.146215420998306 145.839
18.16876200220057 141.36700000000002
18.191309292745153 129.132
18.214033452627167 113.81200000000001
18.236582170236648 98.9045
18.259131600016456 90.2682
18.281681742907335 87.3189
18.304408781233683 89.7708
18.32696035875955 93.4649
18.349512652227624 98.5379
18.372065662579683 104.39200000000001
18.394795594587553 109.04
18.41735004715306 108.396
18.43990521943684 103.531
18.46246111238171 93.835
18.485193953325208 83.1396
18.507751296070428 74.5664
18.530309362314178 69.0105
18.552868153000343 66.0317
18.57560391815056 64.2781
18.59816416623245 63.8544
18.620725141597372 63.3898
18.643286845190268 62.9196
18.666025549835414 62.4703
18.688588718427933 61.9297
18.711152618092243 61.7723
18.73389353884365 61.505
18.75645890921984 60.731
18.77902501351406 60.4182
18.801591852673102 60.5161
18.824335739722738 59.8899
18.846904057212626 59.9394
18.8694731124168 59.648999999999994
18.89204290628315 59.5326
18.914789774966803 59.3528
18.937361054791623 59.367
18.959933076131318 58.9504
18.982505839934877 58.8235
19.00525570560582 58.9999
19.027829963004184 58.8847
19.05040496572238 59.0405
19.072980714710468 59.0316
19.095733592739563 59.04
19.11831084296757 59.5797
19.140888842324735 60.0577
19.16346759176222 60.571000000000005
19.18622349753803 61.0759
19.208803755869358 61.7121
19.231384767143577 62.3085
19.253966532312948 63.2484
19.276725481241822 64.8453
19.29930876296784 66.7098
19.3218928014549 69.1801
19.34465404436217 72.6638
19.36723960516257 76.1237
19.389825925592426 78.6062
19.412413006605938 79.2447
19.43517731967805 76.7998
19.457765930683355 72.0838
19.48035530514408 67.4301
19.50294544401556 62.7346
19.525712842708348 59.2876
19.54830451925909 57.5021
19.570896963095727 56.0296
19.593490175174704 55.7405
19.616260674962184 55.6791
19.638855432416964 55.2709
19.661450960992624 55.3404
19.68404726164677 55.1775
19.706820878021247 54.8744
19.729418731756834 55.2583
19.752017360452857 55.0789
19.77461676506804 55.0928
19.797393513540218 55.343999999999994
19.819994478951667 55.7197
19.84259622316767 56.2729
19.8651987471481 56.9107
19.887978643247177 57.2496
19.91058273574792 57.4392
19.933187610901943 57.89
19.955969879466828 58.7479
19.97857632894404 59.8125
20.00118356396599 61.0077
20.023791585494575 62.8677
20.046577028914875 65.2165
20.069186632506966 67.4235
20.091797025500632 69.953
20.114408208858933 71.7771
20.137196842715273 72.4333
20.159809615886765 71.6161
20.18242318232135 68.7444
20.20503754298326 66.2751
20.227829382875154 64.2183
20.250445341109344 63.1338
20.27306209647285 63.2594
20.29567964993108 64.2023
20.31847471147704 65.5465
20.34109387027612 67.3323
20.363713830075454 67.7486
20.386334591841646 67.1341
20.409132890679302 64.9179
20.431755265564437 61.4519
20.454378445325528 58.5344
20.477002430930366 56.1494
20.499803982716553 54.5101
20.522429589228004 53.657
20.54505600449589 53.1761
20.567683229489194 52.7421
20.590488049900088 52.3686
20.61311690359731 52.0081
20.63574656993626 51.7522
20.658553853717297 51.2594
20.681185154618298 51.3477
20.703817271080066 51.3799
20.72645020407368 50.9155
20.749260783967177 51.0085
20.771895359337133 50.8566
20.794530754161617 50.5277
20.817166969412938 50.2591
20.83998086114876 50.2913
20.86261872660049 50.2893
20.885257415405402 50.3407
20.90789692853701 50.2356
20.930714147864748 50.1607
20.953355319030678 50.2056
20.97599731745334 50.3563
20.99864014410749 50.2109
21.021460706796564 50.232
21.044105199328826 50.4572
21.06675052302631 50.5742
21.089396678865015 50.6311
21.112220600704806 50.9185
21.134868430275347 51.2838
21.15751709492456 51.4124
21.180166595629693 51.4387
21.202993892429635 52.1264
21.22564507473034 52.6359
21.24829709602816 52.9836
21.27112693608965 53.3518
21.293780644891275 53.4747
21.316435195634053 52.7091
21.339090589297417 52.0127
21.361923832041875 51.5296
21.384580921090404 50.5768
21.407238856007325 50.2208
21.429897637773326 50.0005
21.45273429906592 50.0379
21.475394784108598 49.8839
21.498056118951983 49.7236
21.520718304578022 50.1578
21.543558400304388 50.1412
21.566222297108816 50.3194
21.58888704765135 50.5599
21.61155265291521 50.9664
21.63439619898156 51.5575
21.657063523335786 51.6801
21.67973170537063 52.0234
21.7024007460706 52.5404
21.72524775840385 53.1061
21.747918526116475 53.9279
21.770590155457388 54.8937
21.79326264741238 56.1272
21.816113141960237 57.614
21.838787368860547 59.2472
21.861462461341976 61.1546
21.884315579735777 63.2016
21.90699241312273 65.1073
21.92967011506078 66.7497
21.95234868653799 67.1374
21.9752053151131 66.6197
21.997885635446785 64.7107
22.020566828293532 62.5556
22.04324889464272 60.016999999999996
22.066109049404666 58.2639
22.088792872571794 57.2397
22.111477572219204 57.2511
22.1341631493376 57.7139
22.157026846313123 57.9846
22.179714188221507 57.6268
22.202402410582668 56.6632
22.22509151438863 55.1323
22.24795876962584 53.6214
22.270649646204486 52.7047
22.293341407213727 51.8337
22.316034053646906 51.108000000000004
22.338904883215342 50.8326
22.36159931041458 50.8015
22.38429462602756 50.6262
22.40699083104897 50.6098
22.429865251039757 50.6455
22.452563244831367 50.7308
22.47526213102522 50.5728
22.49813925616515 50.5503
22.520839937143307 50.1782
22.543541513520587 50.1779
22.56624398629403 49.9517
22.589124730075895 50.0878
22.611829005656723 50.218
22.63453418063466 50.1252
22.657240256008077 50.4627
22.680124634582935 50.568999999999996
22.70283252079775 50.9
22.725541310413075 51.0557
22.74825100442868 51.2272
22.771139033969575 51.71
22.79385054687155 51.8761
22.81656296718292 52.4572
22.83927629590484 53.1114
22.862167992606945 53.9325
22.88488314827121 54.7438
22.907599215359284 55.5415
22.93031619487366 56.8591
22.953211574954405 57.9827
22.975930389478226 59.1407
22.998650119445763 60.0691
23.02137076586092 59.8017
23.044269845560063 59.0338
23.06699233506288 57.2602
23.089715744034912 55.2102
23.112617610931565 53.343
23.135342869061212 51.9221
23.158069049684816 51.1006
23.1807961538087 50.5923
23.20370174880544 50.4215
23.226430710184808 50.5021
23.249160598093425 50.5234
23.271891413539002 50.49
23.294800752937697 50.6155
23.31753343374794 50.7395
23.340267045128353 50.7706
23.36300158808808 51.3199
23.38591468821339 51.4159
23.408651104658304 51.5805
23.431388455719986 51.8918
23.454126742409 52.5899
23.4770436196085 53.4306
23.499783787914662 54.3912
23.522524894889884 55.318000000000005
23.54526694154616 56.5445
23.56818761219047 57.7566
23.59093154860734 58.703
23.613676427751283 59.6393
23.636422250635754 59.4424
23.659346731118656 58.3966
23.68209445191868 56.6315
23.704843119509587 54.2644
23.72759273490623 52.0809
23.750521041644767 50.3482
23.77327256312355 49.1359
23.796025035462787 48.3354
23.818956224555475 47.6803
23.841710609113413 47.6042
23.86446594758979 47.3722
23.887222241002014 47.1216
23.910157285144578 46.6347
23.932915498962537 46.7051
23.955674670778713 46.6276
23.978434801611975 46.3777
24.001373717286125 46.1847
24.024135776723917 46.2056
24.046898798245582 46.0819
24.06966278287146 45.8634
24.092605586582614 45.7088
24.115371508023642 45.6637
24.1381383956401 45.5524
24.16090625045381 45.4786
24.183852958731244 45.5148
24.206622758582608 45.191
24.229393528706886 44.96
24.252165270127392 45.1904
24.27511589952438 45.0969
24.297889594216997 44.8742
24.32066426328598 44.7149
24.34343990775613 44.714
24.36639447485003 44.753
24.38917208083877 44.532
24.41195066531332 44.3624
24.43490819850244 44.5303
24.457688750692377 44.2444
24.48047028445616 44.2047
24.503252800821233 44.3713
24.526214300784112 44.378
24.548998793132213 44.4788
24.57178427117417 44.5077
24.59457073593893 44.4728
24.617536219319863 44.2456
24.64032466834748 44.4673
24.663114107195035 44.4148
24.685904536893013 44.0015
24.708874020360852 44.117
24.731666442613744 43.9244
24.754459858818787 43.9111
24.777254270007962 43.6842
24.80022777025625 43.6194
24.82302418230472 43.7571
24.845821592443674 43.6462
24.86862000170663 43.5158
24.891597535453727 43.3433
24.914397953892728 43.6875
24.93719937456671 43.5883
24.96000179851076 43.7048
24.98298338249997 43.915
25.00578782394922 44.1892
25.028593271784167 44.0612
25.05157790644186 44.36
25.07438537804115 44.4601
25.097193859145293 44.8013
25.120003350792075 44.8953
25.142992065061257 45.2349
25.165803588823465 45.6938
25.18861612625217 45.8597
25.211429678386736 45.9474
25.234422489079968 46.1001
25.257238081693636 46.0163
25.280054692141732 46.0203
25.3028723214652 46.0119
25.325869245420463 46.056999999999995
25.348688923599397 46.2008
25.371509623787006 46.3973
25.394331347025812 46.2763
25.41733240110666 45.9808
25.440156181590016 45.3518
25.46298098826268 44.7809
25.48580682216873 44.2082
25.50881202326435 43.396
25.53163992281684 42.9028
25.55446885274561 42.4638
25.577298814096377 42.2141
25.600308179121807 42.1851
25.623140214533745 42.29600000000001
25.64597328451537 42.2236
25.66898578564376 41.9307
25.691820936010206 41.8483
25.714657124097695 41.9145
25.737494350954734 41.9399
25.760511045684957 41.836000000000006
25.783350361364224 41.9519
25.806190718969255 41.8962
25.82903211955018 42.0789
25.852053024868923 42.0869
25.874896522722523 42.0209
25.897741066713106 41.924
25.920586657892454 41.8725
25.943611790812668 42.1122
25.966459487728237 42.1509
25.989308234998564 42.0069
26.01215803367705 42.3788
26.03518741123814 42.6248
26.05803932412957 42.6647
26.080892291600094 42.6811
26.10374631470478 42.7557
26.12677995397268 43.0507
26.14963609978026 42.9964
26.172493304397875 42.6865
26.19535156888223 42.736000000000004
26.218389486949604 42.2654
26.241249882640123 41.9655
26.26411134137826 41.7303
26.28715248187403 41.6739
26.31001607820869 41.4301
26.3328807407756 41.2926
26.35574647063438 41.4512
26.37879191991473 41.5602
26.401659795896734 41.4327
26.424528742360263 41.5361
26.447398760366614 41.59
26.470448535598294 41.6095
26.49332070826805 41.912
26.516193955675355 42.1641
26.53906827888316 42.4905
26.562122397260108 42.5228
26.584998883685063 42.775
26.607876449110325 43.1181
26.63075509460056 43.178999999999995
26.65381357334404 43.4316
26.67669439061878 43.4661
26.699576291163382 43.3707
26.722459276044212 43.4918
26.745522132402975 43.1367
26.768407297649354 42.6971
26.791293550442003 42.3866
26.814180891848974 42.2519
26.837248143099337 41.9271
26.860137673466657 41.8734
26.88302829566349 41.5156
26.90592001075963 41.3879
26.92899167420566 41.2324
26.951885586870763 40.8506
26.974780595655517 40.7133
26.99785558178161 40.6124
27.020752794605112 40.2057
27.043651106772522 40.1712
27.06655051935668 40.1615
27.089629948036183 39.9573
27.112531573292053 39.9522
27.135434302194138 40.0642
27.158338135817015 39.7968
27.181422024430987 39.8883
27.204328079372566 39.7807
27.22723524226965 39.7753
27.250143514198573 39.7194
27.273231880156334 39.6602
27.296142382065014 39.6727
27.319053996245536 39.5654
27.341966723775965 39.6916
27.365059584515222 39.7984
27.38797455070062 39.7829
27.410890633481237 39.4674
27.433807833936918 39.5152
27.456905206923906 39.6392
27.47982465472398 39.7091
27.502745223449743 39.6988
27.525666914182825 39.8696
27.548768816912457 39.7732
27.571692763693633 39.6731
27.59461783573812 39.7619
27.617723149491244 39.5461
27.640650484125285 39.4363
27.66357894728264 39.3306
27.686508540048052 39.3921
27.709618414237887 39.2354
27.732550278321757 39.0654
27.755483275279115 39.0766
27.778417406196485 38.9753
27.801531858397514 39.1105
27.824468269376716 39.0279
27.847405817586786 38.9437
27.870344504116094 39.2522
27.893463551932008 39.2713
27.916404527281053 39.3939
27.93934664422563 39.3964
27.962289903855886 39.4085
27.98541356491974 39.5824
28.00835912214229 39.8199
28.03130582533231 39.975
28.054253675581805 40.2621
28.077381967556104 40.1255
28.100332124185126 40.3282
28.123283431160893 40.2861
28.146235889577238 40.1206
28.169368830154156 39.9975
28.192323603752033 39.6173
28.215279532083304 39.3747
28.238415973016764 39.2226
28.261374223145094 39.0868
28.284333631303806 38.8958
28.307294198589954 38.8087
28.330435319167677 38.4247
28.353398217078915 38.2177
28.376362277420153 38.0133
28.39932750129032 37.7825
28.422473319286713 37.702
28.44544088262495 37.6506
28.468409612800283 37.4299
28.491379510913497 37.2196
28.51453004413313 37.0616
28.53750229057244 37.0784
28.56047570826344 36.9403
28.583450298308804 37.0676
28.606605564586562 36.8694
28.629582511831156 36.8803
28.65256063474956 36.8014
28.675539934446338 36.8112
28.698699951647605 36.7315
28.72168161743193 36.6412
28.74466446331978 36.6717
28.767648490417624 36.5825
28.790813276438353 36.611999999999995
28.813799678527303 36.5584
28.836787265157085 36.5882
28.859955641890075 36.5625
28.882945610203045 36.5742
28.905936766392035 36.482
28.928929111566863 36.482
28.952102288520145 36.3261
28.975097024308607 36.3342
28.998092952423807 36.1442
29.021090073977508 36.1529
29.04426806913204 35.9544
29.067267590245258 35.8699
29.090268308143695 35.6638
29.11327022394099 35.5828
29.13645305530891 35.5502
29.159457379627167 35.5157
29.18246290519685 35.2911
29.20546963313352 35.3347
29.22865731875826 35.417
29.25166646419296 35.4151
29.27467681535305 35.306999999999995
29.29768837335608 35.3787
29.320880931312562 35.2931
29.34389491580634 35.3571
29.366910110507334 35.29
29.38992651653503 35.3607
29.41312396492981 35.3532
29.436142806456754 35.2968
29.45916286268059 35.2898
29.48236399319994 35.0906
29.50538649169417 34.876999999999995
29.528410208259935 34.7667
29.55143514402014 34.6262
29.574641196749695 34.5477
29.597668583816574 34.4058
29.6206971934585 34.2774
29.64372702680042 34.2013
29.666938019934474 34.1303
29.689970313635285 34.2185
29.713003834422636 34.0726
29.73603858342347 33.9573
29.759254535188578 33.9308
29.78229175361658 33.8169
29.80533020365064 34.032
29.82836988641968 34.0359
29.85159081507472 33.8119
29.874632976355343 33.7562
29.89767637376955 33.8631
29.920721008448314 33.7614
29.9439469322847 33.6529
29.96699405457564 33.5769
29.9900424175358 33.5702
30.013092022298157 33.4315
30.03632295963995 33.5458
30.059375061131373 33.5764
30.08242840783577 33.6321
30.105483000888153 33.4926
30.128718970092244 33.391999999999996
30.151776069006917 33.4647
30.17483441768648 33.5521
30.198074175317235 33.4812
30.221135036724256 33.4542
30.24419715131772 33.3475
30.267260520236203 33.2483
30.290505341942243 33.397
30.313571232750228 33.4283
30.336638381310948 33.4054
30.35970678876503 33.3548
30.38295669299435 33.3676
30.40602763151657 33.2582
30.429099832366074 33.215
30.452173296685572 33.1001
30.47542830191959 33.0942
30.498504306502497 33.1041
30.521581577995562 33.1771
30.544660117543582 33.1824
30.56792024229725 33.1444
30.59100133132069 33.071999999999996
30.614083691845494 33.1745
30.637167325018545 33.1324
30.660432587840603 33.1772
30.683518779717886 33.2365
30.70660624769615 33.3169
30.729694992924372 33.3187
30.75296541239743 33.2276
30.77605672557558 33.2248
30.799149319462742 33.1657
30.8224236211637 33.0313
30.845518789950724 32.8378
30.868615242910597 32.9401
30.891712981195973 32.6662
30.91499247215866 32.6392
30.938092794619365 32.6056
30.96119440587579 32.5615
30.984297307082752 32.4467
31.00758200598383 32.3737
31.030687500658694 32.1764
31.053794288760695 32.1719
31.076902371446767 32.1389
31.100192296997445 32.1312
31.12330298246119 32.024
31.14641496599209 31.8939
31.169528248749216 31.9696
31.19282341969534 31.8919
31.215939314557186 31.9789
31.239056512134788 31.9948
31.262175013589378 31.8409
31.28547544871168 31.8419
31.30859657161541 31.7381
31.331719001892175 31.7901
31.35484274070538 31.8716
31.378148458819545 31.9173
31.401274828443725 31.8166
31.424402510106933 31.8868
31.447712205419993 31.8762
31.470842524931633 31.8668
31.493974159989783 31.9058
31.51710711176168 31.8429
31.54042212308802 31.8731
31.563557722100917 31.7539
31.586694641341655 31.6663
31.609832881979628 31.5726
31.63315322823208 31.5509
31.656294125521327 31.3888
31.679436347728515 31.2034
31.70257989602529 31.1853
31.725905596152327 31.1166
31.74905181052835 30.932
31.772199354521323 31.1415
31.79534822930507 31.1037
31.818679302290967 31.0726
31.84183085259981 31.0838
31.864983737233473 31.0511
31.88813795736804 31.0259
31.911474422233013 30.9429
31.934631327356435 31.0332
31.9577895715215 31.0591
31.980949155906522 31.1144
32.004291031706956 30.971
32.027453310562606 30.8575
32.05061693318573 30.805999999999997
32.07396288236386 30.8761
32.09712920658542 30.7979
32.12029687812702 30.6335
32.14346589817093 30.5575
32.166817291729984 30.4748
32.18998902288583 30.3728
32.21316210610336 30.3384
32.23633654256711 30.1781
32.259693399663725 30.2815
32.282870556771144 30.1637
32.30604907069099 30.1093
32.329228942610065 30.0225
32.35259128243769 29.9069
32.375773884550505 29.9573
32.398957848235646 29.9206
32.422143174682176 29.8627
32.445511016471215 29.6938
32.468699082679954 29.6651
32.49188851523011 29.5189
32.51507931531304 29.4686
32.538452678331 29.549
32.56164622776311 29.429000000000002
32.58484114831493 29.5132
32.60803744118015 29.5195
32.631416344731896 29.4375
32.654615396551876 29.3517
32.67781582427913 29.4225
32.701198898634416 29.2182
32.72440209253756 29.1964
32.747606665947124 29.2143
32.77081262006088 29.0942
32.79420126883317 29.0795
32.81740999876112 29.1091
32.840620112999424 28.8823
32.86383161274818 28.9409
32.88722585534586 28.941
32.91044014056596 29.0156
32.933655814909734 28.9192
32.95687287957963 28.9339
32.98027273544904 28.8353
33.00349259526636 28.8297
33.026713849030116 28.7904
33.04993649794511 28.7831
33.073341986570746 28.7589
33.09656744032826 28.6738
33.11979429286444 28.6384
33.14302254538647 28.6964
33.166433686291185 28.588
33.18966475336992 28.6342
33.212897224069096 28.4359
33.23613109959831 28.4612
33.259547912343415 28.5433
33.2827846121627 28.5269
33.306022720453775 28.4001
33.32926223842861 28.3179
33.352684742614166 28.3579
33.37592709463173 28.2739
33.399170859982064 28.2441
33.422597648419426 28.1355
33.44584425514446 28.0032
33.46909227885668 27.9048
33.4923417207723 27.8607
33.51577423505344 27.9717
33.539026528130385 27.9287
33.56228024307245 27.8042
33.585535381098246 27.6572
33.60897364093058 27.5919
33.63223163992385 27.6691
33.6554910656699 27.6334
33.678751919389796 27.5134
33.702195944520106 27.4615
33.72545966903325 27.4369
33.74872482519663 27.331999999999997
33.771991414233746 27.3952
33.79544122444841 27.3181
33.81871069412428 27.36
33.84198160035767 27.2935
33.86525394437455 27.2379
33.88870955949969 27.1201
33.911984794020626 27.1396
33.93526147001624 27.1219
33.958539588715006 27.0667
33.98200102861669 26.909000000000002
34.0052820477047 26.8404
34.02856451319451 26.916
34.05203033759056 26.8877
34.07531571090147 26.8492
34.09860253431845 26.8225
34.121890809074316 26.7035
34.145362493118924 26.8371
34.16865368561615 26.7948
34.191946333164054 26.706999999999997
34.21524043699793 26.6109
34.23871800066799 26.5323
34.26201503218366 26.4576
34.28531352370466 26.4677
34.30861347646881 26.3042
34.33209693978188 26.3046
34.3553998301885 26.3439
34.378704185565205 26.2296
34.402010007152356 26.1371
34.42549939016683 26.208000000000002
34.44880815937748 26.0349
34.472118398533134 26.0459
34.49543010887669 26.1461
34.51892543169198 26.031999999999996
34.54224009966052 25.9054
34.56555624255917 25.9377
34.58887386163339 25.9002
34.61237514439016 25.7922
34.6356957311114 25.8848
34.65901779775809 25.8721
34.68252356662995 25.683000000000003
34.705848608458616 25.6431
34.72917513396849 25.6509
34.75250314440949 25.6793
34.77601490857862 25.566
34.799345904259795 25.5016
34.82267838863559 25.5197
34.846012362958525 25.4612
34.869530142679984 25.4829
34.89286711232212 25.4279
34.91620557568269 25.3772
34.93954553401677 25.3167
34.9630693495876 25.2658
34.986412313340814 25.2955
35.00975677584668 25.2664
35.033102738362956 25.249000000000002
35.05663261012228 25.1498
35.0799815881786 25.1118
35.10333207003229 25.0291
35.12668405694369 25.0959
35.150220005273056 25.0868
35.17357501786656 25.0496
35.19693153931268 25.0462
35.220289570874385 24.9526
35.24383161619786 24.9635
35.267192683604904 24.9716
35.290555264930376 24.855
35.314101899412165 24.9562
35.33746752422433 24.7936
35.36083466676374 24.7577
35.38420332829803 24.7649
35.407756095629054 24.851999999999997
35.43112781085063 24.7711
35.45450104888391 24.6729
35.477875810999194 24.698
35.50143473172161 24.5957
35.52481255774625 24.6926
35.54819191167777 24.6435
35.57157279478914 24.5242
35.595137889488406 24.4576
35.61852184675279 24.4818
35.641907337029984 24.3827
35.665294361595684 24.4261
35.68886565090076 24.305
35.7122557598848 24.2456
35.73564740699838 24.2458
35.759040593519934 24.1724
35.78261809810353 24.1727
35.80601437933051 24.1122
35.829412203814705 24.0271
35.85281157283719 23.9852
35.876395313415884 23.9945
35.8997977874528 23.9176
35.92320180988546 23.9385
35.946790244133936 23.8213
35.97019737933222 23.8465
35.993606066789866 23.8859
36.01701630779276 23.7264
36.04061101440684 23.7653
36.06402437852291 23.791999999999998
36.08743930005611 23.7186
36.1108557802951 23.6793
36.13445678011326 23.6128
36.15787639383515 23.5575
36.18129757014299 23.5824
36.20472031032821 23.5286
36.22832762423364 23.4314
36.25175350829375 23.4129
36.275180960119776 23.3553
36.298609981005924 23.3379
36.32222362992669 23.3514
36.34565580510207 23.3356
36.36908955323448 23.3407
36.39252487562093 23.1768
36.416144880530226 23.1748
36.43958336764275 23.166999999999998
36.463023432914625 23.1707
36.486465077645676 23.1298
36.51009145956204 23.1316
36.53353627947859 23.089000000000002
36.55698268276811 23.0175
36.58043067073321 22.9503
36.60406345072071 22.9293
36.62751462435344 22.9106
36.65096738658405 22.9164
36.67460498210655 22.8862
36.69806093788647 22.8388
36.72151848619297 22.6983
36.744977628333636 22.7192
36.76862165890998 22.675
36.79208400512205 22.6792
36.81554794910557 22.6861
36.83901349217101 22.6054
36.862663978991606 22.5177
36.88613273667352 22.4983
36.90960309738324 22.49
36.933075062434064 22.5171
36.95673202673572 22.4171
36.98020721697122 22.3629
37.003684015502365 22.3989
37.027162423645365 22.2655
37.050825886711465 22.3492
37.07430753063053 22.2449
37.09779078812467 22.1957
37.121275660513014 22.1822
37.144945643673694 22.1006
37.16843376245278 22.1129
37.19192350009803 22.155
37.215414857931435 22.086
37.239091382563885 21.9932
37.262585997426164 21.9487
37.28608223645736 21.9317
37.309763684451696 21.9006
37.33326318851098 21.8739
37.356764320726555 21.8262
37.380267082425526 21.7889
37.40395510942588 21.7844
37.42746114683234 21.7102
37.45096881771841 21.6671
37.474478123414166 21.5675
37.49817275092816 21.538
37.52168534303452 21.6575
37.54519957395567 21.5336
37.568715445024665 21.5185
37.592416694607714 21.4711
37.61593586281424 21.4855
37.63945667518264 21.4548
37.66297913304891 21.3794
37.68668702630454 21.4523
37.710212792059274 21.3045
37.733740207334854 21.3015
37.757269273470364 21.236
37.780983832050374 21.2454
37.80451621684926 21.2064
37.82805025654007 21.1284
37.851585952464795 21.1592
37.8753071980695 21.0584
37.89884622345676 21.0121
37.92238690911902 21.0066
37.94611318753442 20.9673
37.969657210779765 20.9326
37.99320289834801 20.9864
38.016750251586465 20.9011
38.04048325513017 20.9019
38.06403395679343 20.775
38.087586328183946 20.7629
38.11114037065203 20.7698
38.13488012115898 20.7476
38.1584375229181 20.6642
38.181996599821 20.6354
38.205557353221124 20.6131
38.229303872575656 20.5932
38.2528679961576 20.5097
38.27643380031219 20.473
38.30000128639589 20.4662
38.32375459653193 20.4315
38.34732546371299 20.4559
38.37089801690786 20.3685
38.39447225747609 20.2754
38.418232380377425 20.2752
38.441810012983396 20.3123
38.46538933705673 20.2694
38.488970353960084 20.2645
38.51273731166058 20.2279
38.536321731567014 20.1676
38.55990784840681 20.1142
38.58367995004091 20.1428
38.60726947812959 20.0447
38.63086070726198 20.0461
38.654453638806274 20.0634
38.678232613930824 19.9503
38.70182896773327 19.8621
38.72542702806741 19.9411
38.7490267963045 19.8859
38.77281266709232 19.868
38.79641586862214 19.8294
38.8200207821842 19.8175
38.843627409152944 19.8226
38.86742019782782 19.7617
38.891030269149255 19.7338
38.914642058016156 19.6838
38.938255565806124 19.6278
38.96205529464307 19.5468
38.98567225787121 19.5809
39.00929094417078 19.5384
39.03291135492255 19.5284
39.05671804624804 19.4718
39.080341923549106 19.4932
39.103967529460334 19.4697
39.127594865365744 19.4054
39.15140854155791 19.293
39.17503935514948 19.3113
39.19867190290282 19.3305
39.22249083587951 19.2708
39.24612686969409 19.2834
39.269764641845306 19.2194
39.293404153722804 19.1675
39.317230110864074 19.0857
39.34087311998506 19.0206
39.36451787301696 19.0915
39.388164371352595 19.0084
39.41199737518003 18.9249
39.43564738196752 19.0028
39.45929913825317 18.9717
39.48295264543308 18.9003
39.506792718520884 18.8878
39.530449745387216 18.8709
39.55410852735203 18.8906
39.57776906581474 18.8538
39.60161623079 18.775
39.625280300200025 18.7192
39.64894613032202 18.6529
39.67261372255866 18.6613
39.6964680021016 18.6601
39.72013913657293 18.6511
39.74381203738292 18.5891
39.76748670593756 18.5582
39.79134812278169 18.5573
39.81502634488497 18.5313
39.83870633896685 18.5049
39.862388106436654 18.4472
39.88625668336918 18.4176
39.90994201572829 18.5069
39.933629125719285 18.3979
39.957503091207826 18.32
39.9811937746168 18.3446
40.00488623990914 18.2586
40.02858048850006 18.2132
40.05246165409549 18.1984
40.076159487492085 18.143
40.099859108448875 18.1753
40.123560518384345 18.1568
40.1474489070226 18.1189
40.171153913178564 18.0876
40.194860712584955 18.005
40.2185693066637 17.9708
40.242464941335314 18.0011
40.26617714307655 17.9567
40.289891143772046 17.9044
40.3136069448471 17.8731
40.33750984859743 17.8682
40.3612292688043 17.8374
40.3849504936829 17.867
40.40867352466194 17.8062
40.43258372059144 17.7565
40.45631038219906 17.7159
40.48003885420956 17.7094
40.503769138055105 17.6691
40.52768664931955 17.662
40.55142057531802 17.6203
40.57515631746428 17.6207
40.599079334038514 17.5039
40.62281872700477 17.4928
40.64655994043941 17.45
40.67030297578061 17.5148
40.69423334835778 17.4245
40.71798004609188 17.3927
40.74172857006355 17.3331
40.76547892171441 17.4335
40.7894166736039 17.4013
40.813170699248566 17.3438
40.83692655691388 17.3025
40.86068424804498 17.2746
40.884629402612525 17.2139
40.908390779366385 17.2519
40.932153993938 17.1532
40.95591904777605 17.1981
40.979871628443995 17.151
41.003640379561936 17.0853
41.02741097430883 17.0023
41.05118341413683 17.0065
41.075143444384416 17.0152
41.098919593177826 17.0212
41.1226975914255 16.9836
41.14647744058318 16.9619
41.170444943946755 16.9104
41.19422851378379 16.951
41.218013938914645 16.8696
41.24198706625173 16.8203
41.26577622087193 16.7596
41.289567235177785 16.7875
41.31336011063129 16.7744
41.337340752422875 16.7023
41.361137369129835 16.6727
41.38493585138705 16.6388
41.40873620066004 16.6144
41.43272438060107 16.581
41.45652848292052 16.5669
41.48033445666918 16.5274
41.50414230331616 16.4617
41.528138045159764 16.4355
41.551949656675205 16.4164
41.575763145513235 16.4164
41.59957851314666 16.379
41.62358184070442 16.3501
41.64740098505737 16.3907
41.6712220126409 16.269000000000002
41.69504492493139 16.3299
41.71905586207357 16.2182
41.74288256296395 16.2347
41.766711153007456 16.194000000000003
41.79054163368412 16.1313
41.814560204340054 16.1473
41.838394485526365 16.1159
41.86223066180303 16.0804
41.88625497706819 16.0565
41.910094962812 16.0923
41.93393684811168 16.0463
41.95778063445365 15.9191
41.981812625263366 15.9232
42.00566023303407 15.9285
42.029509746323676 15.892999999999999
42.05336116662236 15.8604
42.077400857069705 15.8311
42.10125611078846 15.8394
42.12511327600405 15.8318
42.14897235421036 15.7311
42.173019768448455 15.7131
42.19688269209613 15.7221
42.22074753323349 15.6941
42.24461429335818 15.6556
42.268669455600495 15.655
42.292540073217886 15.6197
42.31641261433284 15.5783
42.34028708044675 15.6077
42.36435001496739 15.5862
42.38822835065557 15.5209
42.41210861586426 15.4864
42.4359908120986 15.4982
42.46006154323262 15.4347
42.48394762115317 15.3669
42.507835634632315 15.4042
42.531912233047436 15.4225
42.55580413732265 15.3612
42.579697981698 15.3063
42.60359376768525 15.2783
42.62767820545945 15.1739
42.65157789440821 15.1982
42.67547952952185 15.1775
42.699383112316 15.1568
42.72347541395347 15.1488
42.74738291190531 15.084000000000001
42.771292362102166 15.1264
42.795203766063516 15.0954
42.819303956130405 15.0812
42.843219287476536 15.0058
42.86713657716324 14.9368
42.89105582671383 14.9594
42.91516392983864 14.9735
42.939087119032166 14.915
42.963012272677304 14.8589
42.98693939230129 14.8548
43.01105543317513 14.8799
43.034986504731386 14.8387
43.05891954686589 14.7744
43.08285456110972 14.7956
43.10697856448665 14.7332
43.130917542983475 14.6735
43.15485849820081 14.6509
43.17880143167367 14.6622
43.20293342237094 14.6322
43.226880332449 14.6246
43.25082922540554 14.6114
43.27496722682525 14.5433
43.29892010567796 14.539000000000001
43.32287497204102 14.5152
43.34683182745632 14.4592
43.370977859791836 14.4215
43.39493871351105 14.4536
43.41890156092628 14.464
43.44286640358341 14.4173
43.46702049182749 14.3948
43.49098934522816 14.3309
43.51496019852649 14.3465
43.5389330532723 14.2515
43.56309522248204 14.2786
43.58707210044314 14.2543
43.61105098451946 14.2379
43.63503187626491 14.2544
43.659202151562134 14.1908
43.68318707902681 14.2135
43.70717401884041 14.1113
43.731162972560874 14.0664
43.75534137913236 14.0363
43.779334381108384 14.0394
43.803329401683186 14.0598
43.82732644241872 14.0025
43.8515130055166 13.9359
43.87551410707659 13.950999999999999
43.89951723350145 13.915999999999999
43.923709934595614 13.8997
43.94771713129917 13.953
43.97172635758096 13.8418
43.99573761501002 13.8386
44.0199385169922 13.7879
44.04395385732619 13.7485
44.067971233533086 13.7902
44.09199064718605 13.7665
44.11619977548961 13.6897
44.14022328470671 13.7054
44.16424883610785 13.7241
44.18827643127035 13.6412
44.21249381139513 13.6204
44.236525514814076 13.5762
44.26055926674478 13.526
44.28459506876863 13.5788
44.3088207262813 13.5199
44.33286064928722 13.4504
44.35690262714919 13.4689
44.38094666145278 13.411
44.4051806219871 13.4522
44.42922879003185 13.3912
44.45327901929361 13.333
44.477331311362136 13.3431
44.501573600619416 13.3089
44.525630039221795 13.3252
44.54968854541895 13.3182
44.573937102200176 13.3088
44.5979997645541 13.2182
44.622064499300315 13.2027
44.64613130803592 13.1695
44.67038823869318 13.1704
44.69445921643748 13.1611
44.718532272981385 13.0856
44.742607409926194 13.1252
44.76687274034801 13.0519
44.79095205918753 13.0355
44.81503346325094 12.9925
44.839116954143876 13.0066
44.86339071028742 12.9612
44.88747839599524 12.9958
44.91156817336837 12.9178
44.93566004401666 12.931
44.959942251908146 12.862
44.984038330325966 12.8754
45.00813650686762 12.8624
45.03223678314731 12.8279
45.05652746888232 12.8206
45.08063196592069 12.7866
45.104738567558705 12.7509
45.128847275414856 12.718
45.15314646515866 12.7115
45.17725940679741 12.6957
45.20137445952892 12.6956
45.22568004865265 12.6619
45.24979934496396 12.6198
45.27392075725247 12.6066
45.29804428714431 12.5967
45.322358426247604 12.5564
45.346486212804315 12.5277
45.370616121861914 12.5155
45.39474815505086 12.5223
45.41907087049246 12.4651
45.4432071734666 12.4351
45.46734560548283 12.4443
45.49148616817604 12.432
45.51581748638564 12.402000000000001
45.5399623320197 12.3254
45.56410931325473 12.3171
45.58825843173002 12.3172
45.61259837920865 12.2509
45.636751793816 12.2841
45.66090735060093 12.2582
45.68506505120716 12.2019
45.7094136545275 12.1945
45.73357566449271 12.1498
45.75773982322992 12.1977
45.78190613238733 12.1132
45.806263418194064 12.0873
45.83043404997326 12.0842
45.85460683713677 12.0879
45.87897065658495 12.0625
45.90314777634752 12.0658
45.92732705646868 12.0133
45.9515084986045 11.9717
45.97588104735473 11.9851
46.00006683541565 11.9587
46.02425479047904 11.9072
46.04844491420549 11.8962
46.0728262191024 11.8339
46.09702070211635 11.8199
46.12121735879483 11.8283
46.14541619080294 11.8319
46.169806278764455 11.8365
46.194009483459034 11.8082
46.21821486849841 11.7647
46.24242243555223 11.7976
46.266821333570014 11.7336
46.29103328674601 11.6816
46.31524742696538 11.7003
46.33946375590237 11.6567
46.36387149104216 11.6188
46.38809221957392 11.5777
46.41231514186606 11.6051
46.436540259597464 11.5852
46.460956858999374 11.5893
46.48518638983522 11.509
46.509418121166966 11.455
46.533652054678114 11.457
46.55807754555709 11.4622
46.58231590571962 11.4564
46.60655647313217 11.4036
46.630988654873654 11.3931
46.655233659129024 11.3804
46.67948087571551 11.3731
46.70373030632484 11.3181
46.72817142736393 11.3208
46.752425308428684 11.2811
46.77668140861147 11.2677
46.80093972960865 11.2435
46.82538981736788 11.2066
46.849652602470904 11.1639
46.87391761349769 11.1843
46.8981848521493 11.1755
46.9226439341274 11.13
46.946915650573224 11.1137
46.97118959976749 11.073
46.99546578341598 11.0936
47.019933887188216 11.0601
47.04421456235744 11.0471
47.06849747711879 10.9711
47.09278263318286 10.9875
47.11725978640143 10.9992
47.14154944775105 10.9578
47.165841355555656 10.9085
47.1901355115306 10.9227
47.214621741924994 10.9237
47.23892041698887 10.8881
47.26322134538975 10.8728
47.28771440635075 10.7985
47.31201986422527 10.8126
47.33632758061436 10.7977
47.360637557241866 10.7645
47.38513974410611 10.7204
47.40945426407847 10.7434
47.43377104948137 10.7306
47.45809010204344 10.7055
47.48260144275502 10.6765
47.506925052572285 10.6937
47.53125093475548 10.637
47.55557909103813 10.6098
47.58009961361992 10.6023
47.60443234110732 10.550999999999998
47.62876734791564 10.584000000000001
47.65310463578333 10.5595
47.6776343683373 10.5144
47.7019762413987 10.4707
47.72632040075572 10.4578
47.75066684815169 10.492
47.77520581885936 10.4459
47.799556865477655 10.4021
47.823910205386 10.4049
47.84826584033272 10.3827
47.87281407745551 10.3425
47.89717432569297 10.3208
47.92153687423484 10.2757
47.94609208429692 10.2751
47.97045925671401 10.2992
47.99482873471275 10.235
48.01920052005013 10.2669
48.04376504619224 10.2567
48.068141469543484 10.2732
48.09252020552573 10.2146
48.11690125590099 10.2028
48.1414751266064 10.1643
48.16586082917454 10.1266
48.19024885144316 10.1127
48.2146391951793 10.1282
48.239222439012764 10.0983
48.26361744916137 10.048
48.28801478610016 10.0632
48.31241445160131 10.0346
48.337007097209366 10.0885
48.36141144338331 10.0207
48.38581812345755 10.0018
48.41022713920929 10.0085
48.434829215320704 9.94627
48.45924292604658 9.9518
48.48365897780325 9.9257
48.50807737237308 9.90498
48.532688907799276 9.926060000000001
48.55711201168574 9.880289999999999
48.581537463754074 9.84084
48.60615611725119 9.80899
48.63058628942721 9.77594
48.65501881516546 9.78838
48.6794536962573 9.721
48.70408185970339 9.74276
48.72852147531801 9.74586
48.75296345168211 9.68713
48.77740779059232 9.70753
48.80204549302823 9.695969999999999
48.82649458091802 9.65615
48.85094603676547 9.62536
48.87539986237231 9.61466
48.90004713292306 9.62089
48.92450572200832 9.62571
48.94896668628025 9.56502
48.97343002754588 9.54215
48.99808689542115 9.5401
49.02255501470614 9.50563
49.04702551642794 9.47615
49.0714984023988 9.51998
49.096164896893235 9.49423
49.120642575466796 9.44411
49.145122643748394 9.40915
49.16960510355558 9.39064
49.19428125404938 9.41831
49.2187685210852 9.415610000000001
49.243258185121555 9.36623
49.26794160167084 9.31645
49.2924360839405 9.31625
49.31693296869764 9.28858
49.34143225776915 9.28952
49.36612538195438 9.274239999999999
49.39062950396021 9.25328
49.41513603578346 9.19999
49.4396449792564 9.24577
49.46434784069503 9.19675
49.488861631846454 9.152510000000001
49.513377840166804 9.15119
49.537896467493745 9.12962
49.56260909589029 9.10747
49.587132585683285 9.13373
49.611658500018365 9.095239999999999
49.636186840738596 9.08758
49.66090926588511 9.07195
49.685442483902584 9.01211
49.70997813385706 8.99217
49.734516217597076 8.988669999999999
49.75924846937352 8.99076
49.7837914452858 8.954830000000001
49.80833686055187 8.96033
49.83288471702571 8.92815
49.85762682540054 8.90803
49.882179588965734 8.865960000000001
49.9067347993235 8.89588
49.93129245833333 8.88447
49.95604445336378 8.83812
49.98060703442832 8.82979
50.005172069746266 8.84145
50.02993150438364 8.80382
50.05450147301533 8.789769999999999
50.07907390151433 8.77914
50.10364879174981 8.733260000000001
50.12841816587289 8.73981
50.1529980044635 8.73483
50.17758031042124 8.72063
50.20216508562089 8.69657
50.22694442953363 8.66692
50.25153416817468 8.64626
50.27612638170508 8.6454
50.300721072005196 8.584710000000001
50.325510416102105 8.54645
50.350110084975064 8.5516
50.37471223628208 8.54464
50.39931687190919 8.53457
50.424116246675766 8.53783
50.44872587605249 8.50533
50.47333799543065 8.53908
50.49795260670191 8.49487
50.52276204271512 8.47405
50.54738166295838 8.41516
50.57200378079314 8.42992
50.596628398116835 8.3897
50.62144792604559 8.384030000000001
50.646077567609396 8.394630000000001
50.670709714377715 8.36273
50.69553683636198 8.3553
50.72017401885922 8.34938
50.7448137122895 8.31997
50.76945591856022 8.32329
50.79429318636823 8.282210000000001
50.818940443716784 8.27506
50.84359021965163 8.25645
50.868242516085964 8.229610000000001
50.893089960641895 8.241010000000001
50.917747323549435 8.20284
50.94240721271973 8.18491
50.96706963007175 8.15593
50.99192728239342 8.13632
51.01659478166073 8.16357
51.04126481489051 8.131739999999999
51.06593738400761 8.11185
51.090805275207074 8.11145
51.11548294172845 8.07189
51.14016314993547 8.07585
51.164845901758845 8.07446
51.18972406304274 8.05386
51.21441192780656 8.00633
51.23910234200271 8.01939
51.2637953075678 7.9720699999999995
51.288683770237945 7.932739999999999
51.31338186432707 7.9102
51.33808251561888 7.9149
51.362978729967345 7.905989999999999
51.387684521509755 7.891210000000001
51.41239287610203 7.857939999999999
51.437103795691165 7.855510000000001
51.46201036644977 7.8204
51.486726441956634 7.8099
51.51144508832545 7.825
51.536166307509156 7.782780000000001
51.56108326624387 7.748310000000001
51.58580965706056 7.757739999999999
51.61053862657523 7.707089999999999
51.635270176746864 7.7165300000000006
51.66019755512065 7.739339999999999
51.68493429268881 7.69943
51.70967361681515 7.7034
51.73441552946465 7.688110000000001
51.759353359237934 7.668419999999999
51.7841004750961 7.622380000000001
51.80885018539685 7.6129999999999995
51.833602492111254 7.6153
51.8585508051424 7.60115
51.883308330926425 7.59064
51.90806845906181 7.528560000000001
51.932831191525715 7.551239999999999
51.95779001977161 7.54013
51.98255798721516 7.499569999999999
52.00732856494335 7.51071
52.03229530577543 7.49355
52.057071130455945 7.4164
52.081849571391054 7.43933
52.106630630568695 7.4306
52.13160794279417 7.474880000000001
52.15639426492067 7.447760000000001
52.18118321127822 7.398860000000001
52.205974783860896 7.36902
52.23096269971011 7.330830000000001
52.255759551287994 7.33367
52.280559035098186 7.36096
52.30536115314103 7.31262
52.33035970494467 7.29443
52.35516711807904 7.29042
52.37997717147198 7.253369999999999
52.40478986713005 7.262919999999999
52.42979908731974 7.2371
52.454617094216 7.19648
52.47943774942214 7.1881
52.50426105495102 7.20016
52.529280976059844 7.15845
52.554109609024096 7.13967
52.57894089837482 7.127210000000001
52.60377484613117 7.12978
52.62880550079408 7.113180000000001
52.65364479223379 7.10133
52.67848674816189 7.06635
52.70352547971946 7.068810000000001
52.72837279155837 7.067130000000001
52.753222773982785 7.03631
52.778075429022984 7.036860000000001
52.80312495150885 7.02837
52.827982978797436 6.997889999999999
52.85284368481815 6.980180000000001
52.87770707160767 6.964589999999999
52.90276741793998 6.91887
52.92763619336701 6.947080000000001
52.952507655698504 6.92767
52.977381806977576 6.89315
53.00245301017842 6.8954699999999995
53.02733256653592 6.89009
53.052214817996074 6.8947199999999995
53.077099766608484 6.89571
53.102181859804446 6.87942
53.127072229988265 6.8347
53.15196530349892 6.84012
53.17686108239249 6.743930000000001
53.20195409881522 6.804460000000001
53.22685531582556 6.77482
53.25175924441303 6.7412399999999995
53.27666588664027 6.70282
53.30176985962693 6.7269
53.3266819565689 6.71713
53.35159677336455 6.687639999999999
53.376514312083096 6.670710000000001
53.40162927507703 6.6504199999999996
53.42655228516116 6.6607
53.45147802340193 6.61498
53.47660125628886 6.61297
53.50153247842639 6.618460000000001
53.52646643496923 6.61791
53.55140312799818 6.58783
53.576537409691696 6.577369999999999
53.60147960336152 6.52936
53.626424539786164 6.51165
53.65137222105307 6.49713
53.67651758529126 6.49483
53.70147078399681 6.47309
53.72642673383343 6.46105
53.75138543689533 6.43878
53.776541917524526 6.4457
53.801506154876755 6.43077
53.826473151763246 6.39866
53.851442910284916 6.41367
53.87661054126026 6.39086
53.9015858509782 6.34241
53.92656392866066 6.334969999999999
53.95154477641532 6.375030000000001
53.976723591801296 6.32118
54.00171000771266 6.32049
54.02669920004598 6.3042
54.051691170915745 6.26733
54.076881204886796 6.27413
54.101878760928514 6.301069999999999
54.12687910187696 6.23723
54.152077577768296 6.2349
54.1770835166946 6.17943
54.20209224691339 6.19085
54.22710377055121 6.1852800000000006
54.25231352511594 6.113569999999999
54.27733066384342 6.144769999999999
54.30235060239643 6.15216
54.32737334290836 6.15717
54.35259441062629 6.05955
54.377622783395324 6.10619
54.40265396455061 6.1208800000000005
54.42768795623251 6.0742
54.45292037169559 5.97853
54.477960012857906 5.988980000000001
54.50300247099511 5.988169999999999
54.52804774825457 5.9628
54.55329154616743 5.92371
54.57834249018678 5.92186
54.6033962597977 5.93703
54.6284528571545 5.8924199999999995
54.653708072335164 5.87261
54.67877035378786 5.87366
54.70383546947698 5.81303
54.72890342156389 5.77591
54.7541700889442 5.7374
54.77924374251975 5.7777400000000005
54.8043202390049 5.75061
54.82959552413022 5.7392900000000004
54.8546777351945 5.70454
54.87976279569621 5.65374
54.90485070780914 5.6645
54.930137506558005 5.63227
54.95523115074295 5.636830000000001
54.98032765308844 5.62946
55.005427015775496 5.6363199999999996
55.03072536339621 5.61342
55.05583047570572 5.59733
55.080938454927676 5.58521
55.10604930325027 5.53354
55.131359235107396 5.53712
55.15647585066083 5.51101
55.181595341907496 5.4822
55.20671771104285 5.4387099999999995
55.232039262617704 5.373419999999999
55.25716741665048 5.35027
55.28229845518636 5.3345400000000005
55.30743238042802 5.29592
55.33276558731939 5.30662
55.357905315183636 5.31406
55.383047936390035 5.25482
55.40819345314859 5.22538
55.433538351073295 5.20985
55.458689688238415 5.19475
55.483843927614096 5.159330000000001
55.509197623043605 5.15603
55.53435769621134 5.09957
55.55952067826466 5.05384
55.5846865714265 5.08338
55.61005202069737 5.046469999999999
55.63522376553902 5.0431
55.66039842818645 4.99397
55.68557601087004 4.98674
55.7109532500271 4.96553
55.73613670233794 4.979480000000001
