TT I
1.2716486653135266 6.98556
1.2939594142134223 7.16972
1.3162702121660406 6.64854
1.3385810600174564 6.33246
1.3608919586137629 6.2689
1.383202908801069 5.85839
1.405513911425503 6.0671800000000005
1.4278249673332093 5.99317
1.4501343378461518 6.4998
1.4724455028545926 5.76912
1.4947567236847858 6.083069999999999
1.517068001182951 6.12125
1.5393793361953272 5.67462
1.5616907295681737 5.3625
1.5840021821477681 5.74861
1.60631369478041 5.449269999999999
1.6286252683124185 5.0843300000000005
1.6509369035901333 5.19281
1.6732468618895553 5.1925300000000005
1.695558623192809 4.43987
1.7178704487808514 4.9566
1.7401823395001077 4.58817
1.7625012545597203 4.28179
1.7848028405262486 4.75591
1.8071218901122095 4.40583
1.8294236121921872 4.4061699999999995
1.8517427996910911 4.54131
1.8740620574440425 4.15731
1.8963639900671978 5.04778
1.9186833908139995 4.1897
1.9409854680117449 4.49942
1.9633050151394713 4.66779
1.9856246367570705 4.787669999999999
2.0079269371922672 4.82714
2.03024671027244 4.397959999999999
2.0525491637446027 4.0856
2.074869091674931 4.61607
2.097171701569106 4.92951
2.1194917877373847 4.5161
2.141811954326636 4.35846
2.164114805233074 4.12052
2.186435135143035 4.61753
2.208738150935709 5.63092
2.231058647554722 6.83075
2.2533792288321184 6.13173
2.275682498336085 5.55905
2.298003251406138 5.10712
2.3203066942619714 4.24751
2.3426276225136022 4.87094
2.3649486396617507 5.36658
2.387252348930071 5.9703800000000005
2.4095735463442893 5.5178400000000005
2.4318774374315884 6.18269
2.4541988185014043 6.514390000000001
2.476502894794693 7.04318
2.498824462909887 7.46259
2.521146125856138 7.34655
2.5434504863470337 7.60752
2.5657723414244717 7.11653
2.588076895590662 8.16198
2.610398946189713 8.49889
2.6327210958598384 8.14751
2.6550259469304716 7.83489
2.6773482972090137 8.21142
2.6996533504259 7.89485
2.7219759047039602 7.929469999999999
2.744298562293959 8.49119
2.7666039251246595 7.96515
2.7889267918020164 8.53385
2.8112323652516555 8.01678
2.833555444408179 8.42892
2.8558786311183852 8.26321
2.8781845268938557 9.121319999999999
2.9005079311721484 8.55883
2.9228140460410397 9.09528
2.9451376712799635 8.93104
2.967444008632326 9.66038
2.9897678582247247 9.68449
3.0120918213106695 9.83464
3.0343984987899373 10.0728
3.0567226913198637 11.0576
3.079029599759726 11.4536
3.101354025127254 12.0289
3.123678568232338 12.3258
3.145985829517914 12.5552
3.16831061055229 12.7817
3.1906181112775593 13.3451
3.212943133635653 14.617
3.2352682779763207 14.482999999999999
3.2575761442691227 15.0779
3.2799015350264273 15.4675
3.302209649240067 15.8111
3.3245352898092655 16.2461
3.3468436553365257 16.7009
3.369169549113219 17.0219
3.3914955708171384 18.0036
3.413804319727358 18.2814
3.4361305997334863 18.4937
3.4584396084414553 19.0352
3.4807661501462652 19.7147
3.503092824025881 20.1889
3.5254022288463154 19.7839
3.5477291695206588 20.9734
3.5700388426251948 21.4232
3.5923660534916446 22.0246
3.6146934007816114 23.3156
3.637003482731501 28.6358
3.6593311053109985 30.2046
3.681641464033634 26.5086
3.7039693653009733 24.7096
3.726297407241705 24.5667
3.7486081875460804 24.6717
3.7709365132734978 25.271
3.793247578841633 25.5886
3.8155761917550093 25.6693
3.8378875459837216 25.9748
3.8602164494827234 26.7481
3.882545499606844 27.2725
3.9048572932539183 28.0286
3.9271866390645718 28.4976
3.9494987298666713 29.0502
3.971828374764527 29.5804
3.9941581705403255 30.2349
4.016470713506008 30.5927
4.038800813471445 31.1434
4.061113662089144 31.5453
4.0834440696459176 32.8085
4.105774632334751 32.7671
4.128087945865126 33.1731
4.150418821249301 34.5107
4.172732448931298 35.1295
4.195063640413578 36.0116
4.2173775856475215 36.8877
4.239709096631102 39.6939
4.262040768704612 55.2004
4.284355196706267 64.4323
4.306687193387355 55.2837
4.329001947444346 44.4869
4.35133427213731 42.0355
4.373666762177566 42.0896
4.395982011761091 42.8965
4.418314834921175 43.4048
4.44063041906622 45.0157
4.4629635787515625 47.3244
4.4852969080429785 48.3632
4.5076130004776225 49.861000000000004
4.529946671403969 52.3545
4.552263106909177 54.7522
4.574597122877047 53.7246
4.596931312711224 52.8986
4.619248269273446 53.3352
4.6415828092605835 54.0341
4.663900117405352 55.0412
4.686235010953232 56.693000000000005
4.708552674085913 58.2076
4.730887924602802 59.5733
4.753223354952695 61.5187
4.775541557023902 64.2257
4.797877349456786 66.4995
4.820195915032126 67.2793
4.842532072957498 67.5453
4.864868414979744 70.3515
4.88718753227192 73.5081
4.909524244902505 75.4741
4.931843734218147 75.8934
4.954180820867835 77.9942
4.976518095879839 80.7556
4.998838149695359 83.6351
5.021175803844231 87.1027
5.043496238205739 90.4011
5.065834274903528 94.4722
5.088172504230693 98.7737
5.1104935158799565 104.10600000000001
5.132832132875765 115.463
5.155153533596801 134.496
5.1774925416746225 170.41299999999998
5.199814334878411 368.974
5.2221537374521505 1045.42
5.244493338631803 2899.72
5.266815727034316 8253.86
5.289155727832427 14167.8
5.311478517248165 8726.13
5.333818921080011 2392.48
5.356159527788849 444.418
5.3784829252032536 179.248
5.400823940070432 144.252
5.423147747031976 126.154
5.445489173474152 117.10700000000001
5.467830807066149 115.559
5.490155234831516 113.631
5.512497285125229 108.551
5.534822130975162 104.531
5.557164601388673 101.801
5.579489868738879 98.82700000000001
5.601832762690846 97.0024
5.6241758697774475 96.1407
5.646501775867269 95.7111
5.668845311622074 94.6278
5.691171647754637 93.8086
5.713515615597765 93.1024
5.735859800852677 92.6356
5.758186788542988 93.13600000000001
5.780531411018185 96.0207
5.802858837297399 94.84200000000001
5.825203900414495 94.5617
5.8475491852224 96.7713
5.869877275883075 95.6375
5.892223006467101 94.3861
5.914551544266608 94.1383
5.936897724049891 96.9065
5.959244129804903 104.536
5.981573344815301 129.47299999999998
6.0039202049061 240.34400000000002
6.026249875609095 490.58099999999996
6.04859719346037 981.288
6.070927323278297 2264.91
6.093275102315365 4777.12
6.115623113320588 5495.07
6.137953938319995 2875.92
6.160302415650845 754.572
6.182633708324452 179.359
6.2049826554078376 101.28399999999999
6.227331838745022 87.1467
6.249663839443684 81.6244
6.27201349767565 77.687
6.294345974611799 76.4344
6.316696111167083 75.6908
6.339046488263839 74.0553
6.361379686074702 70.9741
6.383730546639482 68.9321
6.406064229255215 68.5088
6.428415576718203 68.7708
6.450749747566656 67.836
6.47310158535871 66.031
6.495453669698332 64.6459
6.517788579421056 64.0176
6.540141159237969 62.8299
6.562476565766648 62.395
6.5848296444934045 62.0281
6.607182974060425 61.8539
6.6295191323281015 61.3444
6.651872965955752 60.5473
6.6742096296068985 61.6269
6.6965639707294615 66.0728
6.71891856698715 65.9811
6.741255995248479 61.2721
6.763611104154477 58.4944
6.785949046381137 57.34
6.808304671371482 57.5675
6.8306605557940046 58.0617
6.852999275508618 57.6437
6.875355681171544 56.8698
6.897694923437771 55.8328
6.92005185377892 55.8697
6.9423916220322655 55.3079
6.964749080490181 54.5734
6.987106804399774 54.5826
7.009447368180821 54.9194
7.031805625367033 54.8708
7.054146723727803 54.5216
7.076505517631004 54.1494
7.098864581288365 54.3283
7.121206488070854 53.9545
7.143566093607822 54.1804
7.165908543567245 54.8883
7.188268694426048 54.3176
7.2106291193438095 53.7431
7.232972390625943 53.5022
7.255333366030969 53.8016
7.277677189091925 58.293
7.300038718428332 63.8696
7.322400526130865 61.4971
7.344745183422596 56.3304
7.367107550224791 53.6014
7.389452767901992 53.5864
7.411815697249891 53.7496
7.434161478756298 53.1185
7.456524974096713 53.1628
7.478888753837185 53.2411
7.501235387657368 53.6698
7.523599738562711 56.1688
7.545946944825532 58.6791
7.568311870344528 60.1547
7.5906770845765665 57.5722
7.613025156078678 55.2979
7.635390950099687 55.0619
7.657739602662809 54.9938
7.680105979923558 54.9444
7.702472650212829 56.0503
7.724822180948224 55.7447
7.747189439655568 55.4243
7.769539560075357 55.3292
7.791907410653562 55.9112
7.81425812420825 56.1243
7.836626570110925 56.2047
7.858995315087906 56.9823
7.881346924933401 57.0445
7.903716270417482 57.51
7.926068482028405 57.8311
7.948438431475253 58.6353
7.9708086843180235 59.1244
7.993161805171116 59.5616
8.015532667162402 60.3371
8.037886398416653 61.3135
8.060257873014221 61.9392
8.082629655331942 62.6783
8.104984308787587 63.2986
8.127356708900503 64.4258
8.149711981398308 67.0741
8.172085002766314 68.2655
8.194458336181368 67.7721
8.216814543847752 67.9189
8.23918850371002 68.7141
8.26154533906492 69.7458
8.283919928836452 71.6658
8.306277395339652 72.4373
8.328652618483376 73.6039
8.351028159736202 75.6788
8.373386579575245 78.0944
8.395762759396959 79.7743
8.418121819038275 82.5665
8.440498640894003 86.91
8.462875785192262 95.7948
8.485235811156207 120.439
8.507613602688501 180.38400000000001
8.529974277114228 276.755
8.552352719347912 411.375
8.574731488360351 674.813
8.59709314210385 1262.62
8.619472567021075 2075.64
8.64183487789147 2408.25
8.664214962183097 1759.3
8.686577933647762 823.865
8.708958680784317 297.377
8.731339760774953 137.908
8.753703729764451 103.75399999999999
8.77608547780821 96.3921
8.798450116065078 93.5477
8.820832535634787 91.2026
8.843215292401656 90.68700000000001
8.865580941199045 90.23899999999999
8.887964374703538 89.3528
8.910330701447199 89.3458
8.932714815164482 88.7397
8.955099270424924 86.3657
8.977466620733543 85.2107
8.999851761421976 84.4681
9.022219798361645 83.9324
9.04460562795561 83.8211
9.066991803441677 83.6553
9.089360876979615 83.6538
9.111747746589993 83.515
9.13411751544971 82.2901
9.156505082664324 81.7191
9.178875550323522 81.9007
9.20126381862328 82.9303
9.223652438908596 85.9656
9.246023961427412 90.8066
9.26841328802173 92.0676
9.290785518039224 88.3651
9.313175554425882 85.6967
9.335565947154315 84.854
9.357939245086508 85.1236
9.380330352834827 84.6594
9.40270436697103 84.3709
9.425096193225055 84.0354
9.447488380180165 84.4057
9.469863475295412 84.0503
9.492256385987508 84.1496
9.514632206018318 85.251
9.537025843935714 85.5928
9.559402392368193 86.4201
9.581796761000229 88.1382
9.604191496441521 89.4904
9.626569144158516 91.1183
9.648964615551032 91.7543
9.671343000390081 91.0191
9.693739211225699 91.2198
9.716135793237463 91.9328
9.738515290448102 93.2788
9.760912617143402 94.2638
9.783292860202891 95.8739
9.805690935076182 97.2161
9.828089385495742 98.1823
9.850470754023561 99.4683
9.872869957865444 101.64399999999999
9.89525208097539 105.39200000000001
9.917652041736662 110.618
9.940052382417589 119.414
9.962435644102392 146.991
9.984836746950979 195.418
10.007220771957746 266.077
10.029622640473708 372.858
10.052007432299963 557.489
10.074410069984072 853.456
10.096813093716005 1348.34
10.119199042482517 1917.72
10.141602840636468 2032.95
10.163989564971628 1474.94
10.186394141051062 744.429
10.208799107559706 309.45799999999997
10.231187001965623 158.691
10.253592751657669 117.87299999999999
10.275981430388155 108.92200000000001
10.298387966769793 106.23100000000001
10.320794897965431 105.47200000000001
10.343184759907361 104.101
10.36559248305461 102.74799999999999
10.387983138083852 103.678
10.410391656691655 110.755
10.432800574501677 124.49799999999999
10.455192425893369 142.62
10.47760214443012 169.679
10.499994797678786 216.537
10.522405320453982 297.76
10.54479877906917 424.097
10.567210109595656 551.262
10.5896218454736 584.3
10.612016518879773 479.365
10.634429067781074 292.52
10.656824555333241 168.963
10.679237920773568 112.976
10.701651695961992 94.4858
10.724048411481384 89.6028
10.746463008485165 85.9034
10.768860546937125 84.3102
10.791275969274796 82.6538
10.81369180576079 81.4307
10.836090585366925 80.2377
10.858507252467449 79.3053
10.88090686379991 78.2746
10.903324365036394 77.7224
10.925724811614439 76.6758
10.948143150509463 76.7262
10.970561909719066 75.9655
10.992963615930844 75.5085
11.015383218085756 74.2393
11.037785768347074 73.0765
11.06020621697282 72.0288
11.082627090322113 71.4681
11.105030913430326 70.5507
11.12745263854165 70.2183
11.149857314510728 69.7707
11.172279894912576 70.3109
11.194702904450653 69.3132
11.217108866490921 68.5282
11.239532736615194 67.982
11.26193956033512 67.4188
11.284364294577085 67.1409
11.306789462371718 66.6516
11.329197585398376 66.1338
11.351623622610898 66.495
11.37403261614354 65.6139
11.396459526308487 65.3517
11.418869393879497 64.9273
11.441297180532617 64.6256
11.463725406927658 64.0718
11.486136592353875 63.8456
11.508565700543707 63.8975
11.530977768845315 64.0493
11.553407762368774 63.6293
11.575838200059769 63.3577
11.598251599479612 62.9061
11.620682927815501 62.5925
11.64309721895548 62.4503
11.665529441478206 62.425
11.687962112597958 62.2296
11.710377748130886 62.2103
11.732811318753434 62.0563
11.755227854859067 61.9052
11.777662328529495 61.99
11.800079768750786 62.0122
11.822515149015453 62.1604
11.844950984084935 62.2987
11.867369787303163 61.8125
11.889806534289491 61.9738
11.912226250487029 63.0932
11.934663912939751 64.1072
11.9571020346363 64.9145
11.979523127133968 64.8527
12.001962169624331 65.0671
12.024384183972964 65.9221
12.046824150809913 69.0627
12.069264581333726 74.51
12.091687985297767 80.9482
12.11412934550045 90.3365
12.136553680195208 105.478
12.158995973632788 129.157
12.181438735204349 159.27
12.20386447284199 194.94
12.226308172985636 207.608
12.24873485024193 192.33900000000003
12.271179492516982 152.37
12.293607112949127 110.698
12.316052700916226 82.7624
12.338498763250042 69.1154
12.360927805303868 64.7019
12.383374818673879 63.7017
12.405804812803074 63.2809
12.428252780773262 63.2446
12.45070122756722 63.6069
12.473132656675375 63.388999999999996
12.49558206341869 63.7866
12.518014453510101 64.2607
12.540464823770117 64.138
12.562915677315177 63.9932
12.58534951575545 64.5796
12.607801338171472 64.3679
12.630236146511358 65.1505
12.652688941369085 66.0907
12.675124723177234 66.495
12.697578494048786 66.7833
12.720032754458185 66.7288
12.742470003354093 66.6522
12.764925245138771 66.9458
12.787363476431278 67.4978
12.809819703166806 67.7737
12.83227642391173 68.7428
12.854716135692716 69.3291
12.877173846755147 70.301
12.899614549869717 70.9846
12.9220732548287 71.9481
12.94453245827299 72.5492
12.966974655289818 73.3092
12.989434858002571 74.027
13.011878055298721 74.8258
13.034339260862497 75.7343
13.056800969391883 77.3197
13.079245674017244 80.4451
13.101708390774869 84.3578
13.12415410463411 92.9583
13.146617833206086 104.184
13.169064559883248 115.941
13.191529303857127 131.22799999999998
13.213994557076367 154.189
13.236442809902437 191.655
13.258909083908291 251.74200000000002
13.28135835851934 324.866
13.30382565690295 404.074
13.326293469022952 453.6
13.348744283242008 419.786
13.371213125129904 329.38599999999997
13.39366497011003 224.452
13.416134845360597 149.817
13.438605238843131 112.839
13.46105863690397 104.15100000000001
13.483530069144786 107.24799999999999
13.505984506951902 113.74700000000001
13.528456981549432 124.96799999999999
13.550929978879088 140.575
13.573385983253365 164.727
13.595860028340867 203.72799999999998
13.618317081455832 258.94599999999997
13.64079217790333 326.572
13.663250283359057 383.76599999999996
13.685726434770173 391.685
13.708203115221277 330.07599999999996
13.730662806148091 242.703
13.75314054697177 165.429
13.775601299246777 113.869
13.798080104050406 90.9557
13.820559442405358 83.1085
13.843021793671388 80.4891
13.865502201420897 79.3579
13.887965623051947 78.9252
13.910447103807167 78.0239
13.932929122629764 76.7143
13.955394156785959 76.3351
13.977877254034569 75.5181
14.000343367582113 74.6607
14.022827546871707 73.8687
14.045294743423524 73.264
14.06778000837062 72.7606
14.090265817715476 72.6402
14.112734645763819 72.5427
14.13522154619454 72.679
14.157691466286913 72.8504
14.180179461423874 72.7732
14.202668005486178 71.8643
14.22513957064374 70.7847
14.247629214846473 69.9688
14.270101881097517 69.6428
14.29259262906496 69.1912
14.315083930490205 69.1623
14.337558255389705 69.0531
14.360050666019726 69.0644
14.382526101071944 68.8552
14.405019624534942 68.61399999999999
14.427513705993134 68.3716
14.449990813291825 68.4107
14.47248601302899 68.4804
14.49496423954951 68.2791
14.517460561197822 68.4633
14.539939910570322 68.1027
14.562437357763558 68.4613
14.58493536931253 68.6158
14.607416409993311 68.9544
14.62991555254159 69.168
14.652397725157423 69.37100000000001
14.674898002342799 69.8535
14.697398848433282 70.1192
14.719882725991326 71.4347
14.74238471217934 73.2491
14.764869730765593 77.2429
14.787372860692983 80.5959
14.809876564079925 85.4003
14.83236330125751 91.7781
14.854868153850365 100.829
14.877356041159485 114.87799999999999
14.899862046604186 133.578
14.922351087688757 160.451
14.944858249632887 194.59
14.967365991421232 221.169
14.989856770231246 231.703
15.012365673994204 215.83
15.03485761569738 177.94400000000002
15.05736768508665 133.061
15.07987833888692 102.959
15.102372032001655 84.5783
15.124883856909658 74.0071
15.14737872204565 71.02
15.169891721717274 69.6971
15.192405310371893 69.29
15.214901940621196 69.0891
15.237416709527137 68.4057
15.259914520936249 68.2776
15.282430473753607 67.5482
15.304947020131227 66.8265
15.327446610371178 66.5342
15.349964346154254 66.1545
15.372465126703139 65.9842
15.394984055556009 65.792
15.417486030076159 66.0623
15.44000615566487 65.6047
15.462526881230803 65.5076
15.485030653812652 65.5646
15.507552581617434 65.1164
15.530057557334603 65.1932
15.55258069104857 65.2946
15.575104429329837 65.7834
15.597611216864632 65.7722
15.620136166564563 66.1595
15.6426441664095 67.7479
15.665170331202765 70.4387
15.687697105158826 73.7092
15.710206930593545 77.5246
15.732734925158933 82.1581
15.755245972089478 88.8837
15.77777519094324 97.6187
15.800287463046663 110.96799999999999
15.822817909869592 130.716
15.84534897229804 153.78799999999998
15.867863089299354 180.955
15.890395385222186 198.09799999999998
15.912910736597423 196.477
15.935444269699861 176.195
15.957978423016485 141.586
15.980495633101265 109.179
16.003031029129367 85.5951
16.02554948280019 71.282
16.048086125229432 65.057
16.070623392487107 63.3869
16.09314371869582 62.1413
16.11568223789321 61.0838
16.13820381691126 60.36
16.160743591742527 60.14
16.183283996022084 59.4183
16.205807461423195 58.5435
16.228349126881973 58.2783
16.25087385432698 58.1747
16.27341678466365 57.5231
16.29594277784926 57.0615
16.31848697676433 56.9701
16.341031811604868 56.756
16.36355971058487 56.591
16.3861058195587 56.4815
16.40863499352978 55.6608
16.431182380342005 55.5322
16.453730407713202 55.3113
16.476261501364792 55.08
16.498810812136167 55.0069
16.52134319004079 55.0824
16.54389378792203 54.7562
16.566445031001553 54.7322
16.588979342490088 54.3452
16.61153187824822 54.2972
16.634067483263312 54.4012
16.656621315414416 54.3431
16.679175797408888 53.9039
16.701713349928728 54.1913
16.72426913389191 54.2064
16.74680798922351 54.0962
16.76936507887444 53.9966
16.791905240734874 54.1743
16.814463639794468 54.0097
16.837022695210294 54.233000000000004
16.859564824093756 54.2091
16.882125194503903 54.3321
16.904668639217885 54.7515
16.927230328348003 54.7308
16.949792678493612 55.1174
16.972338104193863 54.8188
16.994901778652235 54.8219
17.017448529496576 54.9851
17.040013531998152 55.5822
17.06257920018044 56.0739
17.0851279459922 57.0071
17.107694947817667 57.9993
17.130245028099072 58.5988
17.15281336730298 59.9685
17.17536478578733 61.8586
17.19793446610687 63.9258
17.220504818648422 66.9866
17.243058251703697 70.5547
17.265629950971032 75.4345
17.288184731571736 80.3398
17.310757781306908 84.0151
17.33333150794385 82.8214
17.355888317140174 80.2656
17.37846339986244 73.8542
17.401021565958885 67.8229
17.42359800851343 62.9306
17.44617513265564 60.6397
17.468735341390783 59.2212
17.491261035594565 58.7971
17.51396340099364 58.4086
17.536490463869136 58.5453
17.559018209820174 58.6776
17.58154663977963 58.8259
17.604251766089718 59.0707
17.626781572227713 59.2461
17.64931206518155 59.4116
17.671843245885103 59.7747
17.69455114821572 60.001000000000005
17.717083712612634 60.3271
17.739616967569667 60.5416
17.762150914021706 61.0371
17.78486160749854 61.5137
17.807396945166804 62.2404
17.829932977143503 63.5146
17.85246970436452 65.1281
17.875183204129467 66.9485
17.897721330097664 69.0369
17.920260154126645 71.5759
17.942799677153296 74.908
17.9655159983646 78.5846
17.988056927677544 84.1463
18.010598558807683 92.0124
18.033140892692916 102.59100000000001
18.05586005052525 114.712
18.07840379824407 127.87899999999999
18.10094825154059 138.34
18.12366954819864 142.672
18.146215420998306 138.252
18.16876200220057 126.073
18.191309292745153 109.571
18.214033452627167 96.6668
18.236582170236648 87.469
18.259131600016456 84.5249
18.281681742907335 85.9643
18.304408781233683 91.4459
18.32696035875955 97.6013
18.349512652227624 102.848
18.372065662579683 106.36399999999999
18.394795594587553 105.156
18.41735004715306 98.8347
18.43990521943684 90.4878
18.46246111238171 81.2467
18.485193953325208 72.5735
18.507751296070428 67.1917
18.530309362314178 64.2075
18.552868153000343 62.5356
18.57560391815056 61.6229
18.59816416623245 61.1354
18.620725141597372 60.8391
18.643286845190268 60.2991
18.666025549835414 59.7536
18.688588718427933 59.1951
18.711152618092243 59.0655
18.73389353884365 58.7111
18.75645890921984 58.3113
18.77902501351406 58.2407
18.801591852673102 58.1566
18.824335739722738 57.5603
18.846904057212626 57.628
18.8694731124168 57.3433
18.89204290628315 57.345
18.914789774966803 57.1064
18.937361054791623 56.8207
18.959933076131318 56.5873
18.982505839934877 56.4976
19.00525570560582 56.3672
19.027829963004184 56.4397
19.05040496572238 56.4747
19.072980714710468 56.5946
19.095733592739563 56.6482
19.11831084296757 56.8217
19.140888842324735 57.0433
19.16346759176222 57.3226
19.18622349753803 58.0406
19.208803755869358 59.2734
19.231384767143577 60.4681
19.253966532312948 62.1095
19.276725481241822 64.3191
19.29930876296784 66.9001
19.3218928014549 69.7838
19.34465404436217 72.5666
19.36723960516257 75.0456
19.389825925592426 75.8406
19.412413006605938 73.2214
19.43517731967805 69.0466
19.457765930683355 64.6975
19.48035530514408 60.282
19.50294544401556 57.283
19.525712842708348 55.4298
19.54830451925909 54.2798
19.570896963095727 53.567
19.593490175174704 53.3418
19.616260674962184 53.5009
19.638855432416964 53.0833
19.661450960992624 53.3249
19.68404726164677 53.0896
19.706820878021247 52.8994
19.729418731756834 53.1623
19.752017360452857 52.9471
19.77461676506804 53.1062
19.797393513540218 53.363
19.819994478951667 53.5796
19.84259622316767 54.2159
19.8651987471481 54.5057
19.887978643247177 54.8426
19.91058273574792 55.3573
19.933187610901943 56.0953
19.955969879466828 57.1836
19.97857632894404 58.8215
20.00118356396599 60.6254
20.023791585494575 63.1401
20.046577028914875 65.9484
20.069186632506966 68.4182
20.091797025500632 70.3238
20.114408208858933 70.6862
20.137196842715273 69.4068
20.159809615886765 67.2
20.18242318232135 64.0073
20.20503754298326 61.9121
20.227829382875154 61.3353
20.250445341109344 61.7283
20.27306209647285 62.8192
20.29567964993108 64.3159
20.31847471147704 65.1489
20.34109387027612 65.9388
20.363713830075454 65.2187
20.386334591841646 62.7975
20.409132890679302 59.3028
20.431755265564437 56.1651
20.454378445325528 53.8195
20.477002430930366 52.1811
20.499803982716553 51.0908
20.522429589228004 50.2554
20.54505600449589 49.9932
20.567683229489194 49.9594
20.590488049900088 49.6084
20.61311690359731 49.7424
20.63574656993626 49.6972
20.658553853717297 49.1714
20.681185154618298 49.1501
20.703817271080066 49.1023
20.72645020407368 48.6992
20.749260783967177 48.7696
20.771895359337133 48.7295
20.794530754161617 48.6873
20.817166969412938 48.5808
20.83998086114876 48.7133
20.86261872660049 48.373999999999995
20.885257415405402 48.4129
20.90789692853701 48.3147
20.930714147864748 48.2152
20.953355319030678 48.2898
20.97599731745334 48.3888
20.99864014410749 48.028
21.021460706796564 48.0988
21.044105199328826 48.3881
21.06675052302631 48.6164
21.089396678865015 48.8588
21.112220600704806 49.1289
21.134868430275347 49.3951
21.15751709492456 50.0159
21.180166595629693 50.2233
21.202993892429635 50.7749
21.22564507473034 50.8692
21.24829709602816 51.1985
21.27112693608965 51.037
21.293780644891275 51.0277
21.316435195634053 50.2161
21.339090589297417 49.1829
21.361923832041875 48.8704
21.384580921090404 48.3373
21.407238856007325 47.9343
21.429897637773326 47.9415
21.45273429906592 48.0962
21.475394784108598 48.06
21.498056118951983 47.9409
21.520718304578022 48.271
21.543558400304388 48.5574
21.566222297108816 48.7104
21.58888704765135 48.8174
21.61155265291521 49.0343
21.63439619898156 49.6229
21.657063523335786 49.8209
21.67973170537063 50.2835
21.7024007460706 50.9463
21.72524775840385 51.5428
21.747918526116475 52.5533
21.770590155457388 53.9054
21.79326264741238 55.4188
21.816113141960237 57.5919
21.838787368860547 59.526
21.861462461341976 61.6821
21.884315579735777 63.9138
21.90699241312273 64.7216
21.92967011506078 64.6457
21.95234868653799 63.3546
21.9752053151131 61.3541
21.997885635446785 59.5275
22.020566828293532 57.6208
22.04324889464272 56.196000000000005
22.066109049404666 55.6104
22.088792872571794 55.782
22.111477572219204 55.8252
22.1341631493376 56.0687
22.157026846313123 55.4526
22.179714188221507 54.417
22.202402410582668 53.0039
22.22509151438863 51.5187
22.24795876962584 50.3908
22.270649646204486 49.7028
22.293341407213727 49.1064
22.316034053646906 48.6889
22.338904883215342 48.5487
22.36159931041458 48.5579
22.38429462602756 48.278
22.40699083104897 48.1563
22.429865251039757 48.1731
22.452563244831367 48.1882
22.47526213102522 48.1043
22.49813925616515 48.145
22.520839937143307 48.0381
22.543541513520587 48.183
22.56624398629403 48.1916
22.589124730075895 48.0923
22.611829005656723 48.3084
22.63453418063466 48.475
22.657240256008077 48.618
22.680124634582935 48.7726
22.70283252079775 49.0018
22.725541310413075 49.176
22.74825100442868 49.5082
22.771139033969575 50.0832
22.79385054687155 50.2189
22.81656296718292 50.9762
22.83927629590484 51.8492
22.862167992606945 52.9211
22.88488314827121 54.2094
22.907599215359284 55.2738
22.93031619487366 56.3473
22.953211574954405 57.1572
22.975930389478226 57.544
22.998650119445763 57.3496
23.02137076586092 56.3164
23.044269845560063 54.6195
23.06699233506288 52.7615
23.089715744034912 51.2817
23.112617610931565 49.8192
23.135342869061212 49.123000000000005
23.158069049684816 48.5941
23.1807961538087 48.3098
23.20370174880544 48.2824
23.226430710184808 48.426
23.249160598093425 48.6393
23.271891413539002 48.6289
23.294800752937697 48.4328
23.31753343374794 48.7535
23.340267045128353 48.8286
23.36300158808808 49.3187
23.38591468821339 49.6843
23.408651104658304 50.07
23.431388455719986 50.6209
23.454126742409 51.5654
23.4770436196085 52.6176
23.499783787914662 54.1828
23.522524894889884 55.2557
23.54526694154616 56.5114
23.56818761219047 57.5659
23.59093154860734 57.7709
23.613676427751283 57.727
23.636422250635754 56.3673
23.659346731118656 54.2472
23.68209445191868 52.254
23.704843119509587 50.2499
23.72759273490623 48.3668
23.750521041644767 47.3881
23.77327256312355 46.3863
23.796025035462787 46.1423
23.818956224555475 45.5286
23.841710609113413 45.4106
23.86446594758979 45.4042
23.887222241002014 45.0758
23.910157285144578 44.7953
23.932915498962537 44.7692
23.955674670778713 44.5706
23.978434801611975 44.4391
24.001373717286125 44.3792
24.024135776723917 44.2235
24.046898798245582 44.1073
24.06966278287146 44.0083
24.092605586582614 43.7364
24.115371508023642 43.5914
24.1381383956401 43.3945
24.16090625045381 43.3152
24.183852958731244 43.3842
24.206622758582608 43.2526
24.229393528706886 43.0921
24.252165270127392 43.3152
24.27511589952438 43.2359
24.297889594216997 43.0938
24.32066426328598 42.8233
24.34343990775613 42.6834
24.36639447485003 42.7238
24.38917208083877 42.7123
24.41195066531332 42.6825
24.43490819850244 42.6439
24.457688750692377 42.5974
24.48047028445616 42.5338
24.503252800821233 42.7569
24.526214300784112 42.8089
24.548998793132213 42.6727
24.57178427117417 42.5298
24.59457073593893 42.5819
24.617536219319863 42.588
24.64032466834748 42.483000000000004
24.663114107195035 42.4123
24.685904536893013 42.0093
24.708874020360852 41.9328
24.731666442613744 41.9322
24.754459858818787 41.87
24.777254270007962 41.9081
24.80022777025625 41.8726
24.82302418230472 41.9155
24.845821592443674 41.9308
24.86862000170663 41.9004
24.891597535453727 41.7942
24.914397953892728 41.934
24.93719937456671 41.9328
24.96000179851076 42.0447
24.98298338249997 42.2305
25.00578782394922 42.5431
25.028593271784167 42.6324
25.05157790644186 43.013000000000005
25.07438537804115 43.1319
25.097193859145293 43.3789
25.120003350792075 43.6335
25.142992065061257 43.9841
25.165803588823465 44.2366
25.18861612625217 44.2704
25.211429678386736 44.2679
25.234422489079968 44.3935
25.257238081693636 44.4001
25.280054692141732 44.6247
25.3028723214652 44.6591
25.325869245420463 44.6534
25.348688923599397 44.6834
25.371509623787006 44.5588
25.394331347025812 44.1125
25.41733240110666 43.3975
25.440156181590016 42.603
25.46298098826268 42.2152
25.48580682216873 41.6273
25.50881202326435 41.2025
25.53163992281684 40.8824
25.55446885274561 40.6603
25.577298814096377 40.336999999999996
25.600308179121807 40.3201
25.623140214533745 40.4632
25.64597328451537 40.3201
25.66898578564376 40.1052
25.691820936010206 40.3495
25.714657124097695 40.2773
25.737494350954734 40.2589
25.760511045684957 40.1368
25.783350361364224 40.2172
25.806190718969255 40.1632
25.82903211955018 40.1423
25.852053024868923 40.1827
25.874896522722523 40.2975
25.897741066713106 40.1655
25.920586657892454 40.4115
25.943611790812668 40.4649
25.966459487728237 40.6407
25.989308234998564 40.7169
26.01215803367705 41.1725
26.03518741123814 41.2766
26.05803932412957 41.4046
26.080892291600094 41.3535
26.10374631470478 41.4705
26.12677995397268 41.4364
26.14963609978026 41.3917
26.172493304397875 40.8836
26.19535156888223 40.7317
26.218389486949604 40.2735
26.241249882640123 40.0326
26.26411134137826 39.8969
26.28715248187403 39.9401
26.31001607820869 39.7287
26.3328807407756 39.5058
26.35574647063438 39.7214
26.37879191991473 39.7597
26.401659795896734 39.8502
26.424528742360263 39.8934
26.447398760366614 40.1234
26.470448535598294 40.2469
26.49332070826805 40.4636
26.516193955675355 40.7656
26.53906827888316 40.9234
26.562122397260108 41.1204
26.584998883685063 41.5388
26.607876449110325 41.7709
26.63075509460056 42.0206
26.65381357334404 42.0857
26.67669439061878 41.8417
26.699576291163382 41.716
26.722459276044212 41.5531
26.745522132402975 41.1488
26.768407297649354 40.8607
26.791293550442003 40.5984
26.814180891848974 40.4326
26.837248143099337 40.2788
26.860137673466657 40.0514
26.88302829566349 39.704
26.90592001075963 39.5734
26.92899167420566 39.5381
26.951885586870763 39.0415
26.974780595655517 38.8608
26.99785558178161 38.7803
27.020752794605112 38.7451
27.043651106772522 38.5513
27.06655051935668 38.5862
27.089629948036183 38.3767
27.112531573292053 38.4351
27.135434302194138 38.4892
27.158338135817015 38.3268
27.181422024430987 38.2824
27.204328079372566 38.2283
27.22723524226965 38.2187
27.250143514198573 38.3045
27.273231880156334 38.1414
27.296142382065014 37.993
27.319053996245536 37.9965
27.341966723775965 38.1475
27.365059584515222 38.1793
27.38797455070062 38.2768
27.410890633481237 38.1523
27.433807833936918 38.2234
27.456905206923906 38.2713
27.47982465472398 38.1948
27.502745223449743 38.2754
27.525666914182825 38.3553
27.548768816912457 38.2169
27.571692763693633 38.1883
27.59461783573812 38.0026
27.617723149491244 37.9077
27.640650484125285 37.7787
27.66357894728264 37.8404
27.686508540048052 37.8118
27.709618414237887 37.6399
27.732550278321757 37.5821
27.755483275279115 37.5799
27.778417406196485 37.6409
27.801531858397514 37.6452
27.824468269376716 37.505
27.847405817586786 37.5529
27.870344504116094 37.7052
27.893463551932008 37.9
27.916404527281053 38.0437
27.93934664422563 38.2348
27.962289903855886 38.286
27.98541356491974 38.5263
28.00835912214229 38.5241
28.03130582533231 38.7914
28.054253675581805 39.0034
28.077381967556104 38.8352
28.100332124185126 38.8287
28.123283431160893 38.4528
28.146235889577238 38.3714
28.169368830154156 38.238
28.192323603752033 38.1669
28.215279532083304 37.8813
28.238415973016764 37.5734
28.261374223145094 37.4403
28.284333631303806 37.2937
28.307294198589954 37.0623
28.330435319167677 36.7236
28.353398217078915 36.4454
28.376362277420153 36.354
28.39932750129032 36.1171
28.422473319286713 35.8646
28.44544088262495 35.945
28.468409612800283 35.833
28.491379510913497 35.6779
28.51453004413313 35.6056
28.53750229057244 35.5474
28.56047570826344 35.5418
28.583450298308804 35.4807
28.606605564586562 35.3224
28.629582511831156 35.3712
28.65256063474956 35.3667
28.675539934446338 35.3565
28.698699951647605 35.4019
28.72168161743193 35.1828
28.74466446331978 35.3016
28.767648490417624 35.1751
28.790813276438353 35.128
28.813799678527303 35.2028
28.836787265157085 35.1985
28.859955641890075 35.1684
28.882945610203045 35.0631
28.905936766392035 34.8641
28.928929111566863 34.9289
28.952102288520145 34.9266
28.975097024308607 34.8369
28.998092952423807 34.6858
29.021090073977508 34.6773
29.04426806913204 34.4735
29.067267590245258 34.413000000000004
29.090268308143695 34.2866
29.11327022394099 34.1338
29.13645305530891 34.0952
29.159457379627167 34.0886
29.18246290519685 34.0644
29.20546963313352 34.1155
29.22865731875826 33.9842
29.25166646419296 34.0111
29.27467681535305 33.9904
29.29768837335608 33.9867
29.320880931312562 33.9655
29.34389491580634 33.9724
29.366910110507334 34.0319
29.38992651653503 33.9741
29.41312396492981 33.9684
29.436142806456754 33.8797
29.45916286268059 33.7317
29.48236399319994 33.6038
29.50538649169417 33.5709
29.528410208259935 33.459
29.55143514402014 33.1529
29.574641196749695 33.0905
29.597668583816574 32.9858
29.6206971934585 32.8127
29.64372702680042 32.87
29.666938019934474 32.8389
29.689970313635285 32.8065
29.713003834422636 32.8258
29.73603858342347 32.771
29.759254535188578 32.562
29.78229175361658 32.4911
29.80533020365064 32.4977
29.82836988641968 32.5878
29.85159081507472 32.5178
29.874632976355343 32.5061
29.89767637376955 32.3842
29.920721008448314 32.4369
29.9439469322847 32.4043
29.96699405457564 32.2919
29.9900424175358 32.3731
30.013092022298157 32.2144
30.03632295963995 32.0961
30.059375061131373 32.2239
30.08242840783577 32.256
30.105483000888153 32.3088
30.128718970092244 31.9637
30.151776069006917 32.1536
30.17483441768648 32.1083
30.198074175317235 32.0318
30.221135036724256 32.1086
30.24419715131772 32.0273
30.267260520236203 31.9961
30.290505341942243 32.0729
30.313571232750228 32.1686
30.336638381310948 32.0861
30.35970678876503 32.0537
30.38295669299435 31.8953
30.40602763151657 31.9048
30.429099832366074 31.8918
30.452173296685572 31.8138
30.47542830191959 31.8224
30.498504306502497 31.7776
30.521581577995562 31.8846
30.544660117543582 32.0289
30.56792024229725 31.9826
30.59100133132069 31.9033
30.614083691845494 31.8573
30.637167325018545 31.9143
30.660432587840603 32.0349
30.683518779717886 31.9021
30.70660624769615 31.976999999999997
30.729694992924372 32.0142
30.75296541239743 32.0808
30.77605672557558 31.8846
30.799149319462742 31.805
30.8224236211637 31.6612
30.845518789950724 31.5904
30.868615242910597 31.4929
30.891712981195973 31.381999999999998
30.91499247215866 31.2489
30.938092794619365 31.2734
30.96119440587579 31.2336
30.984297307082752 31.093000000000004
31.00758200598383 30.9766
31.030687500658694 30.9595
31.053794288760695 30.9466
31.076902371446767 30.6668
31.100192296997445 30.7676
31.12330298246119 30.8364
31.14641496599209 30.6892
31.169528248749216 30.71
31.19282341969534 30.6583
31.215939314557186 30.6344
31.239056512134788 30.6964
31.262175013589378 30.636999999999997
31.28547544871168 30.4541
31.30859657161541 30.5736
31.331719001892175 30.611
31.35484274070538 30.6745
31.378148458819545 30.619
31.401274828443725 30.5704
31.424402510106933 30.6206
31.447712205419993 30.7893
31.470842524931633 30.6253
31.493974159989783 30.5821
31.51710711176168 30.493000000000002
31.54042212308802 30.4587
31.563557722100917 30.4299
31.586694641341655 30.4039
31.609832881979628 30.2289
31.63315322823208 30.2405
31.656294125521327 30.0676
31.679436347728515 30.0346
31.70257989602529 29.95
31.725905596152327 29.9733
31.74905181052835 29.8348
31.772199354521323 29.9516
31.79534822930507 29.9134
31.818679302290967 29.8714
31.84183085259981 29.9256
31.864983737233473 29.8445
31.88813795736804 29.8537
31.911474422233013 29.843000000000004
31.934631327356435 29.8759
31.9577895715215 29.8168
31.980949155906522 29.7937
32.004291031706956 29.8256
32.027453310562606 29.686
32.05061693318573 29.5193
32.07396288236386 29.5536
32.09712920658542 29.429000000000002
32.12029687812702 29.2697
32.14346589817093 29.3072
32.166817291729984 29.2888
32.18998902288583 29.1027
32.21316210610336 29.0681
32.23633654256711 28.8994
32.259693399663725 28.9276
32.282870556771144 28.8616
32.30604907069099 28.8675
32.329228942610065 28.7898
32.35259128243769 28.6869
32.375773884550505 28.6559
32.398957848235646 28.7025
32.422143174682176 28.6271
32.445511016471215 28.563000000000002
32.468699082679954 28.5216
32.49188851523011 28.3519
32.51507931531304 28.377
32.538452678331 28.3811
32.56164622776311 28.2546
32.58484114831493 28.2174
32.60803744118015 28.1934
32.631416344731896 28.2194
32.654615396551876 28.3022
32.67781582427913 28.0742
32.701198898634416 28.1163
32.72440209253756 28.0905
32.747606665947124 28.0047
32.77081262006088 27.9374
32.79420126883317 27.895
32.81740999876112 27.9485
32.840620112999424 27.8211
32.86383161274818 27.7562
32.88722585534586 27.7457
32.91044014056596 27.8948
32.933655814909734 27.7752
32.95687287957963 27.8543
32.98027273544904 27.7202
33.00349259526636 27.6266
33.026713849030116 27.6857
33.04993649794511 27.6002
33.073341986570746 27.6482
33.09656744032826 27.5149
33.11979429286444 27.5801
33.14302254538647 27.5743
33.166433686291185 27.5492
33.18966475336992 27.3854
33.212897224069096 27.3225
33.23613109959831 27.3586
33.259547912343415 27.3406
33.2827846121627 27.3854
33.306022720453775 27.3037
33.32926223842861 27.1449
33.352684742614166 27.1601
33.37592709463173 27.1471
33.399170859982064 27.0215
33.422597648419426 26.9857
33.44584425514446 26.943
33.46909227885668 26.89
33.4923417207723 26.6972
33.51577423505344 26.7878
33.539026528130385 26.7484
33.56228024307245 26.6157
33.585535381098246 26.5295
33.60897364093058 26.5151
33.63223163992385 26.5783
33.6554910656699 26.46
33.678751919389796 26.435
33.702195944520106 26.363000000000003
33.72545966903325 26.3166
33.74872482519663 26.2327
33.771991414233746 26.1951
33.79544122444841 26.2029
33.81871069412428 26.1397
33.84198160035767 26.1942
33.86525394437455 26.1695
33.88870955949969 26.1072
33.911984794020626 26.099
33.93526147001624 26.0373
33.958539588715006 26.0291
33.98200102861669 25.9337
34.0052820477047 25.8566
34.02856451319451 25.7783
34.05203033759056 25.6851
34.07531571090147 25.7373
34.09860253431845 25.6795
34.121890809074316 25.686999999999998
34.145362493118924 25.6884
34.16865368561615 25.6524
34.191946333164054 25.5857
34.21524043699793 25.583000000000002
34.23871800066799 25.5289
34.26201503218366 25.4502
34.28531352370466 25.3987
34.30861347646881 25.3608
34.33209693978188 25.3845
34.3553998301885 25.3077
34.378704185565205 25.2848
34.402010007152356 25.2095
34.42549939016683 25.1962
34.44880815937748 25.0249
34.472118398533134 25.0051
34.49543010887669 25.0027
34.51892543169198 24.9315
34.54224009966052 24.949
34.56555624255917 24.9231
34.58887386163339 24.8368
34.61237514439016 24.7742
34.6356957311114 24.82
34.65901779775809 24.7684
34.68252356662995 24.6928
34.705848608458616 24.6899
34.72917513396849 24.5864
34.75250314440949 24.5755
34.77601490857862 24.4808
34.799345904259795 24.428
34.82267838863559 24.4564
34.846012362958525 24.4329
34.869530142679984 24.3722
34.89286711232212 24.4121
34.91620557568269 24.3796
34.93954553401677 24.2948
34.9630693495876 24.2829
34.986412313340814 24.3021
35.00975677584668 24.278000000000002
35.033102738362956 24.2095
35.05663261012228 24.1396
35.0799815881786 24.1917
35.10333207003229 24.0895
35.12668405694369 24.09
35.150220005273056 24.1058
35.17357501786656 24.0686
35.19693153931268 24.0344
35.220289570874385 23.9469
35.24383161619786 23.8477
35.267192683604904 23.9214
35.290555264930376 23.8663
35.314101899412165 23.8239
35.33746752422433 23.8518
35.36083466676374 23.8869
35.38420332829803 23.8083
35.407756095629054 23.75
35.43112781085063 23.7963
35.45450104888391 23.6993
35.477875810999194 23.7582
35.50143473172161 23.6931
35.52481255774625 23.6385
35.54819191167777 23.5476
35.57157279478914 23.5656
35.595137889488406 23.5108
35.61852184675279 23.4705
35.641907337029984 23.4581
35.665294361595684 23.4192
35.68886565090076 23.3586
35.7122557598848 23.388
35.73564740699838 23.3187
35.759040593519934 23.2474
35.78261809810353 23.1833
35.80601437933051 23.1286
35.829412203814705 23.1103
35.85281157283719 22.9952
35.876395313415884 23.1108
35.8997977874528 22.9862
35.92320180988546 22.9807
35.946790244133936 22.9443
35.97019737933222 22.9799
35.993606066789866 22.9095
36.01701630779276 22.8836
36.04061101440684 22.8083
36.06402437852291 22.8025
36.08743930005611 22.8366
36.1108557802951 22.7678
36.13445678011326 22.7233
36.15787639383515 22.631
36.18129757014299 22.6654
36.20472031032821 22.5748
36.22832762423364 22.4966
36.25175350829375 22.4965
36.275180960119776 22.421999999999997
36.298609981005924 22.5114
36.32222362992669 22.4568
36.34565580510207 22.4301
36.36908955323448 22.4086
36.39252487562093 22.2509
36.416144880530226 22.2785
36.43958336764275 22.2095
36.463023432914625 22.2494
36.486465077645676 22.156
36.51009145956204 22.2618
36.53353627947859 22.2419
36.55698268276811 22.1413
36.58043067073321 22.0907
36.60406345072071 22.0451
36.62751462435344 22.04
36.65096738658405 21.9987
36.67460498210655 21.9652
36.69806093788647 21.9366
36.72151848619297 21.8407
36.744977628333636 21.8904
36.76862165890998 21.7383
36.79208400512205 21.7948
36.81554794910557 21.7599
36.83901349217101 21.6219
36.862663978991606 21.6656
36.88613273667352 21.6417
36.90960309738324 21.6014
36.933075062434064 21.5243
36.95673202673572 21.5168
36.98020721697122 21.4446
37.003684015502365 21.4187
37.027162423645365 21.3911
37.050825886711465 21.3495
37.07430753063053 21.3112
37.09779078812467 21.2975
37.121275660513014 21.2448
37.144945643673694 21.1895
37.16843376245278 21.1041
37.19192350009803 21.1834
37.215414857931435 21.1978
37.239091382563885 21.1283
37.262585997426164 21.1335
37.28608223645736 21.1303
37.309763684451696 21.0452
37.33326318851098 20.982
37.356764320726555 20.9629
37.380267082425526 20.8901
37.40395510942588 20.899
37.42746114683234 20.8383
37.45096881771841 20.8278
37.474478123414166 20.7577
37.49817275092816 20.746
37.52168534303452 20.7751
37.54519957395567 20.6307
37.568715445024665 20.6077
37.592416694607714 20.5514
37.61593586281424 20.6277
37.63945667518264 20.6871
37.66297913304891 20.5295
37.68668702630454 20.5131
37.710212792059274 20.4036
37.733740207334854 20.3769
37.757269273470364 20.3725
37.780983832050374 20.3367
37.80451621684926 20.3146
37.82805025654007 20.3005
37.851585952464795 20.2616
37.8753071980695 20.1828
37.89884622345676 20.1267
37.92238690911902 20.134
37.94611318753442 20.1277
37.969657210779765 20.1183
37.99320289834801 20.1006
38.016750251586465 20.0509
38.04048325513017 19.9252
38.06403395679343 19.8991
38.087586328183946 19.8456
38.11114037065203 19.9149
38.13488012115898 19.9446
38.1584375229181 19.8016
38.181996599821 19.814
38.205557353221124 19.7842
38.229303872575656 19.7918
38.2528679961576 19.7597
38.27643380031219 19.7185
38.30000128639589 19.6463
38.32375459653193 19.6064
38.34732546371299 19.6348
38.37089801690786 19.5434
38.39447225747609 19.5154
38.418232380377425 19.4762
38.441810012983396 19.519000000000002
38.46538933705673 19.428
38.488970353960084 19.4582
38.51273731166058 19.3864
38.536321731567014 19.3355
38.55990784840681 19.3781
38.58367995004091 19.2431
38.60726947812959 19.2341
38.63086070726198 19.221
38.654453638806274 19.1949
38.678232613930824 19.1324
38.70182896773327 19.072
38.72542702806741 19.0601
38.7490267963045 19.0762
38.77281266709232 19.0877
38.79641586862214 19.049
38.8200207821842 18.9702
38.843627409152944 19.0045
38.86742019782782 18.8922
38.891030269149255 18.7971
38.914642058016156 18.8563
38.938255565806124 18.7743
38.96205529464307 18.7832
38.98567225787121 18.7944
39.00929094417078 18.7135
39.03291135492255 18.8022
39.05671804624804 18.7019
39.080341923549106 18.6415
39.103967529460334 18.6715
39.127594865365744 18.5794
39.15140854155791 18.563
39.17503935514948 18.5161
39.19867190290282 18.4842
39.22249083587951 18.5031
39.24612686969409 18.486
39.269764641845306 18.4433
39.293404153722804 18.4646
39.317230110864074 18.3504
39.34087311998506 18.261
39.36451787301696 18.3042
39.388164371352595 18.2195
39.41199737518003 18.2041
39.43564738196752 18.2245
39.45929913825317 18.1271
39.48295264543308 18.1288
39.506792718520884 18.0513
39.530449745387216 18.0348
39.55410852735203 18.0882
39.57776906581474 18.0476
39.60161623079 17.9653
39.625280300200025 17.9469
39.64894613032202 17.9049
39.67261372255866 17.9328
39.6964680021016 17.9049
39.72013913657293 17.8961
39.74381203738292 17.8574
39.76748670593756 17.803
39.79134812278169 17.855
39.81502634488497 17.8145
39.83870633896685 17.7145
39.862388106436654 17.6302
39.88625668336918 17.6762
39.90994201572829 17.6406
39.933629125719285 17.6046
39.957503091207826 17.5572
39.9811937746168 17.5762
40.00488623990914 17.5008
40.02858048850006 17.4363
40.05246165409549 17.4706
40.076159487492085 17.3928
40.099859108448875 17.4136
40.123560518384345 17.3846
40.1474489070226 17.3228
40.171153913178564 17.2903
40.194860712584955 17.2767
40.2185693066637 17.2885
40.242464941335314 17.2204
40.26617714307655 17.203
40.289891143772046 17.2194
40.3136069448471 17.2153
40.33750984859743 17.1906
40.3612292688043 17.1867
40.3849504936829 17.0853
40.40867352466194 17.1452
40.43258372059144 17.1005
40.45631038219906 17.0438
40.48003885420956 16.9217
40.503769138055105 16.9361
40.52768664931955 16.9749
40.55142057531802 16.9748
40.57515631746428 16.8601
40.599079334038514 16.8444
40.62281872700477 16.8123
40.64655994043941 16.7356
40.67030297578061 16.7663
40.69423334835778 16.7279
40.71798004609188 16.6698
40.74172857006355 16.6582
40.76547892171441 16.6674
40.7894166736039 16.6479
40.813170699248566 16.6063
40.83692655691388 16.566
40.86068424804498 16.5358
40.884629402612525 16.5258
40.908390779366385 16.4975
40.932153993938 16.4582
40.95591904777605 16.497
40.979871628443995 16.4883
41.003640379561936 16.4289
41.02741097430883 16.3412
41.05118341413683 16.3383
41.075143444384416 16.3654
41.098919593177826 16.3651
41.1226975914255 16.288
41.14647744058318 16.2106
41.170444943946755 16.1789
41.19422851378379 16.1685
41.218013938914645 16.1648
41.24198706625173 16.1143
41.26577622087193 16.1016
41.289567235177785 16.1086
41.31336011063129 16.0832
41.337340752422875 16.0135
41.361137369129835 16.0493
41.38493585138705 16.0074
41.40873620066004 15.9093
41.43272438060107 15.8839
41.45652848292052 15.8168
41.48033445666918 15.8242
41.50414230331616 15.8102
41.528138045159764 15.7778
41.551949656675205 15.7422
41.575763145513235 15.7384
41.59957851314666 15.6911
41.62358184070442 15.7353
41.64740098505737 15.6751
41.6712220126409 15.6392
41.69504492493139 15.6182
41.71905586207357 15.5857
41.74288256296395 15.5277
41.766711153007456 15.5448
41.79054163368412 15.5581
41.814560204340054 15.5599
41.838394485526365 15.5036
41.86223066180303 15.4164
41.88625497706819 15.425
41.910094962812 15.3736
41.93393684811168 15.315
41.95778063445365 15.283
41.981812625263366 15.3545
42.00566023303407 15.3017
42.029509746323676 15.2611
42.05336116662236 15.2264
42.077400857069705 15.2056
42.10125611078846 15.2015
42.12511327600405 15.1602
42.14897235421036 15.1554
42.173019768448455 15.1201
42.19688269209613 15.0809
42.22074753323349 15.0711
42.24461429335818 15.036
42.268669455600495 14.9944
42.292540073217886 15.0015
42.31641261433284 14.9686
42.34028708044675 14.9261
42.36435001496739 14.9187
42.38822835065557 14.8838
42.41210861586426 14.8149
42.4359908120986 14.8602
42.46006154323262 14.825
42.48394762115317 14.7226
42.507835634632315 14.8383
42.531912233047436 14.7547
42.55580413732265 14.7319
42.579697981698 14.6628
42.60359376768525 14.62
42.62767820545945 14.6623
42.65157789440821 14.6225
42.67547952952185 14.6101
42.699383112316 14.5789
42.72347541395347 14.527000000000001
42.74738291190531 14.4342
42.771292362102166 14.4547
42.795203766063516 14.4441
42.819303956130405 14.4764
42.843219287476536 14.4312
42.86713657716324 14.4061
42.89105582671383 14.3889
42.91516392983864 14.3092
42.939087119032166 14.3106
42.963012272677304 14.2928
42.98693939230129 14.2366
43.01105543317513 14.2495
43.034986504731386 14.2265
43.05891954686589 14.2135
43.08285456110972 14.1626
43.10697856448665 14.1174
43.130917542983475 14.0766
43.15485849820081 14.0678
43.17880143167367 13.985999999999999
43.20293342237094 13.9939
43.226880332449 13.9958
43.25082922540554 13.9767
43.27496722682525 13.933
43.29892010567796 13.9033
43.32287497204102 13.9103
43.34683182745632 13.8971
43.370977859791836 13.845999999999998
43.39493871351105 13.8482
43.41890156092628 13.8501
43.44286640358341 13.7797
43.46702049182749 13.799000000000001
43.49098934522816 13.7478
43.51496019852649 13.7193
43.5389330532723 13.7157
43.56309522248204 13.655
43.58707210044314 13.6732
43.61105098451946 13.5914
43.63503187626491 13.6033
43.659202151562134 13.5515
43.68318707902681 13.5382
43.70717401884041 13.4921
43.731162972560874 13.5116
43.75534137913236 13.4441
43.779334381108384 13.4545
43.803329401683186 13.4491
43.82732644241872 13.419
43.8515130055166 13.4365
43.87551410707659 13.3398
43.89951723350145 13.3746
43.923709934595614 13.3291
43.94771713129917 13.3142
43.97172635758096 13.3213
43.99573761501002 13.2645
44.0199385169922 13.2666
44.04395385732619 13.2362
44.067971233533086 13.2088
44.09199064718605 13.1169
44.11619977548961 13.1621
44.14022328470671 13.1164
44.16424883610785 13.1152
44.18827643127035 13.0493
44.21249381139513 13.0656
44.236525514814076 13.0136
44.26055926674478 13.0223
44.28459506876863 13.0105
44.3088207262813 12.9408
44.33286064928722 12.9071
44.35690262714919 12.9433
44.38094666145278 12.8796
44.4051806219871 12.9119
44.42922879003185 12.8513
44.45327901929361 12.7906
44.477331311362136 12.8002
44.501573600619416 12.767000000000001
44.525630039221795 12.7177
44.54968854541895 12.6932
44.573937102200176 12.6843
44.5979997645541 12.7431
44.622064499300315 12.6785
44.64613130803592 12.6761
44.67038823869318 12.6617
44.69445921643748 12.6371
44.718532272981385 12.5675
44.742607409926194 12.5694
44.76687274034801 12.5274
44.79095205918753 12.4561
44.81503346325094 12.4681
44.839116954143876 12.4891
44.86339071028742 12.4467
44.88747839599524 12.3935
44.91156817336837 12.4178
44.93566004401666 12.4346
44.959942251908146 12.3729
44.984038330325966 12.3843
45.00813650686762 12.3563
45.03223678314731 12.3155
45.05652746888232 12.2946
45.08063196592069 12.2703
45.104738567558705 12.229000000000001
45.128847275414856 12.2326
45.15314646515866 12.1984
45.17725940679741 12.1661
45.20137445952892 12.177999999999999
45.22568004865265 12.1562
45.24979934496396 12.1085
45.27392075725247 12.0704
45.29804428714431 12.0818
45.322358426247604 12.059000000000001
45.346486212804315 11.9968
45.370616121861914 12.0014
45.39474815505086 12.0035
45.41907087049246 11.9707
45.4432071734666 11.9557
45.46734560548283 11.9124
45.49148616817604 11.9074
45.51581748638564 11.8656
45.5399623320197 11.8376
45.56410931325473 11.8058
45.58825843173002 11.8124
45.61259837920865 11.8008
45.636751793816 11.7952
45.66090735060093 11.7818
45.68506505120716 11.7144
45.7094136545275 11.6909
45.73357566449271 11.6478
45.75773982322992 11.6797
45.78190613238733 11.6549
45.806263418194064 11.625
45.83043404997326 11.5931
45.85460683713677 11.5558
45.87897065658495 11.5595
45.90314777634752 11.512
45.92732705646868 11.5016
45.9515084986045 11.4805
45.97588104735473 11.4684
46.00006683541565 11.427999999999999
46.02425479047904 11.3878
46.04844491420549 11.3644
46.0728262191024 11.3781
46.09702070211635 11.38
46.12121735879483 11.3582
46.14541619080294 11.3439
46.169806278764455 11.350999999999999
46.194009483459034 11.3293
46.21821486849841 11.2884
46.24242243555223 11.2616
46.266821333570014 11.2477
46.29103328674601 11.2342
46.31524742696538 11.1962
46.33946375590237 11.1856
46.36387149104216 11.1703
46.38809221957392 11.1387
46.41231514186606 11.1151
46.436540259597464 11.114
46.460956858999374 11.0845
46.48518638983522 11.0343
46.509418121166966 11.0052
46.533652054678114 11.0274
46.55807754555709 10.9573
46.58231590571962 11.0067
46.60655647313217 10.9829
46.630988654873654 10.9366
46.655233659129024 10.9244
46.67948087571551 10.883
46.70373030632484 10.8465
46.72817142736393 10.8442
46.752425308428684 10.8416
46.77668140861147 10.7821
46.80093972960865 10.7499
46.82538981736788 10.7415
46.849652602470904 10.7004
46.87391761349769 10.716
46.8981848521493 10.6671
46.9226439341274 10.7074
46.946915650573224 10.6549
46.97118959976749 10.6441
46.99546578341598 10.6448
47.019933887188216 10.6065
47.04421456235744 10.5702
47.06849747711879 10.5767
47.09278263318286 10.54
47.11725978640143 10.5166
47.14154944775105 10.4327
47.165841355555656 10.4879
47.1901355115306 10.4538
47.214621741924994 10.4716
47.23892041698887 10.4394
47.26322134538975 10.3763
47.28771440635075 10.387
47.31201986422527 10.3752
47.33632758061436 10.3482
47.360637557241866 10.3429
47.38513974410611 10.3611
47.40945426407847 10.3201
47.43377104948137 10.2883
47.45809010204344 10.265999999999998
47.48260144275502 10.2342
47.506925052572285 10.2352
47.53125093475548 10.1885
47.55557909103813 10.1521
47.58009961361992 10.1618
47.60443234110732 10.145
47.62876734791564 10.1462
47.65310463578333 10.106
47.6776343683373 10.0981
47.7019762413987 10.0394
47.72632040075572 10.0449
47.75066684815169 10.0219
47.77520581885936 9.979339999999999
47.799556865477655 9.98422
47.823910205386 9.97033
47.84826584033272 9.95716
47.87281407745551 9.92825
47.89717432569297 9.907789999999999
47.92153687423484 9.90893
47.94609208429692 9.86969
47.97045925671401 9.851180000000001
47.99482873471275 9.86173
48.01920052005013 9.831719999999999
48.04376504619224 9.80706
48.068141469543484 9.788089999999999
48.09252020552573 9.80236
48.11690125590099 9.75649
48.1414751266064 9.76661
48.16586082917454 9.74167
48.19024885144316 9.7365
48.2146391951793 9.724969999999999
48.239222439012764 9.70502
48.26361744916137 9.63195
48.28801478610016 9.65892
48.31241445160131 9.618319999999999
48.337007097209366 9.60533
48.36141144338331 9.5775
48.38581812345755 9.56367
48.41022713920929 9.59022
48.434829215320704 9.545539999999999
48.45924292604658 9.555639999999999
48.48365897780325 9.57044
48.50807737237308 9.50964
48.532688907799276 9.48064
48.55711201168574 9.42361
48.581537463754074 9.42083
48.60615611725119 9.39465
48.63058628942721 9.37588
48.65501881516546 9.405380000000001
48.6794536962573 9.357330000000001
48.70408185970339 9.32599
48.72852147531801 9.30333
48.75296345168211 9.31558
48.77740779059232 9.29734
48.80204549302823 9.30321
48.82649458091802 9.2482
48.85094603676547 9.2277
48.87539986237231 9.20699
48.90004713292306 9.23431
48.92450572200832 9.185989999999999
48.94896668628025 9.17261
48.97343002754588 9.149289999999999
48.99808689542115 9.145480000000001
49.02255501470614 9.12601
49.04702551642794 9.11128
49.0714984023988 9.08917
49.096164896893235 9.10068
49.120642575466796 9.04852
49.145122643748394 9.02484
49.16960510355558 8.97949
49.19428125404938 9.00934
49.2187685210852 9.00072
49.243258185121555 9.00676
49.26794160167084 8.96462
49.2924360839405 8.93736
49.31693296869764 8.91549
49.34143225776915 8.88171
49.36612538195438 8.856630000000001
49.39062950396021 8.87514
49.41513603578346 8.867939999999999
49.4396449792564 8.838280000000001
49.46434784069503 8.81236
49.488861631846454 8.78027
49.513377840166804 8.790510000000001
49.537896467493745 8.7243
49.56260909589029 8.70616
49.587132585683285 8.71367
49.611658500018365 8.71119
49.636186840738596 8.71216
49.66090926588511 8.66741
49.685442483902584 8.653889999999999
49.70997813385706 8.64558
49.734516217597076 8.60399
49.75924846937352 8.63693
49.7837914452858 8.58595
49.80833686055187 8.5721
49.83288471702571 8.54752
49.85762682540054 8.56777
49.882179588965734 8.50343
49.9067347993235 8.50487
49.93129245833333 8.50941
49.95604445336378 8.484169999999999
49.98060703442832 8.44338
50.005172069746266 8.44068
50.02993150438364 8.44556
50.05450147301533 8.43343
50.07907390151433 8.39521
50.10364879174981 8.40254
50.12841816587289 8.37369
50.1529980044635 8.36523
50.17758031042124 8.33533
50.20216508562089 8.32271
50.22694442953363 8.32034
50.25153416817468 8.28545
50.27612638170508 8.28864
50.300721072005196 8.22542
50.325510416102105 8.25508
50.350110084975064 8.23034
50.37471223628208 8.20974
50.39931687190919 8.22986
50.424116246675766 8.19338
50.44872587605249 8.13143
50.47333799543065 8.14758
50.49795260670191 8.146189999999999
50.52276204271512 8.10565
50.54738166295838 8.07645
50.57200378079314 8.07465
50.596628398116835 8.05874
50.62144792604559 8.03717
50.646077567609396 8.0283
50.670709714377715 8.02978
50.69553683636198 8.040939999999999
50.72017401885922 7.98487
50.7448137122895 7.97267
50.76945591856022 7.94735
50.79429318636823 7.97093
50.818940443716784 7.963210000000001
50.84359021965163 7.9146600000000005
50.868242516085964 7.9006
50.893089960641895 7.888089999999999
50.917747323549435 7.86255
50.94240721271973 7.86371
50.96706963007175 7.85279
50.99192728239342 7.84155
51.01659478166073 7.84886
51.04126481489051 7.814780000000001
51.06593738400761 7.78538
51.090805275207074 7.780639999999999
51.11548294172845 7.75974
51.14016314993547 7.7592300000000005
51.164845901758845 7.71598
51.18972406304274 7.713760000000001
51.21441192780656 7.67853
51.23910234200271 7.682760000000001
51.2637953075678 7.672960000000001
51.288683770237945 7.64665
51.31338186432707 7.627389999999999
51.33808251561888 7.592219999999999
51.362978729967345 7.58105
51.387684521509755 7.575810000000001
51.41239287610203 7.58945
51.437103795691165 7.544789999999999
51.46201036644977 7.476660000000001
51.486726441956634 7.511589999999999
51.51144508832545 7.479310000000001
51.536166307509156 7.46655
51.56108326624387 7.44905
51.58580965706056 7.435339999999999
51.61053862657523 7.43354
51.635270176746864 7.395919999999999
51.66019755512065 7.4004199999999996
51.68493429268881 7.370480000000001
51.70967361681515 7.390910000000001
51.73441552946465 7.3571800000000005
51.759353359237934 7.3056600000000005
51.7841004750961 7.2989
51.80885018539685 7.3190800000000005
51.833602492111254 7.2980100000000006
51.8585508051424 7.27473
51.883308330926425 7.2805100000000005
51.90806845906181 7.266839999999999
51.932831191525715 7.24039
51.95779001977161 7.22249
51.98255798721516 7.17784
52.00732856494335 7.16051
52.03229530577543 7.18968
52.057071130455945 7.194160000000001
52.081849571391054 7.125380000000001
52.106630630568695 7.115539999999999
52.13160794279417 7.087289999999999
52.15639426492067 7.094530000000001
52.18118321127822 7.092689999999999
52.205974783860896 7.05404
52.23096269971011 7.09024
52.255759551287994 7.08051
52.280559035098186 7.040030000000001
52.30536115314103 6.990360000000001
52.33035970494467 7.005730000000001
52.35516711807904 6.981339999999999
52.37997717147198 6.980519999999999
52.40478986713005 6.997839999999999
52.42979908731974 6.9721
52.454617094216 6.941660000000001
52.47943774942214 6.905589999999999
52.50426105495102 6.89317
52.529280976059844 6.886080000000001
52.554109609024096 6.84664
52.57894089837482 6.85295
52.60377484613117 6.814780000000001
52.62880550079408 6.8362300000000005
52.65364479223379 6.7939
52.67848674816189 6.75587
52.70352547971946 6.80315
52.72837279155837 6.778410000000001
52.753222773982785 6.740410000000001
52.778075429022984 6.75161
52.80312495150885 6.759469999999999
52.827982978797436 6.73682
52.85284368481815 6.69659
52.87770707160767 6.67127
52.90276741793998 6.6716
52.92763619336701 6.66609
52.952507655698504 6.661580000000001
52.977381806977576 6.64468
53.00245301017842 6.60325
53.02733256653592 6.5751
53.052214817996074 6.59735
53.077099766608484 6.55264
53.102181859804446 6.56118
53.127072229988265 6.56416
53.15196530349892 6.53142
53.17686108239249 6.53463
53.20195409881522 6.46508
53.22685531582556 6.51006
53.25175924441303 6.4703599999999994
53.27666588664027 6.45592
53.30176985962693 6.47152
53.3266819565689 6.43895
53.35159677336455 6.4695599999999995
53.376514312083096 6.4568
53.40162927507703 6.3903099999999995
53.42655228516116 6.40607
53.45147802340193 6.33159
53.47660125628886 6.33459
53.50153247842639 6.3038
53.52646643496923 6.29931
53.55140312799818 6.32068
53.576537409691696 6.25702
53.60147960336152 6.293819999999999
53.626424539786164 6.26529
53.65137222105307 6.24401
53.67651758529126 6.1954400000000005
53.70147078399681 6.21108
53.72642673383343 6.24602
53.75138543689533 6.19803
53.776541917524526 6.18659
53.801506154876755 6.17485
53.826473151763246 6.1613
53.851442910284916 6.1162
53.87661054126026 6.15522
53.9015858509782 6.16115
53.92656392866066 6.14354
53.95154477641532 6.11405
53.976723591801296 6.06693
54.00171000771266 6.0326900000000006
54.02669920004598 6.046930000000001
54.051691170915745 6.01392
54.076881204886796 6.01169
54.101878760928514 6.00523
54.12687910187696 5.981669999999999
54.152077577768296 5.98494
54.1770835166946 5.96874
54.20209224691339 5.93187
54.22710377055121 5.94355
54.25231352511594 5.92394
54.27733066384342 5.9143099999999995
54.30235060239643 5.909680000000001
54.32737334290836 5.89613
54.35259441062629 5.81009
54.377622783395324 5.81148
54.40265396455061 5.8846
54.42768795623251 5.81853
54.45292037169559 5.76578
54.477960012857906 5.79643
54.50300247099511 5.77264
54.52804774825457 5.742369999999999
54.55329154616743 5.732880000000001
54.57834249018678 5.7112300000000005
54.6033962597977 5.63371
54.6284528571545 5.678780000000001
54.653708072335164 5.65669
54.67877035378786 5.622000000000001
54.70383546947698 5.60291
54.72890342156389 5.6005199999999995
54.7541700889442 5.569719999999999
54.77924374251975 5.5625800000000005
54.8043202390049 5.510730000000001
54.82959552413022 5.491630000000001
54.8546777351945 5.47998
54.87976279569621 5.4679199999999994
54.90485070780914 5.4787300000000005
54.930137506558005 5.40361
54.95523115074295 5.38374
54.98032765308844 5.38121
55.005427015775496 5.32529
55.03072536339621 5.34967
55.05583047570572 5.27243
55.080938454927676 5.2985
55.10604930325027 5.3592
55.131359235107396 5.36158
55.15647585066083 5.24694
55.181595341907496 5.216069999999999
55.20671771104285 5.20311
55.232039262617704 5.163069999999999
55.25716741665048 5.174180000000001
55.28229845518636 5.1634400000000005
55.30743238042802 5.081119999999999
55.33276558731939 5.10476
55.357905315183636 5.0545800000000005
55.383047936390035 5.00858
55.40819345314859 5.0011
55.433538351073295 4.979419999999999
55.458689688238415 4.99719
55.483843927614096 4.94485
55.509197623043605 4.96154
55.53435769621134 4.89449
55.55952067826466 4.9025
55.5846865714265 4.84145
55.61005202069737 4.84566
55.63522376553902 4.8227199999999995
55.66039842818645 4.78809
55.68557601087004 4.78564
55.7109532500271 4.74809
55.73613670233794 4.78949
