TT I
1.2716486653135266 8.05462
1.2939594142134223 7.59305
1.3162702121660406 6.6268
1.3385810600174564 6.9889
1.3608919586137629 7.24228
1.383202908801069 7.086939999999999
1.405513911425503 6.53434
1.4278249673332093 6.5458099999999995
1.4501343378461518 6.9032100000000005
1.4724455028545926 6.55098
1.4947567236847858 7.29183
1.517068001182951 6.84046
1.5393793361953272 6.3310699999999995
1.5616907295681737 6.1466
1.5840021821477681 5.60706
1.60631369478041 5.5384199999999995
1.6286252683124185 5.58378
1.6509369035901333 5.3825
1.6732468618895553 5.30739
1.695558623192809 5.52966
1.7178704487808514 6.0785
1.7401823395001077 5.05915
1.7625012545597203 5.38212
1.7848028405262486 4.87027
1.8071218901122095 4.7493099999999995
1.8294236121921872 5.17396
1.8517427996910911 4.95284
1.8740620574440425 4.5218
1.8963639900671978 5.01704
1.9186833908139995 5.113659999999999
1.9409854680117449 4.77588
1.9633050151394713 4.9294400000000005
1.9856246367570705 5.03242
2.0079269371922672 4.91009
2.03024671027244 4.54293
2.0525491637446027 3.95135
2.074869091674931 4.23272
2.097171701569106 3.9796300000000002
2.1194917877373847 4.732819999999999
2.141811954326636 4.9478800000000005
2.164114805233074 4.92089
2.186435135143035 4.89579
2.208738150935709 4.61292
2.231058647554722 4.957319999999999
2.2533792288321184 5.11764
2.275682498336085 4.48623
2.298003251406138 4.48755
2.3203066942619714 4.157780000000001
2.3426276225136022 3.8318
2.3649486396617507 4.5387900000000005
2.387252348930071 4.78155
2.4095735463442893 4.47308
2.4318774374315884 4.0691
2.4541988185014043 4.5525400000000005
2.476502894794693 4.60858
2.498824462909887 4.35458
2.521146125856138 4.19529
2.5434504863470337 4.80301
2.5657723414244717 5.1098300000000005
2.588076895590662 5.2767599999999995
2.610398946189713 5.7904599999999995
2.6327210958598384 4.849819999999999
2.6550259469304716 5.4356
2.6773482972090137 5.84466
2.6996533504259 6.05984
2.7219759047039602 6.12193
2.744298562293959 6.16465
2.7666039251246595 6.39215
2.7889267918020164 6.9995
2.8112323652516555 6.863919999999999
2.833555444408179 7.343780000000001
2.8558786311183852 7.2555
2.8781845268938557 7.7744100000000005
2.9005079311721484 8.40446
2.9228140460410397 8.73327
2.9451376712799635 9.46606
2.967444008632326 9.063460000000001
2.9897678582247247 10.0688
3.0120918213106695 10.1291
3.0343984987899373 11.1498
3.0567226913198637 11.2776
3.079029599759726 11.6065
3.101354025127254 12.1681
3.123678568232338 12.9485
3.145985829517914 13.0105
3.16831061055229 13.1855
3.1906181112775593 13.6827
3.212943133635653 14.87
3.2352682779763207 15.2117
3.2575761442691227 15.683
3.2799015350264273 15.5205
3.302209649240067 16.255
3.3245352898092655 16.9125
3.3468436553365257 17.2376
3.369169549113219 17.807000000000002
3.3914955708171384 18.6834
3.413804319727358 18.9079
3.4361305997334863 18.9471
3.4584396084414553 19.1859
3.4807661501462652 20.1717
3.503092824025881 20.5688
3.5254022288463154 20.5759
3.5477291695206588 21.0453
3.5700388426251948 21.3626
3.5923660534916446 22.075
3.6146934007816114 22.0848
3.637003482731501 22.3359
3.6593311053109985 22.9125
3.681641464033634 23.2929
3.7039693653009733 23.3535
3.726297407241705 24.3649
3.7486081875460804 24.8413
3.7709365132734978 24.9211
3.793247578841633 25.705
3.8155761917550093 25.588
3.8378875459837216 26.2936
3.8602164494827234 26.5638
3.882545499606844 27.294
3.9048572932539183 28.1882
3.9271866390645718 27.9011
3.9494987298666713 28.5416
3.971828374764527 29.2005
3.9941581705403255 29.4229
4.016470713506008 30.0718
4.038800813471445 30.8772
4.061113662089144 31.4292
4.0834440696459176 31.9581
4.105774632334751 32.3666
4.128087945865126 33.0459
4.150418821249301 33.7913
4.172732448931298 34.2694
4.195063640413578 34.9894
4.2173775856475215 35.9337
4.239709096631102 36.4554
4.262040768704612 36.9358
4.284355196706267 37.4696
4.306687193387355 37.9711
4.329001947444346 39.6349
4.35133427213731 40.308
4.373666762177566 41.1169
4.395982011761091 41.5384
4.418314834921175 42.6541
4.44063041906622 43.6426
4.4629635787515625 44.8467
4.4852969080429785 45.4422
4.5076130004776225 46.2914
4.529946671403969 47.2622
4.552263106909177 48.485
4.574597122877047 49.5572
4.596931312711224 50.3257
4.619248269273446 51.5755
4.6415828092605835 52.8061
4.663900117405352 54.4713
4.686235010953232 55.7912
4.708552674085913 56.5388
4.730887924602802 58.4826
4.753223354952695 59.6871
4.775541557023902 61.2054
4.797877349456786 63.1344
4.820195915032126 65.19
4.842532072957498 66.6621
4.864868414979744 68.6046
4.88718753227192 70.8467
4.909524244902505 72.8464
4.931843734218147 75.7317
4.954180820867835 79.1901
4.976518095879839 82.8512
4.998838149695359 86.5203
5.021175803844231 91.1314
5.043496238205739 95.2602
5.065834274903528 100.811
5.088172504230693 108.234
5.1104935158799565 116.82799999999999
5.132832132875765 130.53
5.155153533596801 152.55
5.1774925416746225 203.99099999999999
5.199814334878411 523.502
5.2221537374521505 1874.65
5.244493338631803 3752.86
5.266815727034316 5597.73
5.289155727832427 8612.95
5.311478517248165 9828.52
5.333818921080011 6145.7
5.356159527788849 1774.02
5.3784829252032536 406.20300000000003
5.400823940070432 204.042
5.423147747031976 159.908
5.445489173474152 138.161
5.467830807066149 126.18799999999999
5.490155234831516 119.059
5.512497285125229 113.906
5.534822130975162 110.90100000000001
5.557164601388673 107.60700000000001
5.579489868738879 104.235
5.601832762690846 102.08
5.6241758697774475 100.258
5.646501775867269 98.9301
5.668845311622074 98.3597
5.691171647754637 97.6866
5.713515615597765 96.6878
5.735859800852677 95.5667
5.758186788542988 95.046
5.780531411018185 95.5135
5.802858837297399 95.5639
5.825203900414495 95.6598
5.8475491852224 96.7345
5.869877275883075 98.4017
5.892223006467101 101.398
5.914551544266608 104.84200000000001
5.936897724049891 111.796
5.959244129804903 122.85799999999999
5.981573344815301 152.594
6.0039202049061 279.796
6.026249875609095 730.7639999999999
6.04859719346037 1373.22
6.070927323278297 1971.69
6.093275102315365 2877.34
6.115623113320588 3974.45
6.137953938319995 4036.69
6.160302415650845 2127.09
6.182633708324452 631.039
6.2049826554078376 200.12099999999998
6.227331838745022 119.089
6.249663839443684 98.3656
6.27201349767565 88.2367
6.294345974611799 83.18700000000001
6.316696111167083 78.4224
6.339046488263839 75.7132
6.361379686074702 72.9298
6.383730546639482 71.3283
6.406064229255215 68.8169
6.428415576718203 68.3172
6.450749747566656 66.8104
6.47310158535871 65.3632
6.495453669698332 64.6635
6.517788579421056 63.9788
6.540141159237969 62.5881
6.562476565766648 61.8328
6.5848296444934045 61.563
6.607182974060425 60.5966
6.6295191323281015 60.1329
6.651872965955752 59.5167
6.6742096296068985 58.7602
6.6965639707294615 58.3453
6.71891856698715 57.756
6.741255995248479 57.2569
6.763611104154477 57.0872
6.785949046381137 56.7702
6.808304671371482 56.2442
6.8306605557940046 56.1191
6.852999275508618 55.1186
6.875355681171544 55.0689
6.897694923437771 54.8547
6.92005185377892 54.5295
6.9423916220322655 54.5017
6.964749080490181 53.7752
6.987106804399774 53.886
7.009447368180821 53.9448
7.031805625367033 53.7054
7.054146723727803 53.5724
7.076505517631004 53.1274
7.098864581288365 53.3898
7.121206488070854 52.8695
7.143566093607822 52.6954
7.165908543567245 52.8741
7.188268694426048 52.7353
7.2106291193438095 52.5893
7.232972390625943 52.9392
7.255333366030969 52.4734
7.277677189091925 52.2919
7.300038718428332 52.5376
7.322400526130865 52.5048
7.344745183422596 52.3365
7.367107550224791 52.5375
7.389452767901992 52.8228
7.411815697249891 52.4441
7.434161478756298 52.3951
7.456524974096713 52.5258
7.478888753837185 52.2584
7.501235387657368 53.0705
7.523599738562711 55.5989
7.545946944825532 61.0546
7.568311870344528 61.9449
7.5906770845765665 58.2867
7.613025156078678 55.0572
7.635390950099687 54.4883
7.657739602662809 53.7916
7.680105979923558 53.5597
7.702472650212829 54.4661
7.724822180948224 54.6172
7.747189439655568 54.4434
7.769539560075357 54.8038
7.791907410653562 55.3046
7.81425812420825 55.3725
7.836626570110925 55.8003
7.858995315087906 56.46
7.881346924933401 56.668
7.903716270417482 57.3409
7.926068482028405 57.5056
7.948438431475253 58.1301
7.9708086843180235 58.6871
7.993161805171116 59.2313
8.015532667162402 59.8972
8.037886398416653 60.7188
8.060257873014221 61.036
8.082629655331942 61.6359
8.104984308787587 62.4295
8.127356708900503 63.1023
8.149711981398308 64.2425
8.172085002766314 65.1538
8.194458336181368 66.1016
8.216814543847752 66.9386
8.23918850371002 68.1709
8.26154533906492 69.3787
8.283919928836452 71.3316
8.306277395339652 72.3188
8.328652618483376 73.7777
8.351028159736202 76.4124
8.373386579575245 78.7934
8.395762759396959 80.4566
8.418121819038275 84.2956
8.440498640894003 88.9091
8.462875785192262 95.3915
8.485235811156207 109.898
8.507613602688501 171.389
8.529974277114228 360.673
8.552352719347912 589.444
8.574731488360351 773.408
8.59709314210385 922.322
8.619472567021075 1174.67
8.64183487789147 1585.18
8.664214962183097 1892.29
8.686577933647762 1641.95
8.708958680784317 925.1210000000001
8.731339760774953 396.19199999999995
8.753703729764451 172.25599999999997
8.77608547780821 115.65799999999999
8.798450116065078 103.213
8.820832535634787 97.1139
8.843215292401656 93.8936
8.865580941199045 91.6406
8.887964374703538 89.7746
8.910330701447199 88.18799999999999
8.932714815164482 87.0622
8.955099270424924 85.9759
8.977466620733543 85.3648
8.999851761421976 84.5977
9.022219798361645 83.9268
9.04460562795561 83.6281
9.066991803441677 82.9278
9.089360876979615 82.712
9.111747746589993 82.2846
9.13411751544971 81.7611
9.156505082664324 82.0141
9.178875550323522 81.9016
9.20126381862328 82.6032
9.223652438908596 86.3702
9.246023961427412 93.6891
9.26841328802173 94.4524
9.290785518039224 90.0041
9.313175554425882 85.9894
9.335565947154315 83.1349
9.357939245086508 82.4762
9.380330352834827 82.4737
9.40270436697103 82.8714
9.425096193225055 82.6109
9.447488380180165 83.3667
9.469863475295412 84.1009
9.492256385987508 84.0951
9.514632206018318 84.8169
9.537025843935714 85.1017
9.559402392368193 86.016
9.581796761000229 86.4374
9.604191496441521 86.5376
9.626569144158516 87.5679
9.648964615551032 88.3865
9.671343000390081 89.1665
9.693739211225699 90.36399999999999
9.716135793237463 91.2785
9.738515290448102 92.2339
9.760912617143402 93.2623
9.783292860202891 94.992
9.805690935076182 96.2293
9.828089385495742 97.3408
9.850470754023561 99.4986
9.872869957865444 101.84899999999999
9.89525208097539 104.48
9.917652041736662 108.25200000000001
9.940052382417589 114.39200000000001
9.962435644102392 129.985
9.984836746950979 184.407
10.007220771957746 336.485
10.029622640473708 535.717
10.052007432299963 675.815
10.074410069984072 754.554
10.096813093716005 869.086
10.119199042482517 1093.8
10.141602840636468 1445.08
10.163989564971628 1708.36
10.186394141051062 1529.26
10.208799107559706 936.7810000000001
10.231187001965623 455.827
10.253592751657669 205.97400000000002
10.275981430388155 132.125
10.298387966769793 116.26
10.320794897965431 111.552
10.343184759907361 108.45299999999999
10.36559248305461 105.90700000000001
10.387983138083852 104.816
10.410391656691655 106.81299999999999
10.432800574501677 121.678
10.455192425893369 163.246
10.47760214443012 212.68099999999998
10.499994797678786 247.73
10.522405320453982 266.683
10.54479877906917 294.58299999999997
10.567210109595656 347.02
10.5896218454736 425.18199999999996
10.612016518879773 506.54699999999997
10.634429067781074 497.602
10.656824555333241 361.181
10.679237920773568 220.74200000000002
10.701651695961992 131.486
10.724048411481384 100.04299999999999
10.746463008485165 90.7738
10.768860546937125 86.7993
10.791275969274796 84.0688
10.81369180576079 82.5571
10.836090585366925 81.2681
10.858507252467449 79.8939
10.88090686379991 78.4429
10.903324365036394 77.8423
10.925724811614439 76.3601
10.948143150509463 75.8735
10.970561909719066 74.8909
10.992963615930844 74.321
11.015383218085756 73.2782
11.037785768347074 72.4818
11.06020621697282 71.9793
11.082627090322113 71.1523
11.105030913430326 70.7554
11.12745263854165 69.975
11.149857314510728 69.2756
11.172279894912576 69.1335
11.194702904450653 68.0074
11.217108866490921 67.6282
11.239532736615194 67.2312
11.26193956033512 66.8641
11.284364294577085 66.438
11.306789462371718 66.0315
11.329197585398376 66.2028
11.351623622610898 65.9063
11.37403261614354 65.2033
11.396459526308487 65.3115
11.418869393879497 64.6924
11.441297180532617 64.2714
11.463725406927658 64.0985
11.486136592353875 63.5421
11.508565700543707 63.1432
11.530977768845315 63.2449
11.553407762368774 62.6272
11.575838200059769 62.8104
11.598251599479612 62.6259
11.620682927815501 62.3643
11.64309721895548 62.6167
11.665529441478206 62.4258
11.687962112597958 62.0512
11.710377748130886 62.1625
11.732811318753434 61.8363
11.755227854859067 61.7687
11.777662328529495 61.4646
11.800079768750786 61.565
11.822515149015453 61.4641
11.844950984084935 61.8197
11.867369787303163 61.567
11.889806534289491 62.0359
11.912226250487029 62.6442
11.934663912939751 64.4951
11.9571020346363 65.8168
11.979523127133968 65.4911
12.001962169624331 65.3326
12.024384183972964 65.0027
12.046824150809913 67.9178
12.069264581333726 77.5209
12.091687985297767 90.4372
12.11412934550045 101.213
12.136553680195208 107.98
12.158995973632788 113.83
12.181438735204349 121.475
12.20386447284199 135.284
12.226308172985636 157.112
12.24873485024193 181.769
12.271179492516982 195.218
12.293607112949127 174.854
12.316052700916226 133.873
12.338498763250042 94.7472
12.360927805303868 73.3614
12.383374818673879 66.6506
12.405804812803074 64.2901
12.428252780773262 63.9139
12.45070122756722 63.7678
12.473132656675375 63.3905
12.49558206341869 63.3006
12.518014453510101 63.4145
12.540464823770117 63.5555
12.562915677315177 63.7406
12.58534951575545 63.9141
12.607801338171472 64.0692
12.630236146511358 64.3269
12.652688941369085 64.5564
12.675124723177234 64.9001
12.697578494048786 65.5781
12.720032754458185 65.8491
12.742470003354093 66.4848
12.764925245138771 66.7846
12.787363476431278 67.1623
12.809819703166806 67.8019
12.83227642391173 68.2422
12.854716135692716 68.7901
12.877173846755147 69.9728
12.899614549869717 70.3568
12.9220732548287 71.2389
12.94453245827299 71.7302
12.966974655289818 72.6382
12.989434858002571 74.0556
13.011878055298721 74.6522
13.034339260862497 75.69
13.056800969391883 77.1162
13.079245674017244 79.7001
13.101708390774869 81.5885
13.12415410463411 86.7423
13.146617833206086 102.78399999999999
13.169064559883248 132.394
13.191529303857127 162.757
13.213994557076367 185.308
13.236442809902437 198.888
13.258909083908291 210.205
13.28135835851934 227.04
13.30382565690295 257.661
13.326293469022952 307.372
13.348744283242008 365.51800000000003
13.371213125129904 400.221
13.39366497011003 376.417
13.416134845360597 294.953
13.438605238843131 200.61900000000003
13.46105863690397 138.217
13.483530069144786 117.881
13.505984506951902 129.30100000000002
13.528456981549432 153.451
13.550929978879088 171.32299999999998
13.573385983253365 182.055
13.595860028340867 188.62400000000002
13.618317081455832 199.618
13.64079217790333 218.951
13.663250283359057 250.217
13.685726434770173 294.173
13.708203115221277 340.523
13.730662806148091 348.68300000000005
13.75314054697177 301.053
13.775601299246777 222.15400000000002
13.798080104050406 148.39
13.820559442405358 103.73299999999999
13.843021793671388 87.8027
13.865502201420897 82.5052
13.887965623051947 81.0373
13.910447103807167 79.7136
13.932929122629764 77.8896
13.955394156785959 77.5465
13.977877254034569 76.5869
14.000343367582113 75.8511
14.022827546871707 74.8976
14.045294743423524 74.0943
14.06778000837062 73.5152
14.090265817715476 73.422
14.112734645763819 73.289
14.13522154619454 73.6625
14.157691466286913 74.3865
14.180179461423874 73.7163
14.202668005486178 72.8811
14.22513957064374 71.7268
14.247629214846473 70.8185
14.270101881097517 70.2168
14.29259262906496 70.0477
14.315083930490205 69.9133
14.337558255389705 69.5342
14.360050666019726 69.2814
14.382526101071944 69.1682
14.405019624534942 68.9514
14.427513705993134 68.5915
14.449990813291825 68.5612
14.47248601302899 68.5172
14.49496423954951 68.6909
14.517460561197822 68.8105
14.539939910570322 68.4503
14.562437357763558 68.7347
14.58493536931253 69.2491
14.607416409993311 69.1022
14.62991555254159 69.3142
14.652397725157423 69.4964
14.674898002342799 69.5316
14.697398848433282 70.3272
14.719882725991326 71.2992
14.74238471217934 71.8293
14.764869730765593 74.5664
14.787372860692983 80.9491
14.809876564079925 93.911
14.83236330125751 106.571
14.854868153850365 115.985
14.877356041159485 121.742
14.899862046604186 125.275
14.922351087688757 130.895
14.944858249632887 140.025
14.967365991421232 155.129
14.989856770231246 174.71200000000002
15.012365673994204 199.15200000000002
15.03485761569738 213.22799999999998
15.05736768508665 205.02900000000002
15.07987833888692 172.975
15.102372032001655 133.341
15.124883856909658 99.4775
15.14737872204565 81.2671
15.169891721717274 73.8348
15.192405310371893 71.4371
15.214901940621196 70.7075
15.237416709527137 69.5503
15.259914520936249 69.0822
15.282430473753607 68.4754
15.304947020131227 67.6957
15.327446610371178 67.4229
15.349964346154254 66.9177
15.372465126703139 66.8771
15.394984055556009 66.7745
15.417486030076159 66.7885
15.44000615566487 66.0951
15.462526881230803 66.0448
15.485030653812652 66.055
15.507552581617434 66.0245
15.530057557334603 65.9325
15.55258069104857 66.0025
15.575104429329837 66.2705
15.597611216864632 66.3114
15.620136166564563 66.4098
15.6426441664095 66.8429
15.665170331202765 68.7811
15.687697105158826 74.2387
15.710206930593545 84.0693
15.732734925158933 94.73700000000001
15.755245972089478 102.58
15.77777519094324 107.491
15.800287463046663 110.12100000000001
15.822817909869592 113.619
15.84534897229804 118.975
15.867863089299354 129.343
15.890395385222186 142.917
15.912910736597423 161.164
15.935444269699861 180.18599999999998
15.957978423016485 187.19099999999997
15.980495633101265 175.81
16.003031029129367 148.289
16.02554948280019 113.73899999999999
16.048086125229432 86.8336
16.070623392487107 72.5621
16.09314371869582 66.2385
16.11568223789321 63.382
16.13820381691126 62.2046
16.160743591742527 61.2424
16.183283996022084 60.7716
16.205807461423195 59.6981
16.228349126881973 59.128
16.25087385432698 59.0741
16.27341678466365 58.3922
16.29594277784926 58.2061
16.31848697676433 57.8079
16.341031811604868 57.2216
16.36355971058487 57.1949
16.3861058195587 56.9557
16.40863499352978 56.4579
16.431182380342005 56.3465
16.453730407713202 56.1791
16.476261501364792 55.7444
16.498810812136167 55.2805
16.52134319004079 55.4208
16.54389378792203 55.5428
16.566445031001553 55.1888
16.588979342490088 55.0724
16.61153187824822 55.0801
16.634067483263312 54.8892
16.656621315414416 54.644
16.679175797408888 54.263999999999996
16.701713349928728 54.4309
16.72426913389191 54.8056
16.74680798922351 54.6887
16.76936507887444 54.493
16.791905240734874 54.7223
16.814463639794468 54.4613
16.837022695210294 54.6027
16.859564824093756 54.6726
16.882125194503903 54.706
16.904668639217885 55.0168
16.927230328348003 55.0771
16.949792678493612 55.4331
16.972338104193863 55.2347
16.994901778652235 55.2552
17.017448529496576 55.6103
17.040013531998152 55.7501
17.06257920018044 56.3327
17.0851279459922 57.2907
17.107694947817667 59.3632
17.130245028099072 61.4031
17.15281336730298 63.3486
17.17536478578733 64.6728
17.19793446610687 65.4836
17.220504818648422 66.0091
17.243058251703697 66.4718
17.265629950971032 68.2786
17.288184731571736 70.5799
17.310757781306908 74.0355
17.33333150794385 77.3075
17.355888317140174 81.1529
17.37846339986244 83.10700000000001
17.401021565958885 81.4668
17.42359800851343 77.0126
17.44617513265564 71.0815
17.468735341390783 65.4471
17.491261035594565 61.765
17.51396340099364 60.1873
17.536490463869136 59.6782
17.559018209820174 59.3762
17.58154663977963 59.4157
17.604251766089718 59.6127
17.626781572227713 59.9101
17.64931206518155 60.0775
17.671843245885103 60.2326
17.69455114821572 60.3781
17.717083712612634 60.7906
17.739616967569667 61.2768
17.762150914021706 61.821999999999996
17.78486160749854 62.0081
17.807396945166804 62.5896
17.829932977143503 63.2143
17.85246970436452 64.1754
17.875183204129467 66.8868
17.897721330097664 72.3411
17.920260154126645 78.5331
17.942799677153296 83.8624
17.9655159983646 86.9381
17.988056927677544 88.9619
18.010598558807683 90.6236
18.033140892692916 92.6944
18.05586005052525 96.0831
18.07840379824407 101.22200000000001
18.10094825154059 108.561
18.12366954819864 118.615
18.146215420998306 131.908
18.16876200220057 143.101
18.191309292745153 146.322
18.214033452627167 140.578
18.236582170236648 125.926
18.259131600016456 109.493
18.281681742907335 96.1611
18.304408781233683 89.4061
18.32696035875955 87.5175
18.349512652227624 88.6603
18.372065662579683 92.6663
18.394795594587553 97.4031
18.41735004715306 102.803
18.43990521943684 104.83200000000001
18.46246111238171 102.165
18.485193953325208 94.5155
18.507751296070428 84.6961
18.530309362314178 75.5246
18.552868153000343 69.1391
18.57560391815056 65.1036
18.59816416623245 63.5296
18.620725141597372 62.7309
18.643286845190268 62.0966
18.666025549835414 61.5032
18.688588718427933 60.6231
18.711152618092243 60.2794
18.73389353884365 60.2441
18.75645890921984 59.8153
18.77902501351406 59.4149
18.801591852673102 59.272
18.824335739722738 58.7354
18.846904057212626 58.6876
18.8694731124168 58.4334
18.89204290628315 58.2455
18.914789774966803 58.141999999999996
18.937361054791623 57.7624
18.959933076131318 57.5189
18.982505839934877 57.51
19.00525570560582 57.2952
19.027829963004184 57.0607
19.05040496572238 57.1969
19.072980714710468 57.2951
19.095733592739563 57.3688
19.11831084296757 57.8593
19.140888842324735 58.797
19.16346759176222 59.878
19.18622349753803 61.1536
19.208803755869358 62.1386
19.231384767143577 62.6251
19.253966532312948 62.8641
19.276725481241822 63.3678
19.29930876296784 64.0708
19.3218928014549 64.9779
19.34465404436217 66.3186
19.36723960516257 68.1313
19.389825925592426 70.4628
19.412413006605938 72.9214
19.43517731967805 74.5531
19.457765930683355 74.7005
19.48035530514408 72.6236
19.50294544401556 68.1796
19.525712842708348 63.4755
19.54830451925909 59.6328
19.570896963095727 56.5115
19.593490175174704 55.0342
19.616260674962184 54.7012
19.638855432416964 54.1569
19.661450960992624 54.0754
19.68404726164677 53.9595
19.706820878021247 53.8353
19.729418731756834 54.2078
19.752017360452857 53.7688
19.77461676506804 53.7903
19.797393513540218 53.8227
19.819994478951667 54.2181
19.84259622316767 55.1527
19.8651987471481 56.2716
19.887978643247177 57.0743
19.91058273574792 57.7589
19.933187610901943 58.6216
19.955969879466828 59.0057
19.97857632894404 59.1052
20.00118356396599 59.4924
20.023791585494575 60.1237
20.046577028914875 61.5286
20.069186632506966 62.8994
20.091797025500632 65.4693
20.114408208858933 68.0881
20.137196842715273 71.2463
20.159809615886765 73.2261
20.18242318232135 73.0962
20.20503754298326 71.4383
20.227829382875154 68.5804
20.250445341109344 65.7335
20.27306209647285 63.2149
20.29567964993108 62.0129
20.31847471147704 61.8007
20.34109387027612 62.7357
20.363713830075454 64.3499
20.386334591841646 65.7094
20.409132890679302 65.9296
20.431755265564437 64.6061
20.454378445325528 62.22
20.477002430930366 58.9826
20.499803982716553 56.0959
20.522429589228004 53.6433
20.54505600449589 52.1469
20.567683229489194 51.3586
20.590488049900088 51.211999999999996
20.61311690359731 50.9589
20.63574656993626 50.7235
20.658553853717297 50.1211
20.681185154618298 50.1841
20.703817271080066 49.9432
20.72645020407368 49.644
20.749260783967177 49.7658
20.771895359337133 49.7314
20.794530754161617 49.7362
20.817166969412938 49.3732
20.83998086114876 49.2845
20.86261872660049 49.3622
20.885257415405402 49.3204
20.90789692853701 49.1302
20.930714147864748 49.0899
20.953355319030678 49.1112
20.97599731745334 49.3602
20.99864014410749 49.3822
21.021460706796564 49.6965
21.044105199328826 49.8783
21.06675052302631 49.9758
21.089396678865015 49.8755
21.112220600704806 49.9415
21.134868430275347 50.1975
21.15751709492456 50.1698
21.180166595629693 50.0202
21.202993892429635 50.2213
21.22564507473034 50.6073
21.24829709602816 50.9232
21.27112693608965 51.3989
21.293780644891275 51.9879
21.316435195634053 52.1241
21.339090589297417 51.7883
21.361923832041875 51.5541
21.384580921090404 50.7892
21.407238856007325 50.0996
21.429897637773326 49.6091
21.45273429906592 49.3368
21.475394784108598 49.0663
21.498056118951983 48.7127
21.520718304578022 49.0595
21.543558400304388 49.2789
21.566222297108816 49.3698
21.58888704765135 49.2853
21.61155265291521 49.7205
21.63439619898156 50.8499
21.657063523335786 51.6936
21.67973170537063 52.7012
21.7024007460706 53.7231
21.72524775840385 54.2497
21.747918526116475 54.5469
21.770590155457388 54.6896
21.79326264741238 55.1801
21.816113141960237 55.8166
21.838787368860547 56.7138
21.861462461341976 58.0014
21.884315579735777 59.5072
21.90699241312273 61.0591
21.92967011506078 63.185
21.95234868653799 65.1921
21.9752053151131 66.7819
21.997885635446785 66.8261
22.020566828293532 65.9871
22.04324889464272 63.68
22.066109049404666 60.8275
22.088792872571794 58.2158
22.111477572219204 56.7881
22.1341631493376 56.2115
22.157026846313123 56.2457
22.179714188221507 56.6879
22.202402410582668 56.7988
22.22509151438863 56.49100000000001
22.24795876962584 55.3537
22.270649646204486 54.0834
22.293341407213727 52.6223
22.316034053646906 51.3759
22.338904883215342 50.3931
22.36159931041458 49.8665
22.38429462602756 49.5291
22.40699083104897 49.5269
22.429865251039757 49.5996
22.452563244831367 49.2213
22.47526213102522 49.2823
22.49813925616515 49.4007
22.520839937143307 49.3901
22.543541513520587 49.3255
22.56624398629403 49.1596
22.589124730075895 49.1325
22.611829005656723 49.3614
22.63453418063466 49.3485
22.657240256008077 49.6463
22.680124634582935 50.1519
22.70283252079775 50.7531
22.725541310413075 51.4483
22.74825100442868 51.923
22.771139033969575 52.349
22.79385054687155 52.4066
22.81656296718292 52.4412
22.83927629590484 52.551
22.862167992606945 52.8218
22.88488314827121 53.3698
22.907599215359284 53.7295
22.93031619487366 54.2909
22.953211574954405 54.9603
22.975930389478226 55.8533
22.998650119445763 57.144
23.02137076586092 57.9375
23.044269845560063 58.9436
23.06699233506288 59.0009
23.089715744034912 58.097
23.112617610931565 56.2119
23.135342869061212 54.2106
23.158069049684816 52.5011
23.1807961538087 50.9445
23.20370174880544 50.2348
23.226430710184808 49.9011
23.249160598093425 49.631
23.271891413539002 49.6323
23.294800752937697 50.0197
23.31753343374794 50.9365
23.340267045128353 51.3893
23.36300158808808 51.8444
23.38591468821339 52.1077
23.408651104658304 52.2779
23.431388455719986 52.2049
23.454126742409 52.2442
23.4770436196085 52.5446
23.499783787914662 52.8715
23.522524894889884 53.1605
23.54526694154616 53.6621
23.56818761219047 54.5074
23.59093154860734 55.2926
23.613676427751283 56.7668
23.636422250635754 57.8332
23.659346731118656 58.5405
23.68209445191868 58.5711
23.704843119509587 57.3413
23.72759273490623 55.39
23.750521041644767 53.2244
23.77327256312355 51.1207
23.796025035462787 49.321000000000005
23.818956224555475 47.9144
23.841710609113413 47.2993
23.86446594758979 46.6187
23.887222241002014 46.4556
23.910157285144578 46.049
23.932915498962537 46.1388
23.955674670778713 45.9238
23.978434801611975 45.7963
24.001373717286125 45.5241
24.024135776723917 45.4475
24.046898798245582 45.2466
24.06966278287146 45.1141
24.092605586582614 44.9474
24.115371508023642 44.7893
24.1381383956401 44.538000000000004
24.16090625045381 44.4827
24.183852958731244 44.5603
24.206622758582608 44.3225
24.229393528706886 44.1157
24.252165270127392 44.3146
24.27511589952438 44.2489
24.297889594216997 44.1672
24.32066426328598 43.79600000000001
24.34343990775613 43.9311
24.36639447485003 43.6623
24.38917208083877 43.736999999999995
24.41195066531332 43.662
24.43490819850244 43.8072
24.457688750692377 43.6214
24.48047028445616 43.5277
24.503252800821233 43.5144
24.526214300784112 43.4863
24.548998793132213 43.4799
24.57178427117417 43.2824
24.59457073593893 43.4204
24.617536219319863 43.3776
24.64032466834748 43.7209
24.663114107195035 43.5807
24.685904536893013 43.4395
24.708874020360852 43.3558
24.731666442613744 43.1633
24.754459858818787 43.2157
24.777254270007962 42.9233
24.80022777025625 42.8785
24.82302418230472 42.9038
24.845821592443674 42.9247
24.86862000170663 42.9293
24.891597535453727 42.7839
24.914397953892728 43.0728
24.93719937456671 43.066
24.96000179851076 43.107
24.98298338249997 43.2813
25.00578782394922 43.3797
25.028593271784167 43.4705
25.05157790644186 43.912
25.07438537804115 43.8754
25.097193859145293 44.14
25.120003350792075 44.3308
25.142992065061257 44.5787
25.165803588823465 44.8519
25.18861612625217 45.0686
25.211429678386736 45.1707
25.234422489079968 45.4664
25.257238081693636 45.6497
25.280054692141732 45.6658
25.3028723214652 45.3488
25.325869245420463 45.2679
25.348688923599397 45.2416
25.371509623787006 45.3089
25.394331347025812 45.3448
25.41733240110666 45.4584
25.440156181590016 45.3624
25.46298098826268 45.3369
25.48580682216873 44.8185
25.50881202326435 44.188
25.53163992281684 43.5288
25.55446885274561 42.6468
25.577298814096377 42.0139
25.600308179121807 41.7102
25.623140214533745 41.5968
25.64597328451537 41.6044
25.66898578564376 41.1616
25.691820936010206 41.1197
25.714657124097695 41.1426
25.737494350954734 41.2883
25.760511045684957 41.0493
25.783350361364224 41.3184
25.806190718969255 41.32
25.82903211955018 41.5403
25.852053024868923 41.5794
25.874896522722523 41.5024
25.897741066713106 41.3111
25.920586657892454 41.4756
25.943611790812668 41.4803
25.966459487728237 41.4057
25.989308234998564 41.2524
26.01215803367705 41.4403
26.03518741123814 41.7274
26.05803932412957 41.6806
26.080892291600094 41.6784
26.10374631470478 41.8324
26.12677995397268 42.0423
26.14963609978026 42.3741
26.172493304397875 42.4458
26.19535156888223 42.4809
26.218389486949604 42.3066
26.241249882640123 42.0844
26.26411134137826 41.7507
26.28715248187403 41.6754
26.31001607820869 41.2931
26.3328807407756 41.0104
26.35574647063438 41.2962
26.37879191991473 41.0379
26.401659795896734 41.1699
26.424528742360263 41.1842
26.447398760366614 41.2195
26.470448535598294 41.3244
26.49332070826805 41.4328
26.516193955675355 41.508
26.53906827888316 41.5974
26.562122397260108 41.4899
26.584998883685063 41.8165
26.607876449110325 42.0002
26.63075509460056 42.1267
26.65381357334404 42.4997
26.67669439061878 42.5331
26.699576291163382 42.8091
26.722459276044212 43.2286
26.745522132402975 43.2099
26.768407297649354 43.0014
26.791293550442003 42.647
26.814180891848974 42.2524
26.837248143099337 41.8366
26.860137673466657 41.6442
26.88302829566349 41.2525
26.90592001075963 41.1701
26.92899167420566 41.1562
26.951885586870763 40.8579
26.974780595655517 40.5508
26.99785558178161 40.4355
27.020752794605112 40.1307
27.043651106772522 39.8857
27.06655051935668 39.7089
27.089629948036183 39.5524
27.112531573292053 39.4549
27.135434302194138 39.4845
27.158338135817015 39.2737
27.181422024430987 39.3078
27.204328079372566 39.1438
27.22723524226965 39.2684
27.250143514198573 39.3198
27.273231880156334 39.2956
27.296142382065014 39.0872
27.319053996245536 39.1363
27.341966723775965 39.1954
27.365059584515222 39.1231
27.38797455070062 39.1295
27.410890633481237 38.9707
27.433807833936918 38.9474
27.456905206923906 39.0937
27.47982465472398 38.946
27.502745223449743 38.975
27.525666914182825 39.2285
27.548768816912457 39.2495
27.571692763693633 39.2208
27.59461783573812 39.1241
27.617723149491244 39.0108
27.640650484125285 39.1046
27.66357894728264 39.0846
27.686508540048052 39.0336
27.709618414237887 39.0926
27.732550278321757 38.8857
27.755483275279115 38.8487
27.778417406196485 38.9319
27.801531858397514 38.8725
27.824468269376716 38.6819
27.847405817586786 38.4588
27.870344504116094 38.6954
27.893463551932008 38.7302
27.916404527281053 38.8973
27.93934664422563 38.9514
27.962289903855886 38.9417
27.98541356491974 39.0616
28.00835912214229 39.0294
28.03130582533231 39.3179
28.054253675581805 39.4618
28.077381967556104 39.5522
28.100332124185126 39.5738
28.123283431160893 39.7518
28.146235889577238 39.8967
28.169368830154156 39.8651
28.192323603752033 39.6134
28.215279532083304 39.4182
28.238415973016764 39.2257
28.261374223145094 38.982
28.284333631303806 38.6263
28.307294198589954 38.7639
28.330435319167677 38.4163
28.353398217078915 38.1392
28.376362277420153 38.0259
28.39932750129032 37.7001
28.422473319286713 37.497
28.44544088262495 37.3346
28.468409612800283 37.1024
28.491379510913497 36.8381
28.51453004413313 36.6974
28.53750229057244 36.5316
28.56047570826344 36.6739
28.583450298308804 36.5529
28.606605564586562 36.2866
28.629582511831156 36.4221
28.65256063474956 36.3049
28.675539934446338 36.4193
28.698699951647605 36.2857
28.72168161743193 36.1201
28.74466446331978 36.0423
28.767648490417624 36.061
28.790813276438353 35.9124
28.813799678527303 35.9757
28.836787265157085 35.8931
28.859955641890075 35.8116
28.882945610203045 35.7511
28.905936766392035 35.7185
28.928929111566863 35.7648
28.952102288520145 35.8629
28.975097024308607 35.7889
28.998092952423807 35.7938
29.021090073977508 35.7543
29.04426806913204 35.5926
29.067267590245258 35.5457
29.090268308143695 35.4073
29.11327022394099 35.3333
29.13645305530891 35.2458
29.159457379627167 35.1044
29.18246290519685 34.9581
29.20546963313352 34.8675
29.22865731875826 34.9908
29.25166646419296 34.8421
29.27467681535305 34.7281
29.29768837335608 34.8325
29.320880931312562 34.696
29.34389491580634 34.6257
29.366910110507334 34.6235
29.38992651653503 34.6402
29.41312396492981 34.7112
29.436142806456754 34.6298
29.45916286268059 34.5807
29.48236399319994 34.6807
29.50538649169417 34.5795
29.528410208259935 34.4982
29.55143514402014 34.427
29.574641196749695 34.2643
29.597668583816574 34.1172
29.6206971934585 33.8848
29.64372702680042 33.824
29.666938019934474 33.6135
29.689970313635285 33.6075
29.713003834422636 33.5218
29.73603858342347 33.4954
29.759254535188578 33.4698
29.78229175361658 33.2995
29.80533020365064 33.4096
29.82836988641968 33.4819
29.85159081507472 33.2992
29.874632976355343 33.3175
29.89767637376955 33.2019
29.920721008448314 33.0202
29.9439469322847 33.0752
29.96699405457564 33.0072
29.9900424175358 33.1051
30.013092022298157 33.031
30.03632295963995 32.9587
30.059375061131373 33.013000000000005
30.08242840783577 32.9822
30.105483000888153 32.9254
30.128718970092244 32.8247
30.151776069006917 32.8354
30.17483441768648 32.8214
30.198074175317235 32.8059
30.221135036724256 32.9231
30.24419715131772 32.7899
30.267260520236203 32.7882
30.290505341942243 32.8867
30.313571232750228 32.9631
30.336638381310948 32.9592
30.35970678876503 33.0185
30.38295669299435 32.8522
30.40602763151657 32.8658
30.429099832366074 32.8095
30.452173296685572 32.8024
30.47542830191959 32.8018
30.498504306502497 32.544000000000004
30.521581577995562 32.6903
30.544660117543582 32.7433
30.56792024229725 32.6393
30.59100133132069 32.5378
30.614083691845494 32.5886
30.637167325018545 32.6801
30.660432587840603 32.6959
30.683518779717886 32.5756
30.70660624769615 32.6606
30.729694992924372 32.721
30.75296541239743 32.777
30.77605672557558 32.9032
30.799149319462742 32.8255
30.8224236211637 32.6823
30.845518789950724 32.661
30.868615242910597 32.6179
30.891712981195973 32.4411
30.91499247215866 32.4162
30.938092794619365 32.3668
30.96119440587579 32.2564
30.984297307082752 32.1465
31.00758200598383 32.0002
31.030687500658694 31.8121
31.053794288760695 31.8013
31.076902371446767 31.7042
31.100192296997445 31.8166
31.12330298246119 31.6637
31.14641496599209 31.6159
31.169528248749216 31.6236
31.19282341969534 31.6439
31.215939314557186 31.5677
31.239056512134788 31.5715
31.262175013589378 31.5254
31.28547544871168 31.4572
31.30859657161541 31.3413
31.331719001892175 31.4432
31.35484274070538 31.4506
31.378148458819545 31.4482
31.401274828443725 31.3976
31.424402510106933 31.4996
31.447712205419993 31.5586
31.470842524931633 31.3442
31.493974159989783 31.3052
31.51710711176168 31.3899
31.54042212308802 31.346999999999998
31.563557722100917 31.3343
31.586694641341655 31.3672
31.609832881979628 31.2802
31.63315322823208 31.2964
31.656294125521327 31.1487
31.679436347728515 31.0492
31.70257989602529 30.9515
31.725905596152327 30.8302
31.74905181052835 30.8153
31.772199354521323 30.8673
31.79534822930507 30.7464
31.818679302290967 30.7324
31.84183085259981 30.6778
31.864983737233473 30.6764
31.88813795736804 30.7233
31.911474422233013 30.5267
31.934631327356435 30.5227
31.9577895715215 30.5159
31.980949155906522 30.5294
32.004291031706956 30.5668
32.027453310562606 30.4824
32.05061693318573 30.3899
32.07396288236386 30.4478
32.09712920658542 30.3092
32.12029687812702 30.2965
32.14346589817093 30.2681
32.166817291729984 30.1415
32.18998902288583 30.0643
32.21316210610336 30.0781
32.23633654256711 29.9473
32.259693399663725 29.8809
32.282870556771144 29.7453
32.30604907069099 29.8729
32.329228942610065 29.703000000000003
32.35259128243769 29.5703
32.375773884550505 29.4815
32.398957848235646 29.419
32.422143174682176 29.4533
32.445511016471215 29.3628
32.468699082679954 29.26
32.49188851523011 29.2118
32.51507931531304 29.1269
32.538452678331 29.2061
32.56164622776311 29.1022
32.58484114831493 28.8454
32.60803744118015 28.9384
32.631416344731896 29.0366
32.654615396551876 29.0506
32.67781582427913 28.9306
32.701198898634416 28.7858
32.72440209253756 28.8127
32.747606665947124 28.7841
32.77081262006088 28.6727
32.79420126883317 28.6155
32.81740999876112 28.7044
32.840620112999424 28.6067
32.86383161274818 28.5195
32.88722585534586 28.539
32.91044014056596 28.6033
32.933655814909734 28.4743
32.95687287957963 28.5536
32.98027273544904 28.5083
33.00349259526636 28.4197
33.026713849030116 28.3552
33.04993649794511 28.353
33.073341986570746 28.2561
33.09656744032826 28.2168
33.11979429286444 28.2804
33.14302254538647 28.2089
33.166433686291185 28.2402
33.18966475336992 28.1281
33.212897224069096 28.12
33.23613109959831 28.0939
33.259547912343415 28.0831
33.2827846121627 28.09
33.306022720453775 28.0847
33.32926223842861 27.9432
33.352684742614166 27.9364
33.37592709463173 27.9676
33.399170859982064 27.9276
33.422597648419426 27.7982
33.44584425514446 27.8068
33.46909227885668 27.7699
33.4923417207723 27.5436
33.51577423505344 27.6498
33.539026528130385 27.5016
33.56228024307245 27.3137
33.585535381098246 27.3044
33.60897364093058 27.3168
33.63223163992385 27.3002
33.6554910656699 27.18
33.678751919389796 27.2254
33.702195944520106 27.0863
33.72545966903325 27.1044
33.74872482519663 27.0618
33.771991414233746 26.9458
33.79544122444841 26.9583
33.81871069412428 26.8822
33.84198160035767 26.889
33.86525394437455 26.8977
33.88870955949969 26.7198
33.911984794020626 26.7765
33.93526147001624 26.7071
33.958539588715006 26.6508
33.98200102861669 26.6067
34.0052820477047 26.4946
34.02856451319451 26.5435
34.05203033759056 26.4632
34.07531571090147 26.455
34.09860253431845 26.4628
34.121890809074316 26.3394
34.145362493118924 26.3023
34.16865368561615 26.2624
34.191946333164054 26.2627
34.21524043699793 26.2247
34.23871800066799 26.2921
34.26201503218366 26.0582
34.28531352370466 26.1026
34.30861347646881 26.0312
34.33209693978188 26.0134
34.3553998301885 26.0349
34.378704185565205 25.8953
34.402010007152356 25.8435
34.42549939016683 25.8649
34.44880815937748 25.6886
34.472118398533134 25.6778
34.49543010887669 25.7155
34.51892543169198 25.5497
34.54224009966052 25.6646
34.56555624255917 25.6078
34.58887386163339 25.5526
34.61237514439016 25.4974
34.6356957311114 25.4482
34.65901779775809 25.4154
34.68252356662995 25.3763
34.705848608458616 25.2339
34.72917513396849 25.1786
34.75250314440949 25.135
34.77601490857862 25.2106
34.799345904259795 25.0648
34.82267838863559 25.1018
34.846012362958525 25.0949
34.869530142679984 25.0183
34.89286711232212 24.9661
34.91620557568269 25.0139
34.93954553401677 24.9885
34.9630693495876 24.8848
34.986412313340814 24.8461
35.00975677584668 24.8274
35.033102738362956 24.7998
35.05663261012228 24.788
35.0799815881786 24.7905
35.10333207003229 24.7929
35.12668405694369 24.7389
35.150220005273056 24.734
35.17357501786656 24.7677
35.19693153931268 24.646
35.220289570874385 24.533
35.24383161619786 24.6107
35.267192683604904 24.5932
35.290555264930376 24.4942
35.314101899412165 24.5074
35.33746752422433 24.4069
35.36083466676374 24.4573
35.38420332829803 24.3474
35.407756095629054 24.4251
35.43112781085063 24.3834
35.45450104888391 24.3034
35.477875810999194 24.3387
35.50143473172161 24.3068
35.52481255774625 24.2763
35.54819191167777 24.2644
35.57157279478914 24.2275
35.595137889488406 24.168000000000003
35.61852184675279 24.0945
35.641907337029984 24.1289
35.665294361595684 24.1091
35.68886565090076 23.9918
35.7122557598848 23.9312
35.73564740699838 23.9216
35.759040593519934 23.9594
35.78261809810353 23.8585
35.80601437933051 23.756999999999998
35.829412203814705 23.7167
35.85281157283719 23.6879
35.876395313415884 23.7076
35.8997977874528 23.6444
35.92320180988546 23.6467
35.946790244133936 23.5326
35.97019737933222 23.5524
35.993606066789866 23.5178
36.01701630779276 23.4541
36.04061101440684 23.3959
36.06402437852291 23.4138
36.08743930005611 23.4483
36.1108557802951 23.3023
36.13445678011326 23.2393
36.15787639383515 23.2546
36.18129757014299 23.2151
36.20472031032821 23.1534
36.22832762423364 23.1942
36.25175350829375 23.1555
36.275180960119776 23.048000000000002
36.298609981005924 23.1366
36.32222362992669 23.0832
36.34565580510207 22.9997
36.36908955323448 23.0013
36.39252487562093 22.909000000000002
36.416144880530226 22.840999999999998
36.43958336764275 22.8341
36.463023432914625 22.8596
36.486465077645676 22.7879
36.51009145956204 22.8402
36.53353627947859 22.8297
36.55698268276811 22.7099
36.58043067073321 22.6915
36.60406345072071 22.6433
36.62751462435344 22.608
36.65096738658405 22.5968
36.67460498210655 22.5795
36.69806093788647 22.5624
36.72151848619297 22.4548
36.744977628333636 22.4545
36.76862165890998 22.3434
36.79208400512205 22.4085
36.81554794910557 22.3377
36.83901349217101 22.2436
36.862663978991606 22.2347
36.88613273667352 22.1676
36.90960309738324 22.2206
36.933075062434064 22.1407
36.95673202673572 22.0929
36.98020721697122 22.1241
37.003684015502365 22.0435
37.027162423645365 21.9291
37.050825886711465 21.9852
37.07430753063053 21.8985
37.09779078812467 21.881
37.121275660513014 21.8402
37.144945643673694 21.8848
37.16843376245278 21.7667
37.19192350009803 21.724
37.215414857931435 21.6748
37.239091382563885 21.6388
37.262585997426164 21.5288
37.28608223645736 21.6277
37.309763684451696 21.5889
37.33326318851098 21.5683
37.356764320726555 21.5206
37.380267082425526 21.5468
37.40395510942588 21.5006
37.42746114683234 21.4198
37.45096881771841 21.3209
37.474478123414166 21.3508
37.49817275092816 21.3509
37.52168534303452 21.3089
37.54519957395567 21.2168
37.568715445024665 21.2016
37.592416694607714 21.1062
37.61593586281424 21.1468
37.63945667518264 21.2657
37.66297913304891 21.1207
37.68668702630454 21.1311
37.710212792059274 20.9549
37.733740207334854 20.9659
37.757269273470364 20.8445
37.780983832050374 20.8522
37.80451621684926 20.881999999999998
37.82805025654007 20.7984
37.851585952464795 20.8455
37.8753071980695 20.7635
37.89884622345676 20.7469
37.92238690911902 20.6782
37.94611318753442 20.6355
37.969657210779765 20.6186
37.99320289834801 20.6739
38.016750251586465 20.5457
38.04048325513017 20.5271
38.06403395679343 20.5215
38.087586328183946 20.424
38.11114037065203 20.4099
38.13488012115898 20.4513
38.1584375229181 20.3222
38.181996599821 20.3269
38.205557353221124 20.3408
38.229303872575656 20.2377
38.2528679961576 20.2531
38.27643380031219 20.1519
38.30000128639589 20.164
38.32375459653193 20.1665
38.34732546371299 20.1802
38.37089801690786 20.0604
38.39447225747609 19.9506
38.418232380377425 19.9487
38.441810012983396 19.9954
38.46538933705673 19.9432
38.488970353960084 19.9186
38.51273731166058 19.8424
38.536321731567014 19.8299
38.55990784840681 19.746
38.58367995004091 19.7529
38.60726947812959 19.6845
38.63086070726198 19.7202
38.654453638806274 19.7251
38.678232613930824 19.6884
38.70182896773327 19.5507
38.72542702806741 19.528
38.7490267963045 19.5482
38.77281266709232 19.5009
38.79641586862214 19.4973
38.8200207821842 19.4369
38.843627409152944 19.5144
38.86742019782782 19.416
38.891030269149255 19.3958
38.914642058016156 19.3633
38.938255565806124 19.3508
38.96205529464307 19.2653
38.98567225787121 19.3158
39.00929094417078 19.2859
39.03291135492255 19.2472
39.05671804624804 19.1674
39.080341923549106 19.1726
39.103967529460334 19.1346
39.127594865365744 19.0969
39.15140854155791 19.0227
39.17503935514948 19.0072
39.19867190290282 19.019000000000002
39.22249083587951 18.9313
39.24612686969409 18.8487
39.269764641845306 18.8935
39.293404153722804 18.8837
39.317230110864074 18.8013
39.34087311998506 18.7829
39.36451787301696 18.788
39.388164371352595 18.6574
39.41199737518003 18.7254
39.43564738196752 18.6917
39.45929913825317 18.6625
39.48295264543308 18.5651
39.506792718520884 18.5135
39.530449745387216 18.6181
39.55410852735203 18.6194
39.57776906581474 18.5323
39.60161623079 18.4506
39.625280300200025 18.4606
39.64894613032202 18.3904
39.67261372255866 18.4132
39.6964680021016 18.3746
39.72013913657293 18.3054
39.74381203738292 18.2871
39.76748670593756 18.2202
39.79134812278169 18.2499
39.81502634488497 18.3015
39.83870633896685 18.2217
39.862388106436654 18.1739
39.88625668336918 18.1728
39.90994201572829 18.1725
39.933629125719285 18.1205
39.957503091207826 18.1104
39.9811937746168 18.1229
40.00488623990914 18.0724
40.02858048850006 17.9926
40.05246165409549 17.9122
40.076159487492085 17.8523
40.099859108448875 17.9213
40.123560518384345 17.8126
40.1474489070226 17.7755
40.171153913178564 17.7708
40.194860712584955 17.7702
40.2185693066637 17.7529
40.242464941335314 17.7108
40.26617714307655 17.6419
40.289891143772046 17.6332
40.3136069448471 17.6352
40.33750984859743 17.6243
40.3612292688043 17.542
40.3849504936829 17.4603
40.40867352466194 17.5095
40.43258372059144 17.5313
40.45631038219906 17.5538
40.48003885420956 17.4156
40.503769138055105 17.4323
40.52768664931955 17.3782
40.55142057531802 17.3918
40.57515631746428 17.2944
40.599079334038514 17.3396
40.62281872700477 17.3012
40.64655994043941 17.244
40.67030297578061 17.2474
40.69423334835778 17.2317
40.71798004609188 17.1384
40.74172857006355 17.1457
40.76547892171441 17.1412
40.7894166736039 17.083
40.813170699248566 17.0671
40.83692655691388 17.0061
40.86068424804498 17.0414
40.884629402612525 16.9913
40.908390779366385 16.9663
40.932153993938 16.9075
40.95591904777605 16.8922
40.979871628443995 16.9702
41.003640379561936 16.8932
41.02741097430883 16.8069
41.05118341413683 16.7574
41.075143444384416 16.7349
41.098919593177826 16.81
41.1226975914255 16.7686
41.14647744058318 16.6861
41.170444943946755 16.5936
41.19422851378379 16.6177
41.218013938914645 16.5837
41.24198706625173 16.5267
41.26577622087193 16.5301
41.289567235177785 16.5195
41.31336011063129 16.4692
41.337340752422875 16.4551
41.361137369129835 16.4583
41.38493585138705 16.3963
41.40873620066004 16.3413
41.43272438060107 16.3087
41.45652848292052 16.2415
41.48033445666918 16.239
41.50414230331616 16.3022
41.528138045159764 16.2275
41.551949656675205 16.1687
41.575763145513235 16.1687
41.59957851314666 16.165
41.62358184070442 16.0907
41.64740098505737 16.0414
41.6712220126409 16.0741
41.69504492493139 15.9927
41.71905586207357 15.9697
41.74288256296395 15.9566
41.766711153007456 15.9508
41.79054163368412 15.9139
41.814560204340054 15.9131
41.838394485526365 15.88
41.86223066180303 15.8278
41.88625497706819 15.8279
41.910094962812 15.8485
41.93393684811168 15.7929
41.95778063445365 15.7266
41.981812625263366 15.7309
42.00566023303407 15.6823
42.029509746323676 15.6969
42.05336116662236 15.6511
42.077400857069705 15.6484
42.10125611078846 15.603
42.12511327600405 15.5705
42.14897235421036 15.4859
42.173019768448455 15.4896
42.19688269209613 15.5141
42.22074753323349 15.4674
42.24461429335818 15.4474
42.268669455600495 15.3931
42.292540073217886 15.3546
42.31641261433284 15.3702
42.34028708044675 15.3006
42.36435001496739 15.2674
42.38822835065557 15.2832
42.41210861586426 15.2172
42.4359908120986 15.1915
42.46006154323262 15.2027
42.48394762115317 15.1555
42.507835634632315 15.1676
42.531912233047436 15.1451
42.55580413732265 15.0982
42.579697981698 15.0815
42.60359376768525 15.0399
42.62767820545945 15.0188
42.65157789440821 15.0375
42.67547952952185 15.0225
42.699383112316 14.9617
42.72347541395347 14.9071
42.74738291190531 14.859000000000002
42.771292362102166 14.8235
42.795203766063516 14.7793
42.819303956130405 14.8375
42.843219287476536 14.8112
42.86713657716324 14.7303
42.89105582671383 14.7531
42.91516392983864 14.7165
42.939087119032166 14.6792
42.963012272677304 14.6569
42.98693939230129 14.5881
43.01105543317513 14.6339
43.034986504731386 14.6102
43.05891954686589 14.6112
43.08285456110972 14.5116
43.10697856448665 14.5013
43.130917542983475 14.4251
43.15485849820081 14.5052
43.17880143167367 14.4438
43.20293342237094 14.4424
43.226880332449 14.3651
43.25082922540554 14.349
43.27496722682525 14.3204
43.29892010567796 14.2991
43.32287497204102 14.2623
43.34683182745632 14.21
43.370977859791836 14.206
43.39493871351105 14.2486
43.41890156092628 14.2174
43.44286640358341 14.1737
43.46702049182749 14.1683
43.49098934522816 14.0579
43.51496019852649 14.0523
43.5389330532723 14.0396
43.56309522248204 14.0491
43.58707210044314 13.9682
43.61105098451946 13.9893
43.63503187626491 13.9882
43.659202151562134 13.9219
43.68318707902681 13.919
43.70717401884041 13.9334
43.731162972560874 13.8501
43.75534137913236 13.8662
43.779334381108384 13.8378
43.803329401683186 13.8033
43.82732644241872 13.7903
43.8515130055166 13.7927
43.87551410707659 13.6912
43.89951723350145 13.7108
43.923709934595614 13.6921
43.94771713129917 13.664000000000001
43.97172635758096 13.6715
43.99573761501002 13.6518
44.0199385169922 13.600999999999999
44.04395385732619 13.5882
44.067971233533086 13.5523
44.09199064718605 13.517999999999999
44.11619977548961 13.5597
44.14022328470671 13.429
44.16424883610785 13.4738
44.18827643127035 13.427
44.21249381139513 13.3448
44.236525514814076 13.3279
44.26055926674478 13.3871
44.28459506876863 13.360999999999999
44.3088207262813 13.3049
44.33286064928722 13.2672
44.35690262714919 13.2768
44.38094666145278 13.2774
44.4051806219871 13.2233
44.42922879003185 13.172
44.45327901929361 13.1551
44.477331311362136 13.1423
44.501573600619416 13.1041
44.525630039221795 13.094000000000001
44.54968854541895 13.0481
44.573937102200176 13.0168
44.5979997645541 13.052999999999999
44.622064499300315 13.0229
44.64613130803592 13.0684
44.67038823869318 13.023
44.69445921643748 12.9836
44.718532272981385 12.9138
44.742607409926194 12.8988
44.76687274034801 12.8955
44.79095205918753 12.8418
44.81503346325094 12.8267
44.839116954143876 12.7678
44.86339071028742 12.7716
44.88747839599524 12.8126
44.91156817336837 12.722999999999999
44.93566004401666 12.686
44.959942251908146 12.6907
44.984038330325966 12.6713
45.00813650686762 12.6489
45.03223678314731 12.6107
45.05652746888232 12.5874
45.08063196592069 12.5474
45.104738567558705 12.5416
45.128847275414856 12.5013
45.15314646515866 12.4917
45.17725940679741 12.4932
45.20137445952892 12.4487
45.22568004865265 12.4519
45.24979934496396 12.3954
45.27392075725247 12.3913
45.29804428714431 12.3418
45.322358426247604 12.3167
45.346486212804315 12.382
45.370616121861914 12.3407
45.39474815505086 12.324000000000002
45.41907087049246 12.2486
45.4432071734666 12.2387
45.46734560548283 12.2621
45.49148616817604 12.2463
45.51581748638564 12.1717
45.5399623320197 12.2056
45.56410931325473 12.138
45.58825843173002 12.1581
45.61259837920865 12.1184
45.636751793816 12.099
45.66090735060093 12.0559
45.68506505120716 12.0236
45.7094136545275 11.9847
45.73357566449271 11.9778
45.75773982322992 11.9458
45.78190613238733 11.966
45.806263418194064 11.9018
45.83043404997326 11.9232
45.85460683713677 11.8889
45.87897065658495 11.8639
45.90314777634752 11.802999999999999
45.92732705646868 11.8381
45.9515084986045 11.7968
45.97588104735473 11.7954
46.00006683541565 11.7371
46.02425479047904 11.7618
46.04844491420549 11.7079
46.0728262191024 11.7393
46.09702070211635 11.6982
46.12121735879483 11.6536
46.14541619080294 11.6668
46.169806278764455 11.599
46.194009483459034 11.6211
46.21821486849841 11.5893
46.24242243555223 11.5295
46.266821333570014 11.4961
46.29103328674601 11.4868
46.31524742696538 11.4908
46.33946375590237 11.4231
46.36387149104216 11.4797
46.38809221957392 11.4297
46.41231514186606 11.39
46.436540259597464 11.384
46.460956858999374 11.3379
46.48518638983522 11.3179
46.509418121166966 11.2896
46.533652054678114 11.2617
46.55807754555709 11.2527
46.58231590571962 11.2319
46.60655647313217 11.2209
46.630988654873654 11.177999999999999
46.655233659129024 11.1776
46.67948087571551 11.1564
46.70373030632484 11.1473
46.72817142736393 11.115
46.752425308428684 11.0454
46.77668140861147 11.0876
46.80093972960865 11.0518
46.82538981736788 11.0425
46.849652602470904 11.0122
46.87391761349769 11.0009
46.8981848521493 10.9784
46.9226439341274 10.9636
46.946915650573224 10.902999999999999
46.97118959976749 10.9297
46.99546578341598 10.8901
47.019933887188216 10.8651
47.04421456235744 10.8537
47.06849747711879 10.8508
47.09278263318286 10.8306
47.11725978640143 10.7686
47.14154944775105 10.7624
47.165841355555656 10.7462
47.1901355115306 10.745999999999999
47.214621741924994 10.7507
47.23892041698887 10.7039
47.26322134538975 10.6878
47.28771440635075 10.6244
47.31201986422527 10.6386
47.33632758061436 10.616
47.360637557241866 10.5733
47.38513974410611 10.6124
47.40945426407847 10.5855
47.43377104948137 10.5689
47.45809010204344 10.5514
47.48260144275502 10.5289
47.506925052572285 10.4668
47.53125093475548 10.4043
47.55557909103813 10.4311
47.58009961361992 10.4278
47.60443234110732 10.3734
47.62876734791564 10.417
47.65310463578333 10.3574
47.6776343683373 10.3549
47.7019762413987 10.3049
47.72632040075572 10.2869
47.75066684815169 10.2786
47.77520581885936 10.2971
47.799556865477655 10.2323
47.823910205386 10.2262
47.84826584033272 10.2258
47.87281407745551 10.1987
47.89717432569297 10.212
47.92153687423484 10.1758
47.94609208429692 10.1426
47.97045925671401 10.1339
47.99482873471275 10.0855
48.01920052005013 10.0925
48.04376504619224 10.0804
48.068141469543484 10.1113
48.09252020552573 10.0264
48.11690125590099 10.0243
48.1414751266064 9.96405
48.16586082917454 9.96837
48.19024885144316 9.96645
48.2146391951793 9.939160000000001
48.239222439012764 9.98573
48.26361744916137 9.9041
48.28801478610016 9.9266
48.31241445160131 9.90421
48.337007097209366 9.866430000000001
48.36141144338331 9.86903
48.38581812345755 9.822989999999999
48.41022713920929 9.832460000000001
48.434829215320704 9.779689999999999
48.45924292604658 9.81653
48.48365897780325 9.75371
48.50807737237308 9.75097
48.532688907799276 9.73606
48.55711201168574 9.6966
48.581537463754074 9.72761
48.60615611725119 9.704460000000001
48.63058628942721 9.65785
48.65501881516546 9.61397
48.6794536962573 9.6243
48.70408185970339 9.610430000000001
48.72852147531801 9.54825
48.75296345168211 9.55
48.77740779059232 9.518410000000001
48.80204549302823 9.51863
48.82649458091802 9.51662
48.85094603676547 9.48495
48.87539986237231 9.471630000000001
48.90004713292306 9.45223
48.92450572200832 9.48444
48.94896668628025 9.44702
48.97343002754588 9.40311
48.99808689542115 9.390889999999999
49.02255501470614 9.3882
49.04702551642794 9.35793
49.0714984023988 9.328289999999999
49.096164896893235 9.3278
49.120642575466796 9.30128
49.145122643748394 9.301689999999999
49.16960510355558 9.26495
49.19428125404938 9.24187
49.2187685210852 9.21964
49.243258185121555 9.22063
49.26794160167084 9.18618
49.2924360839405 9.159180000000001
49.31693296869764 9.16358
49.34143225776915 9.12929
49.36612538195438 9.139289999999999
49.39062950396021 9.10196
49.41513603578346 9.08425
49.4396449792564 9.05062
49.46434784069503 9.07771
49.488861631846454 9.05438
49.513377840166804 9.03209
49.537896467493745 8.96712
49.56260909589029 8.96452
49.587132585683285 8.973469999999999
49.611658500018365 8.94773
49.636186840738596 8.88685
49.66090926588511 8.87631
49.685442483902584 8.91333
49.70997813385706 8.84992
49.734516217597076 8.8302
49.75924846937352 8.86707
49.7837914452858 8.83644
49.80833686055187 8.79152
49.83288471702571 8.81348
49.85762682540054 8.81666
49.882179588965734 8.77248
49.9067347993235 8.72832
49.93129245833333 8.70722
49.95604445336378 8.70983
49.98060703442832 8.69963
50.005172069746266 8.69421
50.02993150438364 8.67173
50.05450147301533 8.64437
50.07907390151433 8.62745
50.10364879174981 8.59747
50.12841816587289 8.60237
50.1529980044635 8.58279
50.17758031042124 8.54905
50.20216508562089 8.5522
50.22694442953363 8.53003
50.25153416817468 8.48733
50.27612638170508 8.495389999999999
50.300721072005196 8.504439999999999
50.325510416102105 8.47203
50.350110084975064 8.44145
50.37471223628208 8.460189999999999
50.39931687190919 8.43379
50.424116246675766 8.4387
50.44872587605249 8.383610000000001
50.47333799543065 8.36266
50.49795260670191 8.35265
50.52276204271512 8.33169
50.54738166295838 8.31351
50.57200378079314 8.29753
50.596628398116835 8.26018
50.62144792604559 8.25142
50.646077567609396 8.24108
50.670709714377715 8.24023
50.69553683636198 8.2406
50.72017401885922 8.19062
50.7448137122895 8.175930000000001
50.76945591856022 8.20336
50.79429318636823 8.17883
50.818940443716784 8.158380000000001
50.84359021965163 8.13595
50.868242516085964 8.12988
50.893089960641895 8.11547
50.917747323549435 8.097389999999999
50.94240721271973 8.07006
50.96706963007175 8.00583
50.99192728239342 8.04016
51.01659478166073 8.07113
51.04126481489051 8.0345
51.06593738400761 7.996060000000001
51.090805275207074 7.963310000000001
51.11548294172845 7.940980000000001
51.14016314993547 7.95705
51.164845901758845 7.90995
51.18972406304274 7.91183
51.21441192780656 7.8744
51.23910234200271 7.85155
51.2637953075678 7.83857
51.288683770237945 7.81177
51.31338186432707 7.838710000000001
51.33808251561888 7.80437
51.362978729967345 7.8094399999999995
51.387684521509755 7.83242
51.41239287610203 7.75095
51.437103795691165 7.751810000000001
51.46201036644977 7.714289999999999
51.486726441956634 7.69791
51.51144508832545 7.70558
51.536166307509156 7.68089
51.56108326624387 7.66547
51.58580965706056 7.654730000000001
51.61053862657523 7.64003
51.635270176746864 7.5856699999999995
51.66019755512065 7.6229
51.68493429268881 7.5759
51.70967361681515 7.580210000000001
51.73441552946465 7.547219999999999
51.759353359237934 7.6007
51.7841004750961 7.5606100000000005
51.80885018539685 7.5392600000000005
51.833602492111254 7.50885
51.8585508051424 7.5091
51.883308330926425 7.46825
51.90806845906181 7.413010000000001
51.932831191525715 7.40384
51.95779001977161 7.3812
51.98255798721516 7.36067
52.00732856494335 7.3606300000000005
52.03229530577543 7.40061
52.057071130455945 7.35906
52.081849571391054 7.32755
52.106630630568695 7.316669999999999
52.13160794279417 7.255489999999999
52.15639426492067 7.28428
52.18118321127822 7.29493
52.205974783860896 7.26717
52.23096269971011 7.2645
52.255759551287994 7.2679100000000005
52.280559035098186 7.22717
52.30536115314103 7.173260000000001
52.33035970494467 7.186839999999999
52.35516711807904 7.17335
52.37997717147198 7.18078
52.40478986713005 7.1611199999999995
52.42979908731974 7.13979
52.454617094216 7.13497
52.47943774942214 7.1099
52.50426105495102 7.09938
52.529280976059844 7.05888
52.554109609024096 7.0579
52.57894089837482 7.05842
52.60377484613117 7.03832
52.62880550079408 7.0152399999999995
52.65364479223379 6.96817
52.67848674816189 6.9917300000000004
52.70352547971946 6.963939999999999
52.72837279155837 6.92785
52.753222773982785 6.90733
52.778075429022984 6.93566
52.80312495150885 6.91482
52.827982978797436 6.912939999999999
52.85284368481815 6.8586100000000005
52.87770707160767 6.871060000000001
52.90276741793998 6.8331100000000005
52.92763619336701 6.8451
52.952507655698504 6.82455
52.977381806977576 6.78147
53.00245301017842 6.83241
53.02733256653592 6.827489999999999
53.052214817996074 6.781960000000001
53.077099766608484 6.77315
53.102181859804446 6.714169999999999
53.127072229988265 6.752910000000001
53.15196530349892 6.684639999999999
53.17686108239249 6.707730000000001
53.20195409881522 6.71932
53.22685531582556 6.7163
53.25175924441303 6.637810000000001
53.27666588664027 6.6269800000000005
53.30176985962693 6.6433800000000005
53.3266819565689 6.59892
53.35159677336455 6.615239999999999
53.376514312083096 6.627510000000001
53.40162927507703 6.59512
53.42655228516116 6.57415
53.45147802340193 6.53052
53.47660125628886 6.521730000000001
53.50153247842639 6.50209
53.52646643496923 6.47314
53.55140312799818 6.48473
53.576537409691696 6.48209
53.60147960336152 6.47175
53.626424539786164 6.4717199999999995
53.65137222105307 6.43574
53.67651758529126 6.3947
53.70147078399681 6.39406
53.72642673383343 6.39456
53.75138543689533 6.36859
53.776541917524526 6.387919999999999
53.801506154876755 6.35873
53.826473151763246 6.28369
53.851442910284916 6.27245
53.87661054126026 6.2924
53.9015858509782 6.24708
53.92656392866066 6.25724
53.95154477641532 6.22852
53.976723591801296 6.2590900000000005
54.00171000771266 6.20606
54.02669920004598 6.230569999999999
54.051691170915745 6.22525
54.076881204886796 6.18821
54.101878760928514 6.15476
54.12687910187696 6.1192400000000005
54.152077577768296 6.1109800000000005
54.1770835166946 6.11966
54.20209224691339 6.14814
54.22710377055121 6.10493
54.25231352511594 6.0742
54.27733066384342 6.02005
54.30235060239643 6.00609
54.32737334290836 5.99296
54.35259441062629 5.95363
54.377622783395324 5.999219999999999
54.40265396455061 5.97344
54.42768795623251 5.9333800000000005
54.45292037169559 5.89323
54.477960012857906 5.88855
54.50300247099511 5.85519
54.52804774825457 5.877680000000001
54.55329154616743 5.80075
54.57834249018678 5.77654
54.6033962597977 5.79601
54.6284528571545 5.75591
54.653708072335164 5.70274
54.67877035378786 5.73543
54.70383546947698 5.6870400000000005
54.72890342156389 5.68663
54.7541700889442 5.6727300000000005
54.77924374251975 5.64335
54.8043202390049 5.5945
54.82959552413022 5.60339
54.8546777351945 5.56795
54.87976279569621 5.5146
54.90485070780914 5.57253
54.930137506558005 5.50592
54.95523115074295 5.52444
54.98032765308844 5.5018
55.005427015775496 5.45518
55.03072536339621 5.43865
55.05583047570572 5.39201
55.080938454927676 5.41289
55.10604930325027 5.35955
55.131359235107396 5.363090000000001
55.15647585066083 5.3463
55.181595341907496 5.301080000000001
55.20671771104285 5.26396
55.232039262617704 5.222180000000001
55.25716741665048 5.18808
55.28229845518636 5.20442
55.30743238042802 5.1848
55.33276558731939 5.122240000000001
55.357905315183636 5.16003
55.383047936390035 5.07712
55.40819345314859 5.0406
55.433538351073295 5.03304
55.458689688238415 5.0126
55.483843927614096 4.99418
55.509197623043605 4.97405
55.53435769621134 4.93389
55.55952067826466 4.93611
55.5846865714265 4.93899
55.61005202069737 4.902480000000001
55.63522376553902 4.931369999999999
55.66039842818645 4.8894
55.68557601087004 4.869669999999999
55.7109532500271 4.78005
55.73613670233794 4.86014
