TT I
1.2716486653135266 32.6872
1.2939594142134223 32.6195
1.3162702121660406 31.0226
1.3385810600174564 30.4148
1.3608919586137629 29.5898
1.383202908801069 28.8113
1.405513911425503 27.184
1.4278249673332093 27.0541
1.4501343378461518 26.7468
1.4724455028545926 25.6123
1.4947567236847858 25.4209
1.517068001182951 25.9956
1.5393793361953272 25.2836
1.5616907295681737 23.7917
1.5840021821477681 23.3214
1.60631369478041 23.1183
1.6286252683124185 22.7161
1.6509369035901333 21.5181
1.6732468618895553 22.0502
1.695558623192809 21.4365
1.7178704487808514 21.767
1.7401823395001077 21.1606
1.7625012545597203 21.1668
1.7848028405262486 21.4756
1.8071218901122095 20.7762
1.8294236121921872 20.1286
1.8517427996910911 21.0409
1.8740620574440425 20.8963
1.8963639900671978 21.2558
1.9186833908139995 20.3809
1.9409854680117449 20.9669
1.9633050151394713 20.5027
1.9856246367570705 20.4691
2.0079269371922672 20.5959
2.03024671027244 20.3716
2.0525491637446027 19.5471
2.074869091674931 20.0816
2.097171701569106 19.9495
2.1194917877373847 20.7197
2.141811954326636 20.7404
2.164114805233074 20.8379
2.186435135143035 20.1853
2.208738150935709 19.8358
2.231058647554722 20.2433
2.2533792288321184 20.717
2.275682498336085 21.037
2.298003251406138 21.0409
2.3203066942619714 20.6312
2.3426276225136022 20.555
2.3649486396617507 21.1593
2.387252348930071 21.4527
2.4095735463442893 21.5862
2.4318774374315884 21.9795
2.4541988185014043 21.103
2.476502894794693 21.8173
2.498824462909887 20.7788
2.521146125856138 21.3796
2.5434504863470337 22.1602
2.5657723414244717 22.8398
2.588076895590662 22.7923
2.610398946189713 23.4729
2.6327210958598384 23.7043
2.6550259469304716 24.1687
2.6773482972090137 24.9582
2.6996533504259 25.4958
2.7219759047039602 26.7542
2.744298562293959 27.2615
2.7666039251246595 28.4977
2.7889267918020164 29.459
2.8112323652516555 30.3801
2.833555444408179 32.6311
2.8558786311183852 34.0486
2.8781845268938557 36.1963
2.9005079311721484 38.3436
2.9228140460410397 41.0292
2.9451376712799635 44.2659
2.967444008632326 47.0903
2.9897678582247247 50.846000000000004
3.0120918213106695 55.3379
3.0343984987899373 59.6174
3.0567226913198637 64.0292
3.079029599759726 68.9124
3.101354025127254 73.5632
3.123678568232338 75.1081
3.145985829517914 76.4316
3.16831061055229 75.6239
3.1906181112775593 74.2622
3.212943133635653 70.4076
3.2352682779763207 65.5851
3.2575761442691227 60.5474
3.2799015350264273 55.0905
3.302209649240067 50.1221
3.3245352898092655 45.7432
3.3468436553365257 42.2907
3.369169549113219 39.2279
3.3914955708171384 36.5673
3.413804319727358 34.4448
3.4361305997334863 32.3328
3.4584396084414553 31.4477
3.4807661501462652 30.1787
3.503092824025881 28.9542
3.5254022288463154 27.8192
3.5477291695206588 27.3319
3.5700388426251948 26.9858
3.5923660534916446 27.2672
3.6146934007816114 26.6303
3.637003482731501 25.9887
3.6593311053109985 25.421999999999997
3.681641464033634 25.6944
3.7039693653009733 25.5226
3.726297407241705 26.377
3.7486081875460804 25.6017
3.7709365132734978 25.6587
3.793247578841633 26.079
3.8155761917550093 26.232
3.8378875459837216 26.5242
3.8602164494827234 25.9745
3.882545499606844 26.1084
3.9048572932539183 26.8024
3.9271866390645718 26.7039
3.9494987298666713 27.0678
3.971828374764527 27.2413
3.9941581705403255 27.2744
4.016470713506008 27.5444
4.038800813471445 28.2375
4.061113662089144 28.5302
4.0834440696459176 28.4587
4.105774632334751 29.1962
4.128087945865126 29.3632
4.150418821249301 30.2032
4.172732448931298 30.666
4.195063640413578 31.139
4.2173775856475215 32.4536
4.239709096631102 33.2454
4.262040768704612 34.1243
4.284355196706267 35.6518
4.306687193387355 37.2835
4.329001947444346 40.3065
4.35133427213731 41.3045
4.373666762177566 41.2702
4.395982011761091 40.2156
4.418314834921175 38.5293
4.44063041906622 37.6887
4.4629635787515625 37.1924
4.4852969080429785 37.5068
4.5076130004776225 37.6982
4.529946671403969 38.4049
4.552263106909177 38.9882
4.574597122877047 39.9169
4.596931312711224 40.9302
4.619248269273446 41.6338
4.6415828092605835 42.2711
4.663900117405352 43.1857
4.686235010953232 43.9937
4.708552674085913 45.5448
4.730887924602802 46.4369
4.753223354952695 48.016000000000005
4.775541557023902 49.4462
4.797877349456786 51.1232
4.820195915032126 53.3991
4.842532072957498 55.2714
4.864868414979744 58.2772
4.88718753227192 61.3694
4.909524244902505 65.4848
4.931843734218147 69.5304
4.954180820867835 75.6586
4.976518095879839 83.5385
4.998838149695359 92.5821
5.021175803844231 105.241
5.043496238205739 114.542
5.065834274903528 123.088
5.088172504230693 131.187
5.1104935158799565 142.93200000000002
5.132832132875765 162.447
5.155153533596801 190.34099999999998
5.1774925416746225 235.035
5.199814334878411 321.779
5.2221537374521505 495.495
5.244493338631803 747.39
5.266815727034316 1071.32
5.289155727832427 1707.38
5.311478517248165 2957.59
5.333818921080011 4154.76
5.356159527788849 4329.95
5.3784829252032536 3001.55
5.400823940070432 1592.83
5.423147747031976 757.454
5.445489173474152 424.461
5.467830807066149 294.893
5.490155234831516 232.12
5.512497285125229 192.236
5.534822130975162 167.702
5.557164601388673 149.67700000000002
5.579489868738879 134.987
5.601832762690846 125.95100000000001
5.6241758697774475 119.17399999999999
5.646501775867269 115.59299999999999
5.668845311622074 112.932
5.691171647754637 110.258
5.713515615597765 107.01899999999999
5.735859800852677 103.421
5.758186788542988 101.49700000000001
5.780531411018185 101.29
5.802858837297399 100.77600000000001
5.825203900414495 102.01899999999999
5.8475491852224 104.329
5.869877275883075 108.01
5.892223006467101 113.39299999999999
5.914551544266608 120.395
5.936897724049891 130.543
5.959244129804903 143.93200000000002
5.981573344815301 165.94099999999997
6.0039202049061 202.638
6.026249875609095 261.658
6.04859719346037 343.041
6.070927323278297 441.347
6.093275102315365 587.188
6.115623113320588 786.5880000000001
6.137953938319995 1072.95
6.160302415650845 1247.29
6.182633708324452 1076.21
6.2049826554078376 757.701
6.227331838745022 468.213
6.249663839443684 299.27099999999996
6.27201349767565 211.108
6.294345974611799 161.31799999999998
6.316696111167083 127.12100000000001
6.339046488263839 105.544
6.361379686074702 91.3746
6.383730546639482 81.2281
6.406064229255215 73.367
6.428415576718203 68.4963
6.450749747566656 64.0061
6.47310158535871 60.7779
6.495453669698332 57.3837
6.517788579421056 55.2149
6.540141159237969 53.4096
6.562476565766648 51.1522
6.5848296444934045 50.2276
6.607182974060425 48.4988
6.6295191323281015 47.7095
6.651872965955752 46.4765
6.6742096296068985 45.6157
6.6965639707294615 45.1251
6.71891856698715 44.1028
6.741255995248479 43.5073
6.763611104154477 43.0381
6.785949046381137 42.5375
6.808304671371482 42.242
6.8306605557940046 42.2164
6.852999275508618 41.5904
6.875355681171544 41.4362
6.897694923437771 41.5783
6.92005185377892 41.3693
6.9423916220322655 41.5184
6.964749080490181 41.0763
6.987106804399774 41.5284
7.009447368180821 41.8487
7.031805625367033 42.6007
7.054146723727803 43.8885
7.076505517631004 44.9911
7.098864581288365 46.3595
7.121206488070854 46.1639
7.143566093607822 45.0098
7.165908543567245 43.2738
7.188268694426048 41.9328
7.2106291193438095 40.6821
7.232972390625943 40.0877
7.255333366030969 39.9105
7.277677189091925 39.6496
7.300038718428332 39.6769
7.322400526130865 39.5535
7.344745183422596 39.6247
7.367107550224791 39.8818
7.389452767901992 39.6527
7.411815697249891 39.8146
7.434161478756298 40.3191
7.456524974096713 41.5616
7.478888753837185 42.8528
7.501235387657368 47.3489
7.523599738562711 62.0262
7.545946944825532 105.77600000000001
7.568311870344528 175.169
7.5906770845765665 213.2
7.613025156078678 165.275
7.635390950099687 97.7025
7.657739602662809 61.6762
7.680105979923558 48.8364
7.702472650212829 43.9977
7.724822180948224 41.4874
7.747189439655568 40.2926
7.769539560075357 39.9183
7.791907410653562 39.5529
7.81425812420825 38.9214
7.836626570110925 38.7082
7.858995315087906 39.1563
7.881346924933401 39.3811
7.903716270417482 39.1663
7.926068482028405 39.3938
7.948438431475253 39.5623
7.9708086843180235 39.9058
7.993161805171116 40.3205
8.015532667162402 40.6039
8.037886398416653 41.2492
8.060257873014221 41.2102
8.082629655331942 41.6063
8.104984308787587 42.1877
8.127356708900503 42.5321
8.149711981398308 43.343
8.172085002766314 44.1623
8.194458336181368 44.8481
8.216814543847752 45.7815
8.23918850371002 46.8273
8.26154533906492 48.0315
8.283919928836452 50.0346
8.306277395339652 51.3706
8.328652618483376 53.0342
8.351028159736202 54.7262
8.373386579575245 56.3382
8.395762759396959 57.7415
8.418121819038275 60.1535
8.440498640894003 63.6004
8.462875785192262 68.6051
8.485235811156207 75.2093
8.507613602688501 85.5194
8.529974277114228 103.965
8.552352719347912 128.225
8.574731488360351 159.505
8.59709314210385 190.105
8.619472567021075 224.298
8.64183487789147 285.10400000000004
8.664214962183097 413.62699999999995
8.686577933647762 600.44
8.708958680784317 736.327
8.731339760774953 719.0269999999999
8.753703729764451 537.0830000000001
8.77608547780821 340.82800000000003
8.798450116065078 223.34599999999998
8.820832535634787 158.39
8.843215292401656 122.041
8.865580941199045 102.45200000000001
8.887964374703538 90.81200000000001
8.910330701447199 83.60700000000001
8.932714815164482 78.4801
8.955099270424924 74.3671
8.977466620733543 71.9275
8.999851761421976 70.0929
9.022219798361645 68.2356
9.04460562795561 66.9847
9.066991803441677 66.2264
9.089360876979615 65.6703
9.111747746589993 65.5148
9.13411751544971 65.5656
9.156505082664324 67.0929
9.178875550323522 70.1669
9.20126381862328 76.9287
9.223652438908596 96.2211
9.246023961427412 155.892
9.26841328802173 268.717
9.290785518039224 350.907
9.313175554425882 316.688
9.335565947154315 197.53900000000002
9.357939245086508 115.23899999999999
9.380330352834827 82.3983
9.40270436697103 70.0317
9.425096193225055 64.9313
9.447488380180165 62.6158
9.469863475295412 60.8793
9.492256385987508 59.4457
9.514632206018318 58.9587
9.537025843935714 58.2824
9.559402392368193 58.0361
9.581796761000229 57.9567
9.604191496441521 57.9959
9.626569144158516 58.0445
9.648964615551032 57.9065
9.671343000390081 58.1662
9.693739211225699 58.88
9.716135793237463 59.476000000000006
9.738515290448102 59.6672
9.760912617143402 60.1934
9.783292860202891 61.198
9.805690935076182 62.1923
9.828089385495742 62.9139
9.850470754023561 64.6685
9.872869957865444 66.1373
9.89525208097539 68.3641
9.917652041736662 71.4254
9.940052382417589 74.9146
9.962435644102392 80.8188
9.984836746950979 88.7288
10.007220771957746 102.55
10.029622640473708 124.07600000000001
10.052007432299963 149.817
10.074410069984072 169.97299999999998
10.096813093716005 188.653
10.119199042482517 215.442
10.141602840636468 272.006
10.163989564971628 377.039
10.186394141051062 549.711
10.208799107559706 697.4939999999999
10.231187001965623 717.893
10.253592751657669 583.461
10.275981430388155 390.829
10.298387966769793 254.588
10.320794897965431 181.905
10.343184759907361 139.44
10.36559248305461 113.134
10.387983138083852 97.8805
10.410391656691655 89.3277
10.432800574501677 84.9733
10.455192425893369 83.5014
10.47760214443012 85.6514
10.499994797678786 89.5168
10.522405320453982 93.0348
10.54479877906917 95.8176
10.567210109595656 100.124
10.5896218454736 110.363
10.612016518879773 135.634
10.634429067781074 179.945
10.656824555333241 231.822
10.679237920773568 268.029
10.701651695961992 263.437
10.724048411481384 232.25
10.746463008485165 188.257
10.768860546937125 137.72899999999998
10.791275969274796 95.2953
10.81369180576079 73.7201
10.836090585366925 64.0768
10.858507252467449 59.0026
10.88090686379991 55.6055
10.903324365036394 53.9524
10.925724811614439 52.3117
10.948143150509463 51.5803
10.970561909719066 50.2502
10.992963615930844 49.2335
11.015383218085756 47.9086
11.037785768347074 47.1556
11.06020621697282 46.6689
11.082627090322113 46.093
11.105030913430326 45.5652
11.12745263854165 44.9568
11.149857314510728 44.5106
11.172279894912576 44.5044
11.194702904450653 44.31100000000001
11.217108866490921 44.1293
11.239532736615194 44.0406
11.26193956033512 43.6894
11.284364294577085 43.5412
11.306789462371718 42.9676
11.329197585398376 42.1274
11.351623622610898 42.1661
11.37403261614354 41.5688
11.396459526308487 41.4289
11.418869393879497 40.99
11.441297180532617 40.6881
11.463725406927658 40.3948
11.486136592353875 40.4203
11.508565700543707 40.0542
11.530977768845315 40.4105
11.553407762368774 39.9968
11.575838200059769 39.6321
11.598251599479612 39.785
11.620682927815501 39.7235
11.64309721895548 39.7552
11.665529441478206 39.7074
11.687962112597958 39.4841
11.710377748130886 39.6731
11.732811318753434 39.8704
11.755227854859067 39.8503
11.777662328529495 40.0047
11.800079768750786 40.1715
11.822515149015453 40.400999999999996
11.844950984084935 41.2093
11.867369787303163 41.619
11.889806534289491 43.0161
11.912226250487029 45.621
11.934663912939751 52.6584
11.9571020346363 70.0059
11.979523127133968 96.8219
12.001962169624331 116.574
12.024384183972964 112.664
12.046824150809913 88.0685
12.069264581333726 64.9114
12.091687985297767 53.7867
12.11412934550045 50.3522
12.136553680195208 49.6995
12.158995973632788 50.2778
12.181438735204349 50.8233
12.20386447284199 52.2352
12.226308172985636 55.3444
12.24873485024193 60.06399999999999
12.271179492516982 67.4006
12.293607112949127 77.1002
12.316052700916226 85.8726
12.338498763250042 89.0616
12.360927805303868 82.8479
12.383374818673879 72.8565
12.405804812803074 62.5269
12.428252780773262 55.1072
12.45070122756722 50.4466
12.473132656675375 47.4333
12.49558206341869 45.1853
12.518014453510101 43.5415
12.540464823770117 42.7405
12.562915677315177 41.7312
12.58534951575545 41.391999999999996
12.607801338171472 40.7446
12.630236146511358 40.4472
12.652688941369085 40.5104
12.675124723177234 40.3323
12.697578494048786 40.5222
12.720032754458185 40.315
12.742470003354093 40.4761
12.764925245138771 40.571
12.787363476431278 40.6185
12.809819703166806 41.1163
12.83227642391173 41.2626
12.854716135692716 41.4439
12.877173846755147 41.9138
12.899614549869717 42.0714
12.9220732548287 42.6508
12.94453245827299 42.9043
12.966974655289818 43.391000000000005
12.989434858002571 43.7945
13.011878055298721 44.6697
13.034339260862497 45.4883
13.056800969391883 46.3584
13.079245674017244 49.041000000000004
13.101708390774869 52.6977
13.12415410463411 59.2929
13.146617833206086 66.1126
13.169064559883248 68.5213
13.191529303857127 67.4837
13.213994557076367 66.9636
13.236442809902437 67.4047
13.258909083908291 69.6049
13.28135835851934 71.0327
13.30382565690295 73.8966
13.326293469022952 79.6221
13.348744283242008 90.0822
13.371213125129904 108.925
13.39366497011003 135.143
13.416134845360597 166.298
13.438605238843131 189.416
13.46105863690397 188.27599999999998
13.483530069144786 164.40200000000002
13.505984506951902 132.702
13.528456981549432 108.351
13.550929978879088 93.9095
13.573385983253365 86.7396
13.595860028340867 82.4951
13.618317081455832 79.803
13.64079217790333 78.4232
13.663250283359057 79.9101
13.685726434770173 85.0764
13.708203115221277 97.4549
13.730662806148091 117.306
13.75314054697177 143.082
13.775601299246777 170.69099999999997
13.798080104050406 180.921
13.820559442405358 163.244
13.843021793671388 132.219
13.865502201420897 102.49700000000001
13.887965623051947 81.8
13.910447103807167 69.6669
13.932929122629764 62.0367
13.955394156785959 57.7863
13.977877254034569 54.4273
14.000343367582113 52.4725
14.022827546871707 51.1436
14.045294743423524 50.0594
14.06778000837062 49.8677
14.090265817715476 49.9986
14.112734645763819 51.2736
14.13522154619454 55.3937
14.157691466286913 67.512
14.180179461423874 86.7426
14.202668005486178 102.699
14.22513957064374 105.169
14.247629214846473 91.0089
14.270101881097517 70.1568
14.29259262906496 56.2422
14.315083930490205 49.8214
14.337558255389705 46.9331
14.360050666019726 45.555
14.382526101071944 44.5322
14.405019624534942 43.8532
14.427513705993134 43.3088
14.449990813291825 42.8735
14.47248601302899 42.5559
14.49496423954951 42.5345
14.517460561197822 42.5161
14.539939910570322 42.1469
14.562437357763558 42.0739
14.58493536931253 42.0605
14.607416409993311 41.9469
14.62991555254159 41.9828
14.652397725157423 41.8806
14.674898002342799 42.1173
14.697398848433282 42.1766
14.719882725991326 42.6309
14.74238471217934 42.7768
14.764869730765593 43.3648
14.787372860692983 43.5534
14.809876564079925 44.8159
14.83236330125751 46.1955
14.854868153850365 47.872
14.877356041159485 49.5315
14.899862046604186 50.9767
14.922351087688757 51.8774
14.944858249632887 52.6592
14.967365991421232 53.7248
14.989856770231246 56.3155
15.012365673994204 61.0296
15.03485761569738 68.5336
15.05736768508665 79.7731
15.07987833888692 93.289
15.102372032001655 105.572
15.124883856909658 108.77
15.14737872204565 102.459
15.169891721717274 89.9125
15.192405310371893 77.4018
15.214901940621196 67.0102
15.237416709527137 58.6966
15.259914520936249 52.8454
15.282430473753607 48.9394
15.304947020131227 46.5258
15.327446610371178 44.8407
15.349964346154254 43.8205
15.372465126703139 43.1042
15.394984055556009 42.6856
15.417486030076159 42.2321
15.44000615566487 41.8992
15.462526881230803 41.7913
15.485030653812652 41.8044
15.507552581617434 41.5835
15.530057557334603 41.4484
15.55258069104857 41.3468
15.575104429329837 41.4407
15.597611216864632 41.1598
15.620136166564563 41.2811
15.6426441664095 41.2763
15.665170331202765 41.4082
15.687697105158826 41.8176
15.710206930593545 42.6046
15.732734925158933 43.6694
15.755245972089478 45.0425
15.77777519094324 46.4298
15.800287463046663 47.7299
15.822817909869592 48.49100000000001
15.84534897229804 48.8098
15.867863089299354 49.93600000000001
15.890395385222186 51.4312
15.912910736597423 54.1055
15.935444269699861 58.6706
15.957978423016485 66.3372
15.980495633101265 75.8105
16.003031029129367 88.14299999999999
16.02554948280019 98.7445
16.048086125229432 102.58200000000001
16.070623392487107 100.16
16.09314371869582 93.28
16.11568223789321 84.98
16.13820381691126 76.3153
16.160743591742527 66.1723
16.183283996022084 56.6601
16.205807461423195 49.1821
16.228349126881973 44.4739
16.25087385432698 42.3525
16.27341678466365 40.6545
16.29594277784926 39.6827
16.31848697676433 38.6269
16.341031811604868 37.8982
16.36355971058487 37.4641
16.3861058195587 37.0416
16.40863499352978 36.5818
16.431182380342005 36.1
16.453730407713202 35.7288
16.476261501364792 35.441
16.498810812136167 35.1559
16.52134319004079 35.2434
16.54389378792203 35.2195
16.566445031001553 34.9187
16.588979342490088 34.7312
16.61153187824822 34.632
16.634067483263312 34.522
16.656621315414416 34.4753
16.679175797408888 34.2543
16.701713349928728 34.2035
16.72426913389191 34.3397
16.74680798922351 34.316
16.76936507887444 34.2366
16.791905240734874 34.2889
16.814463639794468 34.1186
16.837022695210294 34.3194
16.859564824093756 34.5117
16.882125194503903 34.6608
16.904668639217885 35.1943
16.927230328348003 36.0179
16.949792678493612 38.1794
16.972338104193863 41.0754
16.994901778652235 42.9759
17.017448529496576 43.3185
17.040013531998152 41.6678
17.06257920018044 39.0078
17.0851279459922 36.8424
17.107694947817667 35.9423
17.130245028099072 35.5559
17.15281336730298 35.5182
17.17536478578733 35.7045
17.19793446610687 35.8831
17.220504818648422 36.2061
17.243058251703697 36.0376
17.265629950971032 36.1591
17.288184731571736 36.4871
17.310757781306908 36.9783
17.33333150794385 37.4598
17.355888317140174 38.4891
17.37846339986244 39.7638
17.401021565958885 41.6779
17.42359800851343 44.2246
17.44617513265564 46.5493
17.468735341390783 48.1072
17.491261035594565 47.6159
17.51396340099364 45.6169
17.536490463869136 43.2893
17.559018209820174 40.9015
17.58154663977963 39.1915
17.604251766089718 38.0126
17.626781572227713 37.6561
17.64931206518155 37.3685
17.671843245885103 37.0442
17.69455114821572 37.008
17.717083712612634 37.2802
17.739616967569667 37.7545
17.762150914021706 38.7748
17.78486160749854 40.4215
17.807396945166804 42.8478
17.829932977143503 44.6381
17.85246970436452 45.0688
17.875183204129467 43.9769
17.897721330097664 42.5331
17.920260154126645 41.4415
17.942799677153296 41.7323
17.9655159983646 41.7401
17.988056927677544 42.4429
18.010598558807683 43.1909
18.033140892692916 43.4478
18.05586005052525 43.5085
18.07840379824407 44.0177
18.10094825154059 44.9686
18.12366954819864 46.4462
18.146215420998306 48.3841
18.16876200220057 51.7836
18.191309292745153 56.856
18.214033452627167 64.0594
18.236582170236648 72.1463
18.259131600016456 79.3229
18.281681742907335 81.5716
18.304408781233683 78.7037
18.32696035875955 71.567
18.349512652227624 63.6789
18.372065662579683 57.378
18.394795594587553 53.3789
18.41735004715306 51.6386
18.43990521943684 51.8886
18.46246111238171 53.6318
18.485193953325208 56.6771
18.507751296070428 60.3961
18.530309362314178 63.207
18.552868153000343 62.9725
18.57560391815056 60.6264
18.59816416623245 57.5766
18.620725141597372 53.8543
18.643286845190268 50.6875
18.666025549835414 47.7508
18.688588718427933 44.7117
18.711152618092243 42.2662
18.73389353884365 40.5456
18.75645890921984 39.3003
18.77902501351406 38.5954
18.801591852673102 38.1503
18.824335739722738 37.4915
18.846904057212626 37.4287
18.8694731124168 37.0538
18.89204290628315 36.9091
18.914789774966803 36.6402
18.937361054791623 36.4892
18.959933076131318 36.3356
18.982505839934877 36.0299
19.00525570560582 35.9765
19.027829963004184 35.7673
19.05040496572238 35.8236
19.072980714710468 35.8483
19.095733592739563 35.7268
19.11831084296757 35.6732
19.140888842324735 35.8394
19.16346759176222 35.8051
19.18622349753803 35.8127
19.208803755869358 36.2141
19.231384767143577 36.5249
19.253966532312948 36.7093
19.276725481241822 37.0958
19.29930876296784 37.7047
19.3218928014549 38.829
19.34465404436217 41.5058
19.36723960516257 44.7103
19.389825925592426 47.6184
19.412413006605938 49.0604
19.43517731967805 48.5913
19.457765930683355 46.8122
19.48035530514408 44.9842
19.50294544401556 44.5676
19.525712842708348 44.7996
19.54830451925909 44.9038
19.570896963095727 43.7279
19.593490175174704 42.0391
19.616260674962184 40.2277
19.638855432416964 38.4317
19.661450960992624 37.0172
19.68404726164677 36.07
19.706820878021247 35.3964
19.729418731756834 35.0517
19.752017360452857 34.461
19.77461676506804 34.2363
19.797393513540218 33.9414
19.819994478951667 33.7687
19.84259622316767 33.678000000000004
19.8651987471481 33.5934
19.887978643247177 33.5317
19.91058273574792 33.6773
19.933187610901943 33.5961
19.955969879466828 33.821
19.97857632894404 33.9298
20.00118356396599 33.7262
20.023791585494575 33.89
20.046577028914875 34.1083
20.069186632506966 34.1499
20.091797025500632 34.2267
20.114408208858933 34.594
20.137196842715273 35.3051
20.159809615886765 36.0752
20.18242318232135 37.0878
20.20503754298326 38.1526
20.227829382875154 39.8339
20.250445341109344 41.3504
20.27306209647285 42.3074
20.29567964993108 42.2166
20.31847471147704 41.0358
20.34109387027612 39.4963
20.363713830075454 38.2682
20.386334591841646 37.6068
20.409132890679302 37.3933
20.431755265564437 37.7446
20.454378445325528 38.6993
20.477002430930366 39.7354
20.499803982716553 40.2509
20.522429589228004 40.1345
20.54505600449589 39.3105
20.567683229489194 37.8426
20.590488049900088 36.3188
20.61311690359731 34.9894
20.63574656993626 33.988
20.658553853717297 33.0411
20.681185154618298 32.8001
20.703817271080066 32.6623
20.72645020407368 32.2485
20.749260783967177 32.0659
20.771895359337133 32.6057
20.794530754161617 33.1997
20.817166969412938 34.3519
20.83998086114876 35.2204
20.86261872660049 35.547
20.885257415405402 35.1704
20.90789692853701 34.0916
20.930714147864748 32.8633
20.953355319030678 32.025999999999996
20.97599731745334 31.2911
20.99864014410749 30.8745
21.021460706796564 30.6482
21.044105199328826 30.7802
21.06675052302631 30.6539
21.089396678865015 30.6147
21.112220600704806 30.7237
21.134868430275347 30.5206
21.15751709492456 30.3461
21.180166595629693 30.4528
21.202993892429635 30.366
21.22564507473034 30.4039
21.24829709602816 30.4354
21.27112693608965 30.3655
21.293780644891275 30.6797
21.316435195634053 30.7978
21.339090589297417 30.9384
21.361923832041875 31.1772
21.384580921090404 31.3902
21.407238856007325 31.8553
21.429897637773326 32.3114
21.45273429906592 32.2696
21.475394784108598 32.1896
21.498056118951983 32.0637
21.520718304578022 31.9678
21.543558400304388 31.7382
21.566222297108816 31.608
21.58888704765135 31.2389
21.61155265291521 30.969
21.63439619898156 30.7358
21.657063523335786 30.7174
21.67973170537063 30.7937
21.7024007460706 30.9146
21.72524775840385 31.1103
21.747918526116475 31.3047
21.770590155457388 31.3661
21.79326264741238 31.4954
21.816113141960237 31.5464
21.838787368860547 31.5602
21.861462461341976 31.6333
21.884315579735777 31.9535
21.90699241312273 32.1971
21.92967011506078 32.6069
21.95234868653799 33.0797
21.9752053151131 33.8141
21.997885635446785 34.7237
22.020566828293532 35.9319
22.04324889464272 37.3359
22.066109049404666 38.847
22.088792872571794 39.784
22.111477572219204 40.4682
22.1341631493376 40.3106
22.157026846313123 39.7355
22.179714188221507 39.1127
22.202402410582668 38.7815
22.22509151438863 38.2474
22.24795876962584 37.8145
22.270649646204486 37.5091
22.293341407213727 36.9063
22.316034053646906 36.4784
22.338904883215342 35.8691
22.36159931041458 35.0288
22.38429462602756 34.2001
22.40699083104897 33.1756
22.429865251039757 32.47
22.452563244831367 32.048
22.47526213102522 31.768
22.49813925616515 31.5377
22.520839937143307 31.3034
22.543541513520587 31.1386
22.56624398629403 30.8998
22.589124730075895 30.959
22.611829005656723 30.947
22.63453418063466 30.6736
22.657240256008077 30.6837
22.680124634582935 30.7519
22.70283252079775 30.8489
22.725541310413075 30.8483
22.74825100442868 31.026
22.771139033969575 31.3155
22.79385054687155 31.3021
22.81656296718292 31.7269
22.83927629590484 32.34
22.862167992606945 32.5536
22.88488314827121 32.6449
22.907599215359284 32.5288
22.93031619487366 32.1789
22.953211574954405 31.9224
22.975930389478226 31.9043
22.998650119445763 31.8839
23.02137076586092 31.9717
23.044269845560063 32.4148
23.06699233506288 33.038000000000004
23.089715744034912 33.9237
23.112617610931565 34.8759
23.135342869061212 35.7821
23.158069049684816 36.6337
23.1807961538087 36.8981
23.20370174880544 36.732
23.226430710184808 35.6675
23.249160598093425 34.6354
23.271891413539002 33.5143
23.294800752937697 32.7064
23.31753343374794 32.2
23.340267045128353 31.9097
23.36300158808808 31.8267
23.38591468821339 31.8545
23.408651104658304 32.0219
23.431388455719986 32.3231
23.454126742409 32.8156
23.4770436196085 33.3679
23.499783787914662 33.8496
23.522524894889884 33.9038
23.54526694154616 33.4675
23.56818761219047 33.0927
23.59093154860734 32.4437
23.613676427751283 32.4583
23.636422250635754 32.3429
23.659346731118656 32.5779
23.68209445191868 33.0902
23.704843119509587 33.7886
23.72759273490623 34.7674
23.750521041644767 35.848
23.77327256312355 36.6208
23.796025035462787 37.0442
23.818956224555475 36.6831
23.841710609113413 35.8973
23.86446594758979 34.5351
23.887222241002014 33.2222
23.910157285144578 32.1622
23.932915498962537 31.4902
23.955674670778713 30.8477
23.978434801611975 30.2693
24.001373717286125 29.9292
24.024135776723917 29.7841
24.046898798245582 29.7187
24.06966278287146 29.6875
24.092605586582614 29.5058
24.115371508023642 29.5367
24.1381383956401 29.3982
24.16090625045381 29.2065
24.183852958731244 29.0318
24.206622758582608 28.735
24.229393528706886 28.5121
24.252165270127392 28.4698
24.27511589952438 28.2314
24.297889594216997 28.0448
24.32066426328598 27.9865
24.34343990775613 27.8947
24.36639447485003 27.8202
24.38917208083877 27.7824
24.41195066531332 27.6654
24.43490819850244 27.7095
24.457688750692377 27.6011
24.48047028445616 27.5878
24.503252800821233 27.6218
24.526214300784112 27.65
24.548998793132213 27.595
24.57178427117417 27.3971
24.59457073593893 27.461
24.617536219319863 27.4727
24.64032466834748 27.8384
24.663114107195035 27.9839
24.685904536893013 28.0645
24.708874020360852 28.2498
24.731666442613744 28.4668
24.754459858818787 28.5441
24.777254270007962 28.2615
24.80022777025625 28.0498
24.82302418230472 27.8017
24.845821592443674 27.5757
24.86862000170663 27.3938
24.891597535453727 27.0179
24.914397953892728 27.261
24.93719937456671 27.0268
24.96000179851076 27.0069
24.98298338249997 27.0318
25.00578782394922 27.0987
25.028593271784167 27.005
25.05157790644186 27.0538
25.07438537804115 27.0646
25.097193859145293 27.0852
25.120003350792075 26.9148
25.142992065061257 26.9916
25.165803588823465 27.1332
25.18861612625217 27.2154
25.211429678386736 27.2744
25.234422489079968 27.302
25.257238081693636 27.4177
25.280054692141732 27.8621
25.3028723214652 28.0242
25.325869245420463 28.3035
25.348688923599397 28.4671
25.371509623787006 28.5543
25.394331347025812 28.5819
25.41733240110666 28.3257
25.440156181590016 28.2748
25.46298098826268 28.3777
25.48580682216873 28.5237
25.50881202326435 28.6089
25.53163992281684 28.8803
25.55446885274561 28.9632
25.577298814096377 28.9345
25.600308179121807 28.8587
25.623140214533745 28.5476
25.64597328451537 27.9971
25.66898578564376 27.4342
25.691820936010206 27.107
25.714657124097695 26.8564
25.737494350954734 26.6765
25.760511045684957 26.459
25.783350361364224 26.4852
25.806190718969255 26.5433
25.82903211955018 26.7016
25.852053024868923 26.6845
25.874896522722523 26.6923
25.897741066713106 26.8106
25.920586657892454 26.7554
25.943611790812668 26.6506
25.966459487728237 26.4814
25.989308234998564 26.1896
26.01215803367705 26.1616
26.03518741123814 26.1222
26.05803932412957 26.0176
26.080892291600094 25.8618
26.10374631470478 25.9202
26.12677995397268 25.9501
26.14963609978026 26.0844
26.172493304397875 26.0824
26.19535156888223 26.2346
26.218389486949604 26.3794
26.241249882640123 26.3859
26.26411134137826 26.5803
26.28715248187403 26.8229
26.31001607820869 26.913
26.3328807407756 26.8937
26.35574647063438 26.8636
26.37879191991473 26.6318
26.401659795896734 26.5332
26.424528742360263 26.5036
26.447398760366614 26.4195
26.470448535598294 26.1987
26.49332070826805 26.0436
26.516193955675355 26.1299
26.53906827888316 25.9476
26.562122397260108 25.8695
26.584998883685063 25.9859
26.607876449110325 25.9328
26.63075509460056 25.88
26.65381357334404 25.9003
26.67669439061878 25.8415
26.699576291163382 25.980999999999998
26.722459276044212 26.0336
26.745522132402975 26.2277
26.768407297649354 26.5057
26.791293550442003 26.5473
26.814180891848974 26.9636
26.837248143099337 27.2698
26.860137673466657 27.4928
26.88302829566349 27.5662
26.90592001075963 27.5359
26.92899167420566 27.54
26.951885586870763 27.4489
26.974780595655517 27.3475
26.99785558178161 27.4807
27.020752794605112 27.3591
27.043651106772522 27.3317
27.06655051935668 27.1445
27.089629948036183 26.8241
27.112531573292053 26.4997
27.135434302194138 26.2655
27.158338135817015 25.78
27.181422024430987 25.6464
27.204328079372566 25.5215
27.22723524226965 25.3995
27.250143514198573 25.3724
27.273231880156334 25.2775
27.296142382065014 25.0781
27.319053996245536 25.0425
27.341966723775965 25.0856
27.365059584515222 25.1158
27.38797455070062 24.9987
27.410890633481237 24.8515
27.433807833936918 24.8431
27.456905206923906 24.91
27.47982465472398 24.8583
27.502745223449743 24.9507
27.525666914182825 25.0444
27.548768816912457 24.9566
27.571692763693633 24.9256
27.59461783573812 24.9817
27.617723149491244 24.9724
27.640650484125285 24.9415
27.66357894728264 24.9514
27.686508540048052 24.8847
27.709618414237887 25.0171
27.732550278321757 25.0453
27.755483275279115 25.0392
27.778417406196485 25.1087
27.801531858397514 25.1318
27.824468269376716 24.9079
27.847405817586786 24.8968
27.870344504116094 24.7889
27.893463551932008 24.6883
27.916404527281053 24.6483
27.93934664422563 24.6106
27.962289903855886 24.5957
27.98541356491974 24.6439
28.00835912214229 24.7982
28.03130582533231 24.8244
28.054253675581805 25.0445
28.077381967556104 25.1199
28.100332124185126 25.184
28.123283431160893 25.1969
28.146235889577238 25.2163
28.169368830154156 25.1503
28.192323603752033 25.1401
28.215279532083304 25.0727
28.238415973016764 25.3985
28.261374223145094 25.4632
28.284333631303806 25.561999999999998
28.307294198589954 25.5857
28.330435319167677 25.5247
28.353398217078915 25.4123
28.376362277420153 25.208000000000002
28.39932750129032 25.0553
28.422473319286713 24.9947
28.44544088262495 25.0177
28.468409612800283 24.9428
28.491379510913497 24.7578
28.51453004413313 24.5145
28.53750229057244 24.4326
28.56047570826344 24.2428
28.583450298308804 24.2537
28.606605564586562 24.0067
28.629582511831156 24.0681
28.65256063474956 23.8267
28.675539934446338 23.7209
28.698699951647605 23.6288
28.72168161743193 23.4371
28.74466446331978 23.5039
28.767648490417624 23.211
28.790813276438353 23.2105
28.813799678527303 23.1738
28.836787265157085 23.2038
28.859955641890075 23.0951
28.882945610203045 23.0518
28.905936766392035 22.9529
28.928929111566863 22.8566
28.952102288520145 22.9441
28.975097024308607 22.9046
28.998092952423807 22.8239
29.021090073977508 22.8222
29.04426806913204 22.9237
29.067267590245258 22.9644
29.090268308143695 22.9066
29.11327022394099 23.0059
29.13645305530891 22.9925
29.159457379627167 22.9929
29.18246290519685 22.9152
29.20546963313352 22.89
29.22865731875826 22.7322
29.25166646419296 22.6367
29.27467681535305 22.4378
29.29768837335608 22.4685
29.320880931312562 22.2726
29.34389491580634 22.1889
29.366910110507334 22.3004
29.38992651653503 22.236
29.41312396492981 22.1577
29.436142806456754 22.163
29.45916286268059 22.1663
29.48236399319994 22.1561
29.50538649169417 22.0439
29.528410208259935 22.0519
29.55143514402014 21.9951
29.574641196749695 22.0814
29.597668583816574 22.1019
29.6206971934585 22.0341
29.64372702680042 22.1771
29.666938019934474 22.085
29.689970313635285 22.061999999999998
29.713003834422636 21.9452
29.73603858342347 21.8379
29.759254535188578 21.7663
29.78229175361658 21.673000000000002
29.80533020365064 21.6866
29.82836988641968 21.5607
29.85159081507472 21.5396
29.874632976355343 21.4654
29.89767637376955 21.5117
29.920721008448314 21.3324
29.9439469322847 21.2607
29.96699405457564 21.3959
29.9900424175358 21.3789
30.013092022298157 21.3197
30.03632295963995 21.3171
30.059375061131373 21.3398
30.08242840783577 21.4665
30.105483000888153 21.4435
30.128718970092244 21.4308
30.151776069006917 21.3834
30.17483441768648 21.3915
30.198074175317235 21.3668
30.221135036724256 21.393
30.24419715131772 21.2635
30.267260520236203 20.996
30.290505341942243 21.0921
30.313571232750228 21.0758
30.336638381310948 21.1378
30.35970678876503 21.1092
30.38295669299435 21.1171
30.40602763151657 21.1745
30.429099832366074 21.1571
30.452173296685572 21.0876
30.47542830191959 21.0394
30.498504306502497 21.1313
30.521581577995562 21.1566
30.544660117543582 21.0424
30.56792024229725 21.0452
30.59100133132069 20.8305
30.614083691845494 20.9794
30.637167325018545 20.8846
30.660432587840603 20.8966
30.683518779717886 20.8516
30.70660624769615 20.9005
30.729694992924372 20.8438
30.75296541239743 20.8786
30.77605672557558 20.906999999999996
30.799149319462742 20.9812
30.8224236211637 20.9273
30.845518789950724 20.8815
30.868615242910597 21.0451
30.891712981195973 20.9807
30.91499247215866 21.0414
30.938092794619365 21.225
30.96119440587579 21.2088
30.984297307082752 21.2523
31.00758200598383 21.2354
31.030687500658694 21.1187
31.053794288760695 21.131999999999998
31.076902371446767 21.0363
31.100192296997445 21.0577
31.12330298246119 21.0225
31.14641496599209 20.8891
31.169528248749216 20.8964
31.19282341969534 20.7737
31.215939314557186 20.7139
31.239056512134788 20.7286
31.262175013589378 20.5808
31.28547544871168 20.4144
31.30859657161541 20.3426
31.331719001892175 20.397000000000002
31.35484274070538 20.4377
31.378148458819545 20.3784
31.401274828443725 20.344
31.424402510106933 20.3549
31.447712205419993 20.3319
31.470842524931633 20.1831
31.493974159989783 20.2328
31.51710711176168 20.2139
31.54042212308802 20.2535
31.563557722100917 20.2788
31.586694641341655 20.3286
31.609832881979628 20.2235
31.63315322823208 20.2764
31.656294125521327 20.311
31.679436347728515 20.2326
31.70257989602529 20.3065
31.725905596152327 20.2912
31.74905181052835 20.316
31.772199354521323 20.2879
31.79534822930507 20.2946
31.818679302290967 20.2147
31.84183085259981 20.1632
31.864983737233473 20.0897
31.88813795736804 20.0918
31.911474422233013 19.9549
31.934631327356435 19.9003
31.9577895715215 19.8483
31.980949155906522 19.7948
32.004291031706956 19.8344
32.027453310562606 19.822
32.05061693318573 19.7749
32.07396288236386 19.8067
32.09712920658542 19.8164
32.12029687812702 19.8726
32.14346589817093 19.8658
32.166817291729984 19.8171
32.18998902288583 19.8331
32.21316210610336 19.8228
32.23633654256711 19.778
32.259693399663725 19.7851
32.282870556771144 19.7727
32.30604907069099 19.7341
32.329228942610065 19.6741
32.35259128243769 19.5902
32.375773884550505 19.5225
32.398957848235646 19.5153
32.422143174682176 19.4559
32.445511016471215 19.342
32.468699082679954 19.326
32.49188851523011 19.2819
32.51507931531304 19.1909
32.538452678331 19.1781
32.56164622776311 19.1449
32.58484114831493 19.0811
32.60803744118015 19.0555
32.631416344731896 19.0843
32.654615396551876 18.982
32.67781582427913 18.927
32.701198898634416 18.8769
32.72440209253756 18.857
32.747606665947124 18.8056
32.77081262006088 18.6806
32.79420126883317 18.7323
32.81740999876112 18.7749
32.840620112999424 18.7655
32.86383161274818 18.6221
32.88722585534586 18.6758
32.91044014056596 18.6839
32.933655814909734 18.767
32.95687287957963 18.7263
32.98027273544904 18.7202
33.00349259526636 18.6556
33.026713849030116 18.6639
33.04993649794511 18.614
33.073341986570746 18.544
33.09656744032826 18.4744
33.11979429286444 18.4746
33.14302254538647 18.4363
33.166433686291185 18.3687
33.18966475336992 18.4058
33.212897224069096 18.4321
33.23613109959831 18.3271
33.259547912343415 18.2494
33.2827846121627 18.361
33.306022720453775 18.2828
33.32926223842861 18.2681
33.352684742614166 18.3092
33.37592709463173 18.2457
33.399170859982064 18.2825
33.422597648419426 18.2252
33.44584425514446 18.18
33.46909227885668 18.2446
33.4923417207723 18.1904
33.51577423505344 18.2286
33.539026528130385 18.2009
33.56228024307245 18.1339
33.585535381098246 18.0836
33.60897364093058 18.0609
33.63223163992385 18.0289
33.6554910656699 18.009
33.678751919389796 17.9805
33.702195944520106 17.8856
33.72545966903325 17.8537
33.74872482519663 17.7522
33.771991414233746 17.7094
33.79544122444841 17.6311
33.81871069412428 17.6151
33.84198160035767 17.6502
33.86525394437455 17.6422
33.88870955949969 17.6115
33.911984794020626 17.5601
33.93526147001624 17.5515
33.958539588715006 17.5452
33.98200102861669 17.467
34.0052820477047 17.4811
34.02856451319451 17.4631
34.05203033759056 17.3735
34.07531571090147 17.3577
34.09860253431845 17.4176
34.121890809074316 17.4005
34.145362493118924 17.3858
34.16865368561615 17.3156
34.191946333164054 17.3209
34.21524043699793 17.3409
34.23871800066799 17.2706
34.26201503218366 17.2258
34.28531352370466 17.2032
34.30861347646881 17.1072
34.33209693978188 17.1175
34.3553998301885 17.0823
34.378704185565205 16.9915
34.402010007152356 16.9381
34.42549939016683 16.9487
34.44880815937748 16.8861
34.472118398533134 16.8845
34.49543010887669 16.9532
34.51892543169198 16.8909
34.54224009966052 16.8562
34.56555624255917 16.8204
34.58887386163339 16.7822
34.61237514439016 16.7724
34.6356957311114 16.7189
34.65901779775809 16.6792
34.68252356662995 16.7005
34.705848608458616 16.7103
34.72917513396849 16.6172
34.75250314440949 16.574
34.77601490857862 16.5548
34.799345904259795 16.5268
34.82267838863559 16.5417
34.846012362958525 16.500999999999998
34.869530142679984 16.5054
34.89286711232212 16.439
34.91620557568269 16.4979
34.93954553401677 16.44
34.9630693495876 16.3933
34.986412313340814 16.3903
35.00975677584668 16.4253
35.033102738362956 16.2455
35.05663261012228 16.2291
35.0799815881786 16.1972
35.10333207003229 16.3033
35.12668405694369 16.25
35.150220005273056 16.2627
35.17357501786656 16.1769
35.19693153931268 16.1689
35.220289570874385 16.1561
35.24383161619786 16.1611
35.267192683604904 16.1444
35.290555264930376 16.112000000000002
35.314101899412165 16.0998
35.33746752422433 16.0293
35.36083466676374 16.0693
35.38420332829803 15.9933
35.407756095629054 16.02
35.43112781085063 15.9871
35.45450104888391 16.0034
35.477875810999194 15.9935
35.50143473172161 15.9307
35.52481255774625 15.9485
35.54819191167777 15.9325
35.57157279478914 15.9495
35.595137889488406 15.9575
35.61852184675279 15.8705
35.641907337029984 15.9041
35.665294361595684 15.9357
35.68886565090076 15.9273
35.7122557598848 15.904000000000002
35.73564740699838 15.8694
35.759040593519934 15.9277
35.78261809810353 15.8784
35.80601437933051 15.8313
35.829412203814705 15.7972
35.85281157283719 15.6805
35.876395313415884 15.7478
35.8997977874528 15.7726
35.92320180988546 15.7455
35.946790244133936 15.597000000000001
35.97019737933222 15.6682
35.993606066789866 15.5992
36.01701630779276 15.543
36.04061101440684 15.4886
36.06402437852291 15.5178
36.08743930005611 15.4538
36.1108557802951 15.4127
36.13445678011326 15.3996
36.15787639383515 15.3703
36.18129757014299 15.3562
36.20472031032821 15.3133
36.22832762423364 15.2041
36.25175350829375 15.2729
36.275180960119776 15.2412
36.298609981005924 15.273
36.32222362992669 15.2368
36.34565580510207 15.1948
36.36908955323448 15.1894
36.39252487562093 15.1075
36.416144880530226 15.0944
36.43958336764275 15.2094
36.463023432914625 15.1927
36.486465077645676 15.1629
36.51009145956204 15.1769
36.53353627947859 15.1412
36.55698268276811 15.1341
36.58043067073321 15.0554
36.60406345072071 14.9603
36.62751462435344 14.985
36.65096738658405 14.9423
36.67460498210655 14.8957
36.69806093788647 14.9091
36.72151848619297 14.8809
36.744977628333636 14.9077
36.76862165890998 14.8561
36.79208400512205 14.8078
36.81554794910557 14.8461
36.83901349217101 14.8366
36.862663978991606 14.8108
36.88613273667352 14.735
36.90960309738324 14.7986
36.933075062434064 14.7463
36.95673202673572 14.7436
36.98020721697122 14.6859
37.003684015502365 14.6368
37.027162423645365 14.6194
37.050825886711465 14.5546
37.07430753063053 14.5235
37.09779078812467 14.5048
37.121275660513014 14.4903
37.144945643673694 14.5143
37.16843376245278 14.475999999999999
37.19192350009803 14.402000000000001
37.215414857931435 14.3861
37.239091382563885 14.3677
37.262585997426164 14.3189
37.28608223645736 14.3284
37.309763684451696 14.2905
37.33326318851098 14.2658
37.356764320726555 14.3095
37.380267082425526 14.3362
37.40395510942588 14.2843
37.42746114683234 14.2141
37.45096881771841 14.2084
37.474478123414166 14.190999999999999
37.49817275092816 14.1782
37.52168534303452 14.1607
37.54519957395567 14.0857
37.568715445024665 14.0962
37.592416694607714 14.0898
37.61593586281424 14.1094
37.63945667518264 14.0418
37.66297913304891 13.9898
37.68668702630454 14.0465
37.710212792059274 13.977
37.733740207334854 14.0105
37.757269273470364 13.9485
37.780983832050374 13.8404
37.80451621684926 13.8795
37.82805025654007 13.8807
37.851585952464795 13.8834
37.8753071980695 13.8029
37.89884622345676 13.7613
37.92238690911902 13.8239
37.94611318753442 13.7743
37.969657210779765 13.7124
37.99320289834801 13.6908
38.016750251586465 13.7389
38.04048325513017 13.718
38.06403395679343 13.6095
38.087586328183946 13.5718
38.11114037065203 13.6056
38.13488012115898 13.6574
38.1584375229181 13.5519
38.181996599821 13.5213
38.205557353221124 13.5117
38.229303872575656 13.5168
38.2528679961576 13.4323
38.27643380031219 13.4579
38.30000128639589 13.5033
38.32375459653193 13.4487
38.34732546371299 13.4335
38.37089801690786 13.3539
38.39447225747609 13.3375
38.418232380377425 13.3419
38.441810012983396 13.2427
38.46538933705673 13.2875
38.488970353960084 13.2998
38.51273731166058 13.2436
38.536321731567014 13.1815
38.55990784840681 13.1899
38.58367995004091 13.1918
38.60726947812959 13.1532
38.63086070726198 13.1756
38.654453638806274 13.1791
38.678232613930824 13.1258
38.70182896773327 13.1036
38.72542702806741 13.0209
38.7490267963045 13.0353
38.77281266709232 13.0275
38.79641586862214 13.0221
38.8200207821842 12.9316
38.843627409152944 12.9789
38.86742019782782 12.9401
38.891030269149255 12.9
38.914642058016156 12.9066
38.938255565806124 12.8931
38.96205529464307 12.8364
38.98567225787121 12.8763
39.00929094417078 12.8467
39.03291135492255 12.8648
39.05671804624804 12.8406
39.080341923549106 12.8283
39.103967529460334 12.7199
39.127594865365744 12.7356
39.15140854155791 12.7071
39.17503935514948 12.6547
39.19867190290282 12.6761
39.22249083587951 12.6466
39.24612686969409 12.6598
39.269764641845306 12.6471
39.293404153722804 12.6125
39.317230110864074 12.600999999999999
39.34087311998506 12.5557
39.36451787301696 12.6093
39.388164371352595 12.5029
39.41199737518003 12.4735
39.43564738196752 12.4504
39.45929913825317 12.4719
39.48295264543308 12.4348
39.506792718520884 12.4082
39.530449745387216 12.4286
39.55410852735203 12.404000000000002
39.57776906581474 12.3599
39.60161623079 12.3962
39.625280300200025 12.3228
39.64894613032202 12.2957
39.67261372255866 12.2806
39.6964680021016 12.3285
39.72013913657293 12.2754
39.74381203738292 12.2793
39.76748670593756 12.2268
39.79134812278169 12.2268
39.81502634488497 12.1943
39.83870633896685 12.1476
39.862388106436654 12.1749
39.88625668336918 12.1386
39.90994201572829 12.1451
39.933629125719285 12.0794
39.957503091207826 12.0947
39.9811937746168 12.0659
40.00488623990914 12.0747
40.02858048850006 12.0995
40.05246165409549 12.0282
40.076159487492085 11.9481
40.099859108448875 11.9968
40.123560518384345 11.9953
40.1474489070226 11.9536
40.171153913178564 11.9297
40.194860712584955 11.915
40.2185693066637 11.8998
40.242464941335314 11.8467
40.26617714307655 11.8632
40.289891143772046 11.8793
40.3136069448471 11.8499
40.33750984859743 11.8272
40.3612292688043 11.8041
40.3849504936829 11.8037
40.40867352466194 11.7744
40.43258372059144 11.7241
40.45631038219906 11.7445
40.48003885420956 11.6571
40.503769138055105 11.6896
40.52768664931955 11.6965
40.55142057531802 11.6833
40.57515631746428 11.6381
40.599079334038514 11.6517
40.62281872700477 11.5855
40.64655994043941 11.6107
40.67030297578061 11.5413
40.69423334835778 11.562999999999999
40.71798004609188 11.5623
40.74172857006355 11.5272
40.76547892171441 11.5623
40.7894166736039 11.49
40.813170699248566 11.443
40.83692655691388 11.4671
40.86068424804498 11.4759
40.884629402612525 11.4213
40.908390779366385 11.3783
40.932153993938 11.3724
40.95591904777605 11.3919
40.979871628443995 11.4073
41.003640379561936 11.3453
41.02741097430883 11.2707
41.05118341413683 11.3065
41.075143444384416 11.2906
41.098919593177826 11.2993
41.1226975914255 11.2814
41.14647744058318 11.1594
41.170444943946755 11.1679
41.19422851378379 11.2056
41.218013938914645 11.1994
41.24198706625173 11.1541
41.26577622087193 11.1429
41.289567235177785 11.140999999999998
41.31336011063129 11.0942
41.337340752422875 11.0552
41.361137369129835 11.0582
41.38493585138705 11.0586
41.40873620066004 11.0566
41.43272438060107 11.02
41.45652848292052 11.0237
41.48033445666918 11.0057
41.50414230331616 10.9527
41.528138045159764 10.9562
41.551949656675205 10.8785
41.575763145513235 10.8739
41.59957851314666 10.8958
41.62358184070442 10.8247
41.64740098505737 10.8542
41.6712220126409 10.845
41.69504492493139 10.7849
41.71905586207357 10.7942
41.74288256296395 10.7503
41.766711153007456 10.7549
41.79054163368412 10.7455
41.814560204340054 10.7517
41.838394485526365 10.73
41.86223066180303 10.7252
41.88625497706819 10.6883
41.910094962812 10.654000000000002
41.93393684811168 10.6233
41.95778063445365 10.6276
41.981812625263366 10.6533
42.00566023303407 10.6551
42.029509746323676 10.5728
42.05336116662236 10.5687
42.077400857069705 10.5789
42.10125611078846 10.545
42.12511327600405 10.5603
42.14897235421036 10.523
42.173019768448455 10.494000000000002
42.19688269209613 10.4784
42.22074753323349 10.4671
42.24461429335818 10.431
42.268669455600495 10.4167
42.292540073217886 10.3987
42.31641261433284 10.3516
42.34028708044675 10.352
42.36435001496739 10.3734
42.38822835065557 10.3655
42.41210861586426 10.3304
42.4359908120986 10.3687
42.46006154323262 10.2867
42.48394762115317 10.2586
42.507835634632315 10.2469
42.531912233047436 10.187999999999999
42.55580413732265 10.2118
42.579697981698 10.1858
42.60359376768525 10.17
42.62767820545945 10.1496
42.65157789440821 10.1205
42.67547952952185 10.1243
42.699383112316 10.1334
42.72347541395347 10.0845
42.74738291190531 10.0394
42.771292362102166 10.0701
42.795203766063516 10.0423
42.819303956130405 10.0218
42.843219287476536 9.97995
42.86713657716324 9.97583
42.89105582671383 9.98992
42.91516392983864 9.99141
42.939087119032166 9.94074
42.963012272677304 9.91808
42.98693939230129 9.91213
43.01105543317513 9.89916
43.034986504731386 9.87928
43.05891954686589 9.86657
43.08285456110972 9.86393
43.10697856448665 9.804730000000001
43.130917542983475 9.770539999999999
43.15485849820081 9.78381
43.17880143167367 9.75977
43.20293342237094 9.73724
43.226880332449 9.7371
43.25082922540554 9.75336
43.27496722682525 9.730210000000001
43.29892010567796 9.691460000000001
43.32287497204102 9.6684
43.34683182745632 9.66098
43.370977859791836 9.65749
43.39493871351105 9.6184
43.41890156092628 9.6275
43.44286640358341 9.56677
43.46702049182749 9.53318
43.49098934522816 9.52018
43.51496019852649 9.567839999999999
43.5389330532723 9.575380000000001
43.56309522248204 9.54075
43.58707210044314 9.45978
43.61105098451946 9.47803
43.63503187626491 9.46517
43.659202151562134 9.41873
43.68318707902681 9.42928
43.70717401884041 9.458860000000001
43.731162972560874 9.414719999999999
43.75534137913236 9.41496
43.779334381108384 9.34804
43.803329401683186 9.36548
43.82732644241872 9.3672
43.8515130055166 9.34955
43.87551410707659 9.29208
43.89951723350145 9.267380000000001
43.923709934595614 9.29228
43.94771713129917 9.27863
43.97172635758096 9.26385
43.99573761501002 9.22669
44.0199385169922 9.25727
44.04395385732619 9.21295
44.067971233533086 9.2298
44.09199064718605 9.16959
44.11619977548961 9.17346
44.14022328470671 9.11692
44.16424883610785 9.153789999999999
44.18827643127035 9.1078
44.21249381139513 9.139389999999999
44.236525514814076 9.08538
44.26055926674478 9.10394
44.28459506876863 9.10573
44.3088207262813 9.04549
44.33286064928722 9.00889
44.35690262714919 9.0488
44.38094666145278 8.9678
44.4051806219871 8.993139999999999
44.42922879003185 8.99279
44.45327901929361 8.95674
44.477331311362136 8.93355
44.501573600619416 8.9197
44.525630039221795 8.891760000000001
44.54968854541895 8.91213
44.573937102200176 8.90472
44.5979997645541 8.87381
44.622064499300315 8.879610000000001
44.64613130803592 8.85034
44.67038823869318 8.840069999999999
44.69445921643748 8.80408
44.718532272981385 8.725760000000001
44.742607409926194 8.756219999999999
44.76687274034801 8.79338
44.79095205918753 8.75528
44.81503346325094 8.72819
44.839116954143876 8.74501
44.86339071028742 8.72954
44.88747839599524 8.68219
44.91156817336837 8.67015
44.93566004401666 8.6938
44.959942251908146 8.67498
44.984038330325966 8.68115
45.00813650686762 8.61691
45.03223678314731 8.585360000000001
45.05652746888232 8.63183
45.08063196592069 8.60562
45.104738567558705 8.548689999999999
45.128847275414856 8.5144
45.15314646515866 8.49347
45.17725940679741 8.48227
45.20137445952892 8.4818
45.22568004865265 8.520439999999999
45.24979934496396 8.45875
45.27392075725247 8.49217
45.29804428714431 8.46642
45.322358426247604 8.439969999999999
45.346486212804315 8.371189999999999
45.370616121861914 8.38917
45.39474815505086 8.378739999999999
45.41907087049246 8.33413
45.4432071734666 8.37375
45.46734560548283 8.37059
45.49148616817604 8.35103
45.51581748638564 8.33658
45.5399623320197 8.31316
45.56410931325473 8.2698
45.58825843173002 8.29422
45.61259837920865 8.27052
45.636751793816 8.29255
45.66090735060093 8.26797
45.68506505120716 8.229610000000001
45.7094136545275 8.220080000000001
45.73357566449271 8.184560000000001
45.75773982322992 8.1201
45.78190613238733 8.15431
45.806263418194064 8.15271
45.83043404997326 8.15546
45.85460683713677 8.13057
45.87897065658495 8.12655
45.90314777634752 8.08238
45.92732705646868 8.05538
45.9515084986045 8.06911
45.97588104735473 8.06558
46.00006683541565 8.02179
46.02425479047904 8.03618
46.04844491420549 7.99609
46.0728262191024 7.9866399999999995
46.09702070211635 8.00562
46.12121735879483 7.97353
46.14541619080294 7.93162
46.169806278764455 7.941389999999999
46.194009483459034 7.94607
46.21821486849841 7.890860000000001
46.24242243555223 7.9105
46.266821333570014 7.868930000000001
46.29103328674601 7.85235
46.31524742696538 7.867710000000001
46.33946375590237 7.846019999999999
46.36387149104216 7.852069999999999
46.38809221957392 7.828010000000001
46.41231514186606 7.81015
46.436540259597464 7.8286
46.460956858999374 7.77522
46.48518638983522 7.79639
46.509418121166966 7.7744800000000005
46.533652054678114 7.737239999999999
46.55807754555709 7.73164
46.58231590571962 7.74825
46.60655647313217 7.71143
46.630988654873654 7.71824
46.655233659129024 7.674639999999999
46.67948087571551 7.6698
46.70373030632484 7.67437
46.72817142736393 7.67577
46.752425308428684 7.61447
46.77668140861147 7.5861600000000005
46.80093972960865 7.62852
46.82538981736788 7.576639999999999
46.849652602470904 7.607
46.87391761349769 7.53061
46.8981848521493 7.545310000000001
46.9226439341274 7.5290300000000006
46.946915650573224 7.50185
46.97118959976749 7.4936300000000005
46.99546578341598 7.472689999999999
47.019933887188216 7.4638100000000005
47.04421456235744 7.4397199999999994
47.06849747711879 7.4651
47.09278263318286 7.42312
47.11725978640143 7.38778
47.14154944775105 7.38617
47.165841355555656 7.3902399999999995
47.1901355115306 7.38025
47.214621741924994 7.350810000000001
47.23892041698887 7.376460000000001
47.26322134538975 7.31796
47.28771440635075 7.318389999999999
47.31201986422527 7.303939999999999
47.33632758061436 7.283460000000001
47.360637557241866 7.27503
47.38513974410611 7.26713
47.40945426407847 7.236460000000001
47.43377104948137 7.212510000000001
47.45809010204344 7.2293199999999995
47.48260144275502 7.22767
47.506925052572285 7.2134
47.53125093475548 7.17364
47.55557909103813 7.186539999999999
47.58009961361992 7.19538
47.60443234110732 7.18162
47.62876734791564 7.155869999999999
47.65310463578333 7.118060000000001
47.6776343683373 7.107130000000001
47.7019762413987 7.09046
47.72632040075572 7.074139999999999
47.75066684815169 7.08533
47.77520581885936 7.054139999999999
47.799556865477655 7.01907
47.823910205386 7.0353
47.84826584033272 7.01877
47.87281407745551 7.012910000000001
47.89717432569297 7.00259
47.92153687423484 6.95477
47.94609208429692 6.9524
47.97045925671401 6.97576
47.99482873471275 6.93215
48.01920052005013 6.951919999999999
48.04376504619224 6.94298
48.068141469543484 6.93647
48.09252020552573 6.921189999999999
48.11690125590099 6.8852199999999995
48.1414751266064 6.907039999999999
48.16586082917454 6.8935
48.19024885144316 6.871989999999999
48.2146391951793 6.832439999999999
48.239222439012764 6.873760000000001
48.26361744916137 6.80545
48.28801478610016 6.8196699999999995
48.31241445160131 6.8058
48.337007097209366 6.79829
48.36141144338331 6.765789999999999
48.38581812345755 6.74453
48.41022713920929 6.7507399999999995
48.434829215320704 6.729439999999999
48.45924292604658 6.719869999999999
48.48365897780325 6.754689999999999
48.50807737237308 6.70482
48.532688907799276 6.73053
48.55711201168574 6.685860000000001
48.581537463754074 6.667610000000001
48.60615611725119 6.67542
48.63058628942721 6.67322
48.65501881516546 6.64423
48.6794536962573 6.595619999999999
48.70408185970339 6.573989999999999
48.72852147531801 6.598739999999999
48.75296345168211 6.58789
48.77740779059232 6.5911800000000005
48.80204549302823 6.60769
48.82649458091802 6.55247
48.85094603676547 6.55779
48.87539986237231 6.519
48.90004713292306 6.5207
48.92450572200832 6.51976
48.94896668628025 6.48471
48.97343002754588 6.48436
48.99808689542115 6.50676
49.02255501470614 6.5000599999999995
49.04702551642794 6.4688
49.0714984023988 6.4349
49.096164896893235 6.46413
49.120642575466796 6.41177
49.145122643748394 6.38709
49.16960510355558 6.38591
49.19428125404938 6.36954
49.2187685210852 6.36585
49.243258185121555 6.36367
49.26794160167084 6.36709
49.2924360839405 6.31579
49.31693296869764 6.29261
49.34143225776915 6.2878
49.36612538195438 6.29703
49.39062950396021 6.28948
49.41513603578346 6.27238
49.4396449792564 6.255330000000001
49.46434784069503 6.255719999999999
49.488861631846454 6.25473
49.513377840166804 6.2062800000000005
49.537896467493745 6.213480000000001
49.56260909589029 6.16343
49.587132585683285 6.16291
49.611658500018365 6.1773
49.636186840738596 6.17929
49.66090926588511 6.16472
49.685442483902584 6.15134
49.70997813385706 6.1318
49.734516217597076 6.1178300000000005
49.75924846937352 6.15145
49.7837914452858 6.13583
49.80833686055187 6.0636
49.83288471702571 6.076630000000001
49.85762682540054 6.077369999999999
49.882179588965734 6.06987
49.9067347993235 6.05815
49.93129245833333 6.03631
49.95604445336378 6.035
49.98060703442832 6.02928
50.005172069746266 5.99791
50.02993150438364 6.01423
50.05450147301533 5.9879
50.07907390151433 5.96758
50.10364879174981 5.93653
50.12841816587289 5.9423699999999995
50.1529980044635 5.97123
50.17758031042124 5.9433300000000004
50.20216508562089 5.94056
50.22694442953363 5.91266
50.25153416817468 5.91746
50.27612638170508 5.90075
50.300721072005196 5.8552599999999995
50.325510416102105 5.85619
50.350110084975064 5.84754
50.37471223628208 5.84959
50.39931687190919 5.84199
50.424116246675766 5.8501
50.44872587605249 5.83776
50.47333799543065 5.79169
50.49795260670191 5.77936
50.52276204271512 5.769880000000001
50.54738166295838 5.7832300000000005
50.57200378079314 5.7598400000000005
50.596628398116835 5.74557
50.62144792604559 5.7103
50.646077567609396 5.70694
50.670709714377715 5.727069999999999
50.69553683636198 5.7458599999999995
50.72017401885922 5.69757
50.7448137122895 5.68389
50.76945591856022 5.67017
50.79429318636823 5.67905
50.818940443716784 5.6912199999999995
50.84359021965163 5.66449
50.868242516085964 5.64007
50.893089960641895 5.59473
50.917747323549435 5.58514
50.94240721271973 5.60694
50.96706963007175 5.59486
50.99192728239342 5.5940900000000005
51.01659478166073 5.59238
51.04126481489051 5.54343
51.06593738400761 5.5831800000000005
51.090805275207074 5.55234
51.11548294172845 5.53376
51.14016314993547 5.51296
51.164845901758845 5.51348
51.18972406304274 5.5196
51.21441192780656 5.50241
51.23910234200271 5.49651
51.2637953075678 5.458069999999999
51.288683770237945 5.44471
51.31338186432707 5.44779
51.33808251561888 5.4290400000000005
51.362978729967345 5.40764
51.387684521509755 5.41633
51.41239287610203 5.40165
51.437103795691165 5.39187
51.46201036644977 5.37683
51.486726441956634 5.37277
51.51144508832545 5.36306
51.536166307509156 5.35661
51.56108326624387 5.3232
51.58580965706056 5.31358
51.61053862657523 5.30056
51.635270176746864 5.31197
51.66019755512065 5.2701
51.68493429268881 5.305630000000001
51.70967361681515 5.29014
51.73441552946465 5.30695
51.759353359237934 5.2843800000000005
51.7841004750961 5.28544
51.80885018539685 5.26001
51.833602492111254 5.22896
51.8585508051424 5.16725
51.883308330926425 5.21669
51.90806845906181 5.16195
51.932831191525715 5.16671
51.95779001977161 5.15379
51.98255798721516 5.14058
52.00732856494335 5.13586
52.03229530577543 5.15781
52.057071130455945 5.1104400000000005
52.081849571391054 5.17312
52.106630630568695 5.1172699999999995
52.13160794279417 5.10905
52.15639426492067 5.10395
52.18118321127822 5.092230000000001
52.205974783860896 5.07491
52.23096269971011 5.04822
52.255759551287994 5.06729
52.280559035098186 5.0652800000000004
52.30536115314103 5.0342400000000005
52.33035970494467 4.99411
52.35516711807904 5.0446
52.37997717147198 5.00106
52.40478986713005 5.010680000000001
52.42979908731974 4.9929
52.454617094216 4.95664
52.47943774942214 4.93648
52.50426105495102 4.94006
52.529280976059844 4.9173
52.554109609024096 4.94112
52.57894089837482 4.91964
52.60377484613117 4.94534
52.62880550079408 4.932180000000001
52.65364479223379 4.9086099999999995
52.67848674816189 4.88492
52.70352547971946 4.90156
52.72837279155837 4.8808
52.753222773982785 4.82716
52.778075429022984 4.84225
52.80312495150885 4.8185199999999995
52.827982978797436 4.82976
52.85284368481815 4.83402
52.87770707160767 4.817080000000001
52.90276741793998 4.79903
52.92763619336701 4.8177
52.952507655698504 4.7826900000000006
52.977381806977576 4.7811900000000005
53.00245301017842 4.774
53.02733256653592 4.77525
53.052214817996074 4.7192
53.077099766608484 4.717890000000001
53.102181859804446 4.73656
53.127072229988265 4.69996
53.15196530349892 4.71366
53.17686108239249 4.70078
53.20195409881522 4.6971099999999995
53.22685531582556 4.673690000000001
53.25175924441303 4.62639
53.27666588664027 4.64757
53.30176985962693 4.643680000000001
53.3266819565689 4.62031
53.35159677336455 4.60059
53.376514312083096 4.62985
53.40162927507703 4.62142
53.42655228516116 4.58628
53.45147802340193 4.57086
53.47660125628886 4.58601
53.50153247842639 4.57296
53.52646643496923 4.54633
53.55140312799818 4.54295
53.576537409691696 4.57329
53.60147960336152 4.5658900000000004
53.626424539786164 4.5337
53.65137222105307 4.52612
53.67651758529126 4.48416
53.70147078399681 4.4713
53.72642673383343 4.46405
53.75138543689533 4.4825800000000005
53.776541917524526 4.47305
53.801506154876755 4.43204
53.826473151763246 4.44221
53.851442910284916 4.43501
53.87661054126026 4.4429300000000005
53.9015858509782 4.39136
53.92656392866066 4.43745
53.95154477641532 4.40338
53.976723591801296 4.36595
54.00171000771266 4.33896
54.02669920004598 4.3826
54.051691170915745 4.3207
54.076881204886796 4.3248
54.101878760928514 4.34129
54.12687910187696 4.29434
54.152077577768296 4.28675
54.1770835166946 4.28279
54.20209224691339 4.27915
54.22710377055121 4.28636
54.25231352511594 4.2815
54.27733066384342 4.234430000000001
54.30235060239643 4.19939
54.32737334290836 4.2392199999999995
54.35259441062629 4.16921
54.377622783395324 4.172680000000001
54.40265396455061 4.157780000000001
54.42768795623251 4.15747
54.45292037169559 4.15455
54.477960012857906 4.16587
54.50300247099511 4.07748
54.52804774825457 4.06538
54.55329154616743 4.07615
54.57834249018678 4.04286
54.6033962597977 4.035019999999999
54.6284528571545 3.98015
54.653708072335164 3.95611
54.67877035378786 3.94271
54.70383546947698 3.9528
54.72890342156389 3.9624300000000003
54.7541700889442 3.99655
54.77924374251975 3.96345
54.8043202390049 3.93641
54.82959552413022 3.8982099999999997
54.8546777351945 3.9742699999999997
54.87976279569621 3.86121
54.90485070780914 3.8886
54.930137506558005 3.88824
54.95523115074295 3.88511
54.98032765308844 3.7861
55.005427015775496 3.78855
55.03072536339621 3.8187800000000003
55.05583047570572 3.7465699999999997
55.080938454927676 3.75967
55.10604930325027 3.7608699999999997
55.131359235107396 3.7382800000000005
55.15647585066083 3.71916
55.181595341907496 3.6732699999999996
55.20671771104285 3.6998300000000004
55.232039262617704 3.65869
55.25716741665048 3.62875
55.28229845518636 3.6385099999999997
55.30743238042802 3.5836099999999997
55.33276558731939 3.5592
55.357905315183636 3.5944599999999998
55.383047936390035 3.52198
55.40819345314859 3.5369599999999997
55.433538351073295 3.54264
55.458689688238415 3.4923300000000004
55.483843927614096 3.4468099999999997
55.509197623043605 3.49168
55.53435769621134 3.46145
55.55952067826466 3.3868099999999997
55.5846865714265 3.38562
55.61005202069737 3.38291
55.63522376553902 3.44225
55.66039842818645 3.3763
55.68557601087004 3.4064099999999997
55.7109532500271 3.38159
55.73613670233794 3.35785
