TT I
1.2716486653135266 7.74896
1.2939594142134223 7.408119999999999
1.3162702121660406 6.52864
1.3385810600174564 6.637689999999999
1.3608919586137629 6.784910000000001
1.383202908801069 6.40678
1.405513911425503 5.72005
1.4278249673332093 5.77504
1.4501343378461518 6.12172
1.4724455028545926 6.01312
1.4947567236847858 6.43326
1.517068001182951 6.09251
1.5393793361953272 5.407719999999999
1.5616907295681737 6.20046
1.5840021821477681 5.61851
1.60631369478041 5.66539
1.6286252683124185 5.514130000000001
1.6509369035901333 4.60986
1.6732468618895553 4.90921
1.695558623192809 4.69069
1.7178704487808514 5.41258
1.7401823395001077 5.35899
1.7625012545597203 4.5845199999999995
1.7848028405262486 4.953469999999999
1.8071218901122095 4.83229
1.8294236121921872 4.727869999999999
1.8517427996910911 5.1550199999999995
1.8740620574440425 5.05361
1.8963639900671978 5.02458
1.9186833908139995 4.72614
1.9409854680117449 4.72325
1.9633050151394713 4.98869
1.9856246367570705 4.8098
2.0079269371922672 5.04504
2.03024671027244 4.94984
2.0525491637446027 4.58951
2.074869091674931 4.8106599999999995
2.097171701569106 4.41027
2.1194917877373847 4.88165
2.141811954326636 4.59411
2.164114805233074 4.7483
2.186435135143035 6.54326
2.208738150935709 16.1961
2.231058647554722 33.9513
2.2533792288321184 26.2636
2.275682498336085 12.1084
2.298003251406138 6.4515199999999995
2.3203066942619714 5.449409999999999
2.3426276225136022 5.46632
2.3649486396617507 5.57559
2.387252348930071 5.51664
2.4095735463442893 5.17404
2.4318774374315884 6.0743
2.4541988185014043 6.43956
2.476502894794693 6.91989
2.498824462909887 7.02757
2.521146125856138 6.426880000000001
2.5434504863470337 6.22381
2.5657723414244717 7.425960000000001
2.588076895590662 8.12481
2.610398946189713 8.49836
2.6327210958598384 8.41398
2.6550259469304716 7.67058
2.6773482972090137 7.932339999999999
2.6996533504259 8.46641
2.7219759047039602 8.284360000000001
2.744298562293959 7.675510000000001
2.7666039251246595 7.5796
2.7889267918020164 8.21649
2.8112323652516555 8.47903
2.833555444408179 8.95021
2.8558786311183852 8.411660000000001
2.8781845268938557 8.61433
2.9005079311721484 9.03004
2.9228140460410397 8.66655
2.9451376712799635 8.86866
2.967444008632326 9.89887
2.9897678582247247 10.0157
3.0120918213106695 10.1426
3.0343984987899373 10.9146
3.0567226913198637 11.3238
3.079029599759726 11.797
3.101354025127254 12.2474
3.123678568232338 13.0249
3.145985829517914 13.0473
3.16831061055229 13.83
3.1906181112775593 14.5862
3.212943133635653 15.0147
3.2352682779763207 15.2087
3.2575761442691227 15.363
3.2799015350264273 15.6724
3.302209649240067 16.7147
3.3245352898092655 16.9875
3.3468436553365257 17.5809
3.369169549113219 17.9992
3.3914955708171384 18.9682
3.413804319727358 19.1967
3.4361305997334863 19.6482
3.4584396084414553 20.5287
3.4807661501462652 20.4132
3.503092824025881 21.2798
3.5254022288463154 21.4439
3.5477291695206588 22.3597
3.5700388426251948 22.7742
3.5923660534916446 24.6795
3.6146934007816114 42.5212
3.637003482731501 105.54799999999999
3.6593311053109985 118.314
3.681641464033634 66.4033
3.7039693653009733 32.9553
3.726297407241705 26.5169
3.7486081875460804 26.2331
3.7709365132734978 26.5447
3.793247578841633 26.8795
3.8155761917550093 26.9948
3.8378875459837216 27.4657
3.8602164494827234 27.718000000000004
3.882545499606844 28.7787
3.9048572932539183 29.4365
3.9271866390645718 29.4847
3.9494987298666713 30.4057
3.971828374764527 31.465999999999998
3.9941581705403255 31.4461
4.016470713506008 31.9311
4.038800813471445 32.6705
4.061113662089144 32.9811
4.0834440696459176 33.9384
4.105774632334751 34.6352
4.128087945865126 35.6819
4.150418821249301 36.2829
4.172732448931298 37.6757
4.195063640413578 39.9664
4.2173775856475215 45.0385
4.239709096631102 83.1398
4.262040768704612 285.207
4.284355196706267 395.75800000000004
4.306687193387355 250.77200000000002
4.329001947444346 92.2501
4.35133427213731 50.49100000000001
4.373666762177566 45.886
4.395982011761091 45.2222
4.418314834921175 46.5245
4.44063041906622 55.8935
4.4629635787515625 70.3978
4.4852969080429785 70.1327
4.5076130004776225 56.4141
4.529946671403969 51.4222
4.552263106909177 50.6067
4.574597122877047 51.5867
4.596931312711224 53.1248
4.619248269273446 53.9666
4.6415828092605835 54.8575
4.663900117405352 55.8693
4.686235010953232 57.1661
4.708552674085913 58.8394
4.730887924602802 59.9884
4.753223354952695 61.6583
4.775541557023902 62.6776
4.797877349456786 64.3404
4.820195915032126 66.5923
4.842532072957498 68.0527
4.864868414979744 69.9935
4.88718753227192 72.0644
4.909524244902505 73.9091
4.931843734218147 75.611
4.954180820867835 78.0713
4.976518095879839 81.1833
4.998838149695359 84.3643
5.021175803844231 88.1151
5.043496238205739 90.9919
5.065834274903528 95.0518
5.088172504230693 100.65299999999999
5.1104935158799565 107.70299999999999
5.132832132875765 133.55
5.155153533596801 186.81900000000002
5.1774925416746225 226.206
5.199814334878411 380.756
5.2221537374521505 1053.12
5.244493338631803 2839.95
5.266815727034316 7265.3
5.289155727832427 11895.3
5.311478517248165 9150.25
5.333818921080011 3290.43
5.356159527788849 672.8610000000001
5.3784829252032536 205.66400000000002
5.400823940070432 153.113
5.423147747031976 133.836
5.445489173474152 123.14200000000001
5.467830807066149 116.189
5.490155234831516 111.699
5.512497285125229 107.805
5.534822130975162 105.796
5.557164601388673 103.48700000000001
5.579489868738879 101.13799999999999
5.601832762690846 99.9982
5.6241758697774475 99.3953
5.646501775867269 98.11399999999999
5.668845311622074 96.5914
5.691171647754637 95.6668
5.713515615597765 94.5453
5.735859800852677 93.314
5.758186788542988 92.1495
5.780531411018185 92.7176
5.802858837297399 92.031
5.825203900414495 92.7932
5.8475491852224 92.5308
5.869877275883075 93.2148
5.892223006467101 94.0834
5.914551544266608 95.2542
5.936897724049891 98.1858
5.959244129804903 103.196
5.981573344815301 121.874
6.0039202049061 210.88099999999997
6.026249875609095 461.51199999999994
6.04859719346037 975.7539999999999
6.070927323278297 2121.44
6.093275102315365 4144.19
6.115623113320588 5311.11
6.137953938319995 3498.23
6.160302415650845 1212.75
6.182633708324452 297.962
6.2049826554078376 125.85799999999999
6.227331838745022 97.2936
6.249663839443684 88.4916
6.27201349767565 85.7065
6.294345974611799 93.6961
6.316696111167083 108.846
6.339046488263839 102.525
6.361379686074702 83.9719
6.383730546639482 73.822
6.406064229255215 69.9611
6.428415576718203 69.2949
6.450749747566656 68.0598
6.47310158535871 67.2305
6.495453669698332 66.7234
6.517788579421056 65.8139
6.540141159237969 64.8794
6.562476565766648 64.0895
6.5848296444934045 63.8318
6.607182974060425 63.7012
6.6295191323281015 64.0003
6.651872965955752 68.2493
6.6742096296068985 100.954
6.6965639707294615 160.379
6.71891856698715 161.124
6.741255995248479 105.323
6.763611104154477 71.6147
6.785949046381137 61.6917
6.808304671371482 59.6364
6.8306605557940046 59.0986
6.852999275508618 57.9967
6.875355681171544 58.0435
6.897694923437771 58.1923
6.92005185377892 57.8393
6.9423916220322655 57.3079
6.964749080490181 56.7117
6.987106804399774 56.8926
7.009447368180821 56.8659
7.031805625367033 56.3503
7.054146723727803 56.537
7.076505517631004 56.0539
7.098864581288365 56.4835
7.121206488070854 56.2962
7.143566093607822 56.1067
7.165908543567245 56.4605
7.188268694426048 56.656000000000006
7.2106291193438095 56.8866
7.232972390625943 58.3428
7.255333366030969 73.2716
7.277677189091925 142.34799999999998
7.300038718428332 205.53900000000002
7.322400526130865 170.203
7.344745183422596 100.339
7.367107550224791 65.2195
7.389452767901992 58.1139
7.411815697249891 56.8814
7.434161478756298 55.6449
7.456524974096713 55.4056
7.478888753837185 55.0964
7.501235387657368 55.7411
7.523599738562711 55.869
7.545946944825532 55.6724
7.568311870344528 56.1095
7.5906770845765665 56.3843
7.613025156078678 58.0799
7.635390950099687 59.6091
7.657739602662809 58.5136
7.680105979923558 57.2386
7.702472650212829 57.06399999999999
7.724822180948224 56.5248
7.747189439655568 56.7131
7.769539560075357 56.7826
7.791907410653562 57.4472
7.81425812420825 57.5387
7.836626570110925 57.5673
7.858995315087906 58.4776
7.881346924933401 58.2885
7.903716270417482 58.8501
7.926068482028405 59.3269
7.948438431475253 60.1451
7.9708086843180235 60.3143
7.993161805171116 60.9697
8.015532667162402 61.6156
8.037886398416653 62.6188
8.060257873014221 63.1673
8.082629655331942 63.6927
8.104984308787587 64.6009
8.127356708900503 68.7754
8.149711981398308 75.6146
8.172085002766314 78.6355
8.194458336181368 74.1056
8.216814543847752 70.6493
8.23918850371002 70.2345
8.26154533906492 71.0882
8.283919928836452 72.4673
8.306277395339652 73.6202
8.328652618483376 74.6869
8.351028159736202 76.5644
8.373386579575245 79.1566
8.395762759396959 81.2778
8.418121819038275 86.8323
8.440498640894003 102.848
8.462875785192262 120.152
8.485235811156207 130.30100000000002
8.507613602688501 165.972
8.529974277114228 253.042
8.552352719347912 387.689
8.574731488360351 645.0930000000001
8.59709314210385 1132.46
8.619472567021075 1768.87
8.64183487789147 2140.11
8.664214962183097 1915.86
8.686577933647762 1063.8
8.708958680784317 424.62199999999996
8.731339760774953 191.11
8.753703729764451 118.91
8.77608547780821 102.18700000000001
8.798450116065078 98.0855
8.820832535634787 94.9038
8.843215292401656 92.552
8.865580941199045 91.1363
8.887964374703538 89.9378
8.910330701447199 91.3381
8.932714815164482 94.6364
8.955099270424924 94.01799999999999
8.977466620733543 89.8156
8.999851761421976 86.5717
9.022219798361645 85.0459
9.04460562795561 84.5508
9.066991803441677 83.9154
9.089360876979615 83.4771
9.111747746589993 83.4218
9.13411751544971 82.8106
9.156505082664324 82.3505
9.178875550323522 83.1187
9.20126381862328 83.5366
9.223652438908596 83.9211
9.246023961427412 83.6252
9.26841328802173 82.7173
9.290785518039224 82.9449
9.313175554425882 83.2511
9.335565947154315 83.234
9.357939245086508 83.8044
9.380330352834827 83.7209
9.40270436697103 84.1109
9.425096193225055 84.1276
9.447488380180165 85.0164
9.469863475295412 85.1291
9.492256385987508 85.4324
9.514632206018318 85.9286
9.537025843935714 86.3567
9.559402392368193 86.8414
9.581796761000229 87.8592
9.604191496441521 89.0379
9.626569144158516 93.36399999999999
9.648964615551032 99.2239
9.671343000390081 101.17399999999999
9.693739211225699 98.2561
9.716135793237463 94.8266
9.738515290448102 94.2132
9.760912617143402 94.9241
9.783292860202891 96.2608
9.805690935076182 97.2058
9.828089385495742 98.3063
9.850470754023561 101.14399999999999
9.872869957865444 110.19
9.89525208097539 128.825
9.917652041736662 144.642
9.940052382417589 142.409
9.962435644102392 144.162
9.984836746950979 176.926
10.007220771957746 241.043
10.029622640473708 342.712
10.052007432299963 510.551
10.074410069984072 771.7689999999999
10.096813093716005 1184.65
10.119199042482517 1627.84
10.141602840636468 1909.5
10.163989564971628 1645.82
10.186394141051062 993.967
10.208799107559706 450.086
10.231187001965623 213.524
10.253592751657669 135.172
10.275981430388155 117.01100000000001
10.298387966769793 116.59700000000001
10.320794897965431 120.117
10.343184759907361 118.807
10.36559248305461 111.646
10.387983138083852 106.208
10.410391656691655 108.359
10.432800574501677 118.8
10.455192425893369 135.537
10.47760214443012 160.01
10.499994797678786 201.657
10.522405320453982 274.342
10.54479877906917 382.25
10.567210109595656 492.319
10.5896218454736 560.151
10.612016518879773 532.896
10.634429067781074 381.592
10.656824555333241 224.669
10.679237920773568 135.204
10.701651695961992 99.8554
10.724048411481384 91.2688
10.746463008485165 88.081
10.768860546937125 86.5396
10.791275969274796 84.5835
10.81369180576079 83.2118
10.836090585366925 82.3092
10.858507252467449 81.2104
10.88090686379991 80.3251
10.903324365036394 79.6315
10.925724811614439 79.794
10.948143150509463 81.3253
10.970561909719066 80.7423
10.992963615930844 78.5674
11.015383218085756 75.8699
11.037785768347074 74.3358
11.06020621697282 73.9723
11.082627090322113 73.4006
11.105030913430326 72.8151
11.12745263854165 73.6667
11.149857314510728 78.2126
11.172279894912576 86.0883
11.194702904450653 87.3756
11.217108866490921 82.0016
11.239532736615194 76.9118
11.26193956033512 73.9972
11.284364294577085 71.9371
11.306789462371718 69.7218
11.329197585398376 68.178
11.351623622610898 67.5973
11.37403261614354 66.8935
11.396459526308487 67.0283
11.418869393879497 66.5751
11.441297180532617 66.1692
11.463725406927658 65.9012
11.486136592353875 65.888
11.508565700543707 66.4609
11.530977768845315 68.7805
11.553407762368774 70.1966
11.575838200059769 69.3398
11.598251599479612 66.9431
11.620682927815501 65.0336
11.64309721895548 64.5706
11.665529441478206 64.1919
11.687962112597958 63.7789
11.710377748130886 63.8385
11.732811318753434 63.9223
11.755227854859067 63.6412
11.777662328529495 63.5263
11.800079768750786 63.5848
11.822515149015453 63.3517
11.844950984084935 63.6003
11.867369787303163 63.0646
11.889806534289491 63.1336
11.912226250487029 63.4678
11.934663912939751 63.6834
11.9571020346363 63.7559
11.979523127133968 63.5139
12.001962169624331 64.1382
12.024384183972964 65.3812
12.046824150809913 68.4346
12.069264581333726 73.6858
12.091687985297767 80.3785
12.11412934550045 89.4376
12.136553680195208 103.27799999999999
12.158995973632788 123.35700000000001
12.181438735204349 149.885
12.20386447284199 178.965
12.226308172985636 203.907
12.24873485024193 207.30200000000002
12.271179492516982 176.832
12.293607112949127 138.11700000000002
12.316052700916226 103.334
12.338498763250042 83.3712
12.360927805303868 73.0152
12.383374818673879 68.2392
12.405804812803074 65.7371
12.428252780773262 65.3892
12.45070122756722 65.2982
12.473132656675375 65.1148
12.49558206341869 65.3216
12.518014453510101 65.1928
12.540464823770117 65.2258
12.562915677315177 65.4722
12.58534951575545 66.5468
12.607801338171472 69.1908
12.630236146511358 75.4001
12.652688941369085 82.1084
12.675124723177234 82.3391
12.697578494048786 77.3246
12.720032754458185 71.5708
12.742470003354093 69.1146
12.764925245138771 68.6606
12.787363476431278 68.6559
12.809819703166806 69.1384
12.83227642391173 69.8256
12.854716135692716 70.5448
12.877173846755147 71.7855
12.899614549869717 71.877
12.9220732548287 72.539
12.94453245827299 72.6503
12.966974655289818 74.082
12.989434858002571 74.6578
13.011878055298721 75.4092
13.034339260862497 76.5242
13.056800969391883 78.0283
13.079245674017244 79.6939
13.101708390774869 81.8584
13.12415410463411 88.5156
13.146617833206086 100.45299999999999
13.169064559883248 112.904
13.191529303857127 127.271
13.213994557076367 148.811
13.236442809902437 181.963
13.258909083908291 230.183
13.28135835851934 287.85
13.30382565690295 352.445
13.326293469022952 413.038
13.348744283242008 432.601
13.371213125129904 383.16
13.39366497011003 285.803
13.416134845360597 191.86700000000002
13.438605238843131 132.201
13.46105863690397 109.426
13.483530069144786 107.04
13.505984506951902 111.666
13.528456981549432 121.226
13.550929978879088 135.184
13.573385983253365 156.69299999999998
13.595860028340867 191.845
13.618317081455832 237.983
13.64079217790333 287.559
13.663250283359057 334.033
13.685726434770173 362.57199999999995
13.708203115221277 344.087
13.730662806148091 280.393
13.75314054697177 202.37099999999998
13.775601299246777 140.11
13.798080104050406 103.26799999999999
13.820559442405358 87.7554
13.843021793671388 83.1129
13.865502201420897 81.2761
13.887965623051947 80.5122
13.910447103807167 79.7241
13.932929122629764 78.1078
13.955394156785959 77.7302
13.977877254034569 76.5796
14.000343367582113 75.8852
14.022827546871707 75.1503
14.045294743423524 74.5583
14.06778000837062 73.8924
14.090265817715476 73.7437
14.112734645763819 73.7482
14.13522154619454 73.3192
14.157691466286913 73.5478
14.180179461423874 73.4111
14.202668005486178 72.4984
14.22513957064374 71.8819
14.247629214846473 71.3139
14.270101881097517 71.0572
14.29259262906496 71.6032
14.315083930490205 72.4788
14.337558255389705 72.9481
14.360050666019726 72.5809
14.382526101071944 71.3635
14.405019624534942 70.3223
14.427513705993134 69.5867
14.449990813291825 69.514
14.47248601302899 69.3031
14.49496423954951 69.3631
14.517460561197822 69.5384
14.539939910570322 69.4023
14.562437357763558 70.1152
14.58493536931253 71.4608
14.607416409993311 72.4379
14.62991555254159 73.2113
14.652397725157423 72.9701
14.674898002342799 71.9128
14.697398848433282 71.4031
14.719882725991326 71.9518
14.74238471217934 72.8444
14.764869730765593 75.7438
14.787372860692983 79.0219
14.809876564079925 83.72399999999999
14.83236330125751 89.4503
14.854868153850365 97.7595
14.877356041159485 109.631
14.899862046604186 126.71
14.922351087688757 148.767
14.944858249632887 174.36599999999999
14.967365991421232 199.00400000000002
14.989856770231246 218.91
15.012365673994204 217.09
15.03485761569738 194.61900000000003
15.05736768508665 156.175
15.07987833888692 120.354
15.102372032001655 95.0034
15.124883856909658 79.5943
15.14737872204565 73.8291
15.169891721717274 71.6387
15.192405310371893 71.6793
15.214901940621196 72.1873
15.237416709527137 72.4209
15.259914520936249 72.555
15.282430473753607 71.6889
15.304947020131227 70.3559
15.327446610371178 69.0767
15.349964346154254 68.0528
15.372465126703139 67.7165
15.394984055556009 67.4139
15.417486030076159 67.161
15.44000615566487 66.9856
15.462526881230803 66.8473
15.485030653812652 67.0486
15.507552581617434 67.4543
15.530057557334603 67.4868
15.55258069104857 67.1578
15.575104429329837 66.8759
15.597611216864632 66.506
15.620136166564563 66.5301
15.6426441664095 67.3895
15.665170331202765 69.661
15.687697105158826 72.7724
15.710206930593545 76.1574
15.732734925158933 80.3556
15.755245972089478 86.2925
15.77777519094324 94.5699
15.800287463046663 106.345
15.822817909869592 123.28200000000001
15.84534897229804 142.567
15.867863089299354 165.365
15.890395385222186 181.217
15.912910736597423 193.981
15.935444269699861 186.274
15.957978423016485 163.222
15.980495633101265 131.97299999999998
16.003031029129367 103.46799999999999
16.02554948280019 81.4651
16.048086125229432 70.5617
16.070623392487107 66.9633
16.09314371869582 66.1615
16.11568223789321 65.4183
16.13820381691126 64.0713
16.160743591742527 62.8145
16.183283996022084 61.5371
16.205807461423195 60.4393
16.228349126881973 59.8186
16.25087385432698 59.7854
16.27341678466365 59.0835
16.29594277784926 59.2073
16.31848697676433 59.838
16.341031811604868 60.178999999999995
16.36355971058487 60.4813
16.3861058195587 60.2007
16.40863499352978 58.8616
16.431182380342005 57.8977
16.453730407713202 57.1042
16.476261501364792 56.7312
16.498810812136167 56.3548
16.52134319004079 56.3721
16.54389378792203 56.2332
16.566445031001553 56.0028
16.588979342490088 55.7945
16.61153187824822 55.7212
16.634067483263312 55.6765
16.656621315414416 55.6751
16.679175797408888 55.1198
16.701713349928728 55.3268
16.72426913389191 55.7237
16.74680798922351 55.7896
16.76936507887444 55.7625
16.791905240734874 55.8202
16.814463639794468 55.67100000000001
16.837022695210294 55.5111
16.859564824093756 56.1058
16.882125194503903 56.8934
16.904668639217885 57.6705
16.927230328348003 57.8815
16.949792678493612 57.9843
16.972338104193863 57.2236
16.994901778652235 56.4975
17.017448529496576 56.596000000000004
17.040013531998152 56.2881
17.06257920018044 56.8535
17.0851279459922 57.5539
17.107694947817667 58.5475
17.130245028099072 59.2001
17.15281336730298 60.6334
17.17536478578733 62.195
17.19793446610687 64.3668
17.220504818648422 66.8638
17.243058251703697 69.579
17.265629950971032 73.8284
17.288184731571736 78.2362
17.310757781306908 82.1405
17.33333150794385 83.3667
17.355888317140174 82.4242
17.37846339986244 78.9722
17.401021565958885 72.7323
17.42359800851343 67.7421
17.44617513265564 63.5651
17.468735341390783 60.9909
17.491261035594565 59.9626
17.51396340099364 59.8135
17.536490463869136 59.8103
17.559018209820174 59.9097
17.58154663977963 60.0863
17.604251766089718 59.9812
17.626781572227713 60.2811
17.64931206518155 60.6242
17.671843245885103 60.9945
17.69455114821572 61.4812
17.717083712612634 61.7716
17.739616967569667 61.8238
17.762150914021706 61.9728
17.78486160749854 61.9576
17.807396945166804 62.4209
17.829932977143503 63.2133
17.85246970436452 64.8555
17.875183204129467 66.5596
17.897721330097664 68.7822
17.920260154126645 71.2486
17.942799677153296 74.2994
17.9655159983646 77.753
17.988056927677544 82.5876
18.010598558807683 89.3923
18.033140892692916 98.2722
18.05586005052525 107.366
18.07840379824407 118.35
18.10094825154059 129.226
18.12366954819864 137.495
18.146215420998306 140.724
18.16876200220057 135.304
18.191309292745153 122.305
18.214033452627167 108.073
18.236582170236648 95.0834
18.259131600016456 88.0778
18.281681742907335 86.9882
18.304408781233683 90.2179
18.32696035875955 94.8833
18.349512652227624 99.5679
18.372065662579683 104.29700000000001
18.394795594587553 106.477
18.41735004715306 105.17299999999999
18.43990521943684 99.352
18.46246111238171 90.7084
18.485193953325208 80.5002
18.507751296070428 72.5775
18.530309362314178 67.5632
18.552868153000343 64.8336
18.57560391815056 63.2941
18.59816416623245 62.7026
18.620725141597372 62.0913
18.643286845190268 61.5294
18.666025549835414 61.2001
18.688588718427933 60.623000000000005
18.711152618092243 60.318000000000005
18.73389353884365 60.2588
18.75645890921984 59.8009
18.77902501351406 59.5257
18.801591852673102 59.3859
18.824335739722738 58.7981
18.846904057212626 58.7801
18.8694731124168 58.4669
18.89204290628315 58.2981
18.914789774966803 58.1332
18.937361054791623 58.0045
18.959933076131318 57.638999999999996
18.982505839934877 57.7342
19.00525570560582 57.8725
19.027829963004184 57.5989
19.05040496572238 57.6801
19.072980714710468 57.6078
19.095733592739563 57.6725
19.11831084296757 57.8876
19.140888842324735 58.7135
19.16346759176222 59.0681
19.18622349753803 59.4828
19.208803755869358 60.2491
19.231384767143577 61.1657
19.253966532312948 62.5856
19.276725481241822 64.2641
19.29930876296784 66.3401
19.3218928014549 69.4244
19.34465404436217 72.4241
19.36723960516257 75.3534
19.389825925592426 76.8093
19.412413006605938 76.7982
19.43517731967805 73.8887
19.457765930683355 70.0269
19.48035530514408 64.9591
19.50294544401556 60.9139
19.525712842708348 58.0322
19.54830451925909 56.2318
19.570896963095727 54.7938
19.593490175174704 54.5526
19.616260674962184 54.5817
19.638855432416964 53.9926
19.661450960992624 54.4508
19.68404726164677 54.3201
19.706820878021247 54.1505
19.729418731756834 54.1783
19.752017360452857 53.8869
19.77461676506804 54.21
19.797393513540218 54.2453
19.819994478951667 54.6044
19.84259622316767 55.0016
19.8651987471481 55.3938
19.887978643247177 55.8404
19.91058273574792 56.0557
19.933187610901943 56.7566
19.955969879466828 57.8569
19.97857632894404 59.1322
20.00118356396599 60.4458
20.023791585494575 62.3569
20.046577028914875 64.9143
20.069186632506966 66.937
20.091797025500632 69.0994
20.114408208858933 70.4296
20.137196842715273 70.6395
20.159809615886765 69.473
20.18242318232135 66.9116
20.20503754298326 64.5476
20.227829382875154 63.1916
20.250445341109344 62.658
20.27306209647285 63.0645
20.29567964993108 64.01899999999999
20.31847471147704 64.8458
20.34109387027612 66.2529
20.363713830075454 65.9392
20.386334591841646 65.1095
20.409132890679302 62.7992
20.431755265564437 59.4918
20.454378445325528 56.8081
20.477002430930366 54.7338
20.499803982716553 53.4474
20.522429589228004 52.6295
20.54505600449589 52.1529
20.567683229489194 51.7818
20.590488049900088 51.3247
20.61311690359731 50.9578
20.63574656993626 50.7253
20.658553853717297 50.4572
20.681185154618298 50.4247
20.703817271080066 50.188
20.72645020407368 49.6876
20.749260783967177 49.7336
20.771895359337133 49.8623
20.794530754161617 49.6864
20.817166969412938 49.6622
20.83998086114876 49.4119
20.86261872660049 49.2718
20.885257415405402 49.2729
20.90789692853701 49.153999999999996
20.930714147864748 49.1653
20.953355319030678 49.2391
20.97599731745334 49.4749
20.99864014410749 49.1891
21.021460706796564 49.1592
21.044105199328826 49.551
21.06675052302631 49.6278
21.089396678865015 49.8145
21.112220600704806 49.8956
21.134868430275347 50.2006
21.15751709492456 50.5244
21.180166595629693 50.9057
21.202993892429635 51.3597
21.22564507473034 51.516000000000005
21.24829709602816 51.9922
21.27112693608965 52.1409
21.293780644891275 52.162
21.316435195634053 51.5606
21.339090589297417 51.0282
21.361923832041875 50.4686
21.384580921090404 49.7854
21.407238856007325 49.1854
21.429897637773326 49.0154
21.45273429906592 48.8977
21.475394784108598 49.0865
21.498056118951983 48.9089
21.520718304578022 49.1286
21.543558400304388 49.1886
21.566222297108816 49.3258
21.58888704765135 49.6235
21.61155265291521 49.6938
21.63439619898156 50.3424
21.657063523335786 50.2944
21.67973170537063 50.7307
21.7024007460706 51.3744
21.72524775840385 52.0432
21.747918526116475 53.0093
21.770590155457388 54.1389
21.79326264741238 55.5006
21.816113141960237 57.0886
21.838787368860547 58.8974
21.861462461341976 60.6132
21.884315579735777 62.5716
21.90699241312273 63.957
21.92967011506078 64.9862
21.95234868653799 65.0308
21.9752053151131 64.5592
21.997885635446785 62.8404
22.020566828293532 60.7237
22.04324889464272 58.8451
22.066109049404666 57.4479
22.088792872571794 56.7249
22.111477572219204 56.5224
22.1341631493376 56.6545
22.157026846313123 56.4307
22.179714188221507 56.0155
22.202402410582668 55.2971
22.22509151438863 53.8678
22.24795876962584 52.3499
22.270649646204486 51.5179
22.293341407213727 50.6995
22.316034053646906 50.0546
22.338904883215342 49.7492
22.36159931041458 49.9001
22.38429462602756 49.7169
22.40699083104897 49.7208
22.429865251039757 49.6853
22.452563244831367 49.5875
22.47526213102522 49.5159
22.49813925616515 49.4099
22.520839937143307 49.1895
22.543541513520587 49.0823
22.56624398629403 49.2004
22.589124730075895 49.0719
22.611829005656723 49.2245
22.63453418063466 49.1478
22.657240256008077 49.4004
22.680124634582935 49.5632
22.70283252079775 49.7875
22.725541310413075 50.1757
22.74825100442868 50.3805
22.771139033969575 50.7361
22.79385054687155 50.9379
22.81656296718292 51.5439
22.83927629590484 52.2677
22.862167992606945 53.2127
22.88488314827121 54.3311
22.907599215359284 55.1675
22.93031619487366 56.1167
22.953211574954405 57.2391
22.975930389478226 58.17100000000001
22.998650119445763 58.6312
23.02137076586092 58.3788
23.044269845560063 57.2858
23.06699233506288 55.723
23.089715744034912 53.8502
23.112617610931565 52.1389
23.135342869061212 50.8993
23.158069049684816 49.8721
23.1807961538087 49.4207
23.20370174880544 49.4048
23.226430710184808 49.3766
23.249160598093425 49.4576
23.271891413539002 49.4158
23.294800752937697 49.339
23.31753343374794 49.6228
23.340267045128353 49.6577
23.36300158808808 50.0488
23.38591468821339 50.3144
23.408651104658304 50.7817
23.431388455719986 51.1249
23.454126742409 51.868
23.4770436196085 52.7785
23.499783787914662 53.9737
23.522524894889884 54.8354
23.54526694154616 55.7774
23.56818761219047 57.0923
23.59093154860734 57.6734
23.613676427751283 58.2722
23.636422250635754 57.9228
23.659346731118656 56.8469
23.68209445191868 54.9427
23.704843119509587 52.7938
23.72759273490623 50.8416
23.750521041644767 49.1073
23.77327256312355 47.9041
23.796025035462787 47.3389
23.818956224555475 46.7621
23.841710609113413 46.6599
23.86446594758979 46.4024
23.887222241002014 46.1583
23.910157285144578 45.8754
23.932915498962537 45.9629
23.955674670778713 45.6016
23.978434801611975 45.3827
24.001373717286125 45.2115
24.024135776723917 45.2759
24.046898798245582 45.0284
24.06966278287146 44.96
24.092605586582614 44.823
24.115371508023642 44.6204
24.1381383956401 44.5675
24.16090625045381 44.6385
24.183852958731244 44.5271
24.206622758582608 44.4354
24.229393528706886 44.1957
24.252165270127392 44.3023
24.27511589952438 44.1558
24.297889594216997 43.9958
24.32066426328598 43.7735
24.34343990775613 43.7669
24.36639447485003 43.797
24.38917208083877 43.7377
24.41195066531332 43.5496
24.43490819850244 43.6865
24.457688750692377 43.5114
24.48047028445616 43.2686
24.503252800821233 43.5904
24.526214300784112 43.6453
24.548998793132213 43.446000000000005
24.57178427117417 43.4511
24.59457073593893 43.4732
24.617536219319863 43.4478
24.64032466834748 43.451
24.663114107195035 43.3381
24.685904536893013 43.0742
24.708874020360852 43.055
24.731666442613744 43.0194
24.754459858818787 42.8888
24.777254270007962 42.8727
24.80022777025625 42.858000000000004
24.82302418230472 42.7383
24.845821592443674 42.718
24.86862000170663 42.6729
24.891597535453727 42.641999999999996
24.914397953892728 42.8614
24.93719937456671 42.7231
24.96000179851076 42.6723
24.98298338249997 42.9367
25.00578782394922 43.1855
25.028593271784167 43.3852
25.05157790644186 43.615
25.07438537804115 43.7938
25.097193859145293 43.9657
25.120003350792075 44.1556
25.142992065061257 44.4835
25.165803588823465 44.8463
25.18861612625217 44.9647
25.211429678386736 45.033
25.234422489079968 45.1912
25.257238081693636 45.3794
25.280054692141732 45.3226
25.3028723214652 45.3617
25.325869245420463 45.3936
25.348688923599397 45.4158
25.371509623787006 45.4722
25.394331347025812 45.233000000000004
25.41733240110666 44.8872
25.440156181590016 44.1901
25.46298098826268 43.7884
25.48580682216873 43.1456
25.50881202326435 42.6382
25.53163992281684 42.0828
25.55446885274561 41.7368
25.577298814096377 41.38399999999999
25.600308179121807 41.3585
25.623140214533745 41.3948
25.64597328451537 41.176
25.66898578564376 40.9949
25.691820936010206 40.9963
25.714657124097695 40.9836
25.737494350954734 40.913000000000004
25.760511045684957 40.927
25.783350361364224 40.9284
25.806190718969255 41.044
25.82903211955018 41.2316
25.852053024868923 41.4233
25.874896522722523 41.2272
25.897741066713106 41.1984
25.920586657892454 41.1758
25.943611790812668 41.3299
25.966459487728237 41.4923
25.989308234998564 41.474
26.01215803367705 41.7227
26.03518741123814 41.8355
26.05803932412957 41.9521
26.080892291600094 41.9404
26.10374631470478 41.9167
26.12677995397268 42.2281
26.14963609978026 42.3667
26.172493304397875 42.0812
26.19535156888223 41.7964
26.218389486949604 41.3381
26.241249882640123 41.0463
26.26411134137826 40.7377
26.28715248187403 40.7657
26.31001607820869 40.6027
26.3328807407756 40.4724
26.35574647063438 40.6457
26.37879191991473 40.4397
26.401659795896734 40.5013
26.424528742360263 40.7894
26.447398760366614 40.8755
26.470448535598294 41.0543
26.49332070826805 41.2743
26.516193955675355 41.3867
26.53906827888316 41.6862
26.562122397260108 41.8176
26.584998883685063 41.9788
26.607876449110325 42.3496
26.63075509460056 42.4142
26.65381357334404 42.4778
26.67669439061878 42.5305
26.699576291163382 42.5386
26.722459276044212 42.4884
26.745522132402975 42.1887
26.768407297649354 41.9546
26.791293550442003 41.5669
26.814180891848974 41.3793
26.837248143099337 40.9714
26.860137673466657 40.9651
26.88302829566349 40.6425
26.90592001075963 40.614000000000004
26.92899167420566 40.4538
26.951885586870763 40.1575
26.974780595655517 39.8708
26.99785558178161 39.6897
27.020752794605112 39.5937
27.043651106772522 39.3832
27.06655051935668 39.3058
27.089629948036183 39.158
27.112531573292053 39.0108
27.135434302194138 39.2249
27.158338135817015 39.0686
27.181422024430987 39.0044
27.204328079372566 38.9617
27.22723524226965 38.9456
27.250143514198573 39.082
27.273231880156334 38.9869
27.296142382065014 38.8221
27.319053996245536 38.7708
27.341966723775965 38.8282
27.365059584515222 38.9386
27.38797455070062 39.0155
27.410890633481237 38.7552
27.433807833936918 38.768
27.456905206923906 38.9552
27.47982465472398 38.8352
27.502745223449743 38.9402
27.525666914182825 39.1459
27.548768816912457 38.9414
27.571692763693633 38.9639
27.59461783573812 38.9401
27.617723149491244 38.6691
27.640650484125285 38.5168
27.66357894728264 38.4797
27.686508540048052 38.5295
27.709618414237887 38.525
27.732550278321757 38.3545
27.755483275279115 38.1966
27.778417406196485 38.2229
27.801531858397514 38.2533
27.824468269376716 38.1452
27.847405817586786 38.1917
27.870344504116094 38.5366
27.893463551932008 38.5987
27.916404527281053 38.6835
27.93934664422563 38.8244
27.962289903855886 38.703
27.98541356491974 39.0349
28.00835912214229 39.0175
28.03130582533231 39.2624
28.054253675581805 39.4939
28.077381967556104 39.4112
28.100332124185126 39.4089
28.123283431160893 39.4831
28.146235889577238 39.2913
28.169368830154156 39.0717
28.192323603752033 38.9313
28.215279532083304 38.7872
28.238415973016764 38.5749
28.261374223145094 38.3193
28.284333631303806 38.0969
28.307294198589954 37.8801
28.330435319167677 37.5445
28.353398217078915 37.4375
28.376362277420153 37.3427
28.39932750129032 37.0092
28.422473319286713 36.9708
28.44544088262495 36.8934
28.468409612800283 36.7603
28.491379510913497 36.568000000000005
28.51453004413313 36.5075
28.53750229057244 36.4217
28.56047570826344 36.3052
28.583450298308804 36.32
28.606605564586562 36.0378
28.629582511831156 36.1968
28.65256063474956 36.1664
28.675539934446338 36.1225
28.698699951647605 36.1945
28.72168161743193 35.9408
28.74466446331978 35.8396
28.767648490417624 35.9329
28.790813276438353 35.9831
28.813799678527303 35.8999
28.836787265157085 35.9221
28.859955641890075 35.8954
28.882945610203045 35.9044
28.905936766392035 35.7327
28.928929111566863 35.8854
28.952102288520145 35.6918
28.975097024308607 35.5166
28.998092952423807 35.3456
29.021090073977508 35.4218
29.04426806913204 35.1882
29.067267590245258 35.1246
29.090268308143695 35.0353
29.11327022394099 35.0525
29.13645305530891 34.9519
29.159457379627167 34.8962
29.18246290519685 34.775999999999996
29.20546963313352 34.6957
29.22865731875826 34.7292
29.25166646419296 34.7641
29.27467681535305 34.5966
29.29768837335608 34.6588
29.320880931312562 34.6929
29.34389491580634 34.6114
29.366910110507334 34.6854
29.38992651653503 34.6962
29.41312396492981 34.6442
29.436142806456754 34.5256
29.45916286268059 34.5332
29.48236399319994 34.4786
29.50538649169417 34.2514
29.528410208259935 34.1916
29.55143514402014 33.9991
29.574641196749695 33.7993
29.597668583816574 33.6975
29.6206971934585 33.5978
29.64372702680042 33.6406
29.666938019934474 33.445
29.689970313635285 33.4627
29.713003834422636 33.3535
29.73603858342347 33.2887
29.759254535188578 33.1658
29.78229175361658 33.1338
29.80533020365064 33.3294
29.82836988641968 33.2667
29.85159081507472 33.2411
29.874632976355343 33.0995
29.89767637376955 33.1977
29.920721008448314 33.0525
29.9439469322847 33.0249
29.96699405457564 32.9185
29.9900424175358 32.9545
30.013092022298157 32.8576
30.03632295963995 32.8656
30.059375061131373 32.9189
30.08242840783577 32.8427
30.105483000888153 32.9197
30.128718970092244 32.7922
30.151776069006917 32.8403
30.17483441768648 32.91
30.198074175317235 32.824
30.221135036724256 32.7671
30.24419715131772 32.6961
30.267260520236203 32.6565
30.290505341942243 32.7276
30.313571232750228 32.7863
30.336638381310948 32.7625
30.35970678876503 32.6717
30.38295669299435 32.6294
30.40602763151657 32.6263
30.429099832366074 32.5912
30.452173296685572 32.4014
30.47542830191959 32.4517
30.498504306502497 32.4377
30.521581577995562 32.5081
30.544660117543582 32.5836
30.56792024229725 32.5186
30.59100133132069 32.425
30.614083691845494 32.5493
30.637167325018545 32.5922
30.660432587840603 32.5836
30.683518779717886 32.4789
30.70660624769615 32.5852
30.729694992924372 32.6382
30.75296541239743 32.5522
30.77605672557558 32.536
30.799149319462742 32.5399
30.8224236211637 32.2943
30.845518789950724 32.339
30.868615242910597 32.244
30.891712981195973 32.0719
30.91499247215866 31.9797
30.938092794619365 31.9521
30.96119440587579 31.8699
30.984297307082752 31.7493
31.00758200598383 31.7943
31.030687500658694 31.5992
31.053794288760695 31.496
31.076902371446767 31.5306
31.100192296997445 31.5081
31.12330298246119 31.4713
31.14641496599209 31.3593
31.169528248749216 31.3851
31.19282341969534 31.29
31.215939314557186 31.3556
31.239056512134788 31.2979
31.262175013589378 31.3046
31.28547544871168 31.336
31.30859657161541 31.2011
31.331719001892175 31.1706
31.35484274070538 31.3399
31.378148458819545 31.265
31.401274828443725 31.1944
31.424402510106933 31.1843
31.447712205419993 31.2866
31.470842524931633 31.1753
31.493974159989783 31.153000000000002
31.51710711176168 31.2273
31.54042212308802 31.189
31.563557722100917 31.0858
31.586694641341655 30.9378
31.609832881979628 30.9417
31.63315322823208 30.8826
31.656294125521327 30.7025
31.679436347728515 30.7265
31.70257989602529 30.5883
31.725905596152327 30.6226
31.74905181052835 30.5015
31.772199354521323 30.6192
31.79534822930507 30.5621
31.818679302290967 30.5912
31.84183085259981 30.4831
31.864983737233473 30.3824
31.88813795736804 30.554000000000002
31.911474422233013 30.2893
31.934631327356435 30.495
31.9577895715215 30.4815
31.980949155906522 30.4281
32.004291031706956 30.3751
32.027453310562606 30.3368
32.05061693318573 30.2111
32.07396288236386 30.1859
32.09712920658542 30.0166
32.12029687812702 29.991999999999997
32.14346589817093 29.9096
32.166817291729984 29.9028
32.18998902288583 29.7956
32.21316210610336 29.7769
32.23633654256711 29.6971
32.259693399663725 29.6559
32.282870556771144 29.5917
32.30604907069099 29.5291
32.329228942610065 29.4197
32.35259128243769 29.3821
32.375773884550505 29.2521
32.398957848235646 29.3305
32.422143174682176 29.2313
32.445511016471215 29.1246
32.468699082679954 29.015
32.49188851523011 29.0418
32.51507931531304 29.0462
32.538452678331 28.9772
32.56164622776311 28.8857
32.58484114831493 28.8303
32.60803744118015 28.8811
32.631416344731896 28.7884
32.654615396551876 28.8213
32.67781582427913 28.7495
32.701198898634416 28.6795
32.72440209253756 28.5647
32.747606665947124 28.5482
32.77081262006088 28.5392
32.79420126883317 28.5549
32.81740999876112 28.4448
32.840620112999424 28.2821
32.86383161274818 28.3806
32.88722585534586 28.448
32.91044014056596 28.4046
32.933655814909734 28.351
32.95687287957963 28.2855
32.98027273544904 28.2231
33.00349259526636 28.1917
33.026713849030116 28.2048
33.04993649794511 28.1201
33.073341986570746 28.1504
33.09656744032826 28.1668
33.11979429286444 28.1152
33.14302254538647 28.1145
33.166433686291185 28.0502
33.18966475336992 28.0182
33.212897224069096 27.9254
33.23613109959831 27.9431
33.259547912343415 27.8727
33.2827846121627 27.9621
33.306022720453775 27.849
33.32926223842861 27.7667
33.352684742614166 27.7812
33.37592709463173 27.7066
33.399170859982064 27.7285
33.422597648419426 27.6584
33.44584425514446 27.5736
33.46909227885668 27.4301
33.4923417207723 27.3598
33.51577423505344 27.3473
33.539026528130385 27.3032
33.56228024307245 27.2852
33.585535381098246 27.0764
33.60897364093058 27.085
33.63223163992385 27.1296
33.6554910656699 26.9697
33.678751919389796 26.997
33.702195944520106 26.9725
33.72545966903325 26.8493
33.74872482519663 26.8337
33.771991414233746 26.8624
33.79544122444841 26.7237
33.81871069412428 26.6969
33.84198160035767 26.683000000000003
33.86525394437455 26.6761
33.88870955949969 26.5991
33.911984794020626 26.5937
33.93526147001624 26.5552
33.958539588715006 26.5387
33.98200102861669 26.4521
34.0052820477047 26.4196
34.02856451319451 26.3778
34.05203033759056 26.304000000000002
34.07531571090147 26.2949
34.09860253431845 26.2909
34.121890809074316 26.2049
34.145362493118924 26.2488
34.16865368561615 26.1706
34.191946333164054 26.1601
34.21524043699793 26.1617
34.23871800066799 26.1376
34.26201503218366 25.9437
34.28531352370466 25.9972
34.30861347646881 25.9149
34.33209693978188 25.8534
34.3553998301885 25.8068
34.378704185565205 25.7774
34.402010007152356 25.7927
34.42549939016683 25.8142
34.44880815937748 25.6768
34.472118398533134 25.5622
34.49543010887669 25.5244
34.51892543169198 25.3784
34.54224009966052 25.5099
34.56555624255917 25.4507
34.58887386163339 25.3598
34.61237514439016 25.3176
34.6356957311114 25.2908
34.65901779775809 25.1966
34.68252356662995 25.2542
34.705848608458616 25.2074
34.72917513396849 25.0847
34.75250314440949 25.2633
34.77601490857862 25.1667
34.799345904259795 24.9865
34.82267838863559 25.0161
34.846012362958525 25.0482
34.869530142679984 24.9763
34.89286711232212 24.875999999999998
34.91620557568269 24.8536
34.93954553401677 24.9427
34.9630693495876 24.7449
34.986412313340814 24.8669
35.00975677584668 24.8138
35.033102738362956 24.7451
35.05663261012228 24.6655
35.0799815881786 24.6997
35.10333207003229 24.7069
35.12668405694369 24.6988
35.150220005273056 24.531999999999996
35.17357501786656 24.5301
35.19693153931268 24.504
35.220289570874385 24.4306
35.24383161619786 24.4437
35.267192683604904 24.3684
35.290555264930376 24.4021
35.314101899412165 24.4337
35.33746752422433 24.4248
35.36083466676374 24.3569
35.38420332829803 24.2737
35.407756095629054 24.3057
35.43112781085063 24.2958
35.45450104888391 24.2025
35.477875810999194 24.2313
35.50143473172161 24.1313
35.52481255774625 24.1598
35.54819191167777 24.052
35.57157279478914 24.0767
35.595137889488406 23.9927
35.61852184675279 24.0092
35.641907337029984 23.8913
35.665294361595684 23.8727
35.68886565090076 23.8599
35.7122557598848 23.8653
35.73564740699838 23.8199
35.759040593519934 23.6955
35.78261809810353 23.741
35.80601437933051 23.6696
35.829412203814705 23.6095
35.85281157283719 23.5548
35.876395313415884 23.570999999999998
35.8997977874528 23.5169
35.92320180988546 23.4322
35.946790244133936 23.3448
35.97019737933222 23.416999999999998
35.993606066789866 23.3629
36.01701630779276 23.3791
36.04061101440684 23.3335
36.06402437852291 23.2811
36.08743930005611 23.2467
36.1108557802951 23.1439
36.13445678011326 23.1605
36.15787639383515 23.101
36.18129757014299 23.0808
36.20472031032821 23.0469
36.22832762423364 22.9513
36.25175350829375 22.9019
36.275180960119776 22.89
36.298609981005924 23.0055
36.32222362992669 22.8623
36.34565580510207 22.9276
36.36908955323448 22.8364
36.39252487562093 22.7606
36.416144880530226 22.715999999999998
36.43958336764275 22.6804
36.463023432914625 22.6878
36.486465077645676 22.6595
36.51009145956204 22.6907
36.53353627947859 22.7088
36.55698268276811 22.6431
36.58043067073321 22.5596
36.60406345072071 22.4065
36.62751462435344 22.4431
36.65096738658405 22.4167
36.67460498210655 22.4195
36.69806093788647 22.3554
36.72151848619297 22.239
36.744977628333636 22.3289
36.76862165890998 22.2445
36.79208400512205 22.2956
36.81554794910557 22.2243
36.83901349217101 22.14
36.862663978991606 22.1544
36.88613273667352 22.0396
36.90960309738324 22.1155
36.933075062434064 22.0426
36.95673202673572 22.0145
36.98020721697122 21.9866
37.003684015502365 21.853
37.027162423645365 21.8276
37.050825886711465 21.8345
37.07430753063053 21.7284
37.09779078812467 21.7033
37.121275660513014 21.6969
37.144945643673694 21.6728
37.16843376245278 21.6706
37.19192350009803 21.6638
37.215414857931435 21.633000000000003
37.239091382563885 21.4942
37.262585997426164 21.5156
37.28608223645736 21.5713
37.309763684451696 21.5537
37.33326318851098 21.4419
37.356764320726555 21.4547
37.380267082425526 21.3649
37.40395510942588 21.3751
37.42746114683234 21.3266
37.45096881771841 21.2499
37.474478123414166 21.3105
37.49817275092816 21.2204
37.52168534303452 21.206
37.54519957395567 21.123
37.568715445024665 21.0849
37.592416694607714 21.0549
37.61593586281424 21.0442
37.63945667518264 21.0469
37.66297913304891 21.0132
37.68668702630454 20.9876
37.710212792059274 20.892
37.733740207334854 20.8899
37.757269273470364 20.8291
37.780983832050374 20.7884
37.80451621684926 20.743000000000002
37.82805025654007 20.7523
37.851585952464795 20.7349
37.8753071980695 20.6442
37.89884622345676 20.5737
37.92238690911902 20.5822
37.94611318753442 20.5071
37.969657210779765 20.5096
37.99320289834801 20.5804
38.016750251586465 20.4514
38.04048325513017 20.4118
38.06403395679343 20.3946
38.087586328183946 20.3151
38.11114037065203 20.3897
38.13488012115898 20.2945
38.1584375229181 20.2938
38.181996599821 20.2329
38.205557353221124 20.1971
38.229303872575656 20.1923
38.2528679961576 20.1479
38.27643380031219 20.1161
38.30000128639589 20.0328
38.32375459653193 20.1647
38.34732546371299 20.107
38.37089801690786 19.9451
38.39447225747609 19.891
38.418232380377425 19.8958
38.441810012983396 19.8963
38.46538933705673 19.8322
38.488970353960084 19.7874
38.51273731166058 19.8074
38.536321731567014 19.8169
38.55990784840681 19.7868
38.58367995004091 19.6792
38.60726947812959 19.6203
38.63086070726198 19.63
38.654453638806274 19.6161
38.678232613930824 19.5432
38.70182896773327 19.5471
38.72542702806741 19.4958
38.7490267963045 19.4721
38.77281266709232 19.5035
38.79641586862214 19.4651
38.8200207821842 19.4062
38.843627409152944 19.3681
38.86742019782782 19.2611
38.891030269149255 19.2953
38.914642058016156 19.243
38.938255565806124 19.2718
38.96205529464307 19.1769
38.98567225787121 19.2014
39.00929094417078 19.1626
39.03291135492255 19.1351
39.05671804624804 19.1039
39.080341923549106 19.0198
39.103967529460334 19.0143
39.127594865365744 18.9836
39.15140854155791 18.9942
39.17503935514948 18.9563
39.19867190290282 18.97
39.22249083587951 18.8837
39.24612686969409 18.8889
39.269764641845306 18.8261
39.293404153722804 18.8088
39.317230110864074 18.7115
39.34087311998506 18.697
39.36451787301696 18.6619
39.388164371352595 18.642
39.41199737518003 18.5672
39.43564738196752 18.6033
39.45929913825317 18.5802
39.48295264543308 18.5579
39.506792718520884 18.5223
39.530449745387216 18.5045
39.55410852735203 18.468
39.57776906581474 18.4806
39.60161623079 18.3553
39.625280300200025 18.3734
39.64894613032202 18.3543
39.67261372255866 18.3111
39.6964680021016 18.2642
39.72013913657293 18.2929
39.74381203738292 18.2704
39.76748670593756 18.2373
39.79134812278169 18.1898
39.81502634488497 18.1595
39.83870633896685 18.1244
39.862388106436654 18.0206
39.88625668336918 18.034000000000002
39.90994201572829 18.0652
39.933629125719285 18.0219
39.957503091207826 17.9679
39.9811937746168 17.9801
40.00488623990914 17.9596
40.02858048850006 17.9201
40.05246165409549 17.8141
40.076159487492085 17.8089
40.099859108448875 17.8379
40.123560518384345 17.8192
40.1474489070226 17.7578
40.171153913178564 17.6932
40.194860712584955 17.6488
40.2185693066637 17.6524
40.242464941335314 17.6205
40.26617714307655 17.6051
40.289891143772046 17.5903
40.3136069448471 17.5027
40.33750984859743 17.5514
40.3612292688043 17.4886
40.3849504936829 17.4805
40.40867352466194 17.4604
40.43258372059144 17.4216
40.45631038219906 17.3699
40.48003885420956 17.3167
40.503769138055105 17.3373
40.52768664931955 17.332
40.55142057531802 17.2736
40.57515631746428 17.2604
40.599079334038514 17.2666
40.62281872700477 17.1785
40.64655994043941 17.1877
40.67030297578061 17.1355
40.69423334835778 17.1319
40.71798004609188 17.0781
40.74172857006355 17.0571
40.76547892171441 17.0734
40.7894166736039 16.9956
40.813170699248566 16.9575
40.83692655691388 16.9497
40.86068424804498 17.007
40.884629402612525 16.9612
40.908390779366385 16.9386
40.932153993938 16.8355
40.95591904777605 16.8323
40.979871628443995 16.7867
41.003640379561936 16.759
41.02741097430883 16.7243
41.05118341413683 16.7187
41.075143444384416 16.6996
41.098919593177826 16.6566
41.1226975914255 16.6459
41.14647744058318 16.5743
41.170444943946755 16.5892
41.19422851378379 16.5881
41.218013938914645 16.5006
41.24198706625173 16.4824
41.26577622087193 16.4299
41.289567235177785 16.4071
41.31336011063129 16.3829
41.337340752422875 16.3166
41.361137369129835 16.311
41.38493585138705 16.3854
41.40873620066004 16.2897
41.43272438060107 16.2713
41.45652848292052 16.2056
41.48033445666918 16.1324
41.50414230331616 16.1799
41.528138045159764 16.1614
41.551949656675205 16.1234
41.575763145513235 16.142
41.59957851314666 16.0874
41.62358184070442 16.0597
41.64740098505737 16.048
41.6712220126409 15.9941
41.69504492493139 15.9758
41.71905586207357 15.9419
41.74288256296395 15.9405
41.766711153007456 15.9033
41.79054163368412 15.8474
41.814560204340054 15.841
41.838394485526365 15.8489
41.86223066180303 15.8105
41.88625497706819 15.7067
41.910094962812 15.7109
41.93393684811168 15.7329
41.95778063445365 15.6252
41.981812625263366 15.6647
42.00566023303407 15.625
42.029509746323676 15.5779
42.05336116662236 15.5506
42.077400857069705 15.6098
42.10125611078846 15.561
42.12511327600405 15.5341
42.14897235421036 15.4704
42.173019768448455 15.4989
42.19688269209613 15.3913
42.22074753323349 15.4084
42.24461429335818 15.3624
42.268669455600495 15.3415
42.292540073217886 15.3518
42.31641261433284 15.307
42.34028708044675 15.239
42.36435001496739 15.2834
42.38822835065557 15.2892
42.41210861586426 15.2236
42.4359908120986 15.1931
42.46006154323262 15.1442
42.48394762115317 15.1221
42.507835634632315 15.1348
42.531912233047436 15.0711
42.55580413732265 15.0579
42.579697981698 15.0436
42.60359376768525 14.9817
42.62767820545945 14.9077
42.65157789440821 14.9609
42.67547952952185 14.9688
42.699383112316 14.9484
42.72347541395347 14.8305
42.74738291190531 14.7947
42.771292362102166 14.8013
42.795203766063516 14.753
42.819303956130405 14.8145
42.843219287476536 14.7633
42.86713657716324 14.7787
42.89105582671383 14.6889
42.91516392983864 14.694
42.939087119032166 14.7094
42.963012272677304 14.6357
42.98693939230129 14.5685
43.01105543317513 14.5117
43.034986504731386 14.5157
43.05891954686589 14.4508
43.08285456110972 14.4622
43.10697856448665 14.477
43.130917542983475 14.4327
43.15485849820081 14.4141
43.17880143167367 14.3417
43.20293342237094 14.3642
43.226880332449 14.3468
43.25082922540554 14.2925
43.27496722682525 14.2855
43.29892010567796 14.263
43.32287497204102 14.2362
43.34683182745632 14.1756
43.370977859791836 14.1374
43.39493871351105 14.1762
43.41890156092628 14.1382
43.44286640358341 14.0765
43.46702049182749 14.0641
43.49098934522816 14.0586
43.51496019852649 14.047
43.5389330532723 13.9969
43.56309522248204 13.9855
43.58707210044314 13.9643
43.61105098451946 13.9375
43.63503187626491 13.9507
43.659202151562134 13.9083
43.68318707902681 13.9085
43.70717401884041 13.7889
43.731162972560874 13.8094
43.75534137913236 13.8404
43.779334381108384 13.7569
43.803329401683186 13.7261
43.82732644241872 13.7144
43.8515130055166 13.6749
43.87551410707659 13.6448
43.89951723350145 13.662
43.923709934595614 13.6472
43.94771713129917 13.5775
43.97172635758096 13.536
43.99573761501002 13.5329
44.0199385169922 13.5318
44.04395385732619 13.5238
44.067971233533086 13.4838
44.09199064718605 13.5001
44.11619977548961 13.4769
44.14022328470671 13.4372
44.16424883610785 13.4304
44.18827643127035 13.3764
44.21249381139513 13.3378
44.236525514814076 13.309000000000001
44.26055926674478 13.3154
44.28459506876863 13.3261
44.3088207262813 13.2529
44.33286064928722 13.2413
44.35690262714919 13.2508
44.38094666145278 13.2134
44.4051806219871 13.1958
44.42922879003185 13.1324
44.45327901929361 13.1192
44.477331311362136 13.0822
44.501573600619416 13.0768
44.525630039221795 13.0382
44.54968854541895 13.0542
44.573937102200176 13.0507
44.5979997645541 12.9938
44.622064499300315 12.9694
44.64613130803592 12.975999999999999
44.67038823869318 12.9043
44.69445921643748 12.8941
44.718532272981385 12.8445
44.742607409926194 12.832
44.76687274034801 12.8045
44.79095205918753 12.7594
44.81503346325094 12.777000000000001
44.839116954143876 12.7695
44.86339071028742 12.7149
44.88747839599524 12.6619
44.91156817336837 12.6637
44.93566004401666 12.6853
44.959942251908146 12.6317
44.984038330325966 12.5792
45.00813650686762 12.5965
45.03223678314731 12.5891
45.05652746888232 12.559000000000001
45.08063196592069 12.4724
45.104738567558705 12.5011
45.128847275414856 12.5286
45.15314646515866 12.4265
45.17725940679741 12.456
45.20137445952892 12.422
45.22568004865265 12.401
45.24979934496396 12.3238
45.27392075725247 12.335
45.29804428714431 12.2849
45.322358426247604 12.3103
45.346486212804315 12.3619
45.370616121861914 12.2936
45.39474815505086 12.2511
45.41907087049246 12.2016
45.4432071734666 12.207
45.46734560548283 12.1928
45.49148616817604 12.1772
45.51581748638564 12.1732
45.5399623320197 12.081
45.56410931325473 12.0922
45.58825843173002 12.1335
45.61259837920865 12.0505
45.636751793816 11.9998
45.66090735060093 11.9856
45.68506505120716 11.9577
45.7094136545275 11.9491
45.73357566449271 11.9454
45.75773982322992 11.9173
45.78190613238733 11.9057
45.806263418194064 11.8431
45.83043404997326 11.8914
45.85460683713677 11.8775
45.87897065658495 11.8288
45.90314777634752 11.7722
45.92732705646868 11.77
45.9515084986045 11.735
45.97588104735473 11.6939
46.00006683541565 11.7281
46.02425479047904 11.697000000000001
46.04844491420549 11.6716
46.0728262191024 11.6676
46.09702070211635 11.6385
46.12121735879483 11.6071
46.14541619080294 11.6008
46.169806278764455 11.535
46.194009483459034 11.5563
46.21821486849841 11.5179
46.24242243555223 11.4841
46.266821333570014 11.4807
46.29103328674601 11.4307
46.31524742696538 11.4368
46.33946375590237 11.425
46.36387149104216 11.4328
46.38809221957392 11.3908
46.41231514186606 11.3504
46.436540259597464 11.3594
46.460956858999374 11.3122
46.48518638983522 11.3201
46.509418121166966 11.277999999999999
46.533652054678114 11.2592
46.55807754555709 11.2657
46.58231590571962 11.2868
46.60655647313217 11.1924
46.630988654873654 11.1581
46.655233659129024 11.1836
46.67948087571551 11.1507
46.70373030632484 11.1012
46.72817142736393 11.1101
46.752425308428684 11.0572
46.77668140861147 11.0628
46.80093972960865 11.0541
46.82538981736788 10.9935
46.849652602470904 10.9936
46.87391761349769 11.0105
46.8981848521493 10.9363
46.9226439341274 10.9311
46.946915650573224 10.862
46.97118959976749 10.847999999999999
46.99546578341598 10.8572
47.019933887188216 10.8253
47.04421456235744 10.8355
47.06849747711879 10.8015
47.09278263318286 10.8035
47.11725978640143 10.7421
47.14154944775105 10.7267
47.165841355555656 10.7204
47.1901355115306 10.7014
47.214621741924994 10.7226
47.23892041698887 10.677999999999999
47.26322134538975 10.6513
47.28771440635075 10.6309
47.31201986422527 10.5994
47.33632758061436 10.6171
47.360637557241866 10.5891
47.38513974410611 10.5831
47.40945426407847 10.5281
47.43377104948137 10.4803
47.45809010204344 10.472999999999999
47.48260144275502 10.4613
47.506925052572285 10.4394
47.53125093475548 10.4101
47.55557909103813 10.4101
47.58009961361992 10.3659
47.60443234110732 10.34
47.62876734791564 10.3327
47.65310463578333 10.3175
47.6776343683373 10.3005
47.7019762413987 10.235
47.72632040075572 10.2326
47.75066684815169 10.2788
47.77520581885936 10.2611
47.799556865477655 10.213
47.823910205386 10.2039
47.84826584033272 10.18
47.87281407745551 10.137
47.89717432569297 10.1121
47.92153687423484 10.1445
47.94609208429692 10.1112
47.97045925671401 10.0582
47.99482873471275 10.0537
48.01920052005013 10.0528
48.04376504619224 10.0599
48.068141469543484 10.035
48.09252020552573 10.0366
48.11690125590099 9.98755
48.1414751266064 9.954360000000001
48.16586082917454 9.98396
48.19024885144316 9.91544
48.2146391951793 9.92937
48.239222439012764 9.89701
48.26361744916137 9.87079
48.28801478610016 9.8897
48.31241445160131 9.84337
48.337007097209366 9.815710000000001
48.36141144338331 9.8239
48.38581812345755 9.77346
48.41022713920929 9.795
48.434829215320704 9.77564
48.45924292604658 9.77473
48.48365897780325 9.72414
48.50807737237308 9.69362
48.532688907799276 9.665939999999999
48.55711201168574 9.63931
48.581537463754074 9.64996
48.60615611725119 9.67512
48.63058628942721 9.64682
48.65501881516546 9.633519999999999
48.6794536962573 9.60709
48.70408185970339 9.58569
48.72852147531801 9.53209
48.75296345168211 9.53658
48.77740779059232 9.54964
48.80204549302823 9.51012
48.82649458091802 9.50539
48.85094603676547 9.4885
48.87539986237231 9.43924
48.90004713292306 9.40028
48.92450572200832 9.4083
48.94896668628025 9.423860000000001
48.97343002754588 9.378680000000001
48.99808689542115 9.34977
49.02255501470614 9.32592
49.04702551642794 9.3258
49.0714984023988 9.29862
49.096164896893235 9.30247
49.120642575466796 9.26527
49.145122643748394 9.242339999999999
49.16960510355558 9.230780000000001
49.19428125404938 9.20616
49.2187685210852 9.21849
49.243258185121555 9.20266
49.26794160167084 9.17455
49.2924360839405 9.1323
49.31693296869764 9.10068
49.34143225776915 9.07526
49.36612538195438 9.10737
49.39062950396021 9.07092
49.41513603578346 9.035039999999999
49.4396449792564 9.05614
49.46434784069503 9.048919999999999
49.488861631846454 8.98949
49.513377840166804 8.95139
49.537896467493745 8.94183
49.56260909589029 8.93138
49.587132585683285 8.97087
49.611658500018365 8.94265
49.636186840738596 8.88798
49.66090926588511 8.8959
49.685442483902584 8.874310000000001
49.70997813385706 8.83026
49.734516217597076 8.790989999999999
49.75924846937352 8.79785
49.7837914452858 8.80373
49.80833686055187 8.760689999999999
49.83288471702571 8.742510000000001
49.85762682540054 8.75169
49.882179588965734 8.74927
49.9067347993235 8.68028
49.93129245833333 8.717889999999999
49.95604445336378 8.68094
49.98060703442832 8.66225
50.005172069746266 8.67854
50.02993150438364 8.685989999999999
50.05450147301533 8.612039999999999
50.07907390151433 8.62115
50.10364879174981 8.64888
50.12841816587289 8.57421
50.1529980044635 8.55776
50.17758031042124 8.56996
50.20216508562089 8.533610000000001
50.22694442953363 8.48225
50.25153416817468 8.4736
50.27612638170508 8.48499
50.300721072005196 8.43121
50.325510416102105 8.409310000000001
50.350110084975064 8.41761
50.37471223628208 8.45757
50.39931687190919 8.40405
50.424116246675766 8.36223
50.44872587605249 8.351410000000001
50.47333799543065 8.35562
50.49795260670191 8.32722
50.52276204271512 8.30512
50.54738166295838 8.305069999999999
50.57200378079314 8.294989999999999
50.596628398116835 8.22536
50.62144792604559 8.24353
50.646077567609396 8.23152
50.670709714377715 8.23201
50.69553683636198 8.19513
50.72017401885922 8.16387
50.7448137122895 8.15136
50.76945591856022 8.13236
50.79429318636823 8.113710000000001
50.818940443716784 8.1273
50.84359021965163 8.07643
50.868242516085964 8.07783
50.893089960641895 8.0831
50.917747323549435 8.045760000000001
50.94240721271973 8.05593
50.96706963007175 8.01607
50.99192728239342 7.9923
51.01659478166073 8.02345
51.04126481489051 8.02047
51.06593738400761 7.97859
51.090805275207074 7.935110000000001
51.11548294172845 7.96093
51.14016314993547 7.899830000000001
51.164845901758845 7.886819999999999
51.18972406304274 7.86963
51.21441192780656 7.8546
51.23910234200271 7.878080000000001
51.2637953075678 7.83577
51.288683770237945 7.81335
51.31338186432707 7.7804
51.33808251561888 7.79113
51.362978729967345 7.749410000000001
51.387684521509755 7.7504
51.41239287610203 7.727589999999999
51.437103795691165 7.66949
51.46201036644977 7.66865
51.486726441956634 7.67731
51.51144508832545 7.664460000000001
51.536166307509156 7.64629
51.56108326624387 7.6247300000000005
51.58580965706056 7.61878
51.61053862657523 7.61028
51.635270176746864 7.56792
51.66019755512065 7.58401
51.68493429268881 7.570189999999999
51.70967361681515 7.5624
51.73441552946465 7.53915
51.759353359237934 7.504510000000001
51.7841004750961 7.458639999999999
51.80885018539685 7.48088
51.833602492111254 7.42978
51.8585508051424 7.4589
51.883308330926425 7.42587
51.90806845906181 7.42875
51.932831191525715 7.3806199999999995
51.95779001977161 7.4099699999999995
51.98255798721516 7.33628
52.00732856494335 7.29713
52.03229530577543 7.330030000000001
52.057071130455945 7.31302
52.081849571391054 7.332110000000001
52.106630630568695 7.2777199999999995
52.13160794279417 7.257639999999999
52.15639426492067 7.27527
52.18118321127822 7.24982
52.205974783860896 7.20315
52.23096269971011 7.18124
52.255759551287994 7.2159699999999996
52.280559035098186 7.18461
52.30536115314103 7.176810000000001
52.33035970494467 7.154839999999999
52.35516711807904 7.159489999999999
52.37997717147198 7.109369999999999
52.40478986713005 7.12438
52.42979908731974 7.09589
52.454617094216 7.0910899999999994
52.47943774942214 7.04957
52.50426105495102 7.08903
52.529280976059844 7.00621
52.554109609024096 7.040139999999999
52.57894089837482 7.03207
52.60377484613117 7.0101
52.62880550079408 7.0166699999999995
52.65364479223379 6.973160000000001
52.67848674816189 6.964510000000001
52.70352547971946 6.9486300000000005
52.72837279155837 6.9275899999999995
52.753222773982785 6.88183
52.778075429022984 6.87873
52.80312495150885 6.87392
52.827982978797436 6.87339
52.85284368481815 6.818239999999999
52.87770707160767 6.8268699999999995
52.90276741793998 6.8364
52.92763619336701 6.835319999999999
52.952507655698504 6.81975
52.977381806977576 6.7961
53.00245301017842 6.76665
53.02733256653592 6.787669999999999
53.052214817996074 6.7614
53.077099766608484 6.733219999999999
53.102181859804446 6.7159699999999996
53.127072229988265 6.71335
53.15196530349892 6.671410000000001
53.17686108239249 6.6622
53.20195409881522 6.62362
53.22685531582556 6.648689999999999
53.25175924441303 6.58067
53.27666588664027 6.5771
53.30176985962693 6.59532
53.3266819565689 6.59059
53.35159677336455 6.57057
53.376514312083096 6.53759
53.40162927507703 6.52845
53.42655228516116 6.51772
53.45147802340193 6.47595
53.47660125628886 6.4751
53.50153247842639 6.48851
53.52646643496923 6.44109
53.55140312799818 6.4575
53.576537409691696 6.47384
53.60147960336152 6.42821
53.626424539786164 6.43425
53.65137222105307 6.4183900000000005
53.67651758529126 6.38223
53.70147078399681 6.38218
53.72642673383343 6.36983
53.75138543689533 6.37049
53.776541917524526 6.31537
53.801506154876755 6.31752
53.826473151763246 6.338480000000001
53.851442910284916 6.2823199999999995
53.87661054126026 6.25559
53.9015858509782 6.2909
53.92656392866066 6.2588
53.95154477641532 6.259440000000001
53.976723591801296 6.19842
54.00171000771266 6.21464
54.02669920004598 6.19943
54.051691170915745 6.143
54.076881204886796 6.17281
54.101878760928514 6.12001
54.12687910187696 6.12895
54.152077577768296 6.11348
54.1770835166946 6.12291
54.20209224691339 6.1531199999999995
54.22710377055121 6.07292
54.25231352511594 6.0612900000000005
54.27733066384342 6.03426
54.30235060239643 6.03596
54.32737334290836 6.0497
54.35259441062629 5.9909300000000005
54.377622783395324 5.95657
54.40265396455061 5.93304
54.42768795623251 5.97781
54.45292037169559 5.92858
54.477960012857906 5.920730000000001
54.50300247099511 5.89684
54.52804774825457 5.85086
54.55329154616743 5.834230000000001
54.57834249018678 5.83194
54.6033962597977 5.80857
54.6284528571545 5.76159
54.653708072335164 5.73022
54.67877035378786 5.77551
54.70383546947698 5.71481
54.72890342156389 5.761
54.7541700889442 5.67537
54.77924374251975 5.6549
54.8043202390049 5.65126
54.82959552413022 5.66038
54.8546777351945 5.660830000000001
54.87976279569621 5.59426
54.90485070780914 5.62357
54.930137506558005 5.517180000000001
54.95523115074295 5.50956
54.98032765308844 5.4989099999999995
55.005427015775496 5.47724
55.03072536339621 5.54133
55.05583047570572 5.43816
55.080938454927676 5.392469999999999
55.10604930325027 5.39286
55.131359235107396 5.425730000000001
55.15647585066083 5.40623
55.181595341907496 5.3411599999999995
55.20671771104285 5.30516
55.232039262617704 5.30701
55.25716741665048 5.2329
55.28229845518636 5.275980000000001
55.30743238042802 5.195180000000001
55.33276558731939 5.23367
55.357905315183636 5.15627
55.383047936390035 5.1367
55.40819345314859 5.080369999999999
55.433538351073295 5.07954
55.458689688238415 5.11193
55.483843927614096 5.094069999999999
55.509197623043605 5.06947
55.53435769621134 5.027769999999999
55.55952067826466 4.9993300000000005
55.5846865714265 5.00149
55.61005202069737 4.95934
55.63522376553902 4.98449
55.66039842818645 4.93639
55.68557601087004 4.97992
55.7109532500271 4.89026
55.73613670233794 4.90046
