TT I
1.2716486653135266 7.279260000000001
1.2939594142134223 6.61032
1.3162702121660406 6.347
1.3385810600174564 6.35454
1.3608919586137629 6.47349
1.383202908801069 6.20332
1.405513911425503 6.1317699999999995
1.4278249673332093 5.9621900000000005
1.4501343378461518 6.14374
1.4724455028545926 5.85109
1.4947567236847858 6.4234599999999995
1.517068001182951 5.95823
1.5393793361953272 6.28667
1.5616907295681737 6.17016
1.5840021821477681 5.67606
1.60631369478041 5.81366
1.6286252683124185 5.36987
1.6509369035901333 4.86116
1.6732468618895553 4.98571
1.695558623192809 4.6614
1.7178704487808514 5.14471
1.7401823395001077 5.2194400000000005
1.7625012545597203 5.15104
1.7848028405262486 4.65644
1.8071218901122095 4.6365
1.8294236121921872 4.36521
1.8517427996910911 5.07598
1.8740620574440425 4.92512
1.8963639900671978 4.9231
1.9186833908139995 4.55869
1.9409854680117449 4.85912
1.9633050151394713 5.1794400000000005
1.9856246367570705 5.237019999999999
2.0079269371922672 4.55996
2.03024671027244 4.17729
2.0525491637446027 4.462680000000001
2.074869091674931 4.83365
2.097171701569106 4.69896
2.1194917877373847 5.06698
2.141811954326636 5.211930000000001
2.164114805233074 4.87378
2.186435135143035 6.73526
2.208738150935709 15.8565
2.231058647554722 34.8894
2.2533792288321184 27.1413
2.275682498336085 11.894
2.298003251406138 6.533980000000001
2.3203066942619714 6.14848
2.3426276225136022 5.91195
2.3649486396617507 5.73155
2.387252348930071 6.354430000000001
2.4095735463442893 6.04486
2.4318774374315884 6.3234900000000005
2.4541988185014043 6.837969999999999
2.476502894794693 7.4969600000000005
2.498824462909887 7.57492
2.521146125856138 7.31353
2.5434504863470337 7.6410800000000005
2.5657723414244717 8.34799
2.588076895590662 8.92596
2.610398946189713 8.32967
2.6327210958598384 8.59453
2.6550259469304716 8.29048
2.6773482972090137 8.60798
2.6996533504259 8.58075
2.7219759047039602 9.1522
2.744298562293959 8.60038
2.7666039251246595 8.03215
2.7889267918020164 8.45149
2.8112323652516555 9.20271
2.833555444408179 8.7246
2.8558786311183852 8.599860000000001
2.8781845268938557 9.09511
2.9005079311721484 9.5109
2.9228140460410397 8.71309
2.9451376712799635 9.83595
2.967444008632326 10.0997
2.9897678582247247 10.684000000000001
3.0120918213106695 11.1529
3.0343984987899373 10.7789
3.0567226913198637 11.0147
3.079029599759726 12.3092
3.101354025127254 12.5266
3.123678568232338 14.1599
3.145985829517914 13.4619
3.16831061055229 14.0462
3.1906181112775593 14.5995
3.212943133635653 14.9204
3.2352682779763207 15.2522
3.2575761442691227 15.3368
3.2799015350264273 15.511
3.302209649240067 16.2403
3.3245352898092655 17.0037
3.3468436553365257 17.7447
3.369169549113219 18.1244
3.3914955708171384 19.0516
3.413804319727358 19.1396
3.4361305997334863 19.3914
3.4584396084414553 19.9185
3.4807661501462652 20.5428
3.503092824025881 20.8517
3.5254022288463154 21.5841
3.5477291695206588 21.9561
3.5700388426251948 22.7408
3.5923660534916446 24.3674
3.6146934007816114 41.9964
3.637003482731501 105.258
3.6593311053109985 120.204
3.681641464033634 66.6611
3.7039693653009733 32.5036
3.726297407241705 26.5993
3.7486081875460804 26.3008
3.7709365132734978 26.6512
3.793247578841633 26.8583
3.8155761917550093 26.8269
3.8378875459837216 27.2342
3.8602164494827234 27.6272
3.882545499606844 28.2758
3.9048572932539183 29.0289
3.9271866390645718 29.2921
3.9494987298666713 29.8593
3.971828374764527 30.2094
3.9941581705403255 30.3619
4.016470713506008 30.9993
4.038800813471445 31.72
4.061113662089144 32.3301
4.0834440696459176 33.5299
4.105774632334751 33.8249
4.128087945865126 34.5288
4.150418821249301 35.2394
4.172732448931298 36.7515
4.195063640413578 38.8869
4.2173775856475215 43.5683
4.239709096631102 81.7884
4.262040768704612 288.789
4.284355196706267 400.75699999999995
4.306687193387355 257.65
4.329001947444346 93.2027
4.35133427213731 49.6471
4.373666762177566 44.8265
4.395982011761091 44.2836
4.418314834921175 45.662
4.44063041906622 55.2123
4.4629635787515625 69.5094
4.4852969080429785 69.8968
4.5076130004776225 55.9061
4.529946671403969 50.0233
4.552263106909177 49.4165
4.574597122877047 50.8022
4.596931312711224 51.7704
4.619248269273446 52.3366
4.6415828092605835 53.3877
4.663900117405352 54.2139
4.686235010953232 55.663999999999994
4.708552674085913 57.1031
4.730887924602802 58.3927
4.753223354952695 59.5728
4.775541557023902 60.958
4.797877349456786 62.1617
4.820195915032126 64.3525
4.842532072957498 65.8946
4.864868414979744 67.641
4.88718753227192 69.8792
4.909524244902505 71.202
4.931843734218147 73.0245
4.954180820867835 75.3922
4.976518095879839 78.3896
4.998838149695359 80.5895
5.021175803844231 83.9819
5.043496238205739 86.6198
5.065834274903528 90.3438
5.088172504230693 95.0456
5.1104935158799565 100.277
5.132832132875765 123.169
5.155153533596801 171.13299999999998
5.1774925416746225 201.304
5.199814334878411 267.865
5.2221537374521505 694.9110000000001
5.244493338631803 2192.57
5.266815727034316 7062.36
5.289155727832427 13463.1
5.311478517248165 9157.4
5.333818921080011 2779.44
5.356159527788849 512.145
5.3784829252032536 173.50900000000001
5.400823940070432 137.721
5.423147747031976 123.406
5.445489173474152 115.34899999999999
5.467830807066149 110.47200000000001
5.490155234831516 105.96
5.512497285125229 103.059
5.534822130975162 101.48299999999999
5.557164601388673 99.2652
5.579489868738879 96.8673
5.601832762690846 96.1399
5.6241758697774475 95.8278
5.646501775867269 94.2615
5.668845311622074 92.8595
5.691171647754637 92.1334
5.713515615597765 90.8724
5.735859800852677 89.5924
5.758186788542988 88.68299999999999
5.780531411018185 89.2801
5.802858837297399 88.4459
5.825203900414495 87.9969
5.8475491852224 88.4323
5.869877275883075 88.5884
5.892223006467101 89.0277
5.914551544266608 89.8278
5.936897724049891 91.61200000000001
5.959244129804903 94.79
5.981573344815301 105.72
6.0039202049061 161.241
6.026249875609095 334.69800000000004
6.04859719346037 748.3
6.070927323278297 1961.0
6.093275102315365 4537.48
6.115623113320588 5508.93
6.137953938319995 3264.89
6.160302415650845 917.4169999999999
6.182633708324452 213.301
6.2049826554078376 107.994
6.227331838745022 89.4598
6.249663839443684 83.1365
6.27201349767565 81.2054
6.294345974611799 90.1854
6.316696111167083 105.45200000000001
6.339046488263839 99.3909
6.361379686074702 81.3232
6.383730546639482 71.416
6.406064229255215 67.7488
6.428415576718203 66.98899999999999
6.450749747566656 66.34100000000001
6.47310158535871 65.1932
6.495453669698332 64.1549
6.517788579421056 63.4154
6.540141159237969 62.4188
6.562476565766648 62.4909
6.5848296444934045 61.7695
6.607182974060425 61.4579
6.6295191323281015 62.0395
6.651872965955752 66.4017
6.6742096296068985 99.1777
6.6965639707294615 159.296
6.71891856698715 160.488
6.741255995248479 104.74799999999999
6.763611104154477 70.4546
6.785949046381137 60.3221
6.808304671371482 58.1423
6.8306605557940046 57.5395
6.852999275508618 56.8926
6.875355681171544 56.6923
6.897694923437771 56.5178
6.92005185377892 56.3597
6.9423916220322655 55.8405
6.964749080490181 55.0851
6.987106804399774 55.2825
7.009447368180821 55.3877
7.031805625367033 55.5649
7.054146723727803 55.4547
7.076505517631004 54.8931
7.098864581288365 54.901
7.121206488070854 54.6429
7.143566093607822 54.4815
7.165908543567245 54.6351
7.188268694426048 54.6865
7.2106291193438095 55.0388
7.232972390625943 57.1331
7.255333366030969 72.1536
7.277677189091925 140.93
7.300038718428332 202.03599999999997
7.322400526130865 170.2
7.344745183422596 99.5148
7.367107550224791 63.6535
7.389452767901992 56.3195
7.411815697249891 55.0662
7.434161478756298 54.2656
7.456524974096713 54.1554
7.478888753837185 53.803000000000004
7.501235387657368 54.1429
7.523599738562711 53.9163
7.545946944825532 54.3461
7.568311870344528 54.883
7.5906770845765665 55.1695
7.613025156078678 56.746
7.635390950099687 58.1563
7.657739602662809 57.1289
7.680105979923558 55.6657
7.702472650212829 55.5442
7.724822180948224 55.0717
7.747189439655568 55.1755
7.769539560075357 55.4276
7.791907410653562 55.6397
7.81425812420825 55.6844
7.836626570110925 56.1215
7.858995315087906 57.135
7.881346924933401 56.7062
7.903716270417482 57.229
7.926068482028405 57.5117
7.948438431475253 58.31399999999999
7.9708086843180235 58.8985
7.993161805171116 59.324
8.015532667162402 59.9602
8.037886398416653 60.6789
8.060257873014221 61.058
8.082629655331942 61.5776
8.104984308787587 62.513000000000005
8.127356708900503 66.5669
8.149711981398308 73.3923
8.172085002766314 76.5641
8.194458336181368 72.4895
8.216814543847752 69.0076
8.23918850371002 67.9906
8.26154533906492 68.8193
8.283919928836452 70.3687
8.306277395339652 71.0394
8.328652618483376 72.3118
8.351028159736202 74.3825
8.373386579575245 76.4276
8.395762759396959 77.9226
8.418121819038275 83.274
8.440498640894003 98.5248
8.462875785192262 113.948
8.485235811156207 119.568
8.507613602688501 138.783
8.529974277114228 200.833
8.552352719347912 311.531
8.574731488360351 543.847
8.59709314210385 1101.96
8.619472567021075 1893.31
8.64183487789147 2378.15
8.664214962183097 1905.55
8.686577933647762 956.318
8.708958680784317 356.31300000000005
8.731339760774953 162.065
8.753703729764451 108.831
8.77608547780821 96.8032
8.798450116065078 92.9105
8.820832535634787 90.4694
8.843215292401656 89.2092
8.865580941199045 87.1454
8.887964374703538 86.5403
8.910330701447199 88.2602
8.932714815164482 91.9805
8.955099270424924 91.3077
8.977466620733543 87.3964
8.999851761421976 84.1902
9.022219798361645 82.5963
9.04460562795561 82.0276
9.066991803441677 81.3562
9.089360876979615 80.9633
9.111747746589993 80.9836
9.13411751544971 80.1531
9.156505082664324 80.0266
9.178875550323522 80.6002
9.20126381862328 80.9911
9.223652438908596 81.3534
9.246023961427412 81.1014
9.26841328802173 80.1255
9.290785518039224 80.0565
9.313175554425882 80.5264
9.335565947154315 80.6205
9.357939245086508 80.6458
9.380330352834827 81.0893
9.40270436697103 81.0924
9.425096193225055 81.1384
9.447488380180165 82.0705
9.469863475295412 82.1068
9.492256385987508 82.7871
9.514632206018318 83.2096
9.537025843935714 83.2506
9.559402392368193 84.2677
9.581796761000229 85.2948
9.604191496441521 86.5153
9.626569144158516 90.5628
9.648964615551032 96.3757
9.671343000390081 98.5324
9.693739211225699 95.6583
9.716135793237463 92.075
9.738515290448102 91.00299999999999
9.760912617143402 91.7512
9.783292860202891 93.0018
9.805690935076182 94.06700000000001
9.828089385495742 94.9738
9.850470754023561 97.9615
9.872869957865444 106.244
9.89525208097539 124.516
9.917652041736662 139.563
9.940052382417589 137.16299999999998
9.962435644102392 132.94
9.984836746950979 150.783
10.007220771957746 198.24
10.029622640473708 282.077
10.052007432299963 443.99800000000005
10.074410069984072 726.2489999999999
10.096813093716005 1236.05
10.119199042482517 1772.41
10.141602840636468 2051.62
10.163989564971628 1591.54
10.186394141051062 879.5210000000001
10.208799107559706 372.836
10.231187001965623 179.65099999999998
10.253592751657669 122.891
10.275981430388155 110.921
10.298387966769793 111.604
10.320794897965431 115.385
10.343184759907361 114.115
10.36559248305461 107.675
10.387983138083852 102.25
10.410391656691655 101.944
10.432800574501677 108.875
10.455192425893369 120.92200000000001
10.47760214443012 142.261
10.499994797678786 183.395
10.522405320453982 261.61400000000003
10.54479877906917 395.782
10.567210109595656 528.605
10.5896218454736 599.1659999999999
10.612016518879773 512.151
10.634429067781074 349.048
10.656824555333241 197.484
10.679237920773568 122.47399999999999
10.701651695961992 94.8065
10.724048411481384 87.4439
10.746463008485165 84.7079
10.768860546937125 83.2074
10.791275969274796 81.3744
10.81369180576079 80.6084
10.836090585366925 79.6927
10.858507252467449 78.3373
10.88090686379991 77.2306
10.903324365036394 76.8926
10.925724811614439 77.1647
10.948143150509463 79.0868
10.970561909719066 78.4189
10.992963615930844 75.9816
11.015383218085756 73.445
11.037785768347074 72.0859
11.06020621697282 71.3887
11.082627090322113 70.9526
11.105030913430326 70.5689
11.12745263854165 71.6481
11.149857314510728 76.3126
11.172279894912576 84.0671
11.194702904450653 85.1799
11.217108866490921 80.1381
11.239532736615194 74.6678
11.26193956033512 71.873
11.284364294577085 69.9531
11.306789462371718 67.2849
11.329197585398376 65.975
11.351623622610898 66.0316
11.37403261614354 64.8042
11.396459526308487 64.9765
11.418869393879497 64.4445
11.441297180532617 64.0284
11.463725406927658 63.8493
11.486136592353875 63.5346
11.508565700543707 64.4604
11.530977768845315 66.945
11.553407762368774 68.0619
11.575838200059769 67.2785
11.598251599479612 64.8005
11.620682927815501 63.0039
11.64309721895548 62.5271
11.665529441478206 62.2288
11.687962112597958 61.6158
11.710377748130886 61.7724
11.732811318753434 61.7679
11.755227854859067 61.8518
11.777662328529495 61.8694
11.800079768750786 61.5388
11.822515149015453 61.2764
11.844950984084935 61.2889
11.867369787303163 61.089
11.889806534289491 61.31
11.912226250487029 61.4983
11.934663912939751 61.5353
11.9571020346363 61.6904
11.979523127133968 61.5748
12.001962169624331 62.1873
12.024384183972964 62.4045
12.046824150809913 64.53399999999999
12.069264581333726 68.6282
12.091687985297767 74.2981
12.11412934550045 82.2972
12.136553680195208 97.2275
12.158995973632788 118.38799999999999
12.181438735204349 148.174
12.20386447284199 183.114
12.226308172985636 206.43599999999998
12.24873485024193 198.60299999999998
12.271179492516982 162.107
12.293607112949127 123.34299999999999
12.316052700916226 95.1072
12.338498763250042 78.9425
12.360927805303868 70.1263
12.383374818673879 65.7766
12.405804812803074 63.6265
12.428252780773262 63.1168
12.45070122756722 62.9419
12.473132656675375 62.7664
12.49558206341869 63.1999
12.518014453510101 63.2627
12.540464823770117 63.1235
12.562915677315177 63.468
12.58534951575545 64.5787
12.607801338171472 66.8748
12.630236146511358 73.6318
12.652688941369085 79.9327
12.675124723177234 80.2484
12.697578494048786 75.5065
12.720032754458185 69.5468
12.742470003354093 66.9211
12.764925245138771 66.6257
12.787363476431278 66.7157
12.809819703166806 67.0026
12.83227642391173 67.6042
12.854716135692716 68.1502
12.877173846755147 69.23899999999999
12.899614549869717 69.3803
12.9220732548287 69.9593
12.94453245827299 70.5003
12.966974655289818 71.4874
12.989434858002571 72.0523
13.011878055298721 73.0915
13.034339260862497 73.8728
13.056800969391883 75.0106
13.079245674017244 76.5582
13.101708390774869 77.9236
13.12415410463411 82.8492
13.146617833206086 92.0591
13.169064559883248 102.535
13.191529303857127 114.855
13.213994557076367 134.188
13.236442809902437 167.27700000000002
13.258909083908291 222.248
13.28135835851934 294.425
13.30382565690295 374.324
13.326293469022952 434.724
13.348744283242008 437.727
13.371213125129904 357.689
13.39366497011003 255.795
13.416134845360597 171.364
13.438605238843131 121.208
13.46105863690397 101.17399999999999
13.483530069144786 98.8196
13.505984506951902 102.353
13.528456981549432 110.65
13.550929978879088 123.569
13.573385983253365 144.735
13.595860028340867 182.519
13.618317081455832 235.24099999999999
13.64079217790333 298.99
13.663250283359057 354.20300000000003
13.685726434770173 378.805
13.708203115221277 337.849
13.730662806148091 256.017
13.75314054697177 179.808
13.775601299246777 123.60799999999999
13.798080104050406 94.7319
13.820559442405358 83.7057
13.843021793671388 80.0622
13.865502201420897 78.3742
13.887965623051947 77.6699
13.910447103807167 76.8379
13.932929122629764 75.5362
13.955394156785959 74.9584
13.977877254034569 74.0498
14.000343367582113 73.2721
14.022827546871707 72.6139
14.045294743423524 72.0246
14.06778000837062 71.2971
14.090265817715476 71.2664
14.112734645763819 70.9896
14.13522154619454 70.8962
14.157691466286913 71.195
14.180179461423874 70.9715
14.202668005486178 70.097
14.22513957064374 69.1795
14.247629214846473 68.7315
14.270101881097517 68.7976
14.29259262906496 69.295
14.315083930490205 70.2035
14.337558255389705 70.7286
14.360050666019726 70.5184
14.382526101071944 69.1174
14.405019624534942 68.0272
14.427513705993134 67.4475
14.449990813291825 67.3714
14.47248601302899 67.1826
14.49496423954951 67.3522
14.517460561197822 67.4279
14.539939910570322 67.2893
14.562437357763558 67.661
14.58493536931253 68.8971
14.607416409993311 69.9177
14.62991555254159 70.743
14.652397725157423 70.535
14.674898002342799 69.6463
14.697398848433282 68.7636
14.719882725991326 69.1951
14.74238471217934 69.6784
14.764869730765593 71.7659
14.787372860692983 74.4217
14.809876564079925 78.1223
14.83236330125751 82.9532
14.854868153850365 89.9534
14.877356041159485 102.59899999999999
14.899862046604186 120.208
14.922351087688757 146.048
14.944858249632887 178.737
14.967365991421232 210.046
14.989856770231246 228.692
15.012365673994204 218.46
15.03485761569738 188.889
15.05736768508665 150.142
15.07987833888692 114.051
15.102372032001655 88.9872
15.124883856909658 75.6298
15.14737872204565 71.1273
15.169891721717274 69.1957
15.192405310371893 69.0585
15.214901940621196 69.694
15.237416709527137 70.1562
15.259914520936249 70.4049
15.282430473753607 69.4184
15.304947020131227 67.9445
15.327446610371178 66.8142
15.349964346154254 65.7947
15.372465126703139 65.3711
15.394984055556009 65.3732
15.417486030076159 65.0625
15.44000615566487 64.6261
15.462526881230803 64.6702
15.485030653812652 64.8703
15.507552581617434 65.0731
15.530057557334603 64.8851
15.55258069104857 64.8284
15.575104429329837 64.558
15.597611216864632 64.0683
15.620136166564563 64.0775
15.6426441664095 64.7598
15.665170331202765 66.067
15.687697105158826 68.3798
15.710206930593545 71.1182
15.732734925158933 74.4242
15.755245972089478 79.8102
15.77777519094324 88.3154
15.800287463046663 100.512
15.822817909869592 118.809
15.84534897229804 142.96200000000002
15.867863089299354 170.253
15.890395385222186 189.437
15.912910736597423 196.179
15.935444269699861 183.84400000000002
15.957978423016485 153.671
15.980495633101265 121.163
16.003031029129367 94.2724
16.02554948280019 75.7155
16.048086125229432 67.1663
16.070623392487107 64.517
16.09314371869582 63.8477
16.11568223789321 63.04
16.13820381691126 61.9323
16.160743591742527 60.6837
16.183283996022084 59.4585
16.205807461423195 58.2522
16.228349126881973 57.9197
16.25087385432698 57.7797
16.27341678466365 57.318999999999996
16.29594277784926 57.2813
16.31848697676433 57.6029
16.341031811604868 58.2378
16.36355971058487 58.8892
16.3861058195587 58.4098
16.40863499352978 56.9593
16.431182380342005 56.0094
16.453730407713202 55.4062
16.476261501364792 54.7775
16.498810812136167 54.6525
16.52134319004079 54.4039
16.54389378792203 54.4427
16.566445031001553 54.1547
16.588979342490088 53.9774
16.61153187824822 53.8886
16.634067483263312 53.8672
16.656621315414416 53.5854
16.679175797408888 53.3667
16.701713349928728 53.3565
16.72426913389191 53.7881
16.74680798922351 53.9753
16.76936507887444 54.0596
16.791905240734874 53.9074
16.814463639794468 53.7982
16.837022695210294 53.7099
16.859564824093756 54.122
16.882125194503903 55.0684
16.904668639217885 55.8523
16.927230328348003 56.2405
16.949792678493612 56.2909
16.972338104193863 55.614
16.994901778652235 54.7438
17.017448529496576 54.4871
17.040013531998152 54.4214
17.06257920018044 54.729
17.0851279459922 55.369
17.107694947817667 56.2039
17.130245028099072 56.648999999999994
17.15281336730298 58.0233
17.17536478578733 59.6361
17.19793446610687 61.5262
17.220504818648422 64.4712
17.243058251703697 67.8159
17.265629950971032 72.7468
17.288184731571736 77.9001
17.310757781306908 81.9526
17.33333150794385 82.9054
17.355888317140174 80.5657
17.37846339986244 75.0275
17.401021565958885 69.0213
17.42359800851343 63.9278
17.44617513265564 60.5516
17.468735341390783 58.7808
17.491261035594565 57.9972
17.51396340099364 57.5635
17.536490463869136 57.7081
17.559018209820174 57.8288
17.58154663977963 57.7771
17.604251766089718 58.048
17.626781572227713 58.3161
17.64931206518155 58.3671
17.671843245885103 59.0775
17.69455114821572 59.4219
17.717083712612634 59.6071
17.739616967569667 59.6529
17.762150914021706 59.905
17.78486160749854 59.821000000000005
17.807396945166804 60.3482
17.829932977143503 60.7484
17.85246970436452 61.9511
17.875183204129467 63.2483
17.897721330097664 65.2291
17.920260154126645 67.3773
17.942799677153296 70.0342
17.9655159983646 73.1212
17.988056927677544 78.1825
18.010598558807683 85.6686
18.033140892692916 95.669
18.05586005052525 107.84100000000001
18.07840379824407 119.985
18.10094825154059 131.28799999999998
18.12366954819864 139.016
18.146215420998306 136.84799999999998
18.16876200220057 127.624
18.191309292745153 113.65
18.214033452627167 99.9313
18.236582170236648 88.4443
18.259131600016456 83.2478
18.281681742907335 83.2034
18.304408781233683 88.015
18.32696035875955 94.0769
18.349512652227624 99.4556
18.372065662579683 104.764
18.394795594587553 106.59299999999999
18.41735004715306 102.389
18.43990521943684 94.3242
18.46246111238171 84.8229
18.485193953325208 75.7254
18.507751296070428 68.5831
18.530309362314178 64.684
18.552868153000343 62.3738
18.57560391815056 60.8569
18.59816416623245 60.2848
18.620725141597372 59.9742
18.643286845190268 59.6311
18.666025549835414 59.1553
18.688588718427933 58.5944
18.711152618092243 58.3519
18.73389353884365 58.0899
18.75645890921984 57.8256
18.77902501351406 57.4965
18.801591852673102 57.3381
18.824335739722738 56.7858
18.846904057212626 56.7715
18.8694731124168 56.5591
18.89204290628315 56.4184
18.914789774966803 56.321999999999996
18.937361054791623 56.2268
18.959933076131318 55.9533
18.982505839934877 55.9171
19.00525570560582 55.89
19.027829963004184 55.7424
19.05040496572238 55.8844
19.072980714710468 55.641999999999996
19.095733592739563 55.6564
19.11831084296757 55.9083
19.140888842324735 56.511
19.16346759176222 56.7865
19.18622349753803 57.1023
19.208803755869358 57.9018
19.231384767143577 58.8072
19.253966532312948 60.2418
19.276725481241822 62.1275
19.29930876296784 65.0754
19.3218928014549 68.2878
19.34465404436217 71.613
19.36723960516257 74.5353
19.389825925592426 75.4462
19.412413006605938 74.5571
19.43517731967805 70.7168
19.457765930683355 66.1667
19.48035530514408 61.5364
19.50294544401556 57.8686
19.525712842708348 55.123999999999995
19.54830451925909 54.1356
19.570896963095727 53.1345
19.593490175174704 52.7874
19.616260674962184 52.6159
19.638855432416964 52.5232
19.661450960992624 52.5323
19.68404726164677 52.516999999999996
19.706820878021247 52.2694
19.729418731756834 52.4584
19.752017360452857 52.2099
19.77461676506804 52.3419
19.797393513540218 52.5251
19.819994478951667 52.6112
19.84259622316767 53.0448
19.8651987471481 53.4144
19.887978643247177 53.724
19.91058273574792 53.8783
19.933187610901943 54.6284
19.955969879466828 55.6493
19.97857632894404 57.1181
20.00118356396599 58.7106
20.023791585494575 61.0058
20.046577028914875 63.8911
20.069186632506966 66.2066
20.091797025500632 68.3525
20.114408208858933 69.1908
20.137196842715273 68.5884
20.159809615886765 66.4363
20.18242318232135 63.6336
20.20503754298326 61.7882
20.227829382875154 60.6871
20.250445341109344 60.6451
20.27306209647285 61.6896
20.29567964993108 63.1277
20.31847471147704 64.0161
20.34109387027612 65.0047
20.363713830075454 64.7558
20.386334591841646 63.1406
20.409132890679302 60.3215
20.431755265564437 57.1443
20.454378445325528 54.3798
20.477002430930366 52.5641
20.499803982716553 51.4516
20.522429589228004 50.6204
20.54505600449589 50.1174
20.567683229489194 50.0964
20.590488049900088 49.6311
20.61311690359731 49.3098
20.63574656993626 48.9931
20.658553853717297 48.6386
20.681185154618298 48.5447
20.703817271080066 48.5319
20.72645020407368 48.2959
20.749260783967177 48.2136
20.771895359337133 48.0952
20.794530754161617 47.9948
20.817166969412938 47.9451
20.83998086114876 47.754
20.86261872660049 47.6446
20.885257415405402 47.743
20.90789692853701 47.7109
20.930714147864748 47.5271
20.953355319030678 47.5347
20.97599731745334 47.6767
20.99864014410749 47.6035
21.021460706796564 47.5511
21.044105199328826 47.6601
21.06675052302631 47.9072
21.089396678865015 48.1896
21.112220600704806 48.3996
21.134868430275347 48.7188
21.15751709492456 49.0545
21.180166595629693 49.379
21.202993892429635 49.9742
21.22564507473034 50.2424
21.24829709602816 50.5329
21.27112693608965 50.3804
21.293780644891275 50.2296
21.316435195634053 49.6519
21.339090589297417 48.88399999999999
21.361923832041875 48.5465
21.384580921090404 47.8375
21.407238856007325 47.4154
21.429897637773326 47.2563
21.45273429906592 47.4217
21.475394784108598 47.3275
21.498056118951983 47.3379
21.520718304578022 47.6074
21.543558400304388 47.4886
21.566222297108816 47.6618
21.58888704765135 47.6941
21.61155265291521 47.85
21.63439619898156 48.1075
21.657063523335786 48.4336
21.67973170537063 48.9338
21.7024007460706 49.5378
21.72524775840385 50.0928
21.747918526116475 50.9615
21.770590155457388 52.2249
21.79326264741238 53.8363
21.816113141960237 55.6806
21.838787368860547 57.6506
21.861462461341976 59.7805
21.884315579735777 61.9592
21.90699241312273 63.0607
21.92967011506078 63.5847
21.95234868653799 63.2722
21.9752053151131 61.8042
21.997885635446785 59.7537
22.020566828293532 58.0549
22.04324889464272 56.4613
22.066109049404666 55.5333
22.088792872571794 55.1367
22.111477572219204 55.3739
22.1341631493376 55.3101
22.157026846313123 55.115
22.179714188221507 54.1532
22.202402410582668 53.0987
22.22509151438863 51.5126
22.24795876962584 50.2708
22.270649646204486 49.5344
22.293341407213727 48.9703
22.316034053646906 48.3575
22.338904883215342 48.0791
22.36159931041458 48.2118
22.38429462602756 48.2642
22.40699083104897 48.0086
22.429865251039757 47.942
22.452563244831367 48.0217
22.47526213102522 47.9348
22.49813925616515 47.8392
22.520839937143307 47.7033
22.543541513520587 47.6574
22.56624398629403 47.4378
22.589124730075895 47.4297
22.611829005656723 47.6016
22.63453418063466 47.5366
22.657240256008077 47.5981
22.680124634582935 47.7182
22.70283252079775 47.9504
22.725541310413075 48.2928
22.74825100442868 48.4931
22.771139033969575 48.9704
22.79385054687155 49.0498
22.81656296718292 49.6601
22.83927629590484 50.4432
22.862167992606945 51.5219
22.88488314827121 52.7996
22.907599215359284 54.001999999999995
22.93031619487366 55.3237
22.953211574954405 56.3022
22.975930389478226 57.1901
22.998650119445763 57.2313
23.02137076586092 56.5087
23.044269845560063 55.271
23.06699233506288 53.4656
23.089715744034912 51.5624
23.112617610931565 50.031000000000006
23.135342869061212 48.9402
23.158069049684816 48.3326
23.1807961538087 47.9232
23.20370174880544 47.7458
23.226430710184808 47.6968
23.249160598093425 47.9136
23.271891413539002 47.6649
23.294800752937697 47.5783
23.31753343374794 47.8907
23.340267045128353 47.9419
23.36300158808808 48.2432
23.38591468821339 48.4071
23.408651104658304 48.8253
23.431388455719986 49.4445
23.454126742409 50.3078
23.4770436196085 51.2728
23.499783787914662 52.6195
23.522524894889884 53.8799
23.54526694154616 55.1063
23.56818761219047 56.3473
23.59093154860734 56.9096
23.613676427751283 57.1081
23.636422250635754 56.3273
23.659346731118656 54.6902
23.68209445191868 52.8009
23.704843119509587 50.3965
23.72759273490623 48.619
23.750521041644767 47.3762
23.77327256312355 46.3821
23.796025035462787 45.7224
23.818956224555475 45.3031
23.841710609113413 45.1571
23.86446594758979 44.8514
23.887222241002014 44.6242
23.910157285144578 44.2514
23.932915498962537 44.2562
23.955674670778713 44.1085
23.978434801611975 43.9483
24.001373717286125 43.9137
24.024135776723917 43.94
24.046898798245582 43.751000000000005
24.06966278287146 43.6063
24.092605586582614 43.4487
24.115371508023642 43.2809
24.1381383956401 43.1345
24.16090625045381 43.1151
24.183852958731244 43.1274
24.206622758582608 42.8853
24.229393528706886 42.7523
24.252165270127392 42.8766
24.27511589952438 42.8063
24.297889594216997 42.7177
24.32066426328598 42.4041
24.34343990775613 42.448
24.36639447485003 42.4227
24.38917208083877 42.3071
24.41195066531332 42.2462
24.43490819850244 42.3507
24.457688750692377 42.1017
24.48047028445616 42.2139
24.503252800821233 42.3394
24.526214300784112 42.3005
24.548998793132213 42.2062
24.57178427117417 42.2695
24.59457073593893 42.3542
24.617536219319863 42.0689
24.64032466834748 42.0856
24.663114107195035 41.897
24.685904536893013 41.7663
24.708874020360852 41.8192
24.731666442613744 41.6532
24.754459858818787 41.5662
24.777254270007962 41.4338
24.80022777025625 41.2947
24.82302418230472 41.4324
24.845821592443674 41.3164
24.86862000170663 41.3613
24.891597535453727 41.1643
24.914397953892728 41.411
24.93719937456671 41.3079
24.96000179851076 41.4299
24.98298338249997 41.5043
25.00578782394922 41.7915
25.028593271784167 41.7791
25.05157790644186 42.1254
25.07438537804115 42.448
25.097193859145293 42.5668
25.120003350792075 42.9135
25.142992065061257 43.2983
25.165803588823465 43.398999999999994
25.18861612625217 43.8443
25.211429678386736 43.76
25.234422489079968 43.8181
25.257238081693636 43.7649
25.280054692141732 44.0046
25.3028723214652 43.9711
25.325869245420463 44.2024
25.348688923599397 44.2881
25.371509623787006 44.2626
25.394331347025812 43.7951
25.41733240110666 43.4011
25.440156181590016 42.6551
25.46298098826268 42.2214
25.48580682216873 41.7808
25.50881202326435 41.0996
25.53163992281684 40.7849
25.55446885274561 40.4001
25.577298814096377 40.1279
25.600308179121807 40.0891
25.623140214533745 40.0959
25.64597328451537 40.0401
25.66898578564376 39.764
25.691820936010206 39.7181
25.714657124097695 39.6405
25.737494350954734 39.8166
25.760511045684957 39.6953
25.783350361364224 39.7351
25.806190718969255 39.7147
25.82903211955018 39.7682
25.852053024868923 39.8517
25.874896522722523 39.8809
25.897741066713106 39.8617
25.920586657892454 39.9681
25.943611790812668 40.0037
25.966459487728237 40.0152
25.989308234998564 40.0744
26.01215803367705 40.611
26.03518741123814 40.6931
26.05803932412957 40.6774
26.080892291600094 40.7491
26.10374631470478 40.8635
26.12677995397268 41.0065
26.14963609978026 40.9541
26.172493304397875 40.4518
26.19535156888223 40.3461
26.218389486949604 39.9501
26.241249882640123 39.7245
26.26411134137826 39.4248
26.28715248187403 39.4234
26.31001607820869 39.3558
26.3328807407756 39.0437
26.35574647063438 39.2496
26.37879191991473 39.2825
26.401659795896734 39.1126
26.424528742360263 39.2344
26.447398760366614 39.6124
26.470448535598294 39.7107
26.49332070826805 39.8305
26.516193955675355 40.2615
26.53906827888316 40.3532
26.562122397260108 40.5396
26.584998883685063 40.9096
26.607876449110325 41.0522
26.63075509460056 41.2972
26.65381357334404 41.4192
26.67669439061878 41.4399
26.699576291163382 41.4022
26.722459276044212 41.1285
26.745522132402975 40.8362
26.768407297649354 40.5902
26.791293550442003 40.2626
26.814180891848974 40.0729
26.837248143099337 39.6448
26.860137673466657 39.5369
26.88302829566349 39.4145
26.90592001075963 39.4807
26.92899167420566 39.1983
26.951885586870763 38.6917
26.974780595655517 38.4075
26.99785558178161 38.3732
27.020752794605112 38.2078
27.043651106772522 37.9803
27.06655051935668 38.0637
27.089629948036183 38.0073
27.112531573292053 38.0533
27.135434302194138 37.9787
27.158338135817015 37.8169
27.181422024430987 37.9144
27.204328079372566 37.6023
27.22723524226965 37.5463
27.250143514198573 37.6975
27.273231880156334 37.7306
27.296142382065014 37.6082
27.319053996245536 37.6037
27.341966723775965 37.6504
27.365059584515222 37.6244
27.38797455070062 37.7589
27.410890633481237 37.6621
27.433807833936918 37.6735
27.456905206923906 37.6986
27.47982465472398 37.804
27.502745223449743 37.7991
27.525666914182825 37.8638
27.548768816912457 37.736999999999995
27.571692763693633 37.6847
27.59461783573812 37.678000000000004
27.617723149491244 37.4132
27.640650484125285 37.3907
27.66357894728264 37.304
27.686508540048052 37.2677
27.709618414237887 37.2111
27.732550278321757 37.1738
27.755483275279115 37.122
27.778417406196485 36.9909
27.801531858397514 37.0891
27.824468269376716 37.0664
27.847405817586786 37.092
27.870344504116094 37.179
27.893463551932008 37.271
27.916404527281053 37.4368
27.93934664422563 37.5169
27.962289903855886 37.6378
27.98541356491974 37.9228
28.00835912214229 38.016999999999996
28.03130582533231 38.2757
28.054253675581805 38.4001
28.077381967556104 38.3433
28.100332124185126 38.3164
28.123283431160893 38.2822
28.146235889577238 38.0998
28.169368830154156 37.9773
28.192323603752033 37.809
28.215279532083304 37.4833
28.238415973016764 37.2303
28.261374223145094 37.2681
28.284333631303806 37.0027
28.307294198589954 36.7125
28.330435319167677 36.5199
28.353398217078915 36.2166
28.376362277420153 36.0207
28.39932750129032 35.8288
28.422473319286713 35.5828
28.44544088262495 35.6365
28.468409612800283 35.5741
28.491379510913497 35.3993
28.51453004413313 35.3233
28.53750229057244 35.3125
28.56047570826344 35.1975
28.583450298308804 35.2429
28.606605564586562 34.986999999999995
28.629582511831156 35.0206
28.65256063474956 34.9487
28.675539934446338 34.9459
28.698699951647605 34.9423
28.72168161743193 34.8589
28.74466446331978 34.8329
28.767648490417624 34.722
28.790813276438353 34.8363
28.813799678527303 34.8137
28.836787265157085 34.7892
28.859955641890075 34.9414
28.882945610203045 34.8527
28.905936766392035 34.6017
28.928929111566863 34.7014
28.952102288520145 34.6153
28.975097024308607 34.4878
28.998092952423807 34.3305
29.021090073977508 34.3288
29.04426806913204 34.171
29.067267590245258 33.891999999999996
29.090268308143695 33.9658
29.11327022394099 33.8885
29.13645305530891 33.7764
29.159457379627167 33.7895
29.18246290519685 33.6586
29.20546963313352 33.6471
29.22865731875826 33.7363
29.25166646419296 33.6638
29.27467681535305 33.5209
29.29768837335608 33.6055
29.320880931312562 33.6828
29.34389491580634 33.6432
29.366910110507334 33.6121
29.38992651653503 33.5489
29.41312396492981 33.5663
29.436142806456754 33.5036
29.45916286268059 33.4181
29.48236399319994 33.383
29.50538649169417 33.1876
29.528410208259935 33.2068
29.55143514402014 33.0905
29.574641196749695 32.8517
29.597668583816574 32.6747
29.6206971934585 32.5469
29.64372702680042 32.5754
29.666938019934474 32.3966
29.689970313635285 32.3237
29.713003834422636 32.2999
29.73603858342347 32.22
29.759254535188578 32.1627
29.78229175361658 32.1962
29.80533020365064 32.4708
29.82836988641968 32.1949
29.85159081507472 32.1331
29.874632976355343 32.0758
29.89767637376955 32.116
29.920721008448314 32.0021
29.9439469322847 32.0853
29.96699405457564 31.9575
29.9900424175358 31.9539
30.013092022298157 31.8518
30.03632295963995 31.7984
30.059375061131373 31.8607
30.08242840783577 31.8312
30.105483000888153 31.8797
30.128718970092244 31.8
30.151776069006917 31.8199
30.17483441768648 31.7477
30.198074175317235 31.7763
30.221135036724256 31.8188
30.24419715131772 31.6961
30.267260520236203 31.6896
30.290505341942243 31.7065
30.313571232750228 31.6901
30.336638381310948 31.7623
30.35970678876503 31.7345
30.38295669299435 31.5495
30.40602763151657 31.5278
30.429099832366074 31.5484
30.452173296685572 31.4415
30.47542830191959 31.4592
30.498504306502497 31.4615
30.521581577995562 31.5549
30.544660117543582 31.5283
30.56792024229725 31.5509
30.59100133132069 31.612
30.614083691845494 31.5248
30.637167325018545 31.5367
30.660432587840603 31.5994
30.683518779717886 31.598000000000003
30.70660624769615 31.6087
30.729694992924372 31.6909
30.75296541239743 31.6399
30.77605672557558 31.6402
30.799149319462742 31.4651
30.8224236211637 31.3546
30.845518789950724 31.3235
30.868615242910597 31.1636
30.891712981195973 31.0241
30.91499247215866 30.9099
30.938092794619365 30.9079
30.96119440587579 30.8703
30.984297307082752 30.7971
31.00758200598383 30.548000000000002
31.030687500658694 30.5416
31.053794288760695 30.4631
31.076902371446767 30.4946
31.100192296997445 30.5106
31.12330298246119 30.5322
31.14641496599209 30.3274
31.169528248749216 30.4382
31.19282341969534 30.3193
31.215939314557186 30.3753
31.239056512134788 30.4288
31.262175013589378 30.3075
31.28547544871168 30.2727
31.30859657161541 30.1917
31.331719001892175 30.2909
31.35484274070538 30.4206
31.378148458819545 30.2825
31.401274828443725 30.241
31.424402510106933 30.3551
31.447712205419993 30.3871
31.470842524931633 30.2809
31.493974159989783 30.2437
31.51710711176168 30.2707
31.54042212308802 30.2802
31.563557722100917 30.2211
31.586694641341655 29.9511
31.609832881979628 29.809
31.63315322823208 29.8523
31.656294125521327 29.826
31.679436347728515 29.8271
31.70257989602529 29.6702
31.725905596152327 29.5772
31.74905181052835 29.5027
31.772199354521323 29.549
31.79534822930507 29.5597
31.818679302290967 29.6004
31.84183085259981 29.5806
31.864983737233473 29.5403
31.88813795736804 29.5937
31.911474422233013 29.583000000000002
31.934631327356435 29.4617
31.9577895715215 29.4626
31.980949155906522 29.4667
32.004291031706956 29.394000000000002
32.027453310562606 29.3224
32.05061693318573 29.2087
32.07396288236386 29.1616
32.09712920658542 29.1253
32.12029687812702 29.048000000000002
32.14346589817093 29.0309
32.166817291729984 28.9339
32.18998902288583 28.965
32.21316210610336 28.8559
32.23633654256711 28.6914
32.259693399663725 28.7049
32.282870556771144 28.6251
32.30604907069099 28.7052
32.329228942610065 28.5898
32.35259128243769 28.4373
32.375773884550505 28.3992
32.398957848235646 28.4833
32.422143174682176 28.3798
32.445511016471215 28.279
32.468699082679954 28.2242
32.49188851523011 28.1995
32.51507931531304 28.1058
32.538452678331 28.0749
32.56164622776311 28.0098
32.58484114831493 28.0059
32.60803744118015 27.9885
32.631416344731896 27.9423
32.654615396551876 27.9402
32.67781582427913 27.8672
32.701198898634416 27.6556
32.72440209253756 27.6933
32.747606665947124 27.7489
32.77081262006088 27.5774
32.79420126883317 27.5651
32.81740999876112 27.6042
32.840620112999424 27.5684
32.86383161274818 27.4758
32.88722585534586 27.491999999999997
32.91044014056596 27.6035
32.933655814909734 27.45
32.95687287957963 27.4095
32.98027273544904 27.3672
33.00349259526636 27.2891
33.026713849030116 27.3619
33.04993649794511 27.2747
33.073341986570746 27.2289
33.09656744032826 27.3359
33.11979429286444 27.3264
33.14302254538647 27.2535
33.166433686291185 27.2403
33.18966475336992 27.2298
33.212897224069096 27.0386
33.23613109959831 27.0902
33.259547912343415 27.0411
33.2827846121627 27.0534
33.306022720453775 26.9919
33.32926223842861 26.8586
33.352684742614166 26.8921
33.37592709463173 26.901
33.399170859982064 26.7747
33.422597648419426 26.7231
33.44584425514446 26.6126
33.46909227885668 26.5568
33.4923417207723 26.5015
33.51577423505344 26.5011
33.539026528130385 26.4005
33.56228024307245 26.3979
33.585535381098246 26.2568
33.60897364093058 26.2741
33.63223163992385 26.283
33.6554910656699 26.2067
33.678751919389796 26.1425
33.702195944520106 26.1041
33.72545966903325 26.04
33.74872482519663 26.0233
33.771991414233746 25.9921
33.79544122444841 25.9345
33.81871069412428 25.9052
33.84198160035767 25.9098
33.86525394437455 25.94
33.88870955949969 25.8407
33.911984794020626 25.8029
33.93526147001624 25.7462
33.958539588715006 25.6928
33.98200102861669 25.6119
34.0052820477047 25.5243
34.02856451319451 25.5722
34.05203033759056 25.4605
34.07531571090147 25.5078
34.09860253431845 25.504
34.121890809074316 25.4671
34.145362493118924 25.3599
34.16865368561615 25.3062
34.191946333164054 25.3039
34.21524043699793 25.3449
34.23871800066799 25.2787
34.26201503218366 25.2023
34.28531352370466 25.1742
34.30861347646881 25.0361
34.33209693978188 25.101
34.3553998301885 25.0342
34.378704185565205 24.9548
34.402010007152356 24.8715
34.42549939016683 24.901999999999997
34.44880815937748 24.8064
34.472118398533134 24.7084
34.49543010887669 24.7689
34.51892543169198 24.6421
34.54224009966052 24.685
34.56555624255917 24.6363
34.58887386163339 24.6119
34.61237514439016 24.559
34.6356957311114 24.5243
34.65901779775809 24.4257
34.68252356662995 24.5103
34.705848608458616 24.4601
34.72917513396849 24.2956
34.75250314440949 24.3403
34.77601490857862 24.2908
34.799345904259795 24.2018
34.82267838863559 24.2586
34.846012362958525 24.2217
34.869530142679984 24.1459
34.89286711232212 24.1845
34.91620557568269 24.1073
34.93954553401677 24.1618
34.9630693495876 24.0654
34.986412313340814 24.0328
35.00975677584668 24.0383
35.033102738362956 23.9196
35.05663261012228 23.9471
35.0799815881786 23.8965
35.10333207003229 23.8741
35.12668405694369 23.8914
35.150220005273056 23.7959
35.17357501786656 23.8657
35.19693153931268 23.8179
35.220289570874385 23.7423
35.24383161619786 23.7046
35.267192683604904 23.6967
35.290555264930376 23.5956
35.314101899412165 23.6655
35.33746752422433 23.5874
35.36083466676374 23.6389
35.38420332829803 23.524
35.407756095629054 23.5625
35.43112781085063 23.5978
35.45450104888391 23.5066
35.477875810999194 23.4944
35.50143473172161 23.3852
35.52481255774625 23.4576
35.54819191167777 23.4114
35.57157279478914 23.2863
35.595137889488406 23.266
35.61852184675279 23.2715
35.641907337029984 23.1341
35.665294361595684 23.1379
35.68886565090076 23.1141
35.7122557598848 23.0603
35.73564740699838 23.0779
35.759040593519934 23.0767
35.78261809810353 23.0604
35.80601437933051 22.9074
35.829412203814705 22.8342
35.85281157283719 22.8749
35.876395313415884 22.857
35.8997977874528 22.7948
35.92320180988546 22.7447
35.946790244133936 22.6542
35.97019737933222 22.6619
35.993606066789866 22.7164
36.01701630779276 22.6
36.04061101440684 22.585
36.06402437852291 22.5777
36.08743930005611 22.5244
36.1108557802951 22.4722
36.13445678011326 22.4935
36.15787639383515 22.4352
36.18129757014299 22.3274
36.20472031032821 22.3128
36.22832762423364 22.3082
36.25175350829375 22.2426
36.275180960119776 22.1688
36.298609981005924 22.3033
36.32222362992669 22.1734
36.34565580510207 22.1688
36.36908955323448 22.1398
36.39252487562093 22.1111
36.416144880530226 22.035
36.43958336764275 22.0652
36.463023432914625 22.0478
36.486465077645676 21.8868
36.51009145956204 21.9574
36.53353627947859 21.9231
36.55698268276811 21.9372
36.58043067073321 21.8906
36.60406345072071 21.8325
36.62751462435344 21.7519
36.65096738658405 21.8463
36.67460498210655 21.7586
36.69806093788647 21.7601
36.72151848619297 21.6153
36.744977628333636 21.6257
36.76862165890998 21.5977
36.79208400512205 21.5792
36.81554794910557 21.5719
36.83901349217101 21.4192
36.862663978991606 21.4116
36.88613273667352 21.445999999999998
36.90960309738324 21.4038
36.933075062434064 21.3161
36.95673202673572 21.2953
36.98020721697122 21.2514
37.003684015502365 21.1975
37.027162423645365 21.156999999999996
37.050825886711465 21.2104
37.07430753063053 21.1169
37.09779078812467 21.1034
37.121275660513014 21.0516
37.144945643673694 21.0017
37.16843376245278 20.987
37.19192350009803 20.9385
37.215414857931435 20.9322
37.239091382563885 20.8419
37.262585997426164 20.8244
37.28608223645736 20.8402
37.309763684451696 20.803
37.33326318851098 20.8079
37.356764320726555 20.788
37.380267082425526 20.7497
37.40395510942588 20.7611
37.42746114683234 20.6282
37.45096881771841 20.6133
37.474478123414166 20.5958
37.49817275092816 20.5285
37.52168534303452 20.4942
37.54519957395567 20.4652
37.568715445024665 20.3975
37.592416694607714 20.4244
37.61593586281424 20.52
37.63945667518264 20.4601
37.66297913304891 20.2856
37.68668702630454 20.2822
37.710212792059274 20.2263
37.733740207334854 20.1934
37.757269273470364 20.1366
37.780983832050374 20.115
37.80451621684926 20.2194
37.82805025654007 20.1689
37.851585952464795 20.0637
37.8753071980695 19.9836
37.89884622345676 19.9341
37.92238690911902 19.8826
37.94611318753442 19.8959
37.969657210779765 19.8628
37.99320289834801 19.8656
38.016750251586465 19.866
38.04048325513017 19.7601
38.06403395679343 19.7301
38.087586328183946 19.7262
38.11114037065203 19.7269
38.13488012115898 19.7072
38.1584375229181 19.6008
38.181996599821 19.5841
38.205557353221124 19.6063
38.229303872575656 19.6105
38.2528679961576 19.5253
38.27643380031219 19.4798
38.30000128639589 19.4963
38.32375459653193 19.4982
38.34732546371299 19.5206
38.37089801690786 19.3478
38.39447225747609 19.3268
38.418232380377425 19.3241
38.441810012983396 19.3571
38.46538933705673 19.2333
38.488970353960084 19.2829
38.51273731166058 19.2729
38.536321731567014 19.17
38.55990784840681 19.1314
38.58367995004091 19.1052
38.60726947812959 18.9534
38.63086070726198 18.9968
38.654453638806274 19.032
38.678232613930824 19.0047
38.70182896773327 18.9846
38.72542702806741 18.9598
38.7490267963045 18.9343
38.77281266709232 18.8316
38.79641586862214 18.8052
38.8200207821842 18.7619
38.843627409152944 18.7989
38.86742019782782 18.7231
38.891030269149255 18.6014
38.914642058016156 18.7012
38.938255565806124 18.5936
38.96205529464307 18.5968
38.98567225787121 18.5958
39.00929094417078 18.5635
39.03291135492255 18.5249
39.05671804624804 18.4486
39.080341923549106 18.4596
39.103967529460334 18.4071
39.127594865365744 18.3525
39.15140854155791 18.3276
39.17503935514948 18.3076
39.19867190290282 18.3562
39.22249083587951 18.3062
39.24612686969409 18.3275
39.269764641845306 18.3068
39.293404153722804 18.2508
39.317230110864074 18.1187
39.34087311998506 18.1046
39.36451787301696 18.1142
39.388164371352595 18.0227
39.41199737518003 18.0665
39.43564738196752 18.0347
39.45929913825317 17.958
39.48295264543308 17.9353
39.506792718520884 17.9107
39.530449745387216 17.8814
39.55410852735203 17.9181
39.57776906581474 17.9007
39.60161623079 17.7924
39.625280300200025 17.787
39.64894613032202 17.7275
39.67261372255866 17.7927
39.6964680021016 17.7453
39.72013913657293 17.7556
39.74381203738292 17.6811
39.76748670593756 17.6704
39.79134812278169 17.6653
39.81502634488497 17.6503
39.83870633896685 17.5681
39.862388106436654 17.5009
39.88625668336918 17.4563
39.90994201572829 17.5079
39.933629125719285 17.4135
39.957503091207826 17.4043
39.9811937746168 17.461
40.00488623990914 17.3798
40.02858048850006 17.3599
40.05246165409549 17.3353
40.076159487492085 17.2344
40.099859108448875 17.2562
40.123560518384345 17.2013
40.1474489070226 17.1623
40.171153913178564 17.1434
40.194860712584955 17.1153
40.2185693066637 17.1662
40.242464941335314 17.0672
40.26617714307655 17.0347
40.289891143772046 17.0016
40.3136069448471 17.0325
40.33750984859743 16.9828
40.3612292688043 16.9217
40.3849504936829 16.9455
40.40867352466194 16.9193
40.43258372059144 16.9009
40.45631038219906 16.8669
40.48003885420956 16.7902
40.503769138055105 16.7892
40.52768664931955 16.8074
40.55142057531802 16.7406
40.57515631746428 16.7213
40.599079334038514 16.695999999999998
40.62281872700477 16.6442
40.64655994043941 16.5814
40.67030297578061 16.5968
40.69423334835778 16.6009
40.71798004609188 16.6034
40.74172857006355 16.4982
40.76547892171441 16.5323
40.7894166736039 16.5044
40.813170699248566 16.4401
40.83692655691388 16.4242
40.86068424804498 16.4468
40.884629402612525 16.4037
40.908390779366385 16.3898
40.932153993938 16.3498
40.95591904777605 16.3099
40.979871628443995 16.3091
41.003640379561936 16.276
41.02741097430883 16.1969
41.05118341413683 16.1465
41.075143444384416 16.1771
41.098919593177826 16.1849
41.1226975914255 16.1777
41.14647744058318 16.1054
41.170444943946755 16.065
41.19422851378379 16.0487
41.218013938914645 16.0004
41.24198706625173 15.9392
41.26577622087193 15.9705
41.289567235177785 15.9322
41.31336011063129 15.9481
41.337340752422875 15.8791
41.361137369129835 15.8394
41.38493585138705 15.8283
41.40873620066004 15.7508
41.43272438060107 15.7774
41.45652848292052 15.7103
41.48033445666918 15.673
41.50414230331616 15.6833
41.528138045159764 15.6815
41.551949656675205 15.5679
41.575763145513235 15.593
41.59957851314666 15.5891
41.62358184070442 15.5238
41.64740098505737 15.5376
41.6712220126409 15.5165
41.69504492493139 15.4842
41.71905586207357 15.4352
41.74288256296395 15.449000000000002
41.766711153007456 15.4309
41.79054163368412 15.4101
41.814560204340054 15.3262
41.838394485526365 15.3608
41.86223066180303 15.3206
41.88625497706819 15.2669
41.910094962812 15.2505
41.93393684811168 15.2761
41.95778063445365 15.2022
41.981812625263366 15.1687
42.00566023303407 15.1439
42.029509746323676 15.1304
42.05336116662236 15.1547
42.077400857069705 15.1161
42.10125611078846 15.0742
42.12511327600405 15.01
42.14897235421036 14.9747
42.173019768448455 14.9581
42.19688269209613 14.9248
42.22074753323349 14.9421
42.24461429335818 14.8948
42.268669455600495 14.8982
42.292540073217886 14.8364
42.31641261433284 14.8092
42.34028708044675 14.7793
42.36435001496739 14.731
42.38822835065557 14.7622
42.41210861586426 14.7266
42.4359908120986 14.6797
42.46006154323262 14.686
42.48394762115317 14.6371
42.507835634632315 14.6142
42.531912233047436 14.6119
42.55580413732265 14.595999999999998
42.579697981698 14.5413
42.60359376768525 14.5088
42.62767820545945 14.4876
42.65157789440821 14.5054
42.67547952952185 14.4643
42.699383112316 14.4644
42.72347541395347 14.4016
42.74738291190531 14.3836
42.771292362102166 14.3861
42.795203766063516 14.312000000000001
42.819303956130405 14.2598
42.843219287476536 14.2477
42.86713657716324 14.237
42.89105582671383 14.2556
42.91516392983864 14.1969
42.939087119032166 14.1897
42.963012272677304 14.1999
42.98693939230129 14.1513
43.01105543317513 14.1054
43.034986504731386 14.0686
43.05891954686589 14.1018
43.08285456110972 14.0689
43.10697856448665 13.9938
43.130917542983475 13.9862
43.15485849820081 13.9339
43.17880143167367 13.9231
43.20293342237094 13.9084
43.226880332449 13.9037
43.25082922540554 13.8518
43.27496722682525 13.8181
43.29892010567796 13.8047
43.32287497204102 13.8303
43.34683182745632 13.7368
43.370977859791836 13.7039
43.39493871351105 13.7243
43.41890156092628 13.7415
43.44286640358341 13.6924
43.46702049182749 13.630999999999998
43.49098934522816 13.6335
43.51496019852649 13.5968
43.5389330532723 13.5642
43.56309522248204 13.5615
43.58707210044314 13.5755
43.61105098451946 13.5426
43.63503187626491 13.5155
43.659202151562134 13.4487
43.68318707902681 13.4342
43.70717401884041 13.4119
43.731162972560874 13.3585
43.75534137913236 13.3601
43.779334381108384 13.3504
43.803329401683186 13.3707
43.82732644241872 13.3622
43.8515130055166 13.2647
43.87551410707659 13.2668
43.89951723350145 13.2597
43.923709934595614 13.2392
43.94771713129917 13.2011
43.97172635758096 13.1645
43.99573761501002 13.1872
44.0199385169922 13.1271
44.04395385732619 13.1115
44.067971233533086 13.1059
44.09199064718605 13.0741
44.11619977548961 13.0495
44.14022328470671 13.0284
44.16424883610785 13.0021
44.18827643127035 12.963
44.21249381139513 12.9499
44.236525514814076 12.9043
44.26055926674478 12.9253
44.28459506876863 12.8702
44.3088207262813 12.8751
44.33286064928722 12.8275
44.35690262714919 12.8156
44.38094666145278 12.8297
44.4051806219871 12.7679
44.42922879003185 12.7054
44.45327901929361 12.7253
44.477331311362136 12.7311
44.501573600619416 12.6874
44.525630039221795 12.6501
44.54968854541895 12.6429
44.573937102200176 12.6088
44.5979997645541 12.6245
44.622064499300315 12.5369
44.64613130803592 12.5545
44.67038823869318 12.5715
44.69445921643748 12.542
44.718532272981385 12.4989
44.742607409926194 12.4243
44.76687274034801 12.4327
44.79095205918753 12.4173
44.81503346325094 12.3762
44.839116954143876 12.3937
44.86339071028742 12.3272
44.88747839599524 12.3104
44.91156817336837 12.2958
44.93566004401666 12.2811
44.959942251908146 12.2823
44.984038330325966 12.2501
45.00813650686762 12.2233
45.03223678314731 12.2022
45.05652746888232 12.1809
45.08063196592069 12.1633
45.104738567558705 12.103
45.128847275414856 12.0697
45.15314646515866 12.0753
45.17725940679741 12.0795
45.20137445952892 12.0542
45.22568004865265 12.0336
45.24979934496396 11.9722
45.27392075725247 11.9682
45.29804428714431 11.9862
45.322358426247604 11.9969
45.346486212804315 11.9121
45.370616121861914 11.9489
45.39474815505086 11.9259
45.41907087049246 11.8791
45.4432071734666 11.8703
45.46734560548283 11.8247
45.49148616817604 11.7947
45.51581748638564 11.7899
45.5399623320197 11.8039
45.56410931325473 11.7044
45.58825843173002 11.7383
45.61259837920865 11.6761
45.636751793816 11.7036
45.66090735060093 11.6325
45.68506505120716 11.6289
45.7094136545275 11.6129
45.73357566449271 11.581
45.75773982322992 11.5766
45.78190613238733 11.5762
45.806263418194064 11.5048
45.83043404997326 11.5251
45.85460683713677 11.4994
45.87897065658495 11.4727
45.90314777634752 11.4354
45.92732705646868 11.432
45.9515084986045 11.4443
45.97588104735473 11.3849
46.00006683541565 11.3792
46.02425479047904 11.3216
46.04844491420549 11.3094
46.0728262191024 11.3354
46.09702070211635 11.2664
46.12121735879483 11.2775
46.14541619080294 11.2139
46.169806278764455 11.2151
46.194009483459034 11.2067
46.21821486849841 11.1721
46.24242243555223 11.1439
46.266821333570014 11.1694
46.29103328674601 11.1126
46.31524742696538 11.0756
46.33946375590237 11.0868
46.36387149104216 11.0615
46.38809221957392 11.0303
46.41231514186606 11.0025
46.436540259597464 10.9728
46.460956858999374 11.0064
46.48518638983522 10.9797
46.509418121166966 10.9268
46.533652054678114 10.9004
46.55807754555709 10.8708
46.58231590571962 10.9075
46.60655647313217 10.8914
46.630988654873654 10.8587
46.655233659129024 10.8521
46.67948087571551 10.8063
46.70373030632484 10.7572
46.72817142736393 10.7544
46.752425308428684 10.734000000000002
46.77668140861147 10.735
46.80093972960865 10.7217
46.82538981736788 10.6849
46.849652602470904 10.6347
46.87391761349769 10.6214
46.8981848521493 10.6577
46.9226439341274 10.6198
46.946915650573224 10.5781
46.97118959976749 10.582
46.99546578341598 10.5783
47.019933887188216 10.5641
47.04421456235744 10.529000000000002
47.06849747711879 10.5193
47.09278263318286 10.4508
47.11725978640143 10.4362
47.14154944775105 10.4298
47.165841355555656 10.4258
47.1901355115306 10.38
47.214621741924994 10.3692
47.23892041698887 10.3626
47.26322134538975 10.3204
47.28771440635075 10.3179
47.31201986422527 10.3034
47.33632758061436 10.2727
47.360637557241866 10.234
47.38513974410611 10.247
47.40945426407847 10.2196
47.43377104948137 10.1871
47.45809010204344 10.1642
47.48260144275502 10.1718
47.506925052572285 10.1325
47.53125093475548 10.1031
47.55557909103813 10.095
47.58009961361992 10.0836
47.60443234110732 10.0509
47.62876734791564 10.0479
47.65310463578333 10.0398
47.6776343683373 9.97847
47.7019762413987 9.99041
47.72632040075572 9.994860000000001
47.75066684815169 10.0035
47.77520581885936 9.93262
47.799556865477655 9.92782
47.823910205386 9.93109
47.84826584033272 9.877239999999999
47.87281407745551 9.84707
47.89717432569297 9.909930000000001
47.92153687423484 9.826880000000001
47.94609208429692 9.82388
47.97045925671401 9.82617
47.99482873471275 9.8145
48.01920052005013 9.77133
48.04376504619224 9.79872
48.068141469543484 9.75778
48.09252020552573 9.702160000000001
48.11690125590099 9.66205
48.1414751266064 9.66571
48.16586082917454 9.67267
48.19024885144316 9.6406
48.2146391951793 9.62607
48.239222439012764 9.626339999999999
48.26361744916137 9.60476
48.28801478610016 9.61652
48.31241445160131 9.55898
48.337007097209366 9.527510000000001
48.36141144338331 9.55631
48.38581812345755 9.47508
48.41022713920929 9.4636
48.434829215320704 9.46043
48.45924292604658 9.46563
48.48365897780325 9.46527
48.50807737237308 9.43626
48.532688907799276 9.415239999999999
48.55711201168574 9.40997
48.581537463754074 9.37906
48.60615611725119 9.35184
48.63058628942721 9.30633
48.65501881516546 9.30332
48.6794536962573 9.28405
48.70408185970339 9.27507
48.72852147531801 9.27088
48.75296345168211 9.24301
48.77740779059232 9.240219999999999
48.80204549302823 9.24319
48.82649458091802 9.16462
48.85094603676547 9.16404
48.87539986237231 9.17953
48.90004713292306 9.138869999999999
48.92450572200832 9.15602
48.94896668628025 9.1055
48.97343002754588 9.06969
48.99808689542115 9.078439999999999
49.02255501470614 9.0886
49.04702551642794 9.04894
49.0714984023988 9.01041
49.096164896893235 9.016060000000001
49.120642575466796 8.9875
49.145122643748394 8.96734
49.16960510355558 8.96387
49.19428125404938 8.97214
49.2187685210852 8.86318
49.243258185121555 8.90235
49.26794160167084 8.877360000000001
49.2924360839405 8.82672
49.31693296869764 8.83578
49.34143225776915 8.84478
49.36612538195438 8.795160000000001
49.39062950396021 8.813139999999999
49.41513603578346 8.76613
49.4396449792564 8.76891
49.46434784069503 8.75428
49.488861631846454 8.70707
49.513377840166804 8.71273
49.537896467493745 8.68445
49.56260909589029 8.67037
49.587132585683285 8.68832
49.611658500018365 8.68189
49.636186840738596 8.64626
49.66090926588511 8.604330000000001
49.685442483902584 8.60886
49.70997813385706 8.56065
49.734516217597076 8.56062
49.75924846937352 8.56118
49.7837914452858 8.523589999999999
49.80833686055187 8.490110000000001
49.83288471702571 8.45387
49.85762682540054 8.4566
49.882179588965734 8.46355
49.9067347993235 8.43219
49.93129245833333 8.410860000000001
49.95604445336378 8.41463
49.98060703442832 8.4018
50.005172069746266 8.36365
50.02993150438364 8.34667
50.05450147301533 8.31981
50.07907390151433 8.35585
50.10364879174981 8.326089999999999
50.12841816587289 8.33799
50.1529980044635 8.26553
50.17758031042124 8.24649
50.20216508562089 8.28782
50.22694442953363 8.24405
50.25153416817468 8.215060000000001
50.27612638170508 8.18736
50.300721072005196 8.1785
50.325510416102105 8.16388
50.350110084975064 8.15745
50.37471223628208 8.16399
50.39931687190919 8.16372
50.424116246675766 8.111939999999999
50.44872587605249 8.0759
50.47333799543065 8.09164
50.49795260670191 8.09598
50.52276204271512 8.07494
50.54738166295838 8.06458
50.57200378079314 8.07169
50.596628398116835 7.998819999999999
50.62144792604559 7.999910000000001
50.646077567609396 7.95414
50.670709714377715 7.94176
50.69553683636198 7.93495
50.72017401885922 7.930610000000001
50.7448137122895 7.93359
50.76945591856022 7.90659
50.79429318636823 7.89451
50.818940443716784 7.8825
50.84359021965163 7.8632
50.868242516085964 7.85025
50.893089960641895 7.81981
50.917747323549435 7.82349
50.94240721271973 7.818
50.96706963007175 7.7957399999999994
50.99192728239342 7.803560000000001
51.01659478166073 7.77262
51.04126481489051 7.727580000000001
51.06593738400761 7.71554
51.090805275207074 7.69871
51.11548294172845 7.69429
51.14016314993547 7.71243
51.164845901758845 7.6397699999999995
51.18972406304274 7.628019999999999
51.21441192780656 7.61729
51.23910234200271 7.58887
51.2637953075678 7.61901
51.288683770237945 7.57952
51.31338186432707 7.57476
51.33808251561888 7.5270600000000005
51.362978729967345 7.55381
51.387684521509755 7.522539999999999
51.41239287610203 7.4915899999999995
51.437103795691165 7.522989999999999
51.46201036644977 7.48407
51.486726441956634 7.45322
51.51144508832545 7.440869999999999
51.536166307509156 7.42245
51.56108326624387 7.406560000000001
51.58580965706056 7.359710000000001
51.61053862657523 7.38572
51.635270176746864 7.37668
51.66019755512065 7.3612899999999994
51.68493429268881 7.34363
51.70967361681515 7.324039999999999
51.73441552946465 7.320639999999999
51.759353359237934 7.295030000000001
51.7841004750961 7.315169999999999
51.80885018539685 7.26549
51.833602492111254 7.259360000000001
51.8585508051424 7.264360000000001
51.883308330926425 7.2485100000000005
51.90806845906181 7.23767
51.932831191525715 7.145560000000001
51.95779001977161 7.16644
51.98255798721516 7.16195
52.00732856494335 7.1422
52.03229530577543 7.12104
52.057071130455945 7.09484
52.081849571391054 7.09674
52.106630630568695 7.08742
52.13160794279417 7.03919
52.15639426492067 7.0650699999999995
52.18118321127822 7.0648800000000005
52.205974783860896 7.05858
52.23096269971011 7.0147
52.255759551287994 7.01388
52.280559035098186 6.9632
52.30536115314103 6.94839
52.33035970494467 6.962260000000001
52.35516711807904 6.9344600000000005
52.37997717147198 6.9234100000000005
52.40478986713005 6.921289999999999
52.42979908731974 6.9260600000000005
52.454617094216 6.86382
52.47943774942214 6.888
52.50426105495102 6.87138
52.529280976059844 6.84262
52.554109609024096 6.82642
52.57894089837482 6.787739999999999
52.60377484613117 6.77837
52.62880550079408 6.77588
52.65364479223379 6.74458
52.67848674816189 6.7305399999999995
52.70352547971946 6.720089999999999
52.72837279155837 6.7511600000000005
52.753222773982785 6.679539999999999
52.778075429022984 6.6839
52.80312495150885 6.73879
52.827982978797436 6.68185
52.85284368481815 6.61715
52.87770707160767 6.57903
52.90276741793998 6.65988
52.92763619336701 6.61745
52.952507655698504 6.57362
52.977381806977576 6.572989999999999
53.00245301017842 6.565930000000001
53.02733256653592 6.5427
53.052214817996074 6.56675
53.077099766608484 6.55243
53.102181859804446 6.52827
53.127072229988265 6.5216
53.15196530349892 6.52655
53.17686108239249 6.4874
53.20195409881522 6.45772
53.22685531582556 6.4383
53.25175924441303 6.40599
53.27666588664027 6.4315
53.30176985962693 6.4253800000000005
53.3266819565689 6.38884
53.35159677336455 6.39767
53.376514312083096 6.36226
53.40162927507703 6.33249
53.42655228516116 6.33254
53.45147802340193 6.30995
53.47660125628886 6.3217099999999995
53.50153247842639 6.32572
53.52646643496923 6.30958
53.55140312799818 6.28305
53.576537409691696 6.2221400000000004
53.60147960336152 6.23846
53.626424539786164 6.21781
53.65137222105307 6.23498
53.67651758529126 6.1841099999999996
53.70147078399681 6.17128
53.72642673383343 6.20796
53.75138543689533 6.1695
53.776541917524526 6.16659
53.801506154876755 6.12006
53.826473151763246 6.121090000000001
53.851442910284916 6.105
53.87661054126026 6.11602
53.9015858509782 6.092219999999999
53.92656392866066 6.06883
53.95154477641532 6.0644800000000005
53.976723591801296 6.02341
54.00171000771266 6.0153
54.02669920004598 6.057180000000001
54.051691170915745 6.00816
54.076881204886796 6.01938
54.101878760928514 5.97938
54.12687910187696 5.9410300000000005
54.152077577768296 5.9381900000000005
54.1770835166946 5.9149400000000005
54.20209224691339 5.90112
54.22710377055121 5.887519999999999
54.25231352511594 5.86618
54.27733066384342 5.8595
54.30235060239643 5.84488
54.32737334290836 5.85215
54.35259441062629 5.793830000000001
54.377622783395324 5.83207
54.40265396455061 5.83159
54.42768795623251 5.773630000000001
54.45292037169559 5.77043
54.477960012857906 5.76091
54.50300247099511 5.70331
54.52804774825457 5.71025
54.55329154616743 5.67939
54.57834249018678 5.690230000000001
54.6033962597977 5.624630000000001
54.6284528571545 5.63044
54.653708072335164 5.58275
54.67877035378786 5.60686
54.70383546947698 5.5551699999999995
54.72890342156389 5.55362
54.7541700889442 5.51662
54.77924374251975 5.50199
54.8043202390049 5.47605
54.82959552413022 5.46235
54.8546777351945 5.44463
54.87976279569621 5.39998
54.90485070780914 5.41271
54.930137506558005 5.36834
54.95523115074295 5.4114
54.98032765308844 5.391369999999999
55.005427015775496 5.32188
55.03072536339621 5.33478
55.05583047570572 5.2627
55.080938454927676 5.2660800000000005
55.10604930325027 5.25358
55.131359235107396 5.29344
55.15647585066083 5.2367099999999995
55.181595341907496 5.20296
55.20671771104285 5.2028099999999995
55.232039262617704 5.13239
55.25716741665048 5.19585
55.28229845518636 5.1429599999999995
55.30743238042802 5.03294
55.33276558731939 5.07275
55.357905315183636 5.02733
55.383047936390035 5.0465599999999995
55.40819345314859 5.01701
55.433538351073295 4.94756
55.458689688238415 5.00301
55.483843927614096 4.939780000000001
55.509197623043605 4.87177
55.53435769621134 4.85324
55.55952067826466 4.84834
55.5846865714265 4.84302
55.61005202069737 4.78503
55.63522376553902 4.80206
55.66039842818645 4.80286
55.68557601087004 4.7403900000000005
55.7109532500271 4.71036
55.73613670233794 4.7415199999999995
