TT I
1.2716486653135266 7.205310000000001
1.2939594142134223 7.17528
1.3162702121660406 6.50704
1.3385810600174564 6.71661
1.3608919586137629 6.74815
1.383202908801069 6.568860000000001
1.405513911425503 5.3872
1.4278249673332093 6.3436699999999995
1.4501343378461518 6.26846
1.4724455028545926 5.99944
1.4947567236847858 5.53531
1.517068001182951 5.94482
1.5393793361953272 5.46465
1.5616907295681737 5.74405
1.5840021821477681 5.56473
1.60631369478041 5.49461
1.6286252683124185 5.73359
1.6509369035901333 4.59892
1.6732468618895553 4.6317900000000005
1.695558623192809 4.91298
1.7178704487808514 5.07908
1.7401823395001077 4.81444
1.7625012545597203 4.92826
1.7848028405262486 5.0883400000000005
1.8071218901122095 4.97411
1.8294236121921872 4.803640000000001
1.8517427996910911 4.15557
1.8740620574440425 4.93328
1.8963639900671978 4.98179
1.9186833908139995 5.17137
1.9409854680117449 4.9379599999999995
1.9633050151394713 5.1286
1.9856246367570705 4.78629
2.0079269371922672 4.63575
2.03024671027244 4.95159
2.0525491637446027 4.97339
2.074869091674931 4.32848
2.097171701569106 4.3959
2.1194917877373847 4.8577699999999995
2.141811954326636 4.4650099999999995
2.164114805233074 5.04636
2.186435135143035 5.619330000000001
2.208738150935709 13.5591
2.231058647554722 27.8118
2.2533792288321184 21.3203
2.275682498336085 9.61632
2.298003251406138 5.82116
2.3203066942619714 5.413130000000001
2.3426276225136022 5.02388
2.3649486396617507 5.43454
2.387252348930071 5.76377
2.4095735463442893 5.5016
2.4318774374315884 5.4375599999999995
2.4541988185014043 6.14233
2.476502894794693 5.82855
2.498824462909887 6.531540000000001
2.521146125856138 5.814080000000001
2.5434504863470337 5.9204099999999995
2.5657723414244717 6.45881
2.588076895590662 6.694789999999999
2.610398946189713 7.29403
2.6327210958598384 6.824380000000001
2.6550259469304716 7.1649899999999995
2.6773482972090137 7.162610000000001
2.6996533504259 7.12936
2.7219759047039602 8.10943
2.744298562293959 7.816039999999999
2.7666039251246595 7.62558
2.7889267918020164 7.40112
2.8112323652516555 8.09345
2.833555444408179 8.26671
2.8558786311183852 7.89721
2.8781845268938557 8.7486
2.9005079311721484 8.623
2.9228140460410397 9.01207
2.9451376712799635 9.38866
2.967444008632326 9.53534
2.9897678582247247 9.982489999999999
3.0120918213106695 10.3709
3.0343984987899373 10.7194
3.0567226913198637 10.8463
3.079029599759726 11.9428
3.101354025127254 12.4548
3.123678568232338 12.9978
3.145985829517914 12.9621
3.16831061055229 13.7213
3.1906181112775593 14.1266
3.212943133635653 14.8972
3.2352682779763207 14.9818
3.2575761442691227 15.4576
3.2799015350264273 15.6265
3.302209649240067 16.1349
3.3245352898092655 17.0713
3.3468436553365257 17.5384
3.369169549113219 17.7824
3.3914955708171384 19.0691
3.413804319727358 18.9167
3.4361305997334863 18.8598
3.4584396084414553 19.8758
3.4807661501462652 20.605
3.503092824025881 21.2337
3.5254022288463154 21.3409
3.5477291695206588 22.0137
3.5700388426251948 22.8576
3.5923660534916446 24.0235
3.6146934007816114 39.1328
3.637003482731501 89.3383
3.6593311053109985 99.1999
3.681641464033634 56.4432
3.7039693653009733 30.574
3.726297407241705 26.1993
3.7486081875460804 26.0662
3.7709365132734978 26.3272
3.793247578841633 26.8423
3.8155761917550093 27.3522
3.8378875459837216 27.4542
3.8602164494827234 27.9847
3.882545499606844 28.8843
3.9048572932539183 29.4981
3.9271866390645718 29.6882
3.9494987298666713 29.5853
3.971828374764527 30.8271
3.9941581705403255 31.0794
4.016470713506008 31.9271
4.038800813471445 32.5051
4.061113662089144 33.4726
4.0834440696459176 34.1854
4.105774632334751 34.1906
4.128087945865126 35.2345
4.150418821249301 36.085
4.172732448931298 37.2469
4.195063640413578 39.3649
4.2173775856475215 43.3461
4.239709096631102 75.3066
4.262040768704612 238.481
4.284355196706267 320.214
4.306687193387355 204.361
4.329001947444346 80.6636
4.35133427213731 48.3641
4.373666762177566 45.2341
4.395982011761091 44.8992
4.418314834921175 46.1644
4.44063041906622 54.3872
4.4629635787515625 65.558
4.4852969080429785 64.8698
4.5076130004776225 54.5565
4.529946671403969 50.9255
4.552263106909177 51.1543
4.574597122877047 52.3032
4.596931312711224 53.3141
4.619248269273446 54.2247
4.6415828092605835 55.3713
4.663900117405352 56.2435
4.686235010953232 57.7908
4.708552674085913 59.2516
4.730887924602802 60.3956
4.753223354952695 61.6418
4.775541557023902 63.3269
4.797877349456786 64.931
4.820195915032126 67.0279
4.842532072957498 68.6676
4.864868414979744 70.6576
4.88718753227192 72.7194
4.909524244902505 74.9234
4.931843734218147 76.6138
4.954180820867835 79.4589
4.976518095879839 82.6634
4.998838149695359 85.7082
5.021175803844231 89.1083
5.043496238205739 92.5578
5.065834274903528 97.5755
5.088172504230693 103.266
5.1104935158799565 111.15899999999999
5.132832132875765 135.179
5.155153533596801 182.398
5.1774925416746225 226.07299999999998
5.199814334878411 437.666
5.2221537374521505 1237.29
5.244493338631803 3195.62
5.266815727034316 7300.93
5.289155727832427 11602.6
5.311478517248165 8954.46
5.333818921080011 3161.48
5.356159527788849 654.628
5.3784829252032536 207.25799999999998
5.400823940070432 153.58700000000002
5.423147747031976 134.149
5.445489173474152 123.287
5.467830807066149 117.395
5.490155234831516 112.15
5.512497285125229 108.07799999999999
5.534822130975162 106.396
5.557164601388673 104.322
5.579489868738879 101.26299999999999
5.601832762690846 100.57600000000001
5.6241758697774475 99.9505
5.646501775867269 98.0418
5.668845311622074 97.4007
5.691171647754637 96.37200000000001
5.713515615597765 94.9687
5.735859800852677 94.4098
5.758186788542988 93.7914
5.780531411018185 94.2152
5.802858837297399 93.586
5.825203900414495 93.7122
5.8475491852224 94.7186
5.869877275883075 95.391
5.892223006467101 96.5963
5.914551544266608 98.215
5.936897724049891 101.234
5.959244129804903 108.354
5.981573344815301 132.46
6.0039202049061 244.87900000000002
6.026249875609095 535.6419999999999
6.04859719346037 1094.06
6.070927323278297 2262.66
6.093275102315365 4259.7
6.115623113320588 5218.24
6.137953938319995 3484.85
6.160302415650845 1154.96
6.182633708324452 272.21
6.2049826554078376 122.027
6.227331838745022 97.5726
6.249663839443684 88.5223
6.27201349767565 85.3321
6.294345974611799 90.8216
6.316696111167083 102.521
6.339046488263839 96.7526
6.361379686074702 81.1903
6.383730546639482 73.2994
6.406064229255215 70.3937
6.428415576718203 69.6263
6.450749747566656 68.4739
6.47310158535871 67.1955
6.495453669698332 66.4114
6.517788579421056 66.0435
6.540141159237969 64.9513
6.562476565766648 64.3451
6.5848296444934045 63.9864
6.607182974060425 63.4133
6.6295191323281015 63.6314
6.651872965955752 66.9015
6.6742096296068985 93.3633
6.6965639707294615 139.946
6.71891856698715 140.54
6.741255995248479 95.2982
6.763611104154477 68.7695
6.785949046381137 61.3305
6.808304671371482 59.4873
6.8306605557940046 59.2594
6.852999275508618 58.0553
6.875355681171544 57.8171
6.897694923437771 58.0832
6.92005185377892 57.9484
6.9423916220322655 57.6263
6.964749080490181 57.0811
6.987106804399774 56.6091
7.009447368180821 56.6949
7.031805625367033 56.4066
7.054146723727803 56.4103
7.076505517631004 56.1253
7.098864581288365 56.2521
7.121206488070854 56.2023
7.143566093607822 55.6906
7.165908543567245 56.0517
7.188268694426048 56.3753
7.2106291193438095 56.1875
7.232972390625943 57.8546
7.255333366030969 70.0017
7.277677189091925 124.00299999999999
7.300038718428332 170.732
7.322400526130865 144.938
7.344745183422596 90.2465
7.367107550224791 62.3918
7.389452767901992 57.3747
7.411815697249891 56.4362
7.434161478756298 55.5243
7.456524974096713 55.2628
7.478888753837185 55.2248
7.501235387657368 55.5386
7.523599738562711 55.6299
7.545946944825532 55.8031
7.568311870344528 56.1243
7.5906770845765665 56.2177
7.613025156078678 57.7217
7.635390950099687 59.0966
7.657739602662809 57.9616
7.680105979923558 56.6631
7.702472650212829 56.96
7.724822180948224 56.8164
7.747189439655568 56.7871
7.769539560075357 56.7631
7.791907410653562 57.6334
7.81425812420825 57.486999999999995
7.836626570110925 57.8795
7.858995315087906 58.5851
7.881346924933401 59.0153
7.903716270417482 59.3752
7.926068482028405 59.8493
7.948438431475253 60.3631
7.9708086843180235 60.6413
7.993161805171116 61.3294
8.015532667162402 61.8874
8.037886398416653 63.1335
8.060257873014221 63.4
8.082629655331942 63.8445
8.104984308787587 64.8467
8.127356708900503 68.104
8.149711981398308 74.0775
8.172085002766314 76.4158
8.194458336181368 72.9732
8.216814543847752 70.4736
8.23918850371002 70.6684
8.26154533906492 71.42699999999999
8.283919928836452 73.3149
8.306277395339652 74.2466
8.328652618483376 75.6872
8.351028159736202 77.6866
8.373386579575245 79.9185
8.395762759396959 82.1695
8.418121819038275 87.4405
8.440498640894003 101.34700000000001
8.462875785192262 116.626
8.485235811156207 132.167
8.507613602688501 181.65900000000002
8.529974277114228 285.24
8.552352719347912 433.66
8.574731488360351 696.668
8.59709314210385 1197.72
8.619472567021075 1776.47
8.64183487789147 2160.92
8.664214962183097 1868.2
8.686577933647762 1026.02
8.708958680784317 409.027
8.731339760774953 178.44299999999998
8.753703729764451 116.756
8.77608547780821 102.137
8.798450116065078 97.5971
8.820832535634787 94.4997
8.843215292401656 92.9914
8.865580941199045 91.2732
8.887964374703538 90.3027
8.910330701447199 91.5668
8.932714815164482 93.625
8.955099270424924 92.8845
8.977466620733543 89.5927
8.999851761421976 86.8982
9.022219798361645 85.0591
9.04460562795561 85.0052
9.066991803441677 84.5187
9.089360876979615 84.0755
9.111747746589993 83.4785
9.13411751544971 83.2209
9.156505082664324 83.08
9.178875550323522 83.2325
9.20126381862328 83.6195
9.223652438908596 84.0869
9.246023961427412 83.9589
9.26841328802173 83.4278
9.290785518039224 83.0636
9.313175554425882 84.4442
9.335565947154315 83.9106
9.357939245086508 84.0821
9.380330352834827 84.5002
9.40270436697103 84.8307
9.425096193225055 84.2951
9.447488380180165 85.1689
9.469863475295412 85.6475
9.492256385987508 86.0463
9.514632206018318 86.4997
9.537025843935714 86.9386
9.559402392368193 87.64399999999999
9.581796761000229 88.8805
9.604191496441521 89.8208
9.626569144158516 93.6153
9.648964615551032 97.6373
9.671343000390081 99.6722
9.693739211225699 97.5113
9.716135793237463 95.2788
9.738515290448102 94.8336
9.760912617143402 95.7088
9.783292860202891 97.04799999999999
9.805690935076182 98.391
9.828089385495742 99.4074
9.850470754023561 102.177
9.872869957865444 110.053
9.89525208097539 125.851
9.917652041736662 138.59
9.940052382417589 139.733
9.962435644102392 150.713
9.984836746950979 194.22299999999998
10.007220771957746 268.565
10.029622640473708 379.582
10.052007432299963 556.9540000000001
10.074410069984072 831.6489999999999
10.096813093716005 1231.63
10.119199042482517 1690.78
10.141602840636468 1933.09
10.163989564971628 1656.07
10.186394141051062 979.821
10.208799107559706 430.111
10.231187001965623 206.687
10.253592751657669 132.858
10.275981430388155 116.59899999999999
10.298387966769793 115.73899999999999
10.320794897965431 117.41
10.343184759907361 116.588
10.36559248305461 111.04
10.387983138083852 106.977
10.410391656691655 110.307
10.432800574501677 124.405
10.455192425893369 143.17700000000002
10.47760214443012 171.142
10.499994797678786 213.641
10.522405320453982 286.616
10.54479877906917 387.282
10.567210109595656 503.912
10.5896218454736 573.9119999999999
10.612016518879773 503.309
10.634429067781074 360.48900000000003
10.656824555333241 210.706
10.679237920773568 128.20600000000002
10.701651695961992 98.5754
10.724048411481384 91.286
10.746463008485165 88.2653
10.768860546937125 86.2966
10.791275969274796 84.538
10.81369180576079 83.3604
10.836090585366925 82.1568
10.858507252467449 81.2413
10.88090686379991 80.2062
10.903324365036394 79.85
10.925724811614439 79.812
10.948143150509463 81.1095
10.970561909719066 80.39399999999999
10.992963615930844 78.2679
11.015383218085756 75.9133
11.037785768347074 74.7313
11.06020621697282 74.0884
11.082627090322113 73.5397
11.105030913430326 72.887
11.12745263854165 73.4243
11.149857314510728 77.0731
11.172279894912576 83.0031
11.194702904450653 83.7742
11.217108866490921 79.491
11.239532736615194 75.1461
11.26193956033512 73.0254
11.284364294577085 71.5018
11.306789462371718 69.2714
11.329197585398376 68.2433
11.351623622610898 68.2234
11.37403261614354 67.1082
11.396459526308487 67.14
11.418869393879497 67.0277
11.441297180532617 66.56
11.463725406927658 65.86399999999999
11.486136592353875 65.8237
11.508565700543707 66.4773
11.530977768845315 68.4542
11.553407762368774 69.0993
11.575838200059769 68.7559
11.598251599479612 66.3876
11.620682927815501 65.1165
11.64309721895548 64.4775
11.665529441478206 64.2857
11.687962112597958 64.0765
11.710377748130886 64.0886
11.732811318753434 64.0221
11.755227854859067 64.0937
11.777662328529495 63.8602
11.800079768750786 63.7211
11.822515149015453 63.4642
11.844950984084935 63.5733
11.867369787303163 63.3177
11.889806534289491 63.422
11.912226250487029 63.8924
11.934663912939751 63.8417
11.9571020346363 63.9183
11.979523127133968 64.1968
12.001962169624331 64.819
12.024384183972964 66.3564
12.046824150809913 69.7463
12.069264581333726 75.6849
12.091687985297767 82.2228
12.11412934550045 91.9931
12.136553680195208 106.384
12.158995973632788 127.152
12.181438735204349 153.289
12.20386447284199 180.545
12.226308172985636 204.378
12.24873485024193 205.45
12.271179492516982 169.96
12.293607112949127 129.375
12.316052700916226 97.883
12.338498763250042 80.2008
12.360927805303868 71.5644
12.383374818673879 67.7836
12.405804812803074 65.9869
12.428252780773262 65.4734
12.45070122756722 65.51899999999999
12.473132656675375 65.3253
12.49558206341869 65.7602
12.518014453510101 65.5476
12.540464823770117 65.5701
12.562915677315177 65.8991
12.58534951575545 66.5791
12.607801338171472 68.5884
12.630236146511358 74.0619
12.652688941369085 79.0532
12.675124723177234 79.2685
12.697578494048786 75.6231
12.720032754458185 70.9745
12.742470003354093 69.1992
12.764925245138771 69.1656
12.787363476431278 69.1835
12.809819703166806 69.5358
12.83227642391173 70.274
12.854716135692716 70.76899999999999
12.877173846755147 72.1685
12.899614549869717 72.29899999999999
12.9220732548287 73.1212
12.94453245827299 73.6357
12.966974655289818 74.44
12.989434858002571 75.6646
13.011878055298721 76.3015
13.034339260862497 77.3467
13.056800969391883 78.8139
13.079245674017244 80.5179
13.101708390774869 82.9933
13.12415410463411 91.4252
13.146617833206086 104.725
13.169064559883248 118.333
13.191529303857127 133.697
13.213994557076367 157.004
13.236442809902437 190.821
13.258909083908291 240.233
13.28135835851934 298.265
13.30382565690295 363.332
13.326293469022952 415.08
13.348744283242008 425.62800000000004
13.371213125129904 372.908
13.39366497011003 273.062
13.416134845360597 181.53900000000002
13.438605238843131 128.82399999999998
13.46105863690397 109.18
13.483530069144786 109.848
13.505984506951902 116.21799999999999
13.528456981549432 126.99
13.550929978879088 141.734
13.573385983253365 164.225
13.595860028340867 199.00599999999997
13.618317081455832 245.82
13.64079217790333 296.003
13.663250283359057 341.38800000000003
13.685726434770173 371.788
13.708203115221277 349.481
13.730662806148091 276.72700000000003
13.75314054697177 196.69
13.775601299246777 132.56
13.798080104050406 99.5095
13.820559442405358 87.1685
13.843021793671388 83.1147
13.865502201420897 81.5404
13.887965623051947 80.7723
13.910447103807167 79.5875
13.932929122629764 78.3722
13.955394156785959 77.8706
13.977877254034569 77.0739
14.000343367582113 76.1719
14.022827546871707 75.6421
14.045294743423524 74.7583
14.06778000837062 74.2276
14.090265817715476 74.191
14.112734645763819 73.898
14.13522154619454 73.7405
14.157691466286913 73.657
14.180179461423874 73.5238
14.202668005486178 72.6824
14.22513957064374 71.9835
14.247629214846473 71.3392
14.270101881097517 71.3101
14.29259262906496 71.9724
14.315083930490205 72.46300000000001
14.337558255389705 72.923
14.360050666019726 72.4631
14.382526101071944 71.3305
14.405019624534942 70.6185
14.427513705993134 70.0497
14.449990813291825 69.9884
14.47248601302899 69.8679
14.49496423954951 70.0631
14.517460561197822 70.0846
14.539939910570322 69.7966
14.562437357763558 70.112
14.58493536931253 71.3332
14.607416409993311 72.1777
14.62991555254159 73.0183
14.652397725157423 73.0717
14.674898002342799 72.514
14.697398848433282 71.7442
14.719882725991326 72.2901
14.74238471217934 73.5363
14.764869730765593 77.5286
14.787372860692983 81.6921
14.809876564079925 86.7512
14.83236330125751 92.9764
14.854868153850365 101.345
14.877356041159485 114.446
14.899862046604186 131.274
14.922351087688757 153.651
14.944858249632887 179.8
14.967365991421232 203.937
14.989856770231246 222.692
15.012365673994204 220.65599999999998
15.03485761569738 195.872
15.05736768508665 154.917
15.07987833888692 118.184
15.102372032001655 93.4463
15.124883856909658 78.8231
15.14737872204565 73.7476
15.169891721717274 71.6939
15.192405310371893 71.3776
15.214901940621196 72.1503
15.237416709527137 72.1185
15.259914520936249 72.4702
15.282430473753607 71.3858
15.304947020131227 70.2751
15.327446610371178 69.1538
15.349964346154254 68.3431
15.372465126703139 67.8514
15.394984055556009 67.634
15.417486030076159 67.7043
15.44000615566487 67.2593
15.462526881230803 67.2042
15.485030653812652 67.5409
15.507552581617434 67.4816
15.530057557334603 67.6163
15.55258069104857 67.4558
15.575104429329837 67.483
15.597611216864632 66.9726
15.620136166564563 67.3409
15.6426441664095 68.3107
15.665170331202765 71.1466
15.687697105158826 74.8816
15.710206930593545 78.6815
15.732734925158933 83.2684
15.755245972089478 89.4731
15.77777519094324 98.384
15.800287463046663 110.227
15.822817909869592 126.704
15.84534897229804 145.715
15.867863089299354 166.856
15.890395385222186 182.62
15.912910736597423 192.21099999999998
15.935444269699861 183.68200000000002
15.957978423016485 159.575
15.980495633101265 127.66
16.003031029129367 97.3536
16.02554948280019 78.8718
16.048086125229432 69.4627
16.070623392487107 66.5092
16.09314371869582 65.8942
16.11568223789321 64.9665
16.13820381691126 63.7962
16.160743591742527 62.7826
16.183283996022084 61.6803
16.205807461423195 60.568999999999996
16.228349126881973 59.931000000000004
16.25087385432698 60.0511
16.27341678466365 59.3722
16.29594277784926 59.2975
16.31848697676433 59.5815
16.341031811604868 60.0499
16.36355971058487 60.3449
16.3861058195587 60.0816
16.40863499352978 58.9375
16.431182380342005 57.9359
16.453730407713202 57.2174
16.476261501364792 56.806000000000004
16.498810812136167 56.5227
16.52134319004079 56.5164
16.54389378792203 56.4178
16.566445031001553 56.3087
16.588979342490088 56.1942
16.61153187824822 55.9845
16.634067483263312 55.9631
16.656621315414416 55.8008
16.679175797408888 55.4804
16.701713349928728 55.4617
16.72426913389191 55.782
16.74680798922351 55.9723
16.76936507887444 55.7757
16.791905240734874 56.1686
16.814463639794468 55.8072
16.837022695210294 55.9421
16.859564824093756 56.2394
16.882125194503903 56.9705
16.904668639217885 57.7846
16.927230328348003 57.5557
16.949792678493612 57.8419
16.972338104193863 57.3889
16.994901778652235 56.8328
17.017448529496576 56.5679
17.040013531998152 56.9973
17.06257920018044 57.4653
17.0851279459922 58.4644
17.107694947817667 59.2138
17.130245028099072 60.2114
17.15281336730298 61.5927
17.17536478578733 63.3385
17.19793446610687 65.5479
17.220504818648422 68.0638
17.243058251703697 70.7596
17.265629950971032 74.4453
17.288184731571736 78.6109
17.310757781306908 82.1101
17.33333150794385 84.1164
17.355888317140174 82.9058
17.37846339986244 78.5686
17.401021565958885 72.4534
17.42359800851343 67.0807
17.44617513265564 62.9742
17.468735341390783 61.0665
17.491261035594565 60.2048
17.51396340099364 60.0327
17.536490463869136 60.1244
17.559018209820174 60.0544
17.58154663977963 60.28
17.604251766089718 60.4192
17.626781572227713 60.68899999999999
17.64931206518155 61.0025
17.671843245885103 61.4951
17.69455114821572 61.7862
17.717083712612634 62.0626
17.739616967569667 62.1339
17.762150914021706 62.4084
17.78486160749854 62.6213
17.807396945166804 63.1397
17.829932977143503 64.111
17.85246970436452 65.8859
17.875183204129467 68.0358
17.897721330097664 70.2272
17.920260154126645 72.8654
17.942799677153296 76.0982
17.9655159983646 79.7256
17.988056927677544 85.008
18.010598558807683 91.8999
18.033140892692916 100.73100000000001
18.05586005052525 110.027
18.07840379824407 120.37100000000001
18.10094825154059 131.452
18.12366954819864 139.976
18.146215420998306 141.124
18.16876200220057 133.719
18.191309292745153 121.04899999999999
18.214033452627167 107.057
18.236582170236648 94.5225
18.259131600016456 88.4372
18.281681742907335 87.7352
18.304408781233683 91.4244
18.32696035875955 95.5835
18.349512652227624 100.306
18.372065662579683 105.212
18.394795594587553 106.969
18.41735004715306 104.664
18.43990521943684 98.4478
18.46246111238171 88.9537
18.485193953325208 79.3576
18.507751296070428 71.2928
18.530309362314178 67.0896
18.552868153000343 64.6291
18.57560391815056 63.1939
18.59816416623245 62.7497
18.620725141597372 62.3667
18.643286845190268 62.0508
18.666025549835414 61.5138
18.688588718427933 60.8068
18.711152618092243 60.7694
18.73389353884365 60.5947
18.75645890921984 60.1433
18.77902501351406 59.6538
18.801591852673102 59.5087
18.824335739722738 59.2479
18.846904057212626 59.0744
18.8694731124168 58.7196
18.89204290628315 58.5872
18.914789774966803 58.5077
18.937361054791623 58.2051
18.959933076131318 58.0065
18.982505839934877 58.0414
19.00525570560582 58.2
19.027829963004184 57.9407
19.05040496572238 58.1092
19.072980714710468 57.9425
19.095733592739563 57.9586
19.11831084296757 58.4906
19.140888842324735 59.1648
19.16346759176222 59.4563
19.18622349753803 59.9477
19.208803755869358 60.7756
19.231384767143577 61.9493
19.253966532312948 63.2933
19.276725481241822 65.2592
19.29930876296784 67.2395
19.3218928014549 70.2333
19.34465404436217 73.3826
19.36723960516257 75.8666
19.389825925592426 77.4846
19.412413006605938 76.9883
19.43517731967805 74.1349
19.457765930683355 69.4182
19.48035530514408 64.5275
19.50294544401556 60.3672
19.525712842708348 57.7535
19.54830451925909 56.256
19.570896963095727 55.1745
19.593490175174704 54.7774
19.616260674962184 54.8469
19.638855432416964 54.4347
19.661450960992624 54.7057
19.68404726164677 54.4093
19.706820878021247 54.3011
19.729418731756834 54.5765
19.752017360452857 54.2488
19.77461676506804 54.4094
19.797393513540218 54.7245
19.819994478951667 54.8383
19.84259622316767 55.6085
19.8651987471481 55.9651
19.887978643247177 56.3089
19.91058273574792 56.7013
19.933187610901943 57.4742
19.955969879466828 58.4785
19.97857632894404 59.8328
20.00118356396599 61.1179
20.023791585494575 63.2183
20.046577028914875 65.6987
20.069186632506966 68.0057
20.091797025500632 70.0024
20.114408208858933 71.0597
20.137196842715273 71.2295
20.159809615886765 69.715
20.18242318232135 66.8602
20.20503754298326 64.8328
20.227829382875154 63.2791
20.250445341109344 62.8842
20.27306209647285 63.2601
20.29567964993108 64.4059
20.31847471147704 65.5138
20.34109387027612 66.7326
20.363713830075454 66.7603
20.386334591841646 65.3107
20.409132890679302 62.803000000000004
20.431755265564437 59.7407
20.454378445325528 56.6052
20.477002430930366 54.736999999999995
20.499803982716553 53.4291
20.522429589228004 52.5802
20.54505600449589 52.136
20.567683229489194 51.9758
20.590488049900088 51.549
20.61311690359731 51.1772
20.63574656993626 50.9905
20.658553853717297 50.5631
20.681185154618298 50.571000000000005
20.703817271080066 50.4284
20.72645020407368 50.0462
20.749260783967177 50.0525
20.771895359337133 49.9581
20.794530754161617 49.8754
20.817166969412938 49.8917
20.83998086114876 49.8536
20.86261872660049 49.6641
20.885257415405402 49.4113
20.90789692853701 49.4912
20.930714147864748 49.4668
20.953355319030678 49.4357
20.97599731745334 49.6168
20.99864014410749 49.5424
21.021460706796564 49.4412
21.044105199328826 49.8575
21.06675052302631 50.0692
21.089396678865015 49.9375
21.112220600704806 50.4195
21.134868430275347 50.7235
21.15751709492456 51.1192
21.180166595629693 51.3628
21.202993892429635 51.8199
21.22564507473034 51.8955
21.24829709602816 52.2141
21.27112693608965 52.2637
21.293780644891275 52.3038
21.316435195634053 51.6866
21.339090589297417 50.967
21.361923832041875 50.695
21.384580921090404 49.9506
21.407238856007325 49.3153
21.429897637773326 49.2816
21.45273429906592 49.283
21.475394784108598 49.4106
21.498056118951983 49.1505
21.520718304578022 49.5318
21.543558400304388 49.6005
21.566222297108816 49.7282
21.58888704765135 49.8516
21.61155265291521 50.1669
21.63439619898156 50.8757
21.657063523335786 50.9721
21.67973170537063 51.54
21.7024007460706 51.9425
21.72524775840385 52.6332
21.747918526116475 53.6959
21.770590155457388 54.8247
21.79326264741238 56.2505
21.816113141960237 57.9064
21.838787368860547 59.9067
21.861462461341976 61.6628
21.884315579735777 63.4652
21.90699241312273 64.7377
21.92967011506078 65.4829
21.95234868653799 65.6203
21.9752053151131 64.6834
21.997885635446785 62.7478
22.020566828293532 60.7552
22.04324889464272 58.8913
22.066109049404666 57.3993
22.088792872571794 56.8902
22.111477572219204 56.6781
22.1341631493376 57.1189
22.157026846313123 56.8967
22.179714188221507 56.5617
22.202402410582668 55.5355
22.22509151438863 54.0081
22.24795876962584 52.5338
22.270649646204486 51.5396
22.293341407213727 50.9584
22.316034053646906 50.3044
22.338904883215342 50.028999999999996
22.36159931041458 49.8859
22.38429462602756 49.7998
22.40699083104897 49.7864
22.429865251039757 49.8323
22.452563244831367 49.8202
22.47526213102522 49.853
22.49813925616515 49.6269
22.520839937143307 49.5561
22.543541513520587 49.4427
22.56624398629403 49.3546
22.589124730075895 49.5318
22.611829005656723 49.4659
22.63453418063466 49.4288
22.657240256008077 49.9228
22.680124634582935 49.9496
22.70283252079775 50.3398
22.725541310413075 50.5553
22.74825100442868 50.7805
22.771139033969575 51.226000000000006
22.79385054687155 51.4384
22.81656296718292 52.1029
22.83927629590484 52.945
22.862167992606945 53.7028
22.88488314827121 54.7035
22.907599215359284 55.8228
22.93031619487366 56.8001
22.953211574954405 57.5556
22.975930389478226 58.534
22.998650119445763 58.896
23.02137076586092 58.3508
23.044269845560063 57.2805
23.06699233506288 55.6434
23.089715744034912 53.8134
23.112617610931565 52.0571
23.135342869061212 50.871
23.158069049684816 50.1449
23.1807961538087 49.8937
23.20370174880544 49.7364
23.226430710184808 49.6982
23.249160598093425 49.9017
23.271891413539002 49.798
23.294800752937697 49.8355
23.31753343374794 50.0451
23.340267045128353 50.0116
23.36300158808808 50.5243
23.38591468821339 50.7384
23.408651104658304 51.1692
23.431388455719986 51.8172
23.454126742409 52.6037
23.4770436196085 53.4086
23.499783787914662 54.6553
23.522524894889884 55.3661
23.54526694154616 56.4424
23.56818761219047 57.5707
23.59093154860734 58.3544
23.613676427751283 58.883
23.636422250635754 58.1934
23.659346731118656 56.891999999999996
23.68209445191868 55.008
23.704843119509587 53.0005
23.72759273490623 50.7347
23.750521041644767 49.2502
23.77327256312355 48.0948
23.796025035462787 47.4906
23.818956224555475 47.0961
23.841710609113413 46.8913
23.86446594758979 46.5979
23.887222241002014 46.364
23.910157285144578 45.9476
23.932915498962537 46.0511
23.955674670778713 45.8267
23.978434801611975 45.5817
24.001373717286125 45.5046
24.024135776723917 45.3784
24.046898798245582 45.3214
24.06966278287146 45.3426
24.092605586582614 44.9859
24.115371508023642 44.8975
24.1381383956401 44.7655
24.16090625045381 44.7711
24.183852958731244 44.6931
24.206622758582608 44.6461
24.229393528706886 44.3945
24.252165270127392 44.5057
24.27511589952438 44.3605
24.297889594216997 44.1569
24.32066426328598 44.0318
24.34343990775613 44.1763
24.36639447485003 43.9918
24.38917208083877 43.9721
24.41195066531332 43.9455
24.43490819850244 43.9918
24.457688750692377 43.8619
24.48047028445616 43.7583
24.503252800821233 43.854
24.526214300784112 43.9066
24.548998793132213 43.9111
24.57178427117417 43.6783
24.59457073593893 43.7364
24.617536219319863 43.7793
24.64032466834748 43.756
24.663114107195035 43.6444
24.685904536893013 43.3991
24.708874020360852 43.2956
24.731666442613744 43.2748
24.754459858818787 43.309
24.777254270007962 43.21
24.80022777025625 43.0802
24.82302418230472 43.0417
24.845821592443674 42.9993
24.86862000170663 42.8904
24.891597535453727 42.883
24.914397953892728 43.0558
24.93719937456671 42.9284
24.96000179851076 43.037
24.98298338249997 43.3583
25.00578782394922 43.6208
25.028593271784167 43.6212
25.05157790644186 43.9676
25.07438537804115 44.043
25.097193859145293 44.3157
25.120003350792075 44.5427
25.142992065061257 44.9148
25.165803588823465 45.1523
25.18861612625217 45.4432
25.211429678386736 45.284
25.234422489079968 45.4465
25.257238081693636 45.4444
25.280054692141732 45.5324
25.3028723214652 45.5686
25.325869245420463 45.7326
25.348688923599397 45.738
25.371509623787006 45.7335
25.394331347025812 45.4537
25.41733240110666 45.0913
25.440156181590016 44.3922
25.46298098826268 43.768
25.48580682216873 43.1501
25.50881202326435 42.7392
25.53163992281684 42.271
25.55446885274561 41.9279
25.577298814096377 41.7518
25.600308179121807 41.6102
25.623140214533745 41.6069
25.64597328451537 41.5166
25.66898578564376 41.2658
25.691820936010206 41.2688
25.714657124097695 41.2083
25.737494350954734 41.3508
25.760511045684957 41.093
25.783350361364224 41.3173
25.806190718969255 41.3811
25.82903211955018 41.4218
25.852053024868923 41.3357
25.874896522722523 41.4934
25.897741066713106 41.2754
25.920586657892454 41.4469
25.943611790812668 41.5769
25.966459487728237 41.657
25.989308234998564 41.7498
26.01215803367705 41.9207
26.03518741123814 42.1592
26.05803932412957 42.1928
26.080892291600094 42.2553
26.10374631470478 42.4524
26.12677995397268 42.5087
26.14963609978026 42.4776
26.172493304397875 42.1304
26.19535156888223 41.9217
26.218389486949604 41.6206
26.241249882640123 41.3049
26.26411134137826 41.1056
26.28715248187403 41.0484
26.31001607820869 40.8485
26.3328807407756 40.667
26.35574647063438 40.8986
26.37879191991473 40.7583
26.401659795896734 40.965
26.424528742360263 41.128
26.447398760366614 41.1235
26.470448535598294 41.3781
26.49332070826805 41.582
26.516193955675355 41.7543
26.53906827888316 42.0907
26.562122397260108 42.0346
26.584998883685063 42.3372
26.607876449110325 42.6757
26.63075509460056 42.7178
26.65381357334404 42.9346
26.67669439061878 42.9213
26.699576291163382 42.8106
26.722459276044212 42.7492
26.745522132402975 42.446000000000005
26.768407297649354 42.3337
26.791293550442003 41.6759
26.814180891848974 41.3287
26.837248143099337 41.1877
26.860137673466657 41.1882
26.88302829566349 40.9929
26.90592001075963 40.7082
26.92899167420566 40.6047
26.951885586870763 40.1136
26.974780595655517 40.0142
26.99785558178161 39.9948
27.020752794605112 39.7684
27.043651106772522 39.6015
27.06655051935668 39.594
27.089629948036183 39.4592
27.112531573292053 39.3888
27.135434302194138 39.4668
27.158338135817015 39.2164
27.181422024430987 39.4361
27.204328079372566 39.266
27.22723524226965 39.2041
27.250143514198573 39.1164
27.273231880156334 39.1915
27.296142382065014 39.0764
27.319053996245536 39.0148
27.341966723775965 39.1881
27.365059584515222 39.0921
27.38797455070062 39.1033
27.410890633481237 39.1236
27.433807833936918 39.1658
27.456905206923906 39.2729
27.47982465472398 39.2249
27.502745223449743 39.2409
27.525666914182825 39.2742
27.548768816912457 39.3242
27.571692763693633 39.1772
27.59461783573812 39.1474
27.617723149491244 38.9588
27.640650484125285 38.9315
27.66357894728264 38.7027
27.686508540048052 38.7918
27.709618414237887 38.6858
27.732550278321757 38.4556
27.755483275279115 38.4626
27.778417406196485 38.5437
27.801531858397514 38.5944
27.824468269376716 38.4918
27.847405817586786 38.5598
27.870344504116094 38.7881
27.893463551932008 38.8612
27.916404527281053 39.0268
27.93934664422563 39.0886
27.962289903855886 39.0723
27.98541356491974 39.3333
28.00835912214229 39.4201
28.03130582533231 39.5355
28.054253675581805 39.6506
28.077381967556104 39.7153
28.100332124185126 39.766
28.123283431160893 39.6572
28.146235889577238 39.6363
28.169368830154156 39.3841
28.192323603752033 39.0481
28.215279532083304 38.8437
28.238415973016764 38.6803
28.261374223145094 38.4293
28.284333631303806 38.2644
28.307294198589954 38.2242
28.330435319167677 37.8741
28.353398217078915 37.5926
28.376362277420153 37.4015
28.39932750129032 37.3135
28.422473319286713 37.0945
28.44544088262495 37.0865
28.468409612800283 36.8787
28.491379510913497 36.6872
28.51453004413313 36.6117
28.53750229057244 36.5617
28.56047570826344 36.5484
28.583450298308804 36.5309
28.606605564586562 36.245
28.629582511831156 36.2257
28.65256063474956 36.2193
28.675539934446338 36.2758
28.698699951647605 36.2332
28.72168161743193 36.0627
28.74466446331978 36.0629
28.767648490417624 36.0699
28.790813276438353 36.0149
28.813799678527303 36.1042
28.836787265157085 36.0977
28.859955641890075 36.0703
28.882945610203045 36.1107
28.905936766392035 35.9604
28.928929111566863 36.0581
28.952102288520145 35.9255
28.975097024308607 35.7162
28.998092952423807 35.6546
29.021090073977508 35.5389
29.04426806913204 35.4011
29.067267590245258 35.243
29.090268308143695 35.1528
29.11327022394099 35.1126
29.13645305530891 35.0912
29.159457379627167 34.9964
29.18246290519685 34.983000000000004
29.20546963313352 34.9525
29.22865731875826 34.971
29.25166646419296 34.981
29.27467681535305 34.7408
29.29768837335608 34.8042
29.320880931312562 34.9834
29.34389491580634 34.8263
29.366910110507334 34.7656
29.38992651653503 34.8687
29.41312396492981 34.9446
29.436142806456754 34.7838
29.45916286268059 34.69
29.48236399319994 34.5528
29.50538649169417 34.543
29.528410208259935 34.3131
29.55143514402014 34.1345
29.574641196749695 33.9787
29.597668583816574 33.9344
29.6206971934585 33.7145
29.64372702680042 33.9304
29.666938019934474 33.6159
29.689970313635285 33.6097
29.713003834422636 33.5597
29.73603858342347 33.5063
29.759254535188578 33.4643
29.78229175361658 33.3344
29.80533020365064 33.4487
29.82836988641968 33.46
29.85159081507472 33.3356
29.874632976355343 33.3885
29.89767637376955 33.4429
29.920721008448314 33.257
29.9439469322847 33.1514
29.96699405457564 33.0758
29.9900424175358 33.0454
30.013092022298157 33.093
30.03632295963995 33.1077
30.059375061131373 33.1222
30.08242840783577 33.1245
30.105483000888153 33.0587
30.128718970092244 33.0319
30.151776069006917 32.9821
30.17483441768648 33.0432
30.198074175317235 32.9824
30.221135036724256 32.9601
30.24419715131772 32.8498
30.267260520236203 32.8781
30.290505341942243 32.8864
30.313571232750228 32.9319
30.336638381310948 32.9606
30.35970678876503 32.9332
30.38295669299435 32.7
30.40602763151657 32.7053
30.429099832366074 32.6993
30.452173296685572 32.6366
30.47542830191959 32.5975
30.498504306502497 32.7058
30.521581577995562 32.7717
30.544660117543582 32.7692
30.56792024229725 32.7134
30.59100133132069 32.7403
30.614083691845494 32.7937
30.637167325018545 32.726
30.660432587840603 32.7943
30.683518779717886 32.7909
30.70660624769615 32.7775
30.729694992924372 32.7526
30.75296541239743 32.8467
30.77605672557558 32.7711
30.799149319462742 32.7472
30.8224236211637 32.5342
30.845518789950724 32.5955
30.868615242910597 32.3504
30.891712981195973 32.2284
30.91499247215866 32.1003
30.938092794619365 32.2529
30.96119440587579 32.0729
30.984297307082752 31.8323
31.00758200598383 31.861
31.030687500658694 31.8156
31.053794288760695 31.7049
31.076902371446767 31.5689
31.100192296997445 31.6255
31.12330298246119 31.5801
31.14641496599209 31.6114
31.169528248749216 31.5413
31.19282341969534 31.5532
31.215939314557186 31.5894
31.239056512134788 31.5556
31.262175013589378 31.4744
31.28547544871168 31.4304
31.30859657161541 31.4629
31.331719001892175 31.3432
31.35484274070538 31.4873
31.378148458819545 31.5013
31.401274828443725 31.3976
31.424402510106933 31.3505
31.447712205419993 31.459
31.470842524931633 31.2976
31.493974159989783 31.3105
31.51710711176168 31.3871
31.54042212308802 31.4714
31.563557722100917 31.2564
31.586694641341655 31.1771
31.609832881979628 31.0873
31.63315322823208 30.9966
31.656294125521327 30.9154
31.679436347728515 30.8681
31.70257989602529 30.76
31.725905596152327 30.804000000000002
31.74905181052835 30.7016
31.772199354521323 30.6702
31.79534822930507 30.7165
31.818679302290967 30.5768
31.84183085259981 30.628
31.864983737233473 30.612
31.88813795736804 30.7498
31.911474422233013 30.5619
31.934631327356435 30.6311
31.9577895715215 30.5763
31.980949155906522 30.6201
32.004291031706956 30.5405
32.027453310562606 30.5229
32.05061693318573 30.3723
32.07396288236386 30.3369
32.09712920658542 30.3387
32.12029687812702 30.1778
32.14346589817093 30.0781
32.166817291729984 30.0421
32.18998902288583 30.0658
32.21316210610336 29.915
32.23633654256711 29.8468
32.259693399663725 29.853
32.282870556771144 29.6512
32.30604907069099 29.7776
32.329228942610065 29.6457
32.35259128243769 29.5551
32.375773884550505 29.4973
32.398957848235646 29.4916
32.422143174682176 29.4461
32.445511016471215 29.3089
32.468699082679954 29.271
32.49188851523011 29.2057
32.51507931531304 29.1706
32.538452678331 29.2558
32.56164622776311 29.0933
32.58484114831493 29.0228
32.60803744118015 28.9974
32.631416344731896 29.0088
32.654615396551876 28.9107
32.67781582427913 28.9526
32.701198898634416 28.8466
32.72440209253756 28.8005
32.747606665947124 28.8487
32.77081262006088 28.6683
32.79420126883317 28.6927
32.81740999876112 28.6668
32.840620112999424 28.6359
32.86383161274818 28.5443
32.88722585534586 28.5196
32.91044014056596 28.679000000000002
32.933655814909734 28.5479
32.95687287957963 28.4633
32.98027273544904 28.4107
33.00349259526636 28.3989
33.026713849030116 28.3713
33.04993649794511 28.2631
33.073341986570746 28.3249
33.09656744032826 28.2711
33.11979429286444 28.2836
33.14302254538647 28.2893
33.166433686291185 28.1645
33.18966475336992 28.2025
33.212897224069096 28.1415
33.23613109959831 28.0696
33.259547912343415 28.0425
33.2827846121627 28.0204
33.306022720453775 28.0326
33.32926223842861 27.8197
33.352684742614166 27.8454
33.37592709463173 27.9334
33.399170859982064 27.755
33.422597648419426 27.7474
33.44584425514446 27.5981
33.46909227885668 27.5387
33.4923417207723 27.4823
33.51577423505344 27.5179
33.539026528130385 27.4722
33.56228024307245 27.3812
33.585535381098246 27.2381
33.60897364093058 27.2067
33.63223163992385 27.2586
33.6554910656699 27.1381
33.678751919389796 27.1693
33.702195944520106 27.0759
33.72545966903325 27.1021
33.74872482519663 26.9466
33.771991414233746 26.98
33.79544122444841 27.0407
33.81871069412428 26.8754
33.84198160035767 26.8615
33.86525394437455 26.8924
33.88870955949969 26.7787
33.911984794020626 26.7295
33.93526147001624 26.6666
33.958539588715006 26.7491
33.98200102861669 26.6173
34.0052820477047 26.5571
34.02856451319451 26.4756
34.05203033759056 26.4335
34.07531571090147 26.4369
34.09860253431845 26.3512
34.121890809074316 26.2604
34.145362493118924 26.3122
34.16865368561615 26.2822
34.191946333164054 26.2318
34.21524043699793 26.2189
34.23871800066799 26.2777
34.26201503218366 26.1408
34.28531352370466 26.1312
34.30861347646881 26.0425
34.33209693978188 25.9779
34.3553998301885 25.953000000000003
34.378704185565205 25.906
34.402010007152356 25.8195
34.42549939016683 25.8505
34.44880815937748 25.7861
34.472118398533134 25.7218
34.49543010887669 25.7315
34.51892543169198 25.5802
34.54224009966052 25.5887
34.56555624255917 25.6255
34.58887386163339 25.4736
34.61237514439016 25.4285
34.6356957311114 25.3638
34.65901779775809 25.4126
34.68252356662995 25.4067
34.705848608458616 25.2854
34.72917513396849 25.1869
34.75250314440949 25.2512
34.77601490857862 25.1551
34.799345904259795 25.1216
34.82267838863559 25.1765
34.846012362958525 25.1677
34.869530142679984 25.153000000000002
34.89286711232212 25.0723
34.91620557568269 25.0395
34.93954553401677 24.9917
34.9630693495876 24.9328
34.986412313340814 25.009
35.00975677584668 24.9016
35.033102738362956 24.8297
35.05663261012228 24.8018
35.0799815881786 24.7892
35.10333207003229 24.7551
35.12668405694369 24.7514
35.150220005273056 24.7197
35.17357501786656 24.6826
35.19693153931268 24.6461
35.220289570874385 24.6501
35.24383161619786 24.6618
35.267192683604904 24.5889
35.290555264930376 24.515
35.314101899412165 24.4736
35.33746752422433 24.4942
35.36083466676374 24.5315
35.38420332829803 24.4426
35.407756095629054 24.4791
35.43112781085063 24.4281
35.45450104888391 24.3442
35.477875810999194 24.344
35.50143473172161 24.2302
35.52481255774625 24.2905
35.54819191167777 24.1606
35.57157279478914 24.1754
35.595137889488406 24.2248
35.61852184675279 24.1059
35.641907337029984 24.1086
35.665294361595684 23.9892
35.68886565090076 24.0168
35.7122557598848 24.0013
35.73564740699838 23.9719
35.759040593519934 23.8967
35.78261809810353 23.8171
35.80601437933051 23.8144
35.829412203814705 23.7422
35.85281157283719 23.6047
35.876395313415884 23.7284
35.8997977874528 23.6431
35.92320180988546 23.5789
35.946790244133936 23.5514
35.97019737933222 23.5998
35.993606066789866 23.4586
36.01701630779276 23.4176
36.04061101440684 23.3766
36.06402437852291 23.4567
36.08743930005611 23.4387
36.1108557802951 23.3182
36.13445678011326 23.2583
36.15787639383515 23.2145
36.18129757014299 23.234
36.20472031032821 23.2684
36.22832762423364 23.1052
36.25175350829375 23.1416
36.275180960119776 23.0899
36.298609981005924 23.1039
36.32222362992669 23.004
36.34565580510207 23.004
36.36908955323448 22.9484
36.39252487562093 22.7747
36.416144880530226 22.8819
36.43958336764275 22.9068
36.463023432914625 22.8169
36.486465077645676 22.8315
36.51009145956204 22.8706
36.53353627947859 22.8587
36.55698268276811 22.7397
36.58043067073321 22.6984
36.60406345072071 22.5447
36.62751462435344 22.5759
36.65096738658405 22.5936
36.67460498210655 22.4941
36.69806093788647 22.4352
36.72151848619297 22.4376
36.744977628333636 22.4926
36.76862165890998 22.3684
36.79208400512205 22.3471
36.81554794910557 22.3541
36.83901349217101 22.2712
36.862663978991606 22.1856
36.88613273667352 22.1976
36.90960309738324 22.2133
36.933075062434064 22.0903
36.95673202673572 22.0992
36.98020721697122 22.0603
37.003684015502365 22.0002
37.027162423645365 21.9493
37.050825886711465 21.9378
37.07430753063053 21.8512
37.09779078812467 21.8374
37.121275660513014 21.7842
37.144945643673694 21.7532
37.16843376245278 21.7512
37.19192350009803 21.7129
37.215414857931435 21.691999999999997
37.239091382563885 21.7104
37.262585997426164 21.6031
37.28608223645736 21.6342
37.309763684451696 21.5611
37.33326318851098 21.519000000000002
37.356764320726555 21.5153
37.380267082425526 21.5216
37.40395510942588 21.4907
37.42746114683234 21.3562
37.45096881771841 21.3565
37.474478123414166 21.3921
37.49817275092816 21.3177
37.52168534303452 21.2719
37.54519957395567 21.2068
37.568715445024665 21.175
37.592416694607714 21.1603
37.61593586281424 21.1855
37.63945667518264 21.1979
37.66297913304891 21.0697
37.68668702630454 20.998
37.710212792059274 21.0203
37.733740207334854 20.9752
37.757269273470364 20.9364
37.780983832050374 20.9064
37.80451621684926 20.8693
37.82805025654007 20.8739
37.851585952464795 20.8235
37.8753071980695 20.7585
37.89884622345676 20.6864
37.92238690911902 20.7218
37.94611318753442 20.6231
37.969657210779765 20.6588
37.99320289834801 20.5839
38.016750251586465 20.5167
38.04048325513017 20.5104
38.06403395679343 20.4951
38.087586328183946 20.5003
38.11114037065203 20.4595
38.13488012115898 20.5177
38.1584375229181 20.4347
38.181996599821 20.3432
38.205557353221124 20.252
38.229303872575656 20.3261
38.2528679961576 20.2714
38.27643380031219 20.2453
38.30000128639589 20.1756
38.32375459653193 20.1647
38.34732546371299 20.2314
38.37089801690786 20.1296
38.39447225747609 20.0863
38.418232380377425 20.0359
38.441810012983396 19.9955
38.46538933705673 19.916
38.488970353960084 19.9365
38.51273731166058 19.826
38.536321731567014 19.8286
38.55990784840681 19.8353
38.58367995004091 19.8057
38.60726947812959 19.7239
38.63086070726198 19.6845
38.654453638806274 19.7499
38.678232613930824 19.6691
38.70182896773327 19.6082
38.72542702806741 19.5866
38.7490267963045 19.6066
38.77281266709232 19.5584
38.79641586862214 19.4758
38.8200207821842 19.4747
38.843627409152944 19.5733
38.86742019782782 19.4154
38.891030269149255 19.3473
38.914642058016156 19.3218
38.938255565806124 19.3621
38.96205529464307 19.2552
38.98567225787121 19.3197
39.00929094417078 19.2169
39.03291135492255 19.2503
39.05671804624804 19.1118
39.080341923549106 19.1788
39.103967529460334 19.1722
39.127594865365744 19.1108
39.15140854155791 19.0319
39.17503935514948 19.0516
39.19867190290282 19.0565
39.22249083587951 18.9928
39.24612686969409 18.9509
39.269764641845306 18.9361
39.293404153722804 18.8991
39.317230110864074 18.8302
39.34087311998506 18.8293
39.36451787301696 18.8043
39.388164371352595 18.6942
39.41199737518003 18.7447
39.43564738196752 18.6945
39.45929913825317 18.6567
39.48295264543308 18.6751
39.506792718520884 18.5594
39.530449745387216 18.5724
39.55410852735203 18.5053
39.57776906581474 18.5611
39.60161623079 18.4798
39.625280300200025 18.4491
39.64894613032202 18.3958
39.67261372255866 18.4451
39.6964680021016 18.3789
39.72013913657293 18.419
39.74381203738292 18.36
39.76748670593756 18.3065
39.79134812278169 18.3554
39.81502634488497 18.2791
39.83870633896685 18.2534
39.862388106436654 18.1567
39.88625668336918 18.1308
39.90994201572829 18.1701
39.933629125719285 18.128
39.957503091207826 18.021
39.9811937746168 18.0819
40.00488623990914 17.9694
40.02858048850006 17.9689
40.05246165409549 17.9337
40.076159487492085 17.8733
40.099859108448875 17.8981
40.123560518384345 17.8629
40.1474489070226 17.8345
40.171153913178564 17.7603
40.194860712584955 17.7684
40.2185693066637 17.8099
40.242464941335314 17.7238
40.26617714307655 17.6854
40.289891143772046 17.6213
40.3136069448471 17.675
40.33750984859743 17.6129
40.3612292688043 17.6076
40.3849504936829 17.5388
40.40867352466194 17.5458
40.43258372059144 17.4794
40.45631038219906 17.5088
40.48003885420956 17.4134
40.503769138055105 17.4167
40.52768664931955 17.3945
40.55142057531802 17.3771
40.57515631746428 17.352999999999998
40.599079334038514 17.2823
40.62281872700477 17.2311
40.64655994043941 17.24
40.67030297578061 17.2601
40.69423334835778 17.180999999999997
40.71798004609188 17.1169
40.74172857006355 17.0529
40.76547892171441 17.1349
40.7894166736039 17.1201
40.813170699248566 17.0318
40.83692655691388 17.011
40.86068424804498 17.0452
40.884629402612525 17.004
40.908390779366385 16.972
40.932153993938 16.9168
40.95591904777605 16.8835
40.979871628443995 16.9247
41.003640379561936 16.8524
41.02741097430883 16.8562
41.05118341413683 16.7915
41.075143444384416 16.7926
41.098919593177826 16.7892
41.1226975914255 16.749000000000002
41.14647744058318 16.685
41.170444943946755 16.6123
41.19422851378379 16.6157
41.218013938914645 16.6454
41.24198706625173 16.594
41.26577622087193 16.5657
41.289567235177785 16.5225
41.31336011063129 16.533
41.337340752422875 16.4593
41.361137369129835 16.4731
41.38493585138705 16.433
41.40873620066004 16.3773
41.43272438060107 16.3921
41.45652848292052 16.3337
41.48033445666918 16.2491
41.50414230331616 16.2651
41.528138045159764 16.2511
41.551949656675205 16.2033
41.575763145513235 16.1822
41.59957851314666 16.1565
41.62358184070442 16.1038
41.64740098505737 16.0944
41.6712220126409 16.0864
41.69504492493139 16.0209
41.71905586207357 16.0405
41.74288256296395 16.0689
41.766711153007456 15.9793
41.79054163368412 15.9304
41.814560204340054 15.9139
41.838394485526365 15.8826
41.86223066180303 15.8755
41.88625497706819 15.8286
41.910094962812 15.8388
41.93393684811168 15.8137
41.95778063445365 15.6776
41.981812625263366 15.7174
42.00566023303407 15.674000000000001
42.029509746323676 15.7096
42.05336116662236 15.6869
42.077400857069705 15.6116
42.10125611078846 15.6066
42.12511327600405 15.607000000000001
42.14897235421036 15.5108
42.173019768448455 15.5017
42.19688269209613 15.4823
42.22074753323349 15.4491
42.24461429335818 15.4186
42.268669455600495 15.4091
42.292540073217886 15.3722
42.31641261433284 15.3347
42.34028708044675 15.3766
42.36435001496739 15.3128
42.38822835065557 15.2981
42.41210861586426 15.282
42.4359908120986 15.235
42.46006154323262 15.216
42.48394762115317 15.0975
42.507835634632315 15.1564
42.531912233047436 15.1466
42.55580413732265 15.1379
42.579697981698 15.1242
42.60359376768525 15.047
42.62767820545945 15.0357
42.65157789440821 14.9737
42.67547952952185 14.9484
42.699383112316 14.9542
42.72347541395347 14.9608
42.74738291190531 14.9091
42.771292362102166 14.888
42.795203766063516 14.8448
42.819303956130405 14.8101
42.843219287476536 14.8136
42.86713657716324 14.7885
42.89105582671383 14.7935
42.91516392983864 14.6862
42.939087119032166 14.6905
42.963012272677304 14.6922
42.98693939230129 14.6539
43.01105543317513 14.5866
43.034986504731386 14.5569
43.05891954686589 14.593
43.08285456110972 14.5891
43.10697856448665 14.5457
43.130917542983475 14.4553
43.15485849820081 14.4833
43.17880143167367 14.4294
43.20293342237094 14.4607
43.226880332449 14.3737
43.25082922540554 14.3868
43.27496722682525 14.3675
43.29892010567796 14.3023
43.32287497204102 14.2644
43.34683182745632 14.19
43.370977859791836 14.1865
43.39493871351105 14.2198
43.41890156092628 14.1966
43.44286640358341 14.1688
43.46702049182749 14.1395
43.49098934522816 14.1271
43.51496019852649 14.0705
43.5389330532723 14.083
43.56309522248204 14.0644
43.58707210044314 14.0208
43.61105098451946 13.9404
43.63503187626491 13.9657
43.659202151562134 13.9161
43.68318707902681 13.929
43.70717401884041 13.9129
43.731162972560874 13.8559
43.75534137913236 13.8692
43.779334381108384 13.8217
43.803329401683186 13.8002
43.82732644241872 13.7901
43.8515130055166 13.7777
43.87551410707659 13.7212
43.89951723350145 13.6999
43.923709934595614 13.6905
43.94771713129917 13.7322
43.97172635758096 13.6906
43.99573761501002 13.655999999999999
44.0199385169922 13.5849
44.04395385732619 13.5407
44.067971233533086 13.5679
44.09199064718605 13.504000000000001
44.11619977548961 13.5112
44.14022328470671 13.5177
44.16424883610785 13.49
44.18827643127035 13.4665
44.21249381139513 13.4402
44.236525514814076 13.3518
44.26055926674478 13.4119
44.28459506876863 13.3842
44.3088207262813 13.3116
44.33286064928722 13.2824
44.35690262714919 13.3368
44.38094666145278 13.2409
44.4051806219871 13.286
44.42922879003185 13.2342
44.45327901929361 13.2159
44.477331311362136 13.2093
44.501573600619416 13.0591
44.525630039221795 13.106
44.54968854541895 13.1032
44.573937102200176 13.097000000000001
44.5979997645541 13.0416
44.622064499300315 12.9961
44.64613130803592 13.0411
44.67038823869318 13.0183
44.69445921643748 12.9724
44.718532272981385 12.8988
44.742607409926194 12.886
44.76687274034801 12.908
44.79095205918753 12.8742
44.81503346325094 12.8325
44.839116954143876 12.8024
44.86339071028742 12.8364
44.88747839599524 12.767000000000001
44.91156817336837 12.7194
44.93566004401666 12.7375
44.959942251908146 12.7013
44.984038330325966 12.6797
45.00813650686762 12.6219
45.03223678314731 12.5876
45.05652746888232 12.6101
45.08063196592069 12.6118
45.104738567558705 12.5788
45.128847275414856 12.5702
45.15314646515866 12.4745
45.17725940679741 12.5203
45.20137445952892 12.4681
45.22568004865265 12.4522
45.24979934496396 12.4551
45.27392075725247 12.4104
45.29804428714431 12.3941
45.322358426247604 12.3755
45.346486212804315 12.3301
45.370616121861914 12.3491
45.39474815505086 12.3299
45.41907087049246 12.2749
45.4432071734666 12.2702
45.46734560548283 12.2396
45.49148616817604 12.2415
45.51581748638564 12.2279
45.5399623320197 12.2118
45.56410931325473 12.148
45.58825843173002 12.147
45.61259837920865 12.1198
45.636751793816 12.106
45.66090735060093 12.0396
45.68506505120716 12.0074
45.7094136545275 12.0024
45.73357566449271 11.9764
45.75773982322992 11.9658
45.78190613238733 11.9625
45.806263418194064 11.9242
45.83043404997326 11.9233
45.85460683713677 11.9432
45.87897065658495 11.8665
45.90314777634752 11.8384
45.92732705646868 11.8339
45.9515084986045 11.8228
45.97588104735473 11.7985
46.00006683541565 11.7744
46.02425479047904 11.782
46.04844491420549 11.7581
46.0728262191024 11.7374
46.09702070211635 11.6955
46.12121735879483 11.6765
46.14541619080294 11.6853
46.169806278764455 11.6253
46.194009483459034 11.6263
46.21821486849841 11.6115
46.24242243555223 11.5771
46.266821333570014 11.5375
46.29103328674601 11.4841
46.31524742696538 11.5193
46.33946375590237 11.5132
46.36387149104216 11.4417
46.38809221957392 11.4103
46.41231514186606 11.4029
46.436540259597464 11.4291
46.460956858999374 11.4012
46.48518638983522 11.3961
46.509418121166966 11.3318
46.533652054678114 11.306
46.55807754555709 11.3293
46.58231590571962 11.2707
46.60655647313217 11.1959
46.630988654873654 11.245
46.655233659129024 11.1661
46.67948087571551 11.1616
46.70373030632484 11.1313
46.72817142736393 11.1147
46.752425308428684 11.1341
46.77668140861147 11.1184
46.80093972960865 11.042
46.82538981736788 11.0417
46.849652602470904 11.057
46.87391761349769 11.0205
46.8981848521493 10.9999
46.9226439341274 10.985
46.946915650573224 10.9809
46.97118959976749 10.8829
46.99546578341598 10.8565
47.019933887188216 10.8867
47.04421456235744 10.9071
47.06849747711879 10.8399
47.09278263318286 10.8319
47.11725978640143 10.8059
47.14154944775105 10.7659
47.165841355555656 10.7838
47.1901355115306 10.7606
47.214621741924994 10.7435
47.23892041698887 10.7246
47.26322134538975 10.6891
47.28771440635075 10.6696
47.31201986422527 10.65
47.33632758061436 10.6534
47.360637557241866 10.6306
47.38513974410611 10.5826
47.40945426407847 10.538
47.43377104948137 10.5072
47.45809010204344 10.5441
47.48260144275502 10.5097
47.506925052572285 10.5442
47.53125093475548 10.4822
47.55557909103813 10.4553
47.58009961361992 10.4341
47.60443234110732 10.4436
47.62876734791564 10.4162
47.65310463578333 10.404000000000002
47.6776343683373 10.3505
47.7019762413987 10.3201
47.72632040075572 10.3481
47.75066684815169 10.3147
47.77520581885936 10.299000000000001
47.799556865477655 10.2723
47.823910205386 10.2654
47.84826584033272 10.2358
47.87281407745551 10.2023
47.89717432569297 10.2507
47.92153687423484 10.1848
47.94609208429692 10.1695
47.97045925671401 10.1021
47.99482873471275 10.1219
48.01920052005013 10.1232
48.04376504619224 10.1002
48.068141469543484 10.096
48.09252020552573 10.074
48.11690125590099 10.0595
48.1414751266064 9.98943
48.16586082917454 9.98679
48.19024885144316 9.9541
48.2146391951793 9.95204
48.239222439012764 9.972710000000001
48.26361744916137 9.9169
48.28801478610016 9.96655
48.31241445160131 9.929730000000001
48.337007097209366 9.86805
48.36141144338331 9.85015
48.38581812345755 9.76656
48.41022713920929 9.84085
48.434829215320704 9.79681
48.45924292604658 9.7528
48.48365897780325 9.783669999999999
48.50807737237308 9.758410000000001
48.532688907799276 9.748389999999999
48.55711201168574 9.73402
48.581537463754074 9.72523
48.60615611725119 9.69771
48.63058628942721 9.67956
48.65501881516546 9.68935
48.6794536962573 9.68088
48.70408185970339 9.60735
48.72852147531801 9.54392
48.75296345168211 9.53635
48.77740779059232 9.57222
48.80204549302823 9.5479
48.82649458091802 9.54379
48.85094603676547 9.51023
48.87539986237231 9.46293
48.90004713292306 9.43605
48.92450572200832 9.44304
48.94896668628025 9.42649
48.97343002754588 9.403369999999999
48.99808689542115 9.41765
49.02255501470614 9.40175
49.04702551642794 9.38429
49.0714984023988 9.31785
49.096164896893235 9.33665
49.120642575466796 9.32432
49.145122643748394 9.3373
49.16960510355558 9.300289999999999
49.19428125404938 9.26121
49.2187685210852 9.213389999999999
49.243258185121555 9.20363
49.26794160167084 9.23821
49.2924360839405 9.18108
49.31693296869764 9.14628
49.34143225776915 9.09465
49.36612538195438 9.08784
49.39062950396021 9.1028
49.41513603578346 9.12241
49.4396449792564 9.09273
49.46434784069503 9.09014
49.488861631846454 9.061160000000001
49.513377840166804 9.03604
49.537896467493745 9.01163
49.56260909589029 8.96688
49.587132585683285 8.9796
49.611658500018365 8.97199
49.636186840738596 8.938189999999999
49.66090926588511 8.92855
49.685442483902584 8.88371
49.70997813385706 8.88419
49.734516217597076 8.857569999999999
49.75924846937352 8.85592
49.7837914452858 8.81379
49.80833686055187 8.75685
49.83288471702571 8.81621
49.85762682540054 8.809569999999999
49.882179588965734 8.754769999999999
49.9067347993235 8.749039999999999
49.93129245833333 8.73563
49.95604445336378 8.74388
49.98060703442832 8.697560000000001
50.005172069746266 8.71156
50.02993150438364 8.68925
50.05450147301533 8.6518
50.07907390151433 8.62992
50.10364879174981 8.5917
50.12841816587289 8.59084
50.1529980044635 8.59972
50.17758031042124 8.571589999999999
50.20216508562089 8.55606
50.22694442953363 8.53543
50.25153416817468 8.529119999999999
50.27612638170508 8.52788
50.300721072005196 8.4588
50.325510416102105 8.45112
50.350110084975064 8.41346
50.37471223628208 8.45405
50.39931687190919 8.42339
50.424116246675766 8.40351
50.44872587605249 8.354389999999999
50.47333799543065 8.388819999999999
50.49795260670191 8.369489999999999
50.52276204271512 8.35012
50.54738166295838 8.359119999999999
50.57200378079314 8.3343
50.596628398116835 8.274980000000001
50.62144792604559 8.30235
50.646077567609396 8.2656
50.670709714377715 8.246039999999999
50.69553683636198 8.25196
50.72017401885922 8.18096
50.7448137122895 8.19277
50.76945591856022 8.19112
50.79429318636823 8.19461
50.818940443716784 8.18768
50.84359021965163 8.15152
50.868242516085964 8.10624
50.893089960641895 8.112810000000001
50.917747323549435 8.08046
50.94240721271973 8.0641
50.96706963007175 8.02842
50.99192728239342 8.03239
51.01659478166073 8.042910000000001
51.04126481489051 8.00977
51.06593738400761 7.9894300000000005
51.090805275207074 7.97455
51.11548294172845 7.949210000000001
51.14016314993547 7.943280000000001
51.164845901758845 7.96002
51.18972406304274 7.9164
51.21441192780656 7.92439
51.23910234200271 7.8891100000000005
51.2637953075678 7.8493
51.288683770237945 7.8134
51.31338186432707 7.820110000000001
51.33808251561888 7.76673
51.362978729967345 7.811910000000001
51.387684521509755 7.791410000000001
51.41239287610203 7.76377
51.437103795691165 7.720460000000001
51.46201036644977 7.7290600000000005
51.486726441956634 7.71092
51.51144508832545 7.718310000000001
51.536166307509156 7.632560000000001
51.56108326624387 7.63691
51.58580965706056 7.63306
51.61053862657523 7.6376
51.635270176746864 7.62803
51.66019755512065 7.587969999999999
51.68493429268881 7.58352
51.70967361681515 7.57315
51.73441552946465 7.567410000000001
51.759353359237934 7.547560000000001
51.7841004750961 7.56115
51.80885018539685 7.538810000000001
51.833602492111254 7.50046
51.8585508051424 7.476789999999999
51.883308330926425 7.47779
51.90806845906181 7.469589999999999
51.932831191525715 7.42166
51.95779001977161 7.41983
51.98255798721516 7.3926
52.00732856494335 7.3613100000000005
52.03229530577543 7.35542
52.057071130455945 7.32795
52.081849571391054 7.3224800000000005
52.106630630568695 7.318560000000001
52.13160794279417 7.3157
52.15639426492067 7.299930000000001
52.18118321127822 7.2408600000000005
52.205974783860896 7.23844
52.23096269971011 7.242369999999999
52.255759551287994 7.22415
52.280559035098186 7.1882
52.30536115314103 7.22208
52.33035970494467 7.18345
52.35516711807904 7.14239
52.37997717147198 7.15247
52.40478986713005 7.18875
52.42979908731974 7.1771899999999995
52.454617094216 7.1128100000000005
52.47943774942214 7.070530000000001
52.50426105495102 7.05085
52.529280976059844 7.05092
52.554109609024096 7.0509
52.57894089837482 6.9998
52.60377484613117 7.0224
52.62880550079408 7.02842
52.65364479223379 6.980569999999999
52.67848674816189 7.00402
52.70352547971946 6.985469999999999
52.72837279155837 6.93642
52.753222773982785 6.915019999999999
52.778075429022984 6.954339999999999
52.80312495150885 6.89487
52.827982978797436 6.89727
52.85284368481815 6.878010000000001
52.87770707160767 6.84158
52.90276741793998 6.826569999999999
52.92763619336701 6.836880000000001
52.952507655698504 6.8185
52.977381806977576 6.801880000000001
53.00245301017842 6.7902
53.02733256653592 6.7934600000000005
53.052214817996074 6.773110000000001
53.077099766608484 6.7710300000000005
53.102181859804446 6.71985
53.127072229988265 6.725789999999999
53.15196530349892 6.69913
53.17686108239249 6.67311
53.20195409881522 6.682689999999999
53.22685531582556 6.69228
53.25175924441303 6.60124
53.27666588664027 6.65999
53.30176985962693 6.61078
53.3266819565689 6.60155
53.35159677336455 6.617710000000001
53.376514312083096 6.6398399999999995
53.40162927507703 6.5904300000000005
53.42655228516116 6.525440000000001
53.45147802340193 6.5183
53.47660125628886 6.53734
53.50153247842639 6.51201
53.52646643496923 6.49953
53.55140312799818 6.50073
53.576537409691696 6.46396
53.60147960336152 6.43912
53.626424539786164 6.41061
53.65137222105307 6.40062
53.67651758529126 6.39305
53.70147078399681 6.3646
53.72642673383343 6.40089
53.75138543689533 6.39422
53.776541917524526 6.39922
53.801506154876755 6.3230699999999995
53.826473151763246 6.29945
53.851442910284916 6.27171
53.87661054126026 6.29125
53.9015858509782 6.29743
53.92656392866066 6.32989
53.95154477641532 6.2873
53.976723591801296 6.25367
54.00171000771266 6.21574
54.02669920004598 6.20981
54.051691170915745 6.20653
54.076881204886796 6.1904900000000005
54.101878760928514 6.20536
54.12687910187696 6.15958
54.152077577768296 6.17194
54.1770835166946 6.10286
54.20209224691339 6.13791
54.22710377055121 6.1054
54.25231352511594 6.11191
54.27733066384342 6.05123
54.30235060239643 6.05944
54.32737334290836 6.029730000000001
54.35259441062629 5.9957
54.377622783395324 5.98776
54.40265396455061 5.99151
54.42768795623251 5.99939
54.45292037169559 5.95587
54.477960012857906 5.92593
54.50300247099511 5.9650099999999995
54.52804774825457 5.90669
54.55329154616743 5.90873
54.57834249018678 5.89652
54.6033962597977 5.83364
54.6284528571545 5.82829
54.653708072335164 5.79641
54.67877035378786 5.79427
54.70383546947698 5.77086
54.72890342156389 5.71582
54.7541700889442 5.74022
54.77924374251975 5.72274
54.8043202390049 5.64499
54.82959552413022 5.65519
54.8546777351945 5.657430000000001
54.87976279569621 5.61135
54.90485070780914 5.6239
54.930137506558005 5.60966
54.95523115074295 5.59388
54.98032765308844 5.5091
55.005427015775496 5.534
55.03072536339621 5.48233
55.05583047570572 5.51512
55.080938454927676 5.4646099999999995
55.10604930325027 5.41019
55.131359235107396 5.4469199999999995
55.15647585066083 5.39901
55.181595341907496 5.395169999999999
55.20671771104285 5.3872800000000005
55.232039262617704 5.37434
55.25716741665048 5.2953
55.28229845518636 5.28421
55.30743238042802 5.2731699999999995
55.33276558731939 5.27779
55.357905315183636 5.22529
55.383047936390035 5.18061
55.40819345314859 5.16734
55.433538351073295 5.16845
55.458689688238415 5.14532
55.483843927614096 5.0621599999999995
55.509197623043605 5.027340000000001
55.53435769621134 5.04633
55.55952067826466 5.0398
55.5846865714265 5.0038
55.61005202069737 5.01489
55.63522376553902 4.99349
55.66039842818645 4.95104
55.68557601087004 4.96585
55.7109532500271 4.9032800000000005
55.73613670233794 4.91665
