TT I
1.2716486653135266 8.07095
1.2939594142134223 7.473889999999999
1.3162702121660406 7.136830000000001
1.3385810600174564 7.39145
1.3608919586137629 7.368639999999999
1.383202908801069 6.830439999999999
1.405513911425503 5.24607
1.4278249673332093 6.72088
1.4501343378461518 6.97345
1.4724455028545926 6.950260000000001
1.4947567236847858 6.296930000000001
1.517068001182951 6.51157
1.5393793361953272 5.95611
1.5616907295681737 6.00798
1.5840021821477681 5.71623
1.60631369478041 5.87803
1.6286252683124185 5.40287
1.6509369035901333 5.942769999999999
1.6732468618895553 5.96265
1.695558623192809 5.56499
1.7178704487808514 5.675009999999999
1.7401823395001077 5.613119999999999
1.7625012545597203 5.66603
1.7848028405262486 5.51502
1.8071218901122095 4.67221
1.8294236121921872 4.96863
1.8517427996910911 4.77506
1.8740620574440425 5.1679
1.8963639900671978 5.01486
1.9186833908139995 5.46082
1.9409854680117449 4.955369999999999
1.9633050151394713 5.06082
1.9856246367570705 4.873
2.0079269371922672 5.134180000000001
2.03024671027244 5.3699900000000005
2.0525491637446027 4.612369999999999
2.074869091674931 4.5424
2.097171701569106 4.6208599999999995
2.1194917877373847 4.92345
2.141811954326636 5.0158
2.164114805233074 4.93124
2.186435135143035 4.7508099999999995
2.208738150935709 4.49165
2.231058647554722 4.3971599999999995
2.2533792288321184 4.98968
2.275682498336085 4.84183
2.298003251406138 4.553059999999999
2.3203066942619714 4.90175
2.3426276225136022 4.891290000000001
2.3649486396617507 4.62159
2.387252348930071 4.90373
2.4095735463442893 4.82404
2.4318774374315884 4.9383
2.4541988185014043 4.846019999999999
2.476502894794693 5.4943599999999995
2.498824462909887 5.73006
2.521146125856138 5.41252
2.5434504863470337 6.06595
2.5657723414244717 5.40419
2.588076895590662 5.8446
2.610398946189713 5.91514
2.6327210958598384 6.1698
2.6550259469304716 6.556889999999999
2.6773482972090137 6.90146
2.6996533504259 6.626460000000001
2.7219759047039602 7.005510000000001
2.744298562293959 6.97797
2.7666039251246595 6.473990000000001
2.7889267918020164 7.297860000000001
2.8112323652516555 7.15525
2.833555444408179 8.079260000000001
2.8558786311183852 7.60233
2.8781845268938557 7.64233
2.9005079311721484 8.30606
2.9228140460410397 8.536430000000001
2.9451376712799635 8.9873
2.967444008632326 8.978589999999999
2.9897678582247247 9.72615
3.0120918213106695 10.3878
3.0343984987899373 10.7484
3.0567226913198637 11.1053
3.079029599759726 12.0766
3.101354025127254 12.6732
3.123678568232338 12.5438
3.145985829517914 12.9419
3.16831061055229 13.6449
3.1906181112775593 14.2301
3.212943133635653 14.6971
3.2352682779763207 15.0253
3.2575761442691227 15.6802
3.2799015350264273 15.7482
3.302209649240067 16.2667
3.3245352898092655 17.012999999999998
3.3468436553365257 17.8562
3.369169549113219 18.0945
3.3914955708171384 18.9957
3.413804319727358 18.8619
3.4361305997334863 19.5498
3.4584396084414553 20.0594
3.4807661501462652 20.4716
3.503092824025881 20.8121
3.5254022288463154 20.9064
3.5477291695206588 21.355999999999998
3.5700388426251948 21.6838
3.5923660534916446 22.6908
3.6146934007816114 23.1643
3.637003482731501 23.3929
3.6593311053109985 23.5404
3.681641464033634 23.9516
3.7039693653009733 24.3989
3.726297407241705 25.2142
3.7486081875460804 25.1152
3.7709365132734978 26.183000000000003
3.793247578841633 26.4653
3.8155761917550093 27.3126
3.8378875459837216 27.4611
3.8602164494827234 27.8053
3.882545499606844 28.3755
3.9048572932539183 28.8505
3.9271866390645718 29.2901
3.9494987298666713 30.148000000000003
3.971828374764527 30.61
3.9941581705403255 31.0564
4.016470713506008 31.6536
4.038800813471445 32.1147
4.061113662089144 32.6408
4.0834440696459176 33.868
4.105774632334751 34.4926
4.128087945865126 34.6567
4.150418821249301 35.5891
4.172732448931298 36.1581
4.195063640413578 36.8525
4.2173775856475215 37.8548
4.239709096631102 38.7176
4.262040768704612 39.0409
4.284355196706267 39.4941
4.306687193387355 40.0413
4.329001947444346 41.8747
4.35133427213731 42.7122
4.373666762177566 43.2977
4.395982011761091 44.1662
4.418314834921175 45.1982
4.44063041906622 46.3178
4.4629635787515625 47.1489
4.4852969080429785 49.4614
4.5076130004776225 50.6005
4.529946671403969 52.6228
4.552263106909177 54.3411
4.574597122877047 54.0642
4.596931312711224 54.9968
4.619248269273446 55.9308
4.6415828092605835 57.0022
4.663900117405352 58.4102
4.686235010953232 59.8079
4.708552674085913 60.997
4.730887924602802 63.0505
4.753223354952695 64.9289
4.775541557023902 66.6369
4.797877349456786 68.9215
4.820195915032126 70.5751
4.842532072957498 71.7063
4.864868414979744 73.9989
4.88718753227192 77.2426
4.909524244902505 79.2301
4.931843734218147 81.5725
4.954180820867835 84.4321
4.976518095879839 88.37799999999999
4.998838149695359 91.4579
5.021175803844231 96.0579
5.043496238205739 100.59
5.065834274903528 106.522
5.088172504230693 113.734
5.1104935158799565 123.235
5.132832132875765 140.638
5.155153533596801 168.635
5.1774925416746225 288.202
5.199814334878411 890.597
5.2221537374521505 2192.61
5.244493338631803 3970.16
5.266815727034316 6953.24
5.289155727832427 10558.3
5.311478517248165 9306.96
5.333818921080011 4053.47
5.356159527788849 932.423
5.3784829252032536 267.861
5.400823940070432 181.21400000000003
5.423147747031976 151.85
5.445489173474152 136.455
5.467830807066149 128.58100000000002
5.490155234831516 123.685
5.512497285125229 118.023
5.534822130975162 114.40799999999999
5.557164601388673 111.927
5.579489868738879 108.171
5.601832762690846 106.381
5.6241758697774475 104.63600000000001
5.646501775867269 104.167
5.668845311622074 103.191
5.691171647754637 102.59
5.713515615597765 101.413
5.735859800852677 100.76899999999999
5.758186788542988 100.831
5.780531411018185 102.198
5.802858837297399 101.475
5.825203900414495 102.06200000000001
5.8475491852224 103.95200000000001
5.869877275883075 104.861
5.892223006467101 106.43299999999999
5.914551544266608 109.759
5.936897724049891 116.80799999999999
5.959244129804903 132.974
5.981573344815301 198.263
6.0039202049061 446.236
6.026249875609095 885.628
6.04859719346037 1428.98
6.070927323278297 2243.0
6.093275102315365 3719.2
6.115623113320588 4595.38
6.137953938319995 3612.82
6.160302415650845 1353.68
6.182633708324452 342.923
6.2049826554078376 143.87
6.227331838745022 108.13
6.249663839443684 95.7614
6.27201349767565 88.4093
6.294345974611799 84.2946
6.316696111167083 80.8386
6.339046488263839 78.4087
6.361379686074702 76.1971
6.383730546639482 74.5426
6.406064229255215 73.1136
6.428415576718203 72.5391
6.450749747566656 70.8561
6.47310158535871 69.7469
6.495453669698332 68.3069
6.517788579421056 67.7613
6.540141159237969 66.6015
6.562476565766648 65.7724
6.5848296444934045 65.2353
6.607182974060425 64.2327
6.6295191323281015 63.8726
6.651872965955752 62.9656
6.6742096296068985 62.1727
6.6965639707294615 62.0751
6.71891856698715 61.36600000000001
6.741255995248479 61.0462
6.763611104154477 60.7283
6.785949046381137 60.3562
6.808304671371482 59.8356
6.8306605557940046 60.0429
6.852999275508618 59.2825
6.875355681171544 59.0906
6.897694923437771 58.6805
6.92005185377892 58.3363
6.9423916220322655 57.556000000000004
6.964749080490181 57.4203
6.987106804399774 57.4988
7.009447368180821 57.6299
7.031805625367033 57.1962
7.054146723727803 57.0678
7.076505517631004 56.7256
7.098864581288365 56.6168
7.121206488070854 56.3474
7.143566093607822 56.2596
7.165908543567245 56.8635
7.188268694426048 56.312
7.2106291193438095 55.898999999999994
7.232972390625943 55.8702
7.255333366030969 55.7075
7.277677189091925 55.4737
7.300038718428332 55.4665
7.322400526130865 55.5205
7.344745183422596 55.8097
7.367107550224791 55.721000000000004
7.389452767901992 55.6598
7.411815697249891 55.7605
7.434161478756298 55.3344
7.456524974096713 55.619
7.478888753837185 55.5528
7.501235387657368 56.1417
7.523599738562711 56.1085
7.545946944825532 56.0908
7.568311870344528 56.8053
7.5906770845765665 57.0885
7.613025156078678 57.3081
7.635390950099687 57.605
7.657739602662809 57.14
7.680105979923558 57.1678
7.702472650212829 58.2473
7.724822180948224 58.1719
7.747189439655568 58.3814
7.769539560075357 58.4297
7.791907410653562 59.0307
7.81425812420825 58.2961
7.836626570110925 58.8848
7.858995315087906 60.3148
7.881346924933401 60.1223
7.903716270417482 60.8544
7.926068482028405 61.3468
7.948438431475253 61.6696
7.9708086843180235 62.1465
7.993161805171116 62.9667
8.015532667162402 63.621
8.037886398416653 64.9353
8.060257873014221 65.6714
8.082629655331942 66.071
8.104984308787587 66.5873
8.127356708900503 67.905
8.149711981398308 69.1515
8.172085002766314 70.0059
8.194458336181368 70.6977
8.216814543847752 71.4675
8.23918850371002 72.8591
8.26154533906492 73.9467
8.283919928836452 76.0745
8.306277395339652 77.563
8.328652618483376 79.184
8.351028159736202 81.3246
8.373386579575245 83.9387
8.395762759396959 86.4286
8.418121819038275 90.0531
8.440498640894003 96.096
8.462875785192262 111.167
8.485235811156207 166.669
8.507613602688501 292.03
8.529974277114228 446.111
8.552352719347912 579.962
8.574731488360351 760.725
8.59709314210385 1081.95
8.619472567021075 1557.17
8.64183487789147 1995.31
8.664214962183097 1889.13
8.686577933647762 1162.85
8.708958680784317 519.75
8.731339760774953 215.063
8.753703729764451 129.29
8.77608547780821 110.48200000000001
8.798450116065078 104.11
8.820832535634787 99.8449
8.843215292401656 97.8635
8.865580941199045 96.4034
8.887964374703538 94.8612
8.910330701447199 93.3163
8.932714815164482 92.09100000000001
8.955099270424924 90.725
8.977466620733543 89.7608
8.999851761421976 89.0645
9.022219798361645 88.3232
9.04460562795561 88.6933
9.066991803441677 87.9
9.089360876979615 87.7844
9.111747746589993 87.8537
9.13411751544971 86.7249
9.156505082664324 86.1501
9.178875550323522 86.3826
9.20126381862328 86.413
9.223652438908596 86.096
9.246023961427412 86.5379
9.26841328802173 86.6537
9.290785518039224 86.7668
9.313175554425882 87.9695
9.335565947154315 88.0844
9.357939245086508 88.0504
9.380330352834827 88.3744
9.40270436697103 88.1004
9.425096193225055 87.9343
9.447488380180165 89.1931
9.469863475295412 89.1082
9.492256385987508 89.6091
9.514632206018318 90.1141
9.537025843935714 90.7095
9.559402392368193 91.4972
9.581796761000229 93.1119
9.604191496441521 93.5518
9.626569144158516 94.6517
9.648964615551032 94.7879
9.671343000390081 95.141
9.693739211225699 96.0588
9.716135793237463 97.6476
9.738515290448102 98.6293
9.760912617143402 100.176
9.783292860202891 101.76700000000001
9.805690935076182 103.34299999999999
9.828089385495742 104.289
9.850470754023561 106.359
9.872869957865444 109.118
9.89525208097539 112.119
9.917652041736662 118.131
9.940052382417589 137.768
9.962435644102392 202.451
9.984836746950979 303.135
10.007220771957746 412.173
10.029622640473708 511.779
10.052007432299963 639.554
10.074410069984072 809.007
10.096813093716005 1089.26
10.119199042482517 1470.77
10.141602840636468 1795.65
10.163989564971628 1696.84
10.186394141051062 1141.6
10.208799107559706 528.783
10.231187001965623 245.158
10.253592751657669 146.779
10.275981430388155 123.353
10.298387966769793 116.774
10.320794897965431 114.48299999999999
10.343184759907361 112.491
10.36559248305461 111.241
10.387983138083852 115.743
10.410391656691655 132.52100000000002
10.432800574501677 159.055
10.455192425893369 185.695
10.47760214443012 210.30700000000002
10.499994797678786 238.7
10.522405320453982 284.22
10.54479877906917 358.50300000000004
10.567210109595656 449.465
10.5896218454736 535.024
10.612016518879773 538.034
10.634429067781074 402.668
10.656824555333241 246.63400000000001
10.679237920773568 149.13
10.701651695961992 106.79700000000001
10.724048411481384 95.7753
10.746463008485165 92.0412
10.768860546937125 90.0353
10.791275969274796 87.54700000000001
10.81369180576079 86.3225
10.836090585366925 85.1671
10.858507252467449 83.9307
10.88090686379991 82.6871
10.903324365036394 81.7861
10.925724811614439 80.895
10.948143150509463 80.4568
10.970561909719066 79.684
10.992963615930844 78.7764
11.015383218085756 77.7483
11.037785768347074 76.8607
11.06020621697282 75.9388
11.082627090322113 75.3969
11.105030913430326 74.5112
11.12745263854165 74.0858
11.149857314510728 73.247
11.172279894912576 73.2823
11.194702904450653 71.821
11.217108866490921 71.2264
11.239532736615194 71.1664
11.26193956033512 70.7361
11.284364294577085 70.7687
11.306789462371718 69.9917
11.329197585398376 69.757
11.351623622610898 69.8892
11.37403261614354 69.0974
11.396459526308487 69.0362
11.418869393879497 68.5041
11.441297180532617 68.2781
11.463725406927658 67.514
11.486136592353875 67.2558
11.508565700543707 66.7179
11.530977768845315 66.8855
11.553407762368774 66.5854
11.575838200059769 66.8019
11.598251599479612 66.277
11.620682927815501 66.0055
11.64309721895548 66.5544
11.665529441478206 66.069
11.687962112597958 65.8659
11.710377748130886 65.7309
11.732811318753434 65.5888
11.755227854859067 65.4963
11.777662328529495 65.1781
11.800079768750786 65.4782
11.822515149015453 65.5042
11.844950984084935 65.7275
11.867369787303163 65.4451
11.889806534289491 65.6277
11.912226250487029 66.0458
11.934663912939751 65.8224
11.9571020346363 66.0273
11.979523127133968 66.7011
12.001962169624331 69.0252
12.024384183972964 72.6729
12.046824150809913 79.8928
12.069264581333726 87.5826
12.091687985297767 93.7581
12.11412934550045 99.6744
12.136553680195208 109.256
12.158995973632788 123.325
12.181438735204349 141.125
12.20386447284199 164.72099999999998
12.226308172985636 192.947
12.24873485024193 205.232
12.271179492516982 182.702
12.293607112949127 143.244
12.316052700916226 101.704
12.338498763250042 78.3189
12.360927805303868 69.6345
12.383374818673879 67.6794
12.405804812803074 66.852
12.428252780773262 67.273
12.45070122756722 67.1489
12.473132656675375 67.0095
12.49558206341869 67.6093
12.518014453510101 67.1859
12.540464823770117 67.3884
12.562915677315177 67.3783
12.58534951575545 68.01899999999999
12.607801338171472 67.6923
12.630236146511358 68.1743
12.652688941369085 68.6167
12.675124723177234 68.7475
12.697578494048786 69.5194
12.720032754458185 69.7353
12.742470003354093 70.0743
12.764925245138771 70.7125
12.787363476431278 71.2274
12.809819703166806 71.7687
12.83227642391173 72.6003
12.854716135692716 73.1437
12.877173846755147 74.2391
12.899614549869717 75.03
12.9220732548287 75.7911
12.94453245827299 76.3428
12.966974655289818 77.4901
12.989434858002571 78.5014
13.011878055298721 79.4017
13.034339260862497 80.6423
13.056800969391883 82.6172
13.079245674017244 86.5087
13.101708390774869 94.6614
13.12415410463411 111.446
13.146617833206086 130.53
13.169064559883248 146.226
13.191529303857127 159.732
13.213994557076367 175.12599999999998
13.236442809902437 198.442
13.258909083908291 231.5
13.28135835851934 271.98
13.30382565690295 326.748
13.326293469022952 387.001
13.348744283242008 422.106
13.371213125129904 386.68300000000005
13.39366497011003 303.155
13.416134845360597 209.46
13.438605238843131 148.341
13.46105863690397 129.502
13.483530069144786 133.10399999999998
13.505984506951902 142.507
13.528456981549432 152.136
13.550929978879088 161.454
13.573385983253365 175.50799999999998
13.595860028340867 197.68400000000003
13.618317081455832 228.649
13.64079217790333 269.236
13.663250283359057 316.813
13.685726434770173 354.13
13.708203115221277 360.05300000000005
13.730662806148091 301.32099999999997
13.75314054697177 223.579
13.775601299246777 152.819
13.798080104050406 109.285
13.820559442405358 92.1191
13.843021793671388 86.7633
13.865502201420897 84.726
13.887965623051947 83.9666
13.910447103807167 82.7749
13.932929122629764 81.2756
13.955394156785959 80.7121
13.977877254034569 79.8473
14.000343367582113 78.9377
14.022827546871707 78.0484
14.045294743423524 77.4395
14.06778000837062 76.6725
14.090265817715476 76.4247
14.112734645763819 75.9459
14.13522154619454 75.2792
14.157691466286913 74.9965
14.180179461423874 75.0567
14.202668005486178 74.5618
14.22513957064374 74.2151
14.247629214846473 74.1387
14.270101881097517 73.426
14.29259262906496 73.2365
14.315083930490205 73.1034
14.337558255389705 73.0708
14.360050666019726 72.8225
14.382526101071944 72.3502
14.405019624534942 72.3693
14.427513705993134 72.2965
14.449990813291825 72.494
14.47248601302899 72.3285
14.49496423954951 72.3454
14.517460561197822 72.3689
14.539939910570322 72.3028
14.562437357763558 72.5283
14.58493536931253 72.6563
14.607416409993311 72.5523
14.62991555254159 73.0503
14.652397725157423 73.6043
14.674898002342799 73.9617
14.697398848433282 74.4342
14.719882725991326 77.0048
14.74238471217934 81.3017
14.764869730765593 88.6856
14.787372860692983 94.9107
14.809876564079925 100.824
14.83236330125751 105.98
14.854868153850365 111.699
14.877356041159485 120.302
14.899862046604186 131.357
14.922351087688757 146.66899999999998
14.944858249632887 166.542
14.967365991421232 189.65400000000002
14.989856770231246 211.227
15.012365673994204 221.812
15.03485761569738 205.12099999999998
15.05736768508665 168.317
15.07987833888692 129.888
15.102372032001655 100.985
15.124883856909658 83.2229
15.14737872204565 76.8083
15.169891721717274 74.5064
15.192405310371893 73.8407
15.214901940621196 73.0658
15.237416709527137 72.2017
15.259914520936249 71.6979
15.282430473753607 71.4699
15.304947020131227 70.8418
15.327446610371178 70.5326
15.349964346154254 70.1475
15.372465126703139 69.9142
15.394984055556009 69.9664
15.417486030076159 69.946
15.44000615566487 69.3185
15.462526881230803 69.4877
15.485030653812652 69.4381
15.507552581617434 69.1116
15.530057557334603 68.9978
15.55258069104857 69.2595
15.575104429329837 69.8299
15.597611216864632 69.8333
15.620136166564563 71.2939
15.6426441664095 75.1174
15.665170331202765 80.9239
15.687697105158826 86.1601
15.710206930593545 90.7607
15.732734925158933 94.3669
15.755245972089478 97.9619
15.77777519094324 104.132
15.800287463046663 111.929
15.822817909869592 122.91799999999999
15.84534897229804 136.421
15.867863089299354 153.563
15.890395385222186 173.122
15.912910736597423 190.834
15.935444269699861 192.267
15.957978423016485 171.885
15.980495633101265 140.826
16.003031029129367 110.15299999999999
16.02554948280019 84.9437
16.048086125229432 72.1356
16.070623392487107 67.5675
16.09314371869582 65.5208
16.11568223789321 64.3867
16.13820381691126 63.8542
16.160743591742527 63.2394
16.183283996022084 62.8248
16.205807461423195 62.0958
16.228349126881973 61.4469
16.25087385432698 61.2577
16.27341678466365 60.8912
16.29594277784926 60.6797
16.31848697676433 60.0718
16.341031811604868 59.4011
16.36355971058487 59.5056
16.3861058195587 59.3303
16.40863499352978 58.8074
16.431182380342005 58.5585
16.453730407713202 58.4826
16.476261501364792 58.2509
16.498810812136167 57.9433
16.52134319004079 58.0992
16.54389378792203 57.9299
16.566445031001553 57.6573
16.588979342490088 57.3773
16.61153187824822 57.5119
16.634067483263312 57.2519
16.656621315414416 57.1772
16.679175797408888 56.9189
16.701713349928728 57.0306
16.72426913389191 57.2371
16.74680798922351 57.2913
16.76936507887444 57.1045
16.791905240734874 56.8299
16.814463639794468 56.8126
16.837022695210294 57.0624
16.859564824093756 57.2167
16.882125194503903 57.3963
16.904668639217885 57.6039
16.927230328348003 57.396
16.949792678493612 57.5385
16.972338104193863 57.7141
16.994901778652235 57.7931
17.017448529496576 58.2175
17.040013531998152 59.348
17.06257920018044 60.45
17.0851279459922 61.6845
17.107694947817667 62.7724
17.130245028099072 63.3901
17.15281336730298 64.5046
17.17536478578733 65.8576
17.19793446610687 67.3067
17.220504818648422 68.99600000000001
17.243058251703697 70.9612
17.265629950971032 74.1692
17.288184731571736 77.9951
17.310757781306908 82.5959
17.33333150794385 85.2002
17.355888317140174 85.4241
17.37846339986244 82.9356
17.401021565958885 76.9839
17.42359800851343 71.204
17.44617513265564 66.4781
17.468735341390783 63.6789
17.491261035594565 62.4162
17.51396340099364 61.7648
17.536490463869136 61.7706
17.559018209820174 61.8807
17.58154663977963 62.0272
17.604251766089718 62.2675
17.626781572227713 62.4929
17.64931206518155 62.7688
17.671843245885103 62.9561
17.69455114821572 63.0592
17.717083712612634 63.3362
17.739616967569667 63.6926
17.762150914021706 64.4846
17.78486160749854 65.0298
17.807396945166804 66.5325
17.829932977143503 68.8976
17.85246970436452 72.2363
17.875183204129467 75.1272
17.897721330097664 78.0016
17.920260154126645 80.3271
17.942799677153296 82.3719
17.9655159983646 84.8057
17.988056927677544 88.5496
18.010598558807683 93.5127
18.033140892692916 99.3679
18.05586005052525 106.572
18.07840379824407 116.171
18.10094825154059 128.119
18.12366954819864 139.349
18.146215420998306 145.16899999999998
18.16876200220057 143.101
18.191309292745153 131.93
18.214033452627167 116.995
18.236582170236648 102.64200000000001
18.259131600016456 93.1919
18.281681742907335 89.3366
18.304408781233683 90.3999
18.32696035875955 93.2885
18.349512652227624 97.5022
18.372065662579683 102.78299999999999
18.394795594587553 106.9
18.41735004715306 106.77
18.43990521943684 101.396
18.46246111238171 93.0687
18.485193953325208 82.76299999999999
18.507751296070428 74.6377
18.530309362314178 69.6944
18.552868153000343 66.877
18.57560391815056 65.1793
18.59816416623245 64.7062
18.620725141597372 64.4067
18.643286845190268 63.6878
18.666025549835414 63.1931
18.688588718427933 62.5785
18.711152618092243 62.4463
18.73389353884365 62.181000000000004
18.75645890921984 61.9113
18.77902501351406 61.5419
18.801591852673102 61.4727
18.824335739722738 60.6646
18.846904057212626 60.8572
18.8694731124168 60.5571
18.89204290628315 60.6256
18.914789774966803 60.4087
18.937361054791623 60.257
18.959933076131318 59.667
18.982505839934877 59.8897
19.00525570560582 59.7967
19.027829963004184 59.4085
19.05040496572238 59.8562
19.072980714710468 60.315
19.095733592739563 60.7754
19.11831084296757 61.291000000000004
19.140888842324735 61.6675
19.16346759176222 61.8158
19.18622349753803 62.1563
19.208803755869358 62.8805
19.231384767143577 63.7926
19.253966532312948 64.9131
19.276725481241822 65.9748
19.29930876296784 67.2131
19.3218928014549 69.0973
19.34465404436217 71.4031
19.36723960516257 74.4631
19.389825925592426 76.5954
19.412413006605938 77.4117
19.43517731967805 75.7891
19.457765930683355 72.2866
19.48035530514408 67.866
19.50294544401556 63.5276
19.525712842708348 60.114
19.54830451925909 58.4593
19.570896963095727 56.9935
19.593490175174704 56.4677
19.616260674962184 56.38399999999999
19.638855432416964 56.1916
19.661450960992624 56.2272
19.68404726164677 56.0737
19.706820878021247 55.8888
19.729418731756834 56.1512
19.752017360452857 55.8973
19.77461676506804 56.3516
19.797393513540218 56.8361
19.819994478951667 57.4222
19.84259622316767 57.9258
19.8651987471481 58.5976
19.887978643247177 58.5752
19.91058273574792 58.9444
19.933187610901943 59.4417
19.955969879466828 60.38
19.97857632894404 61.5941
20.00118356396599 62.5253
20.023791585494575 64.0712
20.046577028914875 66.5248
20.069186632506966 68.786
20.091797025500632 71.0487
20.114408208858933 72.8065
20.137196842715273 73.551
20.159809615886765 72.8004
20.18242318232135 70.1637
20.20503754298326 67.7095
20.227829382875154 65.4941
20.250445341109344 64.2554
20.27306209647285 63.8863
20.29567964993108 64.541
20.31847471147704 65.757
20.34109387027612 66.7588
20.363713830075454 67.4178
20.386334591841646 67.0725
20.409132890679302 65.0652
20.431755265564437 62.1531
20.454378445325528 58.8841
20.477002430930366 56.396
20.499803982716553 54.7274
20.522429589228004 53.6309
20.54505600449589 52.8769
20.567683229489194 52.8221
20.590488049900088 52.5708
20.61311690359731 52.5546
20.63574656993626 52.3852
20.658553853717297 51.9689
20.681185154618298 51.9682
20.703817271080066 51.9698
20.72645020407368 51.5719
20.749260783967177 51.4766
20.771895359337133 51.2833
20.794530754161617 51.3021
20.817166969412938 51.2357
20.83998086114876 51.0565
20.86261872660049 50.9091
20.885257415405402 51.0289
20.90789692853701 51.0341
20.930714147864748 51.0117
20.953355319030678 51.0738
20.97599731745334 51.2742
20.99864014410749 51.1556
21.021460706796564 50.9489
21.044105199328826 51.388999999999996
21.06675052302631 51.3246
21.089396678865015 51.5694
21.112220600704806 51.7921
21.134868430275347 52.0344
21.15751709492456 52.1208
21.180166595629693 51.9908
21.202993892429635 52.4412
21.22564507473034 52.9794
21.24829709602816 53.1931
21.27112693608965 53.5448
21.293780644891275 53.9253
21.316435195634053 53.5637
21.339090589297417 52.6166
21.361923832041875 52.2137
21.384580921090404 51.5968
21.407238856007325 51.096000000000004
21.429897637773326 50.7807
21.45273429906592 50.7369
21.475394784108598 50.7413
21.498056118951983 50.6041
21.520718304578022 50.9756
21.543558400304388 51.3615
21.566222297108816 51.7337
21.58888704765135 51.9484
21.61155265291521 52.6279
21.63439619898156 53.1956
21.657063523335786 53.2707
21.67973170537063 53.7597
21.7024007460706 54.1456
21.72524775840385 54.6373
21.747918526116475 55.5638
21.770590155457388 56.5833
21.79326264741238 57.601000000000006
21.816113141960237 58.9484
21.838787368860547 60.1866
21.861462461341976 61.7977
21.884315579735777 63.6787
21.90699241312273 65.2183
21.92967011506078 66.811
21.95234868653799 67.2185
21.9752053151131 66.8676
21.997885635446785 65.2686
22.020566828293532 63.1178
22.04324889464272 60.6878
22.066109049404666 58.505
22.088792872571794 57.7039
22.111477572219204 57.7134
22.1341631493376 57.9957
22.157026846313123 58.3764
22.179714188221507 58.0255
22.202402410582668 57.1661
22.22509151438863 55.8028
22.24795876962584 54.5485
22.270649646204486 53.2754
22.293341407213727 52.3486
22.316034053646906 51.7818
22.338904883215342 51.3908
22.36159931041458 51.2772
22.38429462602756 50.88
22.40699083104897 50.7488
22.429865251039757 50.742
22.452563244831367 50.9501
22.47526213102522 50.8535
22.49813925616515 50.8632
22.520839937143307 50.8745
22.543541513520587 50.8514
22.56624398629403 50.8328
22.589124730075895 50.9687
22.611829005656723 51.2973
22.63453418063466 51.3667
22.657240256008077 51.799
22.680124634582935 52.2118
22.70283252079775 52.5169
22.725541310413075 52.617
22.74825100442868 52.6746
22.771139033969575 53.1039
22.79385054687155 53.0654
22.81656296718292 53.424
22.83927629590484 54.1518
22.862167992606945 54.6887
22.88488314827121 55.7343
22.907599215359284 56.1924
22.93031619487366 57.0286
22.953211574954405 58.2379
22.975930389478226 59.4327
22.998650119445763 60.0451
23.02137076586092 59.8906
23.044269845560063 59.0796
23.06699233506288 57.7325
23.089715744034912 56.0267
23.112617610931565 54.4
23.135342869061212 52.9268
23.158069049684816 52.0037
23.1807961538087 51.3801
23.20370174880544 51.4571
23.226430710184808 51.5035
23.249160598093425 51.6368
23.271891413539002 51.8054
23.294800752937697 51.9619
23.31753343374794 52.1413
23.340267045128353 52.1319
23.36300158808808 52.3577
23.38591468821339 52.5723
23.408651104658304 52.782
23.431388455719986 53.306999999999995
23.454126742409 53.6536
23.4770436196085 54.1826
23.499783787914662 55.0306
23.522524894889884 55.5676
23.54526694154616 56.458
23.56818761219047 57.6034
23.59093154860734 58.685
23.613676427751283 59.7274
23.636422250635754 59.6073
23.659346731118656 58.6501
23.68209445191868 57.0911
23.704843119509587 54.9668
23.72759273490623 52.8698
23.750521041644767 51.1171
23.77327256312355 49.8465
23.796025035462787 48.9723
23.818956224555475 48.4141
23.841710609113413 48.2077
23.86446594758979 47.9625
23.887222241002014 47.5205
23.910157285144578 47.3887
23.932915498962537 47.2494
23.955674670778713 47.1896
23.978434801611975 46.7747
24.001373717286125 46.8129
24.024135776723917 46.7031
24.046898798245582 46.4452
24.06966278287146 46.3715
24.092605586582614 46.1846
24.115371508023642 46.1612
24.1381383956401 46.0602
24.16090625045381 45.8335
24.183852958731244 45.8508
24.206622758582608 45.7989
24.229393528706886 45.56100000000001
24.252165270127392 45.5589
24.27511589952438 45.5893
24.297889594216997 45.4311
24.32066426328598 45.229
24.34343990775613 45.2161
24.36639447485003 45.1129
24.38917208083877 44.9958
24.41195066531332 44.9077
24.43490819850244 45.0749
24.457688750692377 44.8695
24.48047028445616 44.8964
24.503252800821233 44.975
24.526214300784112 45.0834
24.548998793132213 45.1032
24.57178427117417 44.841
24.59457073593893 44.8603
24.617536219319863 44.8025
24.64032466834748 44.7513
24.663114107195035 44.7041
24.685904536893013 44.5023
24.708874020360852 44.4863
24.731666442613744 44.5523
24.754459858818787 44.3823
24.777254270007962 44.2906
24.80022777025625 44.3369
24.82302418230472 44.3154
24.845821592443674 44.3051
24.86862000170663 44.3179
24.891597535453727 44.2116
24.914397953892728 44.3703
24.93719937456671 44.3019
24.96000179851076 44.5196
24.98298338249997 44.6938
25.00578782394922 44.8645
25.028593271784167 44.9146
25.05157790644186 45.226000000000006
25.07438537804115 45.266999999999996
25.097193859145293 45.4288
25.120003350792075 45.5852
25.142992065061257 45.9366
25.165803588823465 46.2131
25.18861612625217 46.3557
25.211429678386736 46.6565
25.234422489079968 46.5279
25.257238081693636 46.4616
25.280054692141732 46.3856
25.3028723214652 46.3463
25.325869245420463 46.4283
25.348688923599397 46.4613
25.371509623787006 46.7064
25.394331347025812 46.5614
25.41733240110666 46.2439
25.440156181590016 45.6915
25.46298098826268 45.1053
25.48580682216873 44.6251
25.50881202326435 43.9022
25.53163992281684 43.4058
25.55446885274561 43.1764
25.577298814096377 42.9323
25.600308179121807 42.5495
25.623140214533745 42.7521
25.64597328451537 42.644
25.66898578564376 42.5215
25.691820936010206 42.5258
25.714657124097695 42.5552
25.737494350954734 42.5654
25.760511045684957 42.4077
25.783350361364224 42.3718
25.806190718969255 42.4045
25.82903211955018 42.4819
25.852053024868923 42.472
25.874896522722523 42.5776
25.897741066713106 42.4413
25.920586657892454 42.5366
25.943611790812668 42.7238
25.966459487728237 42.6124
25.989308234998564 42.6231
26.01215803367705 42.8741
26.03518741123814 43.0406
26.05803932412957 43.1643
26.080892291600094 43.2253
26.10374631470478 43.3356
26.12677995397268 43.5724
26.14963609978026 43.696999999999996
26.172493304397875 43.4068
26.19535156888223 43.2692
26.218389486949604 42.8306
26.241249882640123 42.6154
26.26411134137826 42.3806
26.28715248187403 42.2021
26.31001607820869 41.9685
26.3328807407756 41.8781
26.35574647063438 42.0477
26.37879191991473 41.9851
26.401659795896734 42.0873
26.424528742360263 42.1767
26.447398760366614 42.2275
26.470448535598294 42.3486
26.49332070826805 42.4924
26.516193955675355 42.7474
26.53906827888316 42.8144
26.562122397260108 42.9604
26.584998883685063 43.1047
26.607876449110325 43.4861
26.63075509460056 43.6316
26.65381357334404 43.7204
26.67669439061878 43.8349
26.699576291163382 43.9813
26.722459276044212 43.78
26.745522132402975 43.5796
26.768407297649354 43.2944
26.791293550442003 43.0613
26.814180891848974 42.6451
26.837248143099337 42.3672
26.860137673466657 42.2658
26.88302829566349 42.0416
26.90592001075963 41.9263
26.92899167420566 41.857
26.951885586870763 41.3487
26.974780595655517 41.0582
26.99785558178161 40.9751
27.020752794605112 40.9335
27.043651106772522 40.7429
27.06655051935668 40.5726
27.089629948036183 40.494
27.112531573292053 40.408
27.135434302194138 40.5067
27.158338135817015 40.4763
27.181422024430987 40.4998
27.204328079372566 40.2409
27.22723524226965 40.3629
27.250143514198573 40.3755
27.273231880156334 40.4048
27.296142382065014 40.1258
27.319053996245536 40.1301
27.341966723775965 40.1058
27.365059584515222 40.1888
27.38797455070062 40.2233
27.410890633481237 40.1489
27.433807833936918 40.001999999999995
27.456905206923906 40.3262
27.47982465472398 40.1322
27.502745223449743 40.2174
27.525666914182825 40.3579
27.548768816912457 40.3391
27.571692763693633 40.3866
27.59461783573812 40.2085
27.617723149491244 40.0949
27.640650484125285 40.0317
27.66357894728264 39.9379
27.686508540048052 40.0211
27.709618414237887 39.9172
27.732550278321757 39.6008
27.755483275279115 39.6329
27.778417406196485 39.5529
27.801531858397514 39.6549
27.824468269376716 39.7315
27.847405817586786 39.5531
27.870344504116094 39.7707
27.893463551932008 39.7938
27.916404527281053 39.8961
27.93934664422563 39.9208
27.962289903855886 39.983000000000004
27.98541356491974 40.194
28.00835912214229 40.3134
28.03130582533231 40.4964
28.054253675581805 40.6556
28.077381967556104 40.5444
28.100332124185126 40.6694
28.123283431160893 40.6046
28.146235889577238 40.5356
28.169368830154156 40.4142
28.192323603752033 40.1939
28.215279532083304 39.9311
28.238415973016764 39.6147
28.261374223145094 39.4982
28.284333631303806 39.4253
28.307294198589954 39.2175
28.330435319167677 38.9232
28.353398217078915 38.6106
28.376362277420153 38.3777
28.39932750129032 38.1986
28.422473319286713 37.9114
28.44544088262495 37.9746
28.468409612800283 37.8918
28.491379510913497 37.64
28.51453004413313 37.6482
28.53750229057244 37.4985
28.56047570826344 37.3945
28.583450298308804 37.5812
28.606605564586562 37.3508
28.629582511831156 37.4754
28.65256063474956 37.1631
28.675539934446338 37.1758
28.698699951647605 37.1637
28.72168161743193 36.9702
28.74466446331978 37.0875
28.767648490417624 36.8866
28.790813276438353 36.9079
28.813799678527303 36.8909
28.836787265157085 36.9717
28.859955641890075 36.8848
28.882945610203045 36.8953
28.905936766392035 36.8404
28.928929111566863 36.9236
28.952102288520145 36.885999999999996
28.975097024308607 36.6714
28.998092952423807 36.6349
29.021090073977508 36.499
29.04426806913204 36.4531
29.067267590245258 36.3179
29.090268308143695 36.2574
29.11327022394099 36.1966
29.13645305530891 36.0453
29.159457379627167 35.9493
29.18246290519685 35.8273
29.20546963313352 35.8198
29.22865731875826 35.8835
29.25166646419296 35.8469
29.27467681535305 35.6526
29.29768837335608 35.7429
29.320880931312562 35.8687
29.34389491580634 35.5837
29.366910110507334 35.5441
29.38992651653503 35.6848
29.41312396492981 35.6201
29.436142806456754 35.5786
29.45916286268059 35.5808
29.48236399319994 35.4858
29.50538649169417 35.3232
29.528410208259935 35.2774
29.55143514402014 34.9635
29.574641196749695 34.9826
29.597668583816574 34.8385
29.6206971934585 34.728
29.64372702680042 34.6642
29.666938019934474 34.5861
29.689970313635285 34.5463
29.713003834422636 34.5526
29.73603858342347 34.4898
29.759254535188578 34.3696
29.78229175361658 34.2601
29.80533020365064 34.2808
29.82836988641968 34.3228
29.85159081507472 34.2638
29.874632976355343 34.2377
29.89767637376955 34.2342
29.920721008448314 34.0767
29.9439469322847 33.9511
29.96699405457564 33.9762
29.9900424175358 33.973
30.013092022298157 33.8551
30.03632295963995 33.9254
30.059375061131373 33.8755
30.08242840783577 34.0088
30.105483000888153 34.0031
30.128718970092244 33.7773
30.151776069006917 33.8512
30.17483441768648 33.887
30.198074175317235 33.7579
30.221135036724256 33.859
30.24419715131772 33.7664
30.267260520236203 33.6931
30.290505341942243 33.8475
30.313571232750228 33.9038
30.336638381310948 33.8661
30.35970678876503 33.7468
30.38295669299435 33.6
30.40602763151657 33.6773
30.429099832366074 33.5837
30.452173296685572 33.5267
30.47542830191959 33.4777
30.498504306502497 33.3743
30.521581577995562 33.4847
30.544660117543582 33.4611
30.56792024229725 33.6192
30.59100133132069 33.5517
30.614083691845494 33.5383
30.637167325018545 33.5687
30.660432587840603 33.5061
30.683518779717886 33.4663
30.70660624769615 33.5844
30.729694992924372 33.6453
30.75296541239743 33.7235
30.77605672557558 33.5089
30.799149319462742 33.5657
30.8224236211637 33.4406
30.845518789950724 33.3633
30.868615242910597 33.313
30.891712981195973 33.135999999999996
30.91499247215866 33.0511
30.938092794619365 33.0019
30.96119440587579 32.948
30.984297307082752 32.8166
31.00758200598383 32.7714
31.030687500658694 32.645
31.053794288760695 32.6082
31.076902371446767 32.4234
31.100192296997445 32.4741
31.12330298246119 32.471
31.14641496599209 32.3395
31.169528248749216 32.3906
31.19282341969534 32.2804
31.215939314557186 32.3148
31.239056512134788 32.3638
31.262175013589378 32.2754
31.28547544871168 32.2928
31.30859657161541 32.1398
31.331719001892175 32.1802
31.35484274070538 32.2132
31.378148458819545 32.2876
31.401274828443725 32.2089
31.424402510106933 32.1548
31.447712205419993 32.2312
31.470842524931633 32.1056
31.493974159989783 32.1399
31.51710711176168 32.1171
31.54042212308802 32.2032
31.563557722100917 32.1583
31.586694641341655 32.0361
31.609832881979628 31.9768
31.63315322823208 31.976999999999997
31.656294125521327 31.8047
31.679436347728515 31.6918
31.70257989602529 31.7095
31.725905596152327 31.6067
31.74905181052835 31.4797
31.772199354521323 31.5513
31.79534822930507 31.5338
31.818679302290967 31.4573
31.84183085259981 31.3838
31.864983737233473 31.4185
31.88813795736804 31.4886
31.911474422233013 31.3285
31.934631327356435 31.4441
31.9577895715215 31.3227
31.980949155906522 31.2794
32.004291031706956 31.3298
32.027453310562606 31.188000000000002
32.05061693318573 31.1172
32.07396288236386 31.1324
32.09712920658542 31.0817
32.12029687812702 30.8598
32.14346589817093 30.8468
32.166817291729984 30.9154
32.18998902288583 30.7568
32.21316210610336 30.7063
32.23633654256711 30.5273
32.259693399663725 30.5366
32.282870556771144 30.4601
32.30604907069099 30.4727
32.329228942610065 30.484
32.35259128243769 30.3399
32.375773884550505 30.3185
32.398957848235646 30.2473
32.422143174682176 30.139
32.445511016471215 30.0294
32.468699082679954 30.0644
32.49188851523011 30.0733
32.51507931531304 29.9286
32.538452678331 29.9191
32.56164622776311 29.9014
32.58484114831493 29.8036
32.60803744118015 29.8298
32.631416344731896 29.7562
32.654615396551876 29.7799
32.67781582427913 29.6622
32.701198898634416 29.6143
32.72440209253756 29.4805
32.747606665947124 29.5083
32.77081262006088 29.413
32.79420126883317 29.4675
32.81740999876112 29.3913
32.840620112999424 29.3513
32.86383161274818 29.2547
32.88722585534586 29.2708
32.91044014056596 29.2684
32.933655814909734 29.3179
32.95687287957963 29.2521
32.98027273544904 29.1891
33.00349259526636 29.1289
33.026713849030116 29.1049
33.04993649794511 29.0636
33.073341986570746 29.0402
33.09656744032826 29.0756
33.11979429286444 29.0756
33.14302254538647 29.0507
33.166433686291185 28.9356
33.18966475336992 28.9377
33.212897224069096 28.8679
33.23613109959831 28.8308
33.259547912343415 28.8197
33.2827846121627 28.8327
33.306022720453775 28.7359
33.32926223842861 28.5825
33.352684742614166 28.5882
33.37592709463173 28.6514
33.399170859982064 28.576
33.422597648419426 28.5754
33.44584425514446 28.3396
33.46909227885668 28.3397
33.4923417207723 28.1685
33.51577423505344 28.2352
33.539026528130385 28.1696
33.56228024307245 28.2265
33.585535381098246 28.0286
33.60897364093058 27.9863
33.63223163992385 27.9303
33.6554910656699 27.908
33.678751919389796 27.8134
33.702195944520106 27.8013
33.72545966903325 27.8447
33.74872482519663 27.6229
33.771991414233746 27.6541
33.79544122444841 27.6485
33.81871069412428 27.4997
33.84198160035767 27.57
33.86525394437455 27.5949
33.88870955949969 27.487
33.911984794020626 27.4378
33.93526147001624 27.4675
33.958539588715006 27.3052
33.98200102861669 27.3102
34.0052820477047 27.2572
34.02856451319451 27.2088
34.05203033759056 27.105
34.07531571090147 27.1291
34.09860253431845 27.1735
34.121890809074316 27.1266
34.145362493118924 27.0195
34.16865368561615 26.9325
34.191946333164054 26.8356
34.21524043699793 26.885
34.23871800066799 26.8231
34.26201503218366 26.7937
34.28531352370466 26.8132
34.30861347646881 26.7043
34.33209693978188 26.6582
34.3553998301885 26.6443
34.378704185565205 26.573
34.402010007152356 26.4518
34.42549939016683 26.4906
34.44880815937748 26.3775
34.472118398533134 26.3346
34.49543010887669 26.2805
34.51892543169198 26.23
34.54224009966052 26.2942
34.56555624255917 26.2081
34.58887386163339 26.0654
34.61237514439016 26.0548
34.6356957311114 26.0163
34.65901779775809 25.8939
34.68252356662995 25.9843
34.705848608458616 26.0217
34.72917513396849 25.9063
34.75250314440949 25.8906
34.77601490857862 25.8006
34.799345904259795 25.7274
34.82267838863559 25.7446
34.846012362958525 25.7698
34.869530142679984 25.6953
34.89286711232212 25.6115
34.91620557568269 25.572
34.93954553401677 25.628
34.9630693495876 25.5118
34.986412313340814 25.5869
35.00975677584668 25.516
35.033102738362956 25.5054
35.05663261012228 25.4147
35.0799815881786 25.4885
35.10333207003229 25.3463
35.12668405694369 25.35
35.150220005273056 25.2746
35.17357501786656 25.2669
35.19693153931268 25.1527
35.220289570874385 25.1653
35.24383161619786 25.2399
35.267192683604904 25.2538
35.290555264930376 25.2129
35.314101899412165 25.1306
35.33746752422433 25.1526
35.36083466676374 25.1181
35.38420332829803 25.0112
35.407756095629054 25.0082
35.43112781085063 25.0019
35.45450104888391 24.9504
35.477875810999194 24.964000000000002
35.50143473172161 24.8426
35.52481255774625 24.9184
35.54819191167777 24.9147
35.57157279478914 24.9089
35.595137889488406 24.7816
35.61852184675279 24.6008
35.641907337029984 24.6223
35.665294361595684 24.6608
35.68886565090076 24.5101
35.7122557598848 24.5435
35.73564740699838 24.581999999999997
35.759040593519934 24.513
35.78261809810353 24.4452
35.80601437933051 24.3126
35.829412203814705 24.3686
35.85281157283719 24.2619
35.876395313415884 24.1916
35.8997977874528 24.2259
35.92320180988546 24.1933
35.946790244133936 24.1402
35.97019737933222 24.0852
35.993606066789866 24.1612
36.01701630779276 24.07
36.04061101440684 23.9838
36.06402437852291 23.9862
36.08743930005611 24.0459
36.1108557802951 23.9387
36.13445678011326 23.8713
36.15787639383515 23.8259
36.18129757014299 23.8071
36.20472031032821 23.7318
36.22832762423364 23.749000000000002
36.25175350829375 23.6681
36.275180960119776 23.5856
36.298609981005924 23.6177
36.32222362992669 23.6401
36.34565580510207 23.5933
36.36908955323448 23.5477
36.39252487562093 23.4631
36.416144880530226 23.3759
36.43958336764275 23.4504
36.463023432914625 23.4043
36.486465077645676 23.3347
36.51009145956204 23.3106
36.53353627947859 23.3092
36.55698268276811 23.3352
36.58043067073321 23.2908
36.60406345072071 23.1848
36.62751462435344 23.1183
36.65096738658405 23.101999999999997
36.67460498210655 23.0989
36.69806093788647 23.0419
36.72151848619297 23.0152
36.744977628333636 22.9804
36.76862165890998 22.8847
36.79208400512205 22.9205
36.81554794910557 22.9499
36.83901349217101 22.766
36.862663978991606 22.8088
36.88613273667352 22.6661
36.90960309738324 22.719
36.933075062434064 22.7114
36.95673202673572 22.6533
36.98020721697122 22.6052
37.003684015502365 22.5768
37.027162423645365 22.5704
37.050825886711465 22.546
37.07430753063053 22.4239
37.09779078812467 22.3935
37.121275660513014 22.316999999999997
37.144945643673694 22.3637
37.16843376245278 22.3036
37.19192350009803 22.3389
37.215414857931435 22.2266
37.239091382563885 22.2397
37.262585997426164 22.0876
37.28608223645736 22.1617
37.309763684451696 22.1553
37.33326318851098 22.0797
37.356764320726555 22.096
37.380267082425526 22.0811
37.40395510942588 22.0942
37.42746114683234 21.9412
37.45096881771841 21.924
37.474478123414166 21.9149
37.49817275092816 21.9441
37.52168534303452 21.9295
37.54519957395567 21.747
37.568715445024665 21.7567
37.592416694607714 21.6573
37.61593586281424 21.7502
37.63945667518264 21.7483
37.66297913304891 21.6465
37.68668702630454 21.6477
37.710212792059274 21.5248
37.733740207334854 21.5468
37.757269273470364 21.4491
37.780983832050374 21.4459
37.80451621684926 21.3976
37.82805025654007 21.3934
37.851585952464795 21.4039
37.8753071980695 21.2744
37.89884622345676 21.2167
37.92238690911902 21.1785
37.94611318753442 21.1833
37.969657210779765 21.1808
37.99320289834801 21.0715
38.016750251586465 21.0792
38.04048325513017 21.0387
38.06403395679343 20.9888
38.087586328183946 21.0323
38.11114037065203 21.0099
38.13488012115898 20.9603
38.1584375229181 20.8605
38.181996599821 20.7744
38.205557353221124 20.8076
38.229303872575656 20.7892
38.2528679961576 20.7741
38.27643380031219 20.6742
38.30000128639589 20.695
38.32375459653193 20.6382
38.34732546371299 20.6558
38.37089801690786 20.5642
38.39447225747609 20.5203
38.418232380377425 20.5139
38.441810012983396 20.4661
38.46538933705673 20.4366
38.488970353960084 20.433
38.51273731166058 20.4099
38.536321731567014 20.3576
38.55990784840681 20.320999999999998
38.58367995004091 20.2569
38.60726947812959 20.2231
38.63086070726198 20.215
38.654453638806274 20.2099
38.678232613930824 20.1568
38.70182896773327 20.0831
38.72542702806741 20.1283
38.7490267963045 20.1125
38.77281266709232 20.0368
38.79641586862214 19.9957
38.8200207821842 19.9366
38.843627409152944 19.9756
38.86742019782782 19.9197
38.891030269149255 19.9137
38.914642058016156 19.8649
38.938255565806124 19.8122
38.96205529464307 19.7554
38.98567225787121 19.7531
39.00929094417078 19.7335
39.03291135492255 19.7356
39.05671804624804 19.7037
39.080341923549106 19.6444
39.103967529460334 19.6605
39.127594865365744 19.5019
39.15140854155791 19.4652
39.17503935514948 19.5307
39.19867190290282 19.4627
39.22249083587951 19.4729
39.24612686969409 19.4779
39.269764641845306 19.5062
39.293404153722804 19.3729
39.317230110864074 19.2869
39.34087311998506 19.2489
39.36451787301696 19.3324
39.388164371352595 19.1962
39.41199737518003 19.1822
39.43564738196752 19.0967
39.45929913825317 19.1487
39.48295264543308 19.0986
39.506792718520884 19.0805
39.530449745387216 19.0137
39.55410852735203 19.0274
39.57776906581474 18.9835
39.60161623079 18.9625
39.625280300200025 18.9438
39.64894613032202 18.8648
39.67261372255866 18.8553
39.6964680021016 18.8235
39.72013913657293 18.8085
39.74381203738292 18.799
39.76748670593756 18.8194
39.79134812278169 18.8008
39.81502634488497 18.7298
39.83870633896685 18.6935
39.862388106436654 18.6396
39.88625668336918 18.637999999999998
39.90994201572829 18.589000000000002
39.933629125719285 18.5434
39.957503091207826 18.5362
39.9811937746168 18.5543
40.00488623990914 18.4713
40.02858048850006 18.4329
40.05246165409549 18.4179
40.076159487492085 18.3247
40.099859108448875 18.3322
40.123560518384345 18.3202
40.1474489070226 18.279
40.171153913178564 18.2745
40.194860712584955 18.2145
40.2185693066637 18.1852
40.242464941335314 18.1307
40.26617714307655 18.1656
40.289891143772046 18.1118
40.3136069448471 18.0329
40.33750984859743 18.0554
40.3612292688043 18.0162
40.3849504936829 18.007
40.40867352466194 17.9793
40.43258372059144 17.9215
40.45631038219906 17.8797
40.48003885420956 17.8665
40.503769138055105 17.8199
40.52768664931955 17.8358
40.55142057531802 17.7816
40.57515631746428 17.7345
40.599079334038514 17.7765
40.62281872700477 17.6705
40.64655994043941 17.6921
40.67030297578061 17.6179
40.69423334835778 17.6046
40.71798004609188 17.5877
40.74172857006355 17.561
40.76547892171441 17.5537
40.7894166736039 17.4841
40.813170699248566 17.4072
40.83692655691388 17.4143
40.86068424804498 17.4793
40.884629402612525 17.4311
40.908390779366385 17.4094
40.932153993938 17.3291
40.95591904777605 17.2891
40.979871628443995 17.3347
41.003640379561936 17.2371
41.02741097430883 17.1832
41.05118341413683 17.1966
41.075143444384416 17.1449
41.098919593177826 17.185
41.1226975914255 17.1291
41.14647744058318 17.1449
41.170444943946755 17.0556
41.19422851378379 17.0076
41.218013938914645 17.0065
41.24198706625173 16.9518
41.26577622087193 16.9714
41.289567235177785 16.9174
41.31336011063129 16.9052
41.337340752422875 16.8331
41.361137369129835 16.8481
41.38493585138705 16.8378
41.40873620066004 16.7722
41.43272438060107 16.7704
41.45652848292052 16.7312
41.48033445666918 16.6587
41.50414230331616 16.6339
41.528138045159764 16.623
41.551949656675205 16.541
41.575763145513235 16.573
41.59957851314666 16.5186
41.62358184070442 16.5526
41.64740098505737 16.5242
41.6712220126409 16.4619
41.69504492493139 16.4262
41.71905586207357 16.3839
41.74288256296395 16.3774
41.766711153007456 16.3831
41.79054163368412 16.3366
41.814560204340054 16.3324
41.838394485526365 16.316
41.86223066180303 16.239
41.88625497706819 16.2325
41.910094962812 16.2336
41.93393684811168 16.1674
41.95778063445365 16.1031
41.981812625263366 16.0949
42.00566023303407 16.024
42.029509746323676 16.0417
42.05336116662236 15.9885
42.077400857069705 16.0139
42.10125611078846 16.0224
42.12511327600405 15.9662
42.14897235421036 15.9369
42.173019768448455 15.9268
42.19688269209613 15.829
42.22074753323349 15.812999999999999
42.24461429335818 15.8222
42.268669455600495 15.7808
42.292540073217886 15.7756
42.31641261433284 15.7563
42.34028708044675 15.7699
42.36435001496739 15.6701
42.38822835065557 15.6586
42.41210861586426 15.6104
42.4359908120986 15.6294
42.46006154323262 15.5806
42.48394762115317 15.5667
42.507835634632315 15.5432
42.531912233047436 15.5037
42.55580413732265 15.4928
42.579697981698 15.4782
42.60359376768525 15.3775
42.62767820545945 15.4198
42.65157789440821 15.364
42.67547952952185 15.3201
42.699383112316 15.3462
42.72347541395347 15.2668
42.74738291190531 15.2448
42.771292362102166 15.2087
42.795203766063516 15.1698
42.819303956130405 15.1946
42.843219287476536 15.1615
42.86713657716324 15.1513
42.89105582671383 15.0912
42.91516392983864 15.1097
42.939087119032166 15.0662
42.963012272677304 15.0395
42.98693939230129 15.0171
43.01105543317513 14.9673
43.034986504731386 14.9549
43.05891954686589 14.9122
43.08285456110972 14.9432
43.10697856448665 14.9112
43.130917542983475 14.8383
43.15485849820081 14.8212
43.17880143167367 14.7595
43.20293342237094 14.7486
43.226880332449 14.7065
43.25082922540554 14.7073
43.27496722682525 14.7214
43.29892010567796 14.6832
43.32287497204102 14.638
43.34683182745632 14.6467
43.370977859791836 14.5971
43.39493871351105 14.542
43.41890156092628 14.5578
43.44286640358341 14.5025
43.46702049182749 14.5213
43.49098934522816 14.4384
43.51496019852649 14.4597
43.5389330532723 14.4818
43.56309522248204 14.3784
43.58707210044314 14.4184
43.61105098451946 14.3155
43.63503187626491 14.3245
43.659202151562134 14.307
43.68318707902681 14.3266
43.70717401884041 14.275
43.731162972560874 14.2179
43.75534137913236 14.1919
43.779334381108384 14.1808
43.803329401683186 14.1615
43.82732644241872 14.1733
43.8515130055166 14.1312
43.87551410707659 14.0653
43.89951723350145 14.0738
43.923709934595614 14.0183
43.94771713129917 14.040999999999999
43.97172635758096 13.9981
43.99573761501002 13.9703
44.0199385169922 13.9399
44.04395385732619 13.9194
44.067971233533086 13.8791
44.09199064718605 13.8116
44.11619977548961 13.8085
44.14022328470671 13.7758
44.16424883610785 13.8131
44.18827643127035 13.7619
44.21249381139513 13.7328
44.236525514814076 13.7334
44.26055926674478 13.6875
44.28459506876863 13.7191
44.3088207262813 13.6219
44.33286064928722 13.649000000000001
44.35690262714919 13.5544
44.38094666145278 13.5275
44.4051806219871 13.5265
44.42922879003185 13.5207
44.45327901929361 13.4595
44.477331311362136 13.4921
44.501573600619416 13.4154
44.525630039221795 13.419
44.54968854541895 13.3902
44.573937102200176 13.3899
44.5979997645541 13.3602
44.622064499300315 13.3334
44.64613130803592 13.2915
44.67038823869318 13.3054
44.69445921643748 13.2026
44.718532272981385 13.1949
44.742607409926194 13.2183
44.76687274034801 13.1679
44.79095205918753 13.1522
44.81503346325094 13.1368
44.839116954143876 13.1552
44.86339071028742 13.1138
44.88747839599524 13.1178
44.91156817336837 13.0465
44.93566004401666 13.0383
44.959942251908146 13.0039
44.984038330325966 12.9688
45.00813650686762 12.9666
45.03223678314731 12.9349
45.05652746888232 12.9111
45.08063196592069 12.9092
45.104738567558705 12.9069
45.128847275414856 12.8628
45.15314646515866 12.8202
45.17725940679741 12.7792
45.20137445952892 12.7795
45.22568004865265 12.7504
45.24979934496396 12.7228
45.27392075725247 12.7282
45.29804428714431 12.6839
45.322358426247604 12.6853
45.346486212804315 12.6762
45.370616121861914 12.6347
45.39474815505086 12.6326
45.41907087049246 12.5618
45.4432071734666 12.5164
45.46734560548283 12.5411
45.49148616817604 12.5207
45.51581748638564 12.4921
45.5399623320197 12.4684
45.56410931325473 12.3766
45.58825843173002 12.3874
45.61259837920865 12.4268
45.636751793816 12.3761
45.66090735060093 12.3409
45.68506505120716 12.3429
45.7094136545275 12.2748
45.73357566449271 12.2473
45.75773982322992 12.2656
45.78190613238733 12.2719
45.806263418194064 12.2184
45.83043404997326 12.2402
45.85460683713677 12.2092
45.87897065658495 12.1378
45.90314777634752 12.1248
45.92732705646868 12.0869
45.9515084986045 12.0735
45.97588104735473 12.0735
46.00006683541565 12.0305
46.02425479047904 11.9869
46.04844491420549 12.0394
46.0728262191024 12.0328
46.09702070211635 11.9937
46.12121735879483 11.9328
46.14541619080294 11.944
46.169806278764455 11.9619
46.194009483459034 11.8251
46.21821486849841 11.8722
46.24242243555223 11.844000000000001
46.266821333570014 11.8053
46.29103328674601 11.7806
46.31524742696538 11.7777
46.33946375590237 11.7406
46.36387149104216 11.7069
46.38809221957392 11.6849
46.41231514186606 11.6474
46.436540259597464 11.6733
46.460956858999374 11.6351
46.48518638983522 11.6083
46.509418121166966 11.6258
46.533652054678114 11.5981
46.55807754555709 11.5772
46.58231590571962 11.5446
46.60655647313217 11.5135
46.630988654873654 11.478
46.655233659129024 11.4549
46.67948087571551 11.4269
46.70373030632484 11.4044
46.72817142736393 11.4016
46.752425308428684 11.3716
46.77668140861147 11.3643
46.80093972960865 11.3064
46.82538981736788 11.2767
46.849652602470904 11.2869
46.87391761349769 11.2791
46.8981848521493 11.2645
46.9226439341274 11.248
46.946915650573224 11.1733
46.97118959976749 11.1946
46.99546578341598 11.165
47.019933887188216 11.1428
47.04421456235744 11.1352
47.06849747711879 11.1214
47.09278263318286 11.071
47.11725978640143 11.0351
47.14154944775105 11.0329
47.165841355555656 11.0206
47.1901355115306 11.0089
47.214621741924994 11.0002
47.23892041698887 10.9433
47.26322134538975 10.9513
47.28771440635075 10.905999999999999
47.31201986422527 10.8718
47.33632758061436 10.8796
47.360637557241866 10.831
47.38513974410611 10.8129
47.40945426407847 10.8099
47.43377104948137 10.8303
47.45809010204344 10.7804
47.48260144275502 10.7744
47.506925052572285 10.7654
47.53125093475548 10.7247
47.55557909103813 10.7231
47.58009961361992 10.6797
47.60443234110732 10.6897
47.62876734791564 10.6572
47.65310463578333 10.6256
47.6776343683373 10.6137
47.7019762413987 10.5931
47.72632040075572 10.5453
47.75066684815169 10.5565
47.77520581885936 10.550999999999998
47.799556865477655 10.5017
47.823910205386 10.4691
47.84826584033272 10.469000000000001
47.87281407745551 10.4169
47.89717432569297 10.4303
47.92153687423484 10.4094
47.94609208429692 10.4177
47.97045925671401 10.3833
47.99482873471275 10.3504
48.01920052005013 10.3499
48.04376504619224 10.325999999999999
48.068141469543484 10.3468
48.09252020552573 10.2797
48.11690125590099 10.2314
48.1414751266064 10.2373
48.16586082917454 10.2128
48.19024885144316 10.2093
48.2146391951793 10.1876
48.239222439012764 10.1849
48.26361744916137 10.1358
48.28801478610016 10.155
48.31241445160131 10.1202
48.337007097209366 10.1206
48.36141144338331 10.0784
48.38581812345755 10.0581
48.41022713920929 10.0797
48.434829215320704 10.0581
48.45924292604658 10.0291
48.48365897780325 10.0235
48.50807737237308 9.97252
48.532688907799276 9.95231
48.55711201168574 9.947610000000001
48.581537463754074 9.962810000000001
48.60615611725119 9.93678
48.63058628942721 9.90705
48.65501881516546 9.858139999999999
48.6794536962573 9.849689999999999
48.70408185970339 9.822980000000001
48.72852147531801 9.81424
48.75296345168211 9.75579
48.77740779059232 9.74136
48.80204549302823 9.77421
48.82649458091802 9.741660000000001
48.85094603676547 9.7253
48.87539986237231 9.67907
48.90004713292306 9.68796
48.92450572200832 9.644789999999999
48.94896668628025 9.62354
48.97343002754588 9.61957
48.99808689542115 9.61346
49.02255501470614 9.61021
49.04702551642794 9.58709
49.0714984023988 9.56525
49.096164896893235 9.54118
49.120642575466796 9.5182
49.145122643748394 9.49319
49.16960510355558 9.46928
49.19428125404938 9.46154
49.2187685210852 9.447980000000001
49.243258185121555 9.46539
49.26794160167084 9.40813
49.2924360839405 9.38486
49.31693296869764 9.35624
49.34143225776915 9.3399
49.36612538195438 9.33173
49.39062950396021 9.305769999999999
49.41513603578346 9.29314
49.4396449792564 9.27776
49.46434784069503 9.26293
49.488861631846454 9.24623
49.513377840166804 9.22908
49.537896467493745 9.22459
49.56260909589029 9.15588
49.587132585683285 9.17576
49.611658500018365 9.13701
49.636186840738596 9.12838
49.66090926588511 9.16271
49.685442483902584 9.08815
49.70997813385706 9.05814
49.734516217597076 9.057780000000001
49.75924846937352 9.0152
49.7837914452858 9.03028
49.80833686055187 9.04778
49.83288471702571 8.99573
49.85762682540054 8.98672
49.882179588965734 8.92503
49.9067347993235 8.968069999999999
49.93129245833333 8.90597
49.95604445336378 8.91182
49.98060703442832 8.886560000000001
50.005172069746266 8.87673
50.02993150438364 8.89512
50.05450147301533 8.83352
50.07907390151433 8.80309
50.10364879174981 8.78834
50.12841816587289 8.80321
50.1529980044635 8.818760000000001
50.17758031042124 8.76645
50.20216508562089 8.7655
50.22694442953363 8.71002
50.25153416817468 8.704989999999999
50.27612638170508 8.68805
50.300721072005196 8.65442
50.325510416102105 8.634139999999999
50.350110084975064 8.60378
50.37471223628208 8.61626
50.39931687190919 8.60845
50.424116246675766 8.59641
50.44872587605249 8.57248
50.47333799543065 8.56682
50.49795260670191 8.57023
50.52276204271512 8.520389999999999
50.54738166295838 8.498489999999999
50.57200378079314 8.48623
50.596628398116835 8.48997
50.62144792604559 8.49175
50.646077567609396 8.48137
50.670709714377715 8.45337
50.69553683636198 8.43757
50.72017401885922 8.4018
50.7448137122895 8.38943
50.76945591856022 8.360439999999999
50.79429318636823 8.36612
50.818940443716784 8.34491
50.84359021965163 8.2841
50.868242516085964 8.298910000000001
50.893089960641895 8.282960000000001
50.917747323549435 8.25276
50.94240721271973 8.27534
50.96706963007175 8.23393
50.99192728239342 8.21378
51.01659478166073 8.24809
51.04126481489051 8.203619999999999
51.06593738400761 8.18249
51.090805275207074 8.17937
51.11548294172845 8.150960000000001
51.14016314993547 8.133389999999999
51.164845901758845 8.13294
51.18972406304274 8.066230000000001
51.21441192780656 8.0286
51.23910234200271 8.05294
51.2637953075678 8.0084
51.288683770237945 7.9981
51.31338186432707 7.96749
51.33808251561888 7.9725399999999995
51.362978729967345 7.983689999999999
51.387684521509755 7.95715
51.41239287610203 7.8654399999999995
51.437103795691165 7.92357
51.46201036644977 7.89722
51.486726441956634 7.857989999999999
51.51144508832545 7.8861
51.536166307509156 7.87602
51.56108326624387 7.85002
51.58580965706056 7.80923
51.61053862657523 7.7922
51.635270176746864 7.767460000000001
51.66019755512065 7.7865899999999995
51.68493429268881 7.72058
51.70967361681515 7.719939999999999
51.73441552946465 7.68427
51.759353359237934 7.731139999999999
51.7841004750961 7.696510000000001
51.80885018539685 7.66869
51.833602492111254 7.64054
51.8585508051424 7.6390199999999995
51.883308330926425 7.6153699999999995
51.90806845906181 7.607989999999999
51.932831191525715 7.5983
51.95779001977161 7.57149
51.98255798721516 7.531219999999999
52.00732856494335 7.54355
52.03229530577543 7.5394
52.057071130455945 7.5235199999999995
52.081849571391054 7.527710000000001
52.106630630568695 7.4890300000000005
52.13160794279417 7.45165
52.15639426492067 7.45856
52.18118321127822 7.479430000000001
52.205974783860896 7.40005
52.23096269971011 7.38819
52.255759551287994 7.42938
52.280559035098186 7.38932
52.30536115314103 7.36176
52.33035970494467 7.31162
52.35516711807904 7.34523
52.37997717147198 7.31267
52.40478986713005 7.30238
52.42979908731974 7.29824
52.454617094216 7.270460000000001
52.47943774942214 7.20105
52.50426105495102 7.225969999999999
52.529280976059844 7.19682
52.554109609024096 7.18748
52.57894089837482 7.207660000000001
52.60377484613117 7.15147
52.62880550079408 7.1598
52.65364479223379 7.1067
52.67848674816189 7.09047
52.70352547971946 7.100630000000001
52.72837279155837 7.101719999999999
52.753222773982785 7.08245
52.778075429022984 7.0732
52.80312495150885 7.08383
52.827982978797436 7.05669
52.85284368481815 7.03177
52.87770707160767 7.00012
52.90276741793998 7.005489999999999
52.92763619336701 7.005039999999999
52.952507655698504 7.00448
52.977381806977576 6.9733600000000004
53.00245301017842 6.953539999999999
53.02733256653592 6.96363
53.052214817996074 6.905639999999999
53.077099766608484 6.874110000000001
53.102181859804446 6.89906
53.127072229988265 6.900189999999999
53.15196530349892 6.8928199999999995
53.17686108239249 6.85195
53.20195409881522 6.81567
53.22685531582556 6.79833
53.25175924441303 6.7179
53.27666588664027 6.77492
53.30176985962693 6.76915
53.3266819565689 6.742960000000001
53.35159677336455 6.77025
53.376514312083096 6.715960000000001
53.40162927507703 6.7045699999999995
53.42655228516116 6.69998
53.45147802340193 6.7110899999999996
53.47660125628886 6.6783
53.50153247842639 6.611439999999999
53.52646643496923 6.64198
53.55140312799818 6.63076
53.576537409691696 6.61287
53.60147960336152 6.60872
53.626424539786164 6.6440600000000005
53.65137222105307 6.578989999999999
53.67651758529126 6.52031
53.70147078399681 6.51623
53.72642673383343 6.52035
53.75138543689533 6.55881
53.776541917524526 6.533919999999999
53.801506154876755 6.5079199999999995
53.826473151763246 6.48093
53.851442910284916 6.46379
53.87661054126026 6.44143
53.9015858509782 6.44332
53.92656392866066 6.38744
53.95154477641532 6.38069
53.976723591801296 6.3596699999999995
54.00171000771266 6.3830800000000005
54.02669920004598 6.36562
54.051691170915745 6.3332
54.076881204886796 6.35584
54.101878760928514 6.3434800000000005
54.12687910187696 6.3136
54.152077577768296 6.29413
54.1770835166946 6.26233
54.20209224691339 6.26419
54.22710377055121 6.24783
54.25231352511594 6.23739
54.27733066384342 6.11747
54.30235060239643 6.1775199999999995
54.32737334290836 6.1493
54.35259441062629 6.11521
54.377622783395324 6.1191
54.40265396455061 6.14312
54.42768795623251 6.0930800000000005
54.45292037169559 6.04775
54.477960012857906 6.07649
54.50300247099511 5.99045
54.52804774825457 5.99883
54.55329154616743 5.95605
54.57834249018678 5.95369
54.6033962597977 5.94057
54.6284528571545 5.9280800000000005
54.653708072335164 5.87521
54.67877035378786 5.91423
54.70383546947698 5.88108
54.72890342156389 5.82221
54.7541700889442 5.77797
54.77924374251975 5.78179
54.8043202390049 5.77956
54.82959552413022 5.73452
54.8546777351945 5.72655
54.87976279569621 5.69515
54.90485070780914 5.69077
54.930137506558005 5.685309999999999
54.95523115074295 5.71366
54.98032765308844 5.61644
55.005427015775496 5.599019999999999
55.03072536339621 5.62945
55.05583047570572 5.61482
55.080938454927676 5.53868
55.10604930325027 5.49019
55.131359235107396 5.52533
55.15647585066083 5.43254
55.181595341907496 5.48457
55.20671771104285 5.47136
55.232039262617704 5.36088
55.25716741665048 5.40648
55.28229845518636 5.397819999999999
55.30743238042802 5.28795
55.33276558731939 5.307
55.357905315183636 5.33129
55.383047936390035 5.27712
55.40819345314859 5.24887
55.433538351073295 5.16818
55.458689688238415 5.17138
55.483843927614096 5.1333400000000005
55.509197623043605 5.12282
55.53435769621134 5.1025599999999995
55.55952067826466 5.0522
55.5846865714265 5.078530000000001
55.61005202069737 5.1117
55.63522376553902 5.04809
55.66039842818645 5.04241
55.68557601087004 5.0632
55.7109532500271 4.9317
55.73613670233794 4.92759
