TT I
1.2716486653135266 7.26347
1.2939594142134223 7.1168
1.3162702121660406 6.70512
1.3385810600174564 6.415780000000001
1.3608919586137629 6.66858
1.383202908801069 6.505730000000001
1.405513911425503 6.40917
1.4278249673332093 6.0392
1.4501343378461518 5.73034
1.4724455028545926 5.7137
1.4947567236847858 5.82892
1.517068001182951 5.69701
1.5393793361953272 5.59797
1.5616907295681737 5.621919999999999
1.5840021821477681 5.51788
1.60631369478041 5.00104
1.6286252683124185 5.31255
1.6509369035901333 5.19522
1.6732468618895553 4.926419999999999
1.695558623192809 4.73877
1.7178704487808514 4.71549
1.7401823395001077 4.3487800000000005
1.7625012545597203 4.90495
1.7848028405262486 5.53958
1.8071218901122095 5.15906
1.8294236121921872 5.02536
1.8517427996910911 4.67314
1.8740620574440425 4.21326
1.8963639900671978 4.834919999999999
1.9186833908139995 5.25138
1.9409854680117449 5.13171
1.9633050151394713 5.4669
1.9856246367570705 4.74404
2.0079269371922672 4.8166400000000005
2.03024671027244 4.192880000000001
2.0525491637446027 4.7137
2.074869091674931 4.3463400000000005
2.097171701569106 4.538069999999999
2.1194917877373847 5.05229
2.141811954326636 4.56766
2.164114805233074 4.93921
2.186435135143035 5.3567800000000005
2.208738150935709 10.3758
2.231058647554722 20.1522
2.2533792288321184 15.5972
2.275682498336085 8.12921
2.298003251406138 5.74446
2.3203066942619714 5.57065
2.3426276225136022 5.552309999999999
2.3649486396617507 5.83061
2.387252348930071 5.90069
2.4095735463442893 5.404669999999999
2.4318774374315884 5.88495
2.4541988185014043 5.9665099999999995
2.476502894794693 6.49059
2.498824462909887 6.48661
2.521146125856138 5.83082
2.5434504863470337 6.790889999999999
2.5657723414244717 7.4021300000000005
2.588076895590662 8.02705
2.610398946189713 8.361469999999999
2.6327210958598384 7.01509
2.6550259469304716 7.26081
2.6773482972090137 7.8218
2.6996533504259 8.111180000000001
2.7219759047039602 8.43978
2.744298562293959 7.804539999999999
2.7666039251246595 7.66785
2.7889267918020164 8.00446
2.8112323652516555 8.65414
2.833555444408179 8.670160000000001
2.8558786311183852 7.957319999999999
2.8781845268938557 8.40784
2.9005079311721484 8.88948
2.9228140460410397 8.84103
2.9451376712799635 9.41531
2.967444008632326 9.7039
2.9897678582247247 9.57211
3.0120918213106695 10.1772
3.0343984987899373 11.0224
3.0567226913198637 11.0245
3.079029599759726 11.8082
3.101354025127254 12.2771
3.123678568232338 12.1981
3.145985829517914 12.6393
3.16831061055229 13.6498
3.1906181112775593 14.327
3.212943133635653 14.5638
3.2352682779763207 15.1058
3.2575761442691227 15.526
3.2799015350264273 16.0475
3.302209649240067 16.2211
3.3245352898092655 16.6691
3.3468436553365257 17.2924
3.369169549113219 17.7485
3.3914955708171384 17.9487
3.413804319727358 18.7771
3.4361305997334863 19.0855
3.4584396084414553 19.1326
3.4807661501462652 20.0053
3.503092824025881 20.7558
3.5254022288463154 21.2263
3.5477291695206588 21.6531
3.5700388426251948 21.9999
3.5923660534916446 23.6866
3.6146934007816114 33.9781
3.637003482731501 66.2674
3.6593311053109985 71.7621
3.681641464033634 45.3292
3.7039693653009733 28.5444
3.726297407241705 26.12
3.7486081875460804 25.5042
3.7709365132734978 25.8219
3.793247578841633 26.7036
3.8155761917550093 26.921
3.8378875459837216 27.1269
3.8602164494827234 27.4816
3.882545499606844 28.076999999999998
3.9048572932539183 28.9125
3.9271866390645718 29.2369
3.9494987298666713 30.1737
3.971828374764527 30.3055
3.9941581705403255 31.0554
4.016470713506008 31.4932
4.038800813471445 32.0392
4.061113662089144 32.6538
4.0834440696459176 33.8752
4.105774632334751 33.9428
4.128087945865126 34.6218
4.150418821249301 35.4457
4.172732448931298 36.4052
4.195063640413578 37.93
4.2173775856475215 40.3912
4.239709096631102 63.4764
4.262040768704612 169.47
4.284355196706267 218.834
4.306687193387355 144.466
4.329001947444346 65.9277
4.35133427213731 45.9967
4.373666762177566 44.1267
4.395982011761091 44.1793
4.418314834921175 45.0738
4.44063041906622 50.9154
4.4629635787515625 58.6493
4.4852969080429785 58.7795
4.5076130004776225 52.4294
4.529946671403969 51.2581
4.552263106909177 51.9013
4.574597122877047 52.3316
4.596931312711224 53.1814
4.619248269273446 53.8461
4.6415828092605835 55.0191
4.663900117405352 56.358000000000004
4.686235010953232 57.5447
4.708552674085913 58.6321
4.730887924602802 59.9796
4.753223354952695 61.5344
4.775541557023902 63.0522
4.797877349456786 64.9384
4.820195915032126 66.9819
4.842532072957498 67.9729
4.864868414979744 70.3818
4.88718753227192 72.96
4.909524244902505 74.6904
4.931843734218147 76.3973
4.954180820867835 78.875
4.976518095879839 81.8498
4.998838149695359 85.0763
5.021175803844231 89.3224
5.043496238205739 91.7564
5.065834274903528 96.5717
5.088172504230693 101.811
5.1104935158799565 109.167
5.132832132875765 128.471
5.155153533596801 165.08599999999998
5.1774925416746225 209.80900000000003
5.199814334878411 440.397
5.2221537374521505 1232.38
5.244493338631803 3184.11
5.266815727034316 7827.98
5.289155727832427 12284.1
5.311478517248165 8478.38
5.333818921080011 2928.17
5.356159527788849 613.076
5.3784829252032536 196.678
5.400823940070432 148.53799999999998
5.423147747031976 130.371
5.445489173474152 120.494
5.467830807066149 115.87
5.490155234831516 111.809
5.512497285125229 107.431
5.534822130975162 105.976
5.557164601388673 102.662
5.579489868738879 99.8594
5.601832762690846 98.6942
5.6241758697774475 98.098
5.646501775867269 97.4686
5.668845311622074 96.5201
5.691171647754637 95.9503
5.713515615597765 94.3679
5.735859800852677 93.6759
5.758186788542988 93.1016
5.780531411018185 94.3277
5.802858837297399 93.3157
5.825203900414495 93.0766
5.8475491852224 94.5219
5.869877275883075 95.1396
5.892223006467101 95.5093
5.914551544266608 97.1482
5.936897724049891 100.28
5.959244129804903 107.98100000000001
5.981573344815301 135.892
6.0039202049061 256.705
6.026249875609095 542.658
6.04859719346037 1101.9
6.070927323278297 2342.21
6.093275102315365 4444.21
6.115623113320588 5493.67
6.137953938319995 3388.27
6.160302415650845 1069.01
6.182633708324452 250.78
6.2049826554078376 115.538
6.227331838745022 93.8214
6.249663839443684 86.0751
6.27201349767565 82.4372
6.294345974611799 85.4391
6.316696111167083 92.0101
6.339046488263839 87.6857
6.361379686074702 77.1859
6.383730546639482 71.9104
6.406064229255215 69.8035
6.428415576718203 69.3596
6.450749747566656 68.2224
6.47310158535871 66.5752
6.495453669698332 66.1411
6.517788579421056 65.1269
6.540141159237969 63.9368
6.562476565766648 63.6215
6.5848296444934045 62.9625
6.607182974060425 62.9521
6.6295191323281015 62.7628
6.651872965955752 65.0649
6.6742096296068985 82.0478
6.6965639707294615 112.925
6.71891856698715 112.01700000000001
6.741255995248479 82.0693
6.763611104154477 64.9274
6.785949046381137 59.9671
6.808304671371482 58.6098
6.8306605557940046 58.6378
6.852999275508618 57.9086
6.875355681171544 57.4449
6.897694923437771 57.2823
6.92005185377892 57.0963
6.9423916220322655 56.6837
6.964749080490181 55.9166
6.987106804399774 55.6915
7.009447368180821 56.1508
7.031805625367033 55.9931
7.054146723727803 55.845
7.076505517631004 55.4598
7.098864581288365 55.4307
7.121206488070854 55.1593
7.143566093607822 55.3154
7.165908543567245 55.6486
7.188268694426048 55.4518
7.2106291193438095 55.1857
7.232972390625943 56.1221
7.255333366030969 65.0368
7.277677189091925 100.234
7.300038718428332 131.341
7.322400526130865 113.471
7.344745183422596 77.7658
7.367107550224791 59.6389
7.389452767901992 56.1432
7.411815697249891 55.0649
7.434161478756298 54.5513
7.456524974096713 54.4924
7.478888753837185 54.7033
7.501235387657368 54.6528
7.523599738562711 54.6102
7.545946944825532 54.9203
7.568311870344528 55.7721
7.5906770845765665 55.7457
7.613025156078678 57.0925
7.635390950099687 57.5085
7.657739602662809 56.7727
7.680105979923558 55.9803
7.702472650212829 56.3639
7.724822180948224 56.1481
7.747189439655568 56.573
7.769539560075357 56.6372
7.791907410653562 57.1045
7.81425812420825 56.8841
7.836626570110925 56.9565
7.858995315087906 57.6844
7.881346924933401 58.0817
7.903716270417482 58.6962
7.926068482028405 58.9363
7.948438431475253 59.4062
7.9708086843180235 59.7545
7.993161805171116 60.8398
8.015532667162402 61.5871
8.037886398416653 62.5584
8.060257873014221 62.7453
8.082629655331942 63.5282
8.104984308787587 64.1569
8.127356708900503 67.1066
8.149711981398308 71.316
8.172085002766314 73.0426
8.194458336181368 70.6891
8.216814543847752 69.4541
8.23918850371002 69.9868
8.26154533906492 70.9445
8.283919928836452 72.5641
8.306277395339652 73.4528
8.328652618483376 75.0207
8.351028159736202 76.9764
8.373386579575245 79.4831
8.395762759396959 81.5774
8.418121819038275 85.8595
8.440498640894003 95.96600000000001
8.462875785192262 109.296
8.485235811156207 130.77
8.507613602688501 188.78900000000002
8.529974277114228 289.156
8.552352719347912 435.756
8.574731488360351 712.3639999999999
8.59709314210385 1232.78
8.619472567021075 1878.78
8.64183487789147 2216.32
8.664214962183097 1785.77
8.686577933647762 967.53
8.708958680784317 369.72900000000004
8.731339760774953 161.6
8.753703729764451 111.51899999999999
8.77608547780821 99.7668
8.798450116065078 95.9269
8.820832535634787 93.0558
8.843215292401656 91.9048
8.865580941199045 90.6255
8.887964374703538 89.2988
8.910330701447199 90.2306
8.932714815164482 91.3235
8.955099270424924 90.25399999999999
8.977466620733543 87.8068
8.999851761421976 85.8116
9.022219798361645 84.38
9.04460562795561 83.9595
9.066991803441677 83.5311
9.089360876979615 83.99799999999999
9.111747746589993 83.2718
9.13411751544971 83.095
9.156505082664324 82.2978
9.178875550323522 82.6164
9.20126381862328 83.0445
9.223652438908596 83.2671
9.246023961427412 83.2462
9.26841328802173 82.8672
9.290785518039224 82.5403
9.313175554425882 83.3996
9.335565947154315 83.665
9.357939245086508 83.8179
9.380330352834827 84.1161
9.40270436697103 84.4533
9.425096193225055 83.963
9.447488380180165 84.9338
9.469863475295412 84.6455
9.492256385987508 85.0649
9.514632206018318 85.8242
9.537025843935714 86.0566
9.559402392368193 87.1529
9.581796761000229 88.613
9.604191496441521 89.0838
9.626569144158516 92.0966
9.648964615551032 94.6922
9.671343000390081 96.2832
9.693739211225699 95.2605
9.716135793237463 94.0698
9.738515290448102 94.016
9.760912617143402 95.0754
9.783292860202891 96.1391
9.805690935076182 97.7986
9.828089385495742 98.6767
9.850470754023561 101.072
9.872869957865444 107.5
9.89525208097539 117.97
9.917652041736662 127.946
9.940052382417589 133.102
9.962435644102392 153.631
9.984836746950979 203.071
10.007220771957746 270.877
10.029622640473708 378.215
10.052007432299963 567.919
10.074410069984072 854.953
10.096813093716005 1274.11
10.119199042482517 1705.56
10.141602840636468 1891.13
10.163989564971628 1532.19
10.186394141051062 871.003
10.208799107559706 391.228
10.231187001965623 186.921
10.253592751657669 126.206
10.275981430388155 113.353
10.298387966769793 112.05
10.320794897965431 113.025
10.343184759907361 111.742
10.36559248305461 108.036
10.387983138083852 106.06299999999999
10.410391656691655 112.0
10.432800574501677 125.79
10.455192425893369 143.35
10.47760214443012 170.465
10.499994797678786 215.547
10.522405320453982 296.04900000000004
10.54479877906917 410.79
10.567210109595656 522.437
10.5896218454736 564.91
10.612016518879773 500.61800000000005
10.634429067781074 336.501
10.656824555333241 193.72400000000002
10.679237920773568 120.189
10.701651695961992 95.8449
10.724048411481384 89.723
10.746463008485165 87.2349
10.768860546937125 85.2715
10.791275969274796 83.6022
10.81369180576079 82.5263
10.836090585366925 81.241
10.858507252467449 80.3722
10.88090686379991 79.2866
10.903324365036394 78.9863
10.925724811614439 78.7566
10.948143150509463 79.4828
10.970561909719066 78.4482
10.992963615930844 76.9814
11.015383218085756 75.0389
11.037785768347074 73.7187
11.06020621697282 73.4088
11.082627090322113 72.4444
11.105030913430326 72.1219
11.12745263854165 72.3125
11.149857314510728 74.0963
11.172279894912576 78.7136
11.194702904450653 78.4968
11.217108866490921 75.5361
11.239532736615194 72.251
11.26193956033512 70.8377
11.284364294577085 69.2642
11.306789462371718 68.1109
11.329197585398376 67.3424
11.351623622610898 67.2958
11.37403261614354 66.1876
11.396459526308487 66.2329
11.418869393879497 65.7947
11.441297180532617 65.7141
11.463725406927658 65.3618
11.486136592353875 64.9757
11.508565700543707 65.387
11.530977768845315 66.6723
11.553407762368774 66.9962
11.575838200059769 66.471
11.598251599479612 64.9897
11.620682927815501 63.9852
11.64309721895548 63.7824
11.665529441478206 63.6414
11.687962112597958 63.3275
11.710377748130886 63.3034
11.732811318753434 63.2166
11.755227854859067 63.25
11.777662328529495 63.3056
11.800079768750786 62.7976
11.822515149015453 62.6444
11.844950984084935 63.2484
11.867369787303163 62.8871
11.889806534289491 62.8645
11.912226250487029 63.3632
11.934663912939751 63.3237
11.9571020346363 63.508
11.979523127133968 63.4988
12.001962169624331 64.6042
12.024384183972964 66.16
12.046824150809913 69.9756
12.069264581333726 75.3686
12.091687985297767 81.7204
12.11412934550045 91.2336
12.136553680195208 105.96600000000001
12.158995973632788 128.47299999999998
12.181438735204349 155.128
12.20386447284199 184.87900000000002
12.226308172985636 200.83599999999998
12.24873485024193 198.525
12.271179492516982 160.02100000000002
12.293607112949127 120.281
12.316052700916226 90.3033
12.338498763250042 75.1439
12.360927805303868 68.6309
12.383374818673879 65.8972
12.405804812803074 64.6604
12.428252780773262 64.6453
12.45070122756722 64.5743
12.473132656675375 64.4047
12.49558206341869 64.6253
12.518014453510101 64.6245
12.540464823770117 64.6361
12.562915677315177 64.9875
12.58534951575545 65.8143
12.607801338171472 67.0439
12.630236146511358 70.607
12.652688941369085 73.6532
12.675124723177234 74.0832
12.697578494048786 72.1721
12.720032754458185 68.9978
12.742470003354093 67.7939
12.764925245138771 68.0493
12.787363476431278 68.4392
12.809819703166806 68.7414
12.83227642391173 69.7227
12.854716135692716 70.1522
12.877173846755147 71.4498
12.899614549869717 71.8359
12.9220732548287 72.6264
12.94453245827299 72.8854
12.966974655289818 73.7601
12.989434858002571 74.8093
13.011878055298721 75.6427
13.034339260862497 76.4724
13.056800969391883 78.0476
13.079245674017244 80.3644
13.101708390774869 83.8468
13.12415410463411 92.9785
13.146617833206086 105.314
13.169064559883248 117.111
13.191529303857127 133.039
13.213994557076367 157.036
13.236442809902437 196.00799999999998
13.258909083908291 249.43200000000002
13.28135835851934 309.567
13.30382565690295 373.34
13.326293469022952 426.38699999999994
13.348744283242008 426.155
13.371213125129904 351.216
13.39366497011003 257.143
13.416134845360597 169.71
13.438605238843131 122.18799999999999
13.46105863690397 108.258
13.483530069144786 110.15799999999999
13.505984506951902 116.03
13.528456981549432 126.11399999999999
13.550929978879088 142.44899999999998
13.573385983253365 167.00599999999997
13.595860028340867 205.533
13.618317081455832 254.352
13.64079217790333 306.775
13.663250283359057 349.353
13.685726434770173 367.08099999999996
13.708203115221277 336.208
13.730662806148091 256.66700000000003
13.75314054697177 181.235
13.775601299246777 125.382
13.798080104050406 96.4788
13.820559442405358 85.8339
13.843021793671388 82.0655
13.865502201420897 80.6705
13.887965623051947 79.806
13.910447103807167 78.8479
13.932929122629764 77.5114
13.955394156785959 77.3926
13.977877254034569 76.2451
14.000343367582113 75.3137
14.022827546871707 74.7144
14.045294743423524 74.0429
14.06778000837062 73.5937
14.090265817715476 73.48100000000001
14.112734645763819 72.9526
14.13522154619454 72.6927
14.157691466286913 72.5855
14.180179461423874 72.214
14.202668005486178 72.0925
14.22513957064374 71.2449
14.247629214846473 70.85
14.270101881097517 70.5585
14.29259262906496 70.7083
14.315083930490205 71.1476
14.337558255389705 71.3137
14.360050666019726 71.0439
14.382526101071944 70.2697
14.405019624534942 69.7458
14.427513705993134 69.3182
14.449990813291825 69.6057
14.47248601302899 69.4775
14.49496423954951 69.3102
14.517460561197822 69.4995
14.539939910570322 69.1319
14.562437357763558 69.2567
14.58493536931253 70.305
14.607416409993311 70.7545
14.62991555254159 71.2921
14.652397725157423 71.3131
14.674898002342799 71.2484
14.697398848433282 70.9741
14.719882725991326 72.1851
14.74238471217934 74.2699
14.764869730765593 77.851
14.787372860692983 81.6938
14.809876564079925 86.3083
14.83236330125751 92.3892
14.854868153850365 101.71799999999999
14.877356041159485 115.64200000000001
14.899862046604186 134.14600000000002
14.922351087688757 157.46200000000002
14.944858249632887 184.72400000000002
14.967365991421232 209.21200000000002
14.989856770231246 222.382
15.012365673994204 218.032
15.03485761569738 185.15099999999998
15.05736768508665 144.317
15.07987833888692 110.64200000000001
15.102372032001655 89.0384
15.124883856909658 76.4672
15.14737872204565 72.3442
15.169891721717274 70.7618
15.192405310371893 70.6867
15.214901940621196 71.0078
15.237416709527137 70.4849
15.259914520936249 70.7292
15.282430473753607 69.9891
15.304947020131227 68.855
15.327446610371178 68.1291
15.349964346154254 67.5761
15.372465126703139 67.1208
15.394984055556009 67.0449
15.417486030076159 66.8943
15.44000615566487 66.7261
15.462526881230803 66.6189
15.485030653812652 66.6109
15.507552581617434 66.4151
15.530057557334603 66.5101
15.55258069104857 66.4541
15.575104429329837 66.7492
15.597611216864632 66.5278
15.620136166564563 66.7926
15.6426441664095 68.456
15.665170331202765 71.3376
15.687697105158826 74.8135
15.710206930593545 78.1108
15.732734925158933 82.588
15.755245972089478 89.1751
15.77777519094324 98.8403
15.800287463046663 112.133
15.822817909869592 130.904
15.84534897229804 150.27200000000002
15.867863089299354 172.55900000000003
15.890395385222186 188.896
15.912910736597423 194.99
15.935444269699861 181.40200000000002
15.957978423016485 152.893
15.980495633101265 120.76700000000001
16.003031029129367 95.0389
16.02554948280019 75.5962
16.048086125229432 67.3185
16.070623392487107 65.1294
16.09314371869582 64.1016
16.11568223789321 63.0914
16.13820381691126 62.4089
16.160743591742527 61.493
16.183283996022084 60.7573
16.205807461423195 59.7268
16.228349126881973 59.2444
16.25087385432698 59.1846
16.27341678466365 58.6976
16.29594277784926 58.5308
16.31848697676433 58.4887
16.341031811604868 58.6831
16.36355971058487 58.7339
16.3861058195587 58.3905
16.40863499352978 57.3912
16.431182380342005 56.9337
16.453730407713202 56.6171
16.476261501364792 55.9784
16.498810812136167 55.7364
16.52134319004079 55.9718
16.54389378792203 55.7175
16.566445031001553 55.538000000000004
16.588979342490088 55.3567
16.61153187824822 55.3482
16.634067483263312 55.1752
16.656621315414416 55.1607
16.679175797408888 54.7588
16.701713349928728 54.9525
16.72426913389191 55.3844
16.74680798922351 55.1096
16.76936507887444 55.2715
16.791905240734874 55.3251
16.814463639794468 55.0082
16.837022695210294 55.1285
16.859564824093756 55.4204
16.882125194503903 55.8776
16.904668639217885 56.4958
16.927230328348003 56.6195
16.949792678493612 56.8162
16.972338104193863 56.3569
16.994901778652235 55.9401
17.017448529496576 55.9296
17.040013531998152 56.4529
17.06257920018044 57.0763
17.0851279459922 57.9044
17.107694947817667 58.6845
17.130245028099072 59.3964
17.15281336730298 60.843
17.17536478578733 62.6483
17.19793446610687 64.9439
17.220504818648422 68.0059
17.243058251703697 71.1009
17.265629950971032 75.3414
17.288184731571736 79.0957
17.310757781306908 82.2705
17.33333150794385 83.7856
17.355888317140174 81.5771
17.37846339986244 77.0227
17.401021565958885 71.0748
17.42359800851343 65.7034
17.44617513265564 62.1027
17.468735341390783 60.3525
17.491261035594565 59.6261
17.51396340099364 59.4239
17.536490463869136 59.5965
17.559018209820174 59.5249
17.58154663977963 59.5862
17.604251766089718 59.7128
17.626781572227713 59.9854
17.64931206518155 60.36600000000001
17.671843245885103 60.7006
17.69455114821572 60.8185
17.717083712612634 61.1828
17.739616967569667 61.3557
17.762150914021706 61.6735
17.78486160749854 61.9799
17.807396945166804 62.9132
17.829932977143503 64.0464
17.85246970436452 65.8319
17.875183204129467 67.8017
17.897721330097664 69.7787
17.920260154126645 72.3257
17.942799677153296 75.56
17.9655159983646 79.5352
17.988056927677544 85.0139
18.010598558807683 92.8532
18.033140892692916 102.51899999999999
18.05586005052525 112.40799999999999
18.07840379824407 123.12100000000001
18.10094825154059 134.634
18.12366954819864 141.548
18.146215420998306 141.696
18.16876200220057 132.67600000000002
18.191309292745153 117.719
18.214033452627167 102.93299999999999
18.236582170236648 91.8155
18.259131600016456 87.1522
18.281681742907335 88.2739
18.304408781233683 92.1302
18.32696035875955 96.6861
18.349512652227624 101.117
18.372065662579683 105.42200000000001
18.394795594587553 106.21700000000001
18.41735004715306 102.79
18.43990521943684 95.4586
18.46246111238171 86.5812
18.485193953325208 77.2019
18.507751296070428 69.9429
18.530309362314178 66.0386
18.552868153000343 63.65
18.57560391815056 62.5623
18.59816416623245 62.0816
18.620725141597372 61.5199
18.643286845190268 61.1791
18.666025549835414 60.722
18.688588718427933 60.2254
18.711152618092243 60.2519
18.73389353884365 59.6306
18.75645890921984 59.3248
18.77902501351406 58.9147
18.801591852673102 59.0665
18.824335739722738 58.4828
18.846904057212626 58.4085
18.8694731124168 58.0038
18.89204290628315 57.7913
18.914789774966803 57.7022
18.937361054791623 57.6952
18.959933076131318 57.3107
18.982505839934877 57.3248
19.00525570560582 57.3518
19.027829963004184 57.147
19.05040496572238 57.2455
19.072980714710468 57.549
19.095733592739563 57.8038
19.11831084296757 58.025
19.140888842324735 58.6325
19.16346759176222 58.708999999999996
19.18622349753803 59.1931
19.208803755869358 60.1315
19.231384767143577 61.3908
19.253966532312948 63.1517
19.276725481241822 65.2779
19.29930876296784 67.7584
19.3218928014549 70.1861
19.34465404436217 72.9
19.36723960516257 75.3646
19.389825925592426 76.4259
19.412413006605938 75.2732
19.43517731967805 72.1307
19.457765930683355 67.5155
19.48035530514408 63.0617
19.50294544401556 59.3782
19.525712842708348 56.9212
19.54830451925909 55.5837
19.570896963095727 54.3864
19.593490175174704 54.1203
19.616260674962184 54.2579
19.638855432416964 53.9019
19.661450960992624 53.9571
19.68404726164677 53.9084
19.706820878021247 53.6511
19.729418731756834 53.9162
19.752017360452857 53.5256
19.77461676506804 54.0224
19.797393513540218 54.2447
19.819994478951667 54.413000000000004
19.84259622316767 55.0462
19.8651987471481 55.406000000000006
19.887978643247177 55.6347
19.91058273574792 56.0711
19.933187610901943 56.933
19.955969879466828 58.0158
19.97857632894404 59.7163
20.00118356396599 61.3683
20.023791585494575 63.2317
20.046577028914875 65.9164
20.069186632506966 67.786
20.091797025500632 69.67
20.114408208858933 70.4614
20.137196842715273 69.9093
20.159809615886765 68.3899
20.18242318232135 65.9042
20.20503754298326 63.9495
20.227829382875154 62.6978
20.250445341109344 62.6011
20.27306209647285 63.3096
20.29567964993108 64.433
20.31847471147704 65.2688
20.34109387027612 65.7986
20.363713830075454 65.5887
20.386334591841646 64.1278
20.409132890679302 61.4027
20.431755265564437 58.1759
20.454378445325528 55.5295
20.477002430930366 53.6717
20.499803982716553 52.4205
20.522429589228004 51.6665
20.54505600449589 51.4123
20.567683229489194 51.185
20.590488049900088 50.8389
20.61311690359731 50.3413
20.63574656993626 50.193000000000005
20.658553853717297 49.9729
20.681185154618298 50.0051
20.703817271080066 49.9202
20.72645020407368 49.5756
20.749260783967177 49.3766
20.771895359337133 49.2973
20.794530754161617 49.1639
20.817166969412938 49.3076
20.83998086114876 49.1719
20.86261872660049 48.9278
20.885257415405402 48.7763
20.90789692853701 48.927
20.930714147864748 48.9667
20.953355319030678 48.9862
20.97599731745334 48.9576
20.99864014410749 48.8502
21.021460706796564 48.968
21.044105199328826 49.331
21.06675052302631 49.3367
21.089396678865015 49.5677
21.112220600704806 49.955
21.134868430275347 50.1671
21.15751709492456 50.3728
21.180166595629693 50.6402
21.202993892429635 51.1131
21.22564507473034 51.3985
21.24829709602816 51.5661
21.27112693608965 51.8036
21.293780644891275 51.7562
21.316435195634053 51.0644
21.339090589297417 50.2034
21.361923832041875 49.853
21.384580921090404 49.3309
21.407238856007325 48.7586
21.429897637773326 48.5155
21.45273429906592 48.6254
21.475394784108598 48.7076
21.498056118951983 48.6454
21.520718304578022 48.8372
21.543558400304388 49.0917
21.566222297108816 49.293
21.58888704765135 49.3574
21.61155265291521 49.7543
21.63439619898156 50.2793
21.657063523335786 50.4844
21.67973170537063 50.9043
21.7024007460706 51.3674
21.72524775840385 52.2939
21.747918526116475 53.5112
21.770590155457388 54.7511
21.79326264741238 56.1498
21.816113141960237 57.9407
21.838787368860547 59.7343
21.861462461341976 61.4994
21.884315579735777 63.3075
21.90699241312273 64.4839
21.92967011506078 65.1284
21.95234868653799 64.7447
21.9752053151131 63.4801
21.997885635446785 61.6112
22.020566828293532 59.6161
22.04324889464272 57.9228
22.066109049404666 56.7122
22.088792872571794 56.2134
22.111477572219204 56.3207
22.1341631493376 56.4197
22.157026846313123 56.1412
22.179714188221507 55.5527
22.202402410582668 54.5532
22.22509151438863 53.0408
22.24795876962584 51.5924
22.270649646204486 50.7404
22.293341407213727 50.0853
22.316034053646906 49.6479
22.338904883215342 49.3125
22.36159931041458 49.3959
22.38429462602756 49.1933
22.40699083104897 49.0542
22.429865251039757 48.9523
22.452563244831367 49.0647
22.47526213102522 49.1399
22.49813925616515 49.04600000000001
22.520839937143307 48.8712
22.543541513520587 49.0186
22.56624398629403 48.9198
22.589124730075895 48.9271
22.611829005656723 49.1566
22.63453418063466 49.2308
22.657240256008077 49.273999999999994
22.680124634582935 49.5457
22.70283252079775 49.7257
22.725541310413075 50.0669
22.74825100442868 50.1888
22.771139033969575 50.8239
22.79385054687155 51.0762
22.81656296718292 51.808
22.83927629590484 52.4944
22.862167992606945 53.5147
22.88488314827121 54.5088
22.907599215359284 55.5454
22.93031619487366 56.6261
22.953211574954405 57.3324
22.975930389478226 58.1415
22.998650119445763 58.3042
23.02137076586092 57.4811
23.044269845560063 56.1778
23.06699233506288 54.5668
23.089715744034912 52.743
23.112617610931565 51.055
23.135342869061212 50.0391
23.158069049684816 49.3409
23.1807961538087 49.1522
23.20370174880544 49.1356
23.226430710184808 49.0829
23.249160598093425 49.2089
23.271891413539002 49.2538
23.294800752937697 49.2341
23.31753343374794 49.6216
23.340267045128353 49.4926
23.36300158808808 49.9512
23.38591468821339 50.22
23.408651104658304 50.6407
23.431388455719986 51.3364
23.454126742409 52.0717
23.4770436196085 53.238
23.499783787914662 54.4363
23.522524894889884 55.4201
23.54526694154616 56.3909
23.56818761219047 57.3833
23.59093154860734 57.7662
23.613676427751283 58.0579
23.636422250635754 57.3799
23.659346731118656 55.7464
23.68209445191868 53.5757
23.704843119509587 51.6647
23.72759273490623 49.778
23.750521041644767 48.4408
23.77327256312355 47.413999999999994
23.796025035462787 46.9065
23.818956224555475 46.2569
23.841710609113413 46.1944
23.86446594758979 46.0275
23.887222241002014 45.8312
23.910157285144578 45.4887
23.932915498962537 45.4476
23.955674670778713 45.3055
23.978434801611975 44.9935
24.001373717286125 44.9272
24.024135776723917 44.9561
24.046898798245582 44.7066
24.06966278287146 44.7828
24.092605586582614 44.568000000000005
24.115371508023642 44.4814
24.1381383956401 44.2369
24.16090625045381 44.2225
24.183852958731244 44.0419
24.206622758582608 44.0821
24.229393528706886 43.9098
24.252165270127392 44.0615
24.27511589952438 43.9308
24.297889594216997 43.5876
24.32066426328598 43.3656
24.34343990775613 43.5202
24.36639447485003 43.4078
24.38917208083877 43.3466
24.41195066531332 43.3905
24.43490819850244 43.4008
24.457688750692377 43.1783
24.48047028445616 43.1512
24.503252800821233 43.2236
24.526214300784112 43.4109
24.548998793132213 43.3488
24.57178427117417 43.4095
24.59457073593893 43.3621
24.617536219319863 43.2784
24.64032466834748 43.3268
24.663114107195035 43.0601
24.685904536893013 42.8264
24.708874020360852 42.6884
24.731666442613744 42.7156
24.754459858818787 42.62
24.777254270007962 42.498000000000005
24.80022777025625 42.4717
24.82302418230472 42.4277
24.845821592443674 42.5429
24.86862000170663 42.5113
24.891597535453727 42.2452
24.914397953892728 42.4874
24.93719937456671 42.4878
24.96000179851076 42.6045
24.98298338249997 42.917
25.00578782394922 43.0695
25.028593271784167 43.2102
25.05157790644186 43.5355
25.07438537804115 43.7281
25.097193859145293 43.9493
25.120003350792075 44.1488
25.142992065061257 44.3967
25.165803588823465 44.8152
25.18861612625217 44.9847
25.211429678386736 45.1025
25.234422489079968 45.0747
25.257238081693636 44.9864
25.280054692141732 45.0777
25.3028723214652 45.0439
25.325869245420463 45.0708
25.348688923599397 45.1064
25.371509623787006 45.0353
25.394331347025812 44.8509
25.41733240110666 44.3824
25.440156181590016 43.6809
25.46298098826268 43.2844
25.48580682216873 42.6966
25.50881202326435 42.167
25.53163992281684 41.724
25.55446885274561 41.418
25.577298814096377 41.1647
25.600308179121807 40.9012
25.623140214533745 41.0488
25.64597328451537 40.9967
25.66898578564376 40.7448
25.691820936010206 40.7633
25.714657124097695 40.8297
25.737494350954734 40.8565
25.760511045684957 40.6793
25.783350361364224 40.653
25.806190718969255 40.8568
25.82903211955018 40.9704
25.852053024868923 40.9269
25.874896522722523 40.9924
25.897741066713106 40.9529
25.920586657892454 41.0685
25.943611790812668 41.0496
25.966459487728237 41.2703
25.989308234998564 41.3616
26.01215803367705 41.7231
26.03518741123814 41.6895
26.05803932412957 41.8343
26.080892291600094 41.8481
26.10374631470478 41.8162
26.12677995397268 42.0286
26.14963609978026 41.9374
26.172493304397875 41.6398
26.19535156888223 41.395
26.218389486949604 41.1076
26.241249882640123 40.8357
26.26411134137826 40.6551
26.28715248187403 40.4395
26.31001607820869 40.3354
26.3328807407756 40.2846
26.35574647063438 40.4639
26.37879191991473 40.3944
26.401659795896734 40.48
26.424528742360263 40.4391
26.447398760366614 40.8043
26.470448535598294 40.764
26.49332070826805 41.0005
26.516193955675355 41.2881
26.53906827888316 41.4726
26.562122397260108 41.6087
26.584998883685063 41.9836
26.607876449110325 42.2506
26.63075509460056 42.3814
26.65381357334404 42.515
26.67669439061878 42.5663
26.699576291163382 42.4208
26.722459276044212 42.2777
26.745522132402975 41.8465
26.768407297649354 41.6296
26.791293550442003 41.2904
26.814180891848974 41.055
26.837248143099337 40.736999999999995
26.860137673466657 40.5903
26.88302829566349 40.391999999999996
26.90592001075963 40.2446
26.92899167420566 40.0057
26.951885586870763 39.6805
26.974780595655517 39.6187
26.99785558178161 39.4164
27.020752794605112 39.3234
27.043651106772522 39.1485
27.06655051935668 39.0241
27.089629948036183 39.0631
27.112531573292053 39.0025
27.135434302194138 39.0787
27.158338135817015 38.8472
27.181422024430987 38.844
27.204328079372566 38.7339
27.22723524226965 38.7742
27.250143514198573 38.861
27.273231880156334 38.8295
27.296142382065014 38.7262
27.319053996245536 38.6227
27.341966723775965 38.6724
27.365059584515222 38.7661
27.38797455070062 38.7624
27.410890633481237 38.5964
27.433807833936918 38.6892
27.456905206923906 38.7315
27.47982465472398 38.7301
27.502745223449743 38.7223
27.525666914182825 38.7416
27.548768816912457 38.7824
27.571692763693633 38.6931
27.59461783573812 38.614000000000004
27.617723149491244 38.3279
27.640650484125285 38.4689
27.66357894728264 38.4904
27.686508540048052 38.3765
27.709618414237887 38.3227
27.732550278321757 38.1937
27.755483275279115 38.1176
27.778417406196485 38.1007
27.801531858397514 38.0184
27.824468269376716 38.0677
27.847405817586786 38.0398
27.870344504116094 38.1657
27.893463551932008 38.4654
27.916404527281053 38.5713
27.93934664422563 38.6064
27.962289903855886 38.7002
27.98541356491974 38.8777
28.00835912214229 39.0789
28.03130582533231 39.4144
28.054253675581805 39.5065
28.077381967556104 39.298
28.100332124185126 39.2682
28.123283431160893 39.2617
28.146235889577238 39.0239
28.169368830154156 38.7697
28.192323603752033 38.5742
28.215279532083304 38.3549
28.238415973016764 38.1615
28.261374223145094 38.0228
28.284333631303806 37.8649
28.307294198589954 37.7322
28.330435319167677 37.3995
28.353398217078915 37.1839
28.376362277420153 36.8333
28.39932750129032 36.648
28.422473319286713 36.5961
28.44544088262495 36.5199
28.468409612800283 36.4614
28.491379510913497 36.2883
28.51453004413313 36.1319
28.53750229057244 36.0925
28.56047570826344 36.0735
28.583450298308804 36.3111
28.606605564586562 35.871
28.629582511831156 35.9463
28.65256063474956 35.8378
28.675539934446338 35.8665
28.698699951647605 35.9347
28.72168161743193 35.7413
28.74466446331978 35.6123
28.767648490417624 35.5849
28.790813276438353 35.6335
28.813799678527303 35.5289
28.836787265157085 35.5618
28.859955641890075 35.5952
28.882945610203045 35.7068
28.905936766392035 35.5604
28.928929111566863 35.7062
28.952102288520145 35.4904
28.975097024308607 35.3683
28.998092952423807 35.2015
29.021090073977508 35.1755
29.04426806913204 34.9468
29.067267590245258 34.858000000000004
29.090268308143695 34.8529
29.11327022394099 34.8489
29.13645305530891 34.6442
29.159457379627167 34.6567
29.18246290519685 34.554
29.20546963313352 34.6698
29.22865731875826 34.5377
29.25166646419296 34.5628
29.27467681535305 34.4162
29.29768837335608 34.5046
29.320880931312562 34.4837
29.34389491580634 34.3873
29.366910110507334 34.4408
29.38992651653503 34.4675
29.41312396492981 34.5195
29.436142806456754 34.4192
29.45916286268059 34.2546
29.48236399319994 34.2246
29.50538649169417 34.0699
29.528410208259935 33.9902
29.55143514402014 33.7669
29.574641196749695 33.623000000000005
29.597668583816574 33.4497
29.6206971934585 33.2744
29.64372702680042 33.3872
29.666938019934474 33.2634
29.689970313635285 33.2179
29.713003834422636 33.1993
29.73603858342347 33.1552
29.759254535188578 33.1015
29.78229175361658 33.0935
29.80533020365064 33.0911
29.82836988641968 33.149
29.85159081507472 32.996
29.874632976355343 32.8425
29.89767637376955 32.9638
29.920721008448314 32.7849
29.9439469322847 32.9025
29.96699405457564 32.85
29.9900424175358 32.7931
30.013092022298157 32.7349
30.03632295963995 32.7646
30.059375061131373 32.7518
30.08242840783577 32.8124
30.105483000888153 32.6946
30.128718970092244 32.6166
30.151776069006917 32.5953
30.17483441768648 32.6316
30.198074175317235 32.6686
30.221135036724256 32.6147
30.24419715131772 32.5969
30.267260520236203 32.5766
30.290505341942243 32.5893
30.313571232750228 32.5299
30.336638381310948 32.5262
30.35970678876503 32.4418
30.38295669299435 32.3791
30.40602763151657 32.4296
30.429099832366074 32.3292
30.452173296685572 32.2874
30.47542830191959 32.2647
30.498504306502497 32.2391
30.521581577995562 32.3406
30.544660117543582 32.4068
30.56792024229725 32.3411
30.59100133132069 32.3389
30.614083691845494 32.2817
30.637167325018545 32.3531
30.660432587840603 32.4113
30.683518779717886 32.3821
30.70660624769615 32.4237
30.729694992924372 32.4579
30.75296541239743 32.4709
30.77605672557558 32.3532
30.799149319462742 32.3242
30.8224236211637 32.1465
30.845518789950724 32.0323
30.868615242910597 32.0966
30.891712981195973 31.9026
30.91499247215866 31.8172
30.938092794619365 31.8103
30.96119440587579 31.6856
30.984297307082752 31.6027
31.00758200598383 31.5761
31.030687500658694 31.5141
31.053794288760695 31.4378
31.076902371446767 31.3231
31.100192296997445 31.3143
31.12330298246119 31.2415
31.14641496599209 31.2349
31.169528248749216 31.2033
31.19282341969534 31.1813
31.215939314557186 31.214000000000002
31.239056512134788 31.2795
31.262175013589378 31.1424
31.28547544871168 31.0326
31.30859657161541 30.9819
31.331719001892175 31.0982
31.35484274070538 31.1971
31.378148458819545 31.2043
31.401274828443725 31.0831
31.424402510106933 31.1573
31.447712205419993 31.1296
31.470842524931633 31.0084
31.493974159989783 31.0582
31.51710711176168 31.0328
31.54042212308802 31.0137
31.563557722100917 31.0094
31.586694641341655 30.8565
31.609832881979628 30.6689
31.63315322823208 30.6793
31.656294125521327 30.5433
31.679436347728515 30.4374
31.70257989602529 30.4012
31.725905596152327 30.4763
31.74905181052835 30.386
31.772199354521323 30.4514
31.79534822930507 30.3442
31.818679302290967 30.425
31.84183085259981 30.315
31.864983737233473 30.3734
31.88813795736804 30.4521
31.911474422233013 30.2853
31.934631327356435 30.2647
31.9577895715215 30.1427
31.980949155906522 30.247
32.004291031706956 30.2612
32.027453310562606 30.1267
32.05061693318573 29.9688
32.07396288236386 29.988000000000003
32.09712920658542 29.9063
32.12029687812702 29.7429
32.14346589817093 29.7234
32.166817291729984 29.7284
32.18998902288583 29.6491
32.21316210610336 29.5851
32.23633654256711 29.4636
32.259693399663725 29.3794
32.282870556771144 29.2753
32.30604907069099 29.2697
32.329228942610065 29.3542
32.35259128243769 29.0927
32.375773884550505 29.1887
32.398957848235646 29.0932
32.422143174682176 29.0332
32.445511016471215 28.9807
32.468699082679954 28.9608
32.49188851523011 28.9367
32.51507931531304 28.7981
32.538452678331 28.8289
32.56164622776311 28.7191
32.58484114831493 28.5168
32.60803744118015 28.7232
32.631416344731896 28.7057
32.654615396551876 28.586
32.67781582427913 28.6144
32.701198898634416 28.5504
32.72440209253756 28.4987
32.747606665947124 28.499000000000002
32.77081262006088 28.3642
32.79420126883317 28.3433
32.81740999876112 28.3223
32.840620112999424 28.201999999999998
32.86383161274818 28.1297
32.88722585534586 28.2225
32.91044014056596 28.1867
32.933655814909734 28.2232
32.95687287957963 28.2059
32.98027273544904 28.0588
33.00349259526636 28.0883
33.026713849030116 28.0786
33.04993649794511 28.0344
33.073341986570746 27.9112
33.09656744032826 27.9369
33.11979429286444 27.9971
33.14302254538647 27.9826
33.166433686291185 27.8711
33.18966475336992 27.8425
33.212897224069096 27.7671
33.23613109959831 27.8191
33.259547912343415 27.7749
33.2827846121627 27.745
33.306022720453775 27.5893
33.32926223842861 27.5958
33.352684742614166 27.5658
33.37592709463173 27.5411
33.399170859982064 27.463
33.422597648419426 27.3746
33.44584425514446 27.2578
33.46909227885668 27.2927
33.4923417207723 27.1454
33.51577423505344 27.1489
33.539026528130385 27.0078
33.56228024307245 27.0574
33.585535381098246 26.9751
33.60897364093058 26.8586
33.63223163992385 26.8679
33.6554910656699 26.8685
33.678751919389796 26.8482
33.702195944520106 26.7431
33.72545966903325 26.7924
33.74872482519663 26.7038
33.771991414233746 26.7006
33.79544122444841 26.6571
33.81871069412428 26.5328
33.84198160035767 26.6126
33.86525394437455 26.5186
33.88870955949969 26.4957
33.911984794020626 26.5239
33.93526147001624 26.3827
33.958539588715006 26.343000000000004
33.98200102861669 26.2847
34.0052820477047 26.2659
34.02856451319451 26.1801
34.05203033759056 26.0933
34.07531571090147 26.1386
34.09860253431845 26.0658
34.121890809074316 25.9737
34.145362493118924 25.9986
34.16865368561615 25.9897
34.191946333164054 25.9258
34.21524043699793 25.9182
34.23871800066799 25.8745
34.26201503218366 25.8179
34.28531352370466 25.7818
34.30861347646881 25.706999999999997
34.33209693978188 25.6869
34.3553998301885 25.6764
34.378704185565205 25.642
34.402010007152356 25.5669
34.42549939016683 25.5676
34.44880815937748 25.4844
34.472118398533134 25.4494
34.49543010887669 25.4065
34.51892543169198 25.3003
34.54224009966052 25.3697
34.56555624255917 25.3749
34.58887386163339 25.2051
34.61237514439016 25.1691
34.6356957311114 25.1632
34.65901779775809 25.0499
34.68252356662995 25.0393
34.705848608458616 25.0728
34.72917513396849 24.9488
34.75250314440949 24.9782
34.77601490857862 24.8802
34.799345904259795 24.7586
34.82267838863559 24.7865
34.846012362958525 24.7746
34.869530142679984 24.7685
34.89286711232212 24.709
34.91620557568269 24.6498
34.93954553401677 24.695999999999998
34.9630693495876 24.6792
34.986412313340814 24.7167
35.00975677584668 24.6554
35.033102738362956 24.6036
35.05663261012228 24.4838
35.0799815881786 24.5442
35.10333207003229 24.4193
35.12668405694369 24.4947
35.150220005273056 24.4134
35.17357501786656 24.3955
35.19693153931268 24.3072
35.220289570874385 24.2587
35.24383161619786 24.3238
35.267192683604904 24.3304
35.290555264930376 24.2838
35.314101899412165 24.2607
35.33746752422433 24.1419
35.36083466676374 24.2096
35.38420332829803 24.0914
35.407756095629054 24.1336
35.43112781085063 24.0738
35.45450104888391 24.1237
35.477875810999194 24.0968
35.50143473172161 24.0274
35.52481255774625 24.0888
35.54819191167777 23.9499
35.57157279478914 23.8998
35.595137889488406 23.8821
35.61852184675279 23.8385
35.641907337029984 23.8177
35.665294361595684 23.7187
35.68886565090076 23.6597
35.7122557598848 23.7066
35.73564740699838 23.6818
35.759040593519934 23.6223
35.78261809810353 23.6041
35.80601437933051 23.4867
35.829412203814705 23.4407
35.85281157283719 23.4266
35.876395313415884 23.5158
35.8997977874528 23.3294
35.92320180988546 23.3194
35.946790244133936 23.2655
35.97019737933222 23.2267
35.993606066789866 23.2061
36.01701630779276 23.2013
36.04061101440684 23.1193
36.06402437852291 23.2279
36.08743930005611 23.1554
36.1108557802951 23.0049
36.13445678011326 23.02
36.15787639383515 22.9788
36.18129757014299 22.9751
36.20472031032821 22.9132
36.22832762423364 22.8099
36.25175350829375 22.8277
36.275180960119776 22.8554
36.298609981005924 22.8653
36.32222362992669 22.7729
36.34565580510207 22.7612
36.36908955323448 22.6707
36.39252487562093 22.5556
36.416144880530226 22.5408
36.43958336764275 22.5719
36.463023432914625 22.5816
36.486465077645676 22.4974
36.51009145956204 22.5949
36.53353627947859 22.557
36.55698268276811 22.4785
36.58043067073321 22.456999999999997
36.60406345072071 22.2949
36.62751462435344 22.2303
36.65096738658405 22.3419
36.67460498210655 22.3343
36.69806093788647 22.2692
36.72151848619297 22.2079
36.744977628333636 22.2038
36.76862165890998 22.0999
36.79208400512205 22.0338
36.81554794910557 22.0525
36.83901349217101 22.0801
36.862663978991606 21.9148
36.88613273667352 21.930999999999997
36.90960309738324 21.8628
36.933075062434064 21.8375
36.95673202673572 21.9164
36.98020721697122 21.9041
37.003684015502365 21.7488
37.027162423645365 21.7284
37.050825886711465 21.7058
37.07430753063053 21.5971
37.09779078812467 21.6431
37.121275660513014 21.5422
37.144945643673694 21.5542
37.16843376245278 21.5599
37.19192350009803 21.4937
37.215414857931435 21.4292
37.239091382563885 21.4219
37.262585997426164 21.394000000000002
37.28608223645736 21.3894
37.309763684451696 21.3659
37.33326318851098 21.2565
37.356764320726555 21.2803
37.380267082425526 21.2978
37.40395510942588 21.169
37.42746114683234 21.1879
37.45096881771841 21.1034
37.474478123414166 21.1351
37.49817275092816 21.0444
37.52168534303452 21.054000000000002
37.54519957395567 21.0045
37.568715445024665 20.9743
37.592416694607714 20.9716
37.61593586281424 20.9658
37.63945667518264 20.9938
37.66297913304891 20.8139
37.68668702630454 20.8182
37.710212792059274 20.7828
37.733740207334854 20.715999999999998
37.757269273470364 20.6779
37.780983832050374 20.6705
37.80451621684926 20.656999999999996
37.82805025654007 20.5726
37.851585952464795 20.5502
37.8753071980695 20.4939
37.89884622345676 20.4449
37.92238690911902 20.3892
37.94611318753442 20.4109
37.969657210779765 20.4415
37.99320289834801 20.3992
38.016750251586465 20.4089
38.04048325513017 20.3349
38.06403395679343 20.2269
38.087586328183946 20.2325
38.11114037065203 20.2477
38.13488012115898 20.2131
38.1584375229181 20.0878
38.181996599821 20.0556
38.205557353221124 20.1046
38.229303872575656 20.0134
38.2528679961576 20.0303
38.27643380031219 20.0067
38.30000128639589 19.9654
38.32375459653193 19.968
38.34732546371299 19.9072
38.37089801690786 19.8371
38.39447225747609 19.7899
38.418232380377425 19.7663
38.441810012983396 19.8425
38.46538933705673 19.7713
38.488970353960084 19.69
38.51273731166058 19.6753
38.536321731567014 19.6359
38.55990784840681 19.6227
38.58367995004091 19.5511
38.60726947812959 19.5141
38.63086070726198 19.5017
38.654453638806274 19.4861
38.678232613930824 19.451
38.70182896773327 19.4197
38.72542702806741 19.3728
38.7490267963045 19.3241
38.77281266709232 19.3468
38.79641586862214 19.3083
38.8200207821842 19.2118
38.843627409152944 19.2719
38.86742019782782 19.2024
38.891030269149255 19.1082
38.914642058016156 19.2167
38.938255565806124 19.1515
38.96205529464307 19.1122
38.98567225787121 19.1161
39.00929094417078 19.057000000000002
39.03291135492255 18.988
39.05671804624804 19.0104
39.080341923549106 18.9399
39.103967529460334 18.9011
39.127594865365744 18.7994
39.15140854155791 18.7722
39.17503935514948 18.8031
39.19867190290282 18.7422
39.22249083587951 18.6989
39.24612686969409 18.7672
39.269764641845306 18.7652
39.293404153722804 18.6601
39.317230110864074 18.5617
39.34087311998506 18.5189
39.36451787301696 18.5611
39.388164371352595 18.5318
39.41199737518003 18.5085
39.43564738196752 18.4704
39.45929913825317 18.4155
39.48295264543308 18.4169
39.506792718520884 18.3474
39.530449745387216 18.3393
39.55410852735203 18.2623
39.57776906581474 18.3134
39.60161623079 18.2688
39.625280300200025 18.2698
39.64894613032202 18.1988
39.67261372255866 18.1959
39.6964680021016 18.1861
39.72013913657293 18.2044
39.74381203738292 18.070999999999998
39.76748670593756 18.1276
39.79134812278169 18.0731
39.81502634488497 18.0647
39.83870633896685 17.9842
39.862388106436654 17.9593
39.88625668336918 17.9107
39.90994201572829 17.941
39.933629125719285 17.8873
39.957503091207826 17.885
39.9811937746168 17.8545
40.00488623990914 17.797
40.02858048850006 17.7174
40.05246165409549 17.7261
40.076159487492085 17.6943
40.099859108448875 17.6887
40.123560518384345 17.6504
40.1474489070226 17.6454
40.171153913178564 17.6078
40.194860712584955 17.5689
40.2185693066637 17.5735
40.242464941335314 17.475
40.26617714307655 17.454
40.289891143772046 17.4583
40.3136069448471 17.3876
40.33750984859743 17.3599
40.3612292688043 17.3823
40.3849504936829 17.3589
40.40867352466194 17.3584
40.43258372059144 17.2645
40.45631038219906 17.277
40.48003885420956 17.1961
40.503769138055105 17.2142
40.52768664931955 17.1903
40.55142057531802 17.1188
40.57515631746428 17.1228
40.599079334038514 17.0745
40.62281872700477 17.0237
40.64655994043941 17.0581
40.67030297578061 17.0412
40.69423334835778 17.0157
40.71798004609188 16.9335
40.74172857006355 16.9034
40.76547892171441 16.9434
40.7894166736039 16.9527
40.813170699248566 16.8469
40.83692655691388 16.7889
40.86068424804498 16.8414
40.884629402612525 16.7969
40.908390779366385 16.781
40.932153993938 16.7256
40.95591904777605 16.72
40.979871628443995 16.7254
41.003640379561936 16.6748
41.02741097430883 16.6466
41.05118341413683 16.6281
41.075143444384416 16.6043
41.098919593177826 16.6016
41.1226975914255 16.5386
41.14647744058318 16.4248
41.170444943946755 16.4209
41.19422851378379 16.4134
41.218013938914645 16.3699
41.24198706625173 16.3211
41.26577622087193 16.3127
41.289567235177785 16.2693
41.31336011063129 16.2326
41.337340752422875 16.2254
41.361137369129835 16.2731
41.38493585138705 16.2076
41.40873620066004 16.1916
41.43272438060107 16.1578
41.45652848292052 16.0676
41.48033445666918 16.1162
41.50414230331616 16.1134
41.528138045159764 16.000999999999998
41.551949656675205 15.9956
41.575763145513235 15.9808
41.59957851314666 15.9577
41.62358184070442 15.9252
41.64740098505737 15.8604
41.6712220126409 15.8774
41.69504492493139 15.8572
41.71905586207357 15.8025
41.74288256296395 15.8095
41.766711153007456 15.7771
41.79054163368412 15.7522
41.814560204340054 15.7498
41.838394485526365 15.7325
41.86223066180303 15.7186
41.88625497706819 15.6385
41.910094962812 15.6105
41.93393684811168 15.6042
41.95778063445365 15.5314
41.981812625263366 15.5237
42.00566023303407 15.5631
42.029509746323676 15.479000000000001
42.05336116662236 15.4659
42.077400857069705 15.4795
42.10125611078846 15.4525
42.12511327600405 15.3854
42.14897235421036 15.3132
42.173019768448455 15.3593
42.19688269209613 15.2879
42.22074753323349 15.2959
42.24461429335818 15.2284
42.268669455600495 15.2327
42.292540073217886 15.2267
42.31641261433284 15.1885
42.34028708044675 15.1156
42.36435001496739 15.1394
42.38822835065557 15.0881
42.41210861586426 15.0853
42.4359908120986 15.0826
42.46006154323262 15.040999999999999
42.48394762115317 15.0243
42.507835634632315 14.9969
42.531912233047436 14.9903
42.55580413732265 14.9543
42.579697981698 14.9098
42.60359376768525 14.864
42.62767820545945 14.8056
42.65157789440821 14.8125
42.67547952952185 14.8038
42.699383112316 14.8165
42.72347541395347 14.7513
42.74738291190531 14.7238
42.771292362102166 14.6698
42.795203766063516 14.6913
42.819303956130405 14.6526
42.843219287476536 14.6307
42.86713657716324 14.5746
42.89105582671383 14.5631
42.91516392983864 14.5668
42.939087119032166 14.5246
42.963012272677304 14.5
42.98693939230129 14.5003
43.01105543317513 14.4087
43.034986504731386 14.4356
43.05891954686589 14.3559
43.08285456110972 14.3561
43.10697856448665 14.2983
43.130917542983475 14.3542
43.15485849820081 14.3452
43.17880143167367 14.2735
43.20293342237094 14.2323
43.226880332449 14.1865
43.25082922540554 14.2453
43.27496722682525 14.1918
43.29892010567796 14.1197
43.32287497204102 14.1306
43.34683182745632 14.0815
43.370977859791836 14.0331
43.39493871351105 14.0694
43.41890156092628 14.0524
43.44286640358341 13.9729
43.46702049182749 14.0025
43.49098934522816 13.995999999999999
43.51496019852649 13.9165
43.5389330532723 13.9025
43.56309522248204 13.8909
43.58707210044314 13.8356
43.61105098451946 13.7923
43.63503187626491 13.808
43.659202151562134 13.8083
43.68318707902681 13.7897
43.70717401884041 13.7303
43.731162972560874 13.6965
43.75534137913236 13.6842
43.779334381108384 13.6353
43.803329401683186 13.6589
43.82732644241872 13.5918
43.8515130055166 13.6012
43.87551410707659 13.5564
43.89951723350145 13.5655
43.923709934595614 13.5665
43.94771713129917 13.4982
43.97172635758096 13.4827
43.99573761501002 13.4358
44.0199385169922 13.4436
44.04395385732619 13.4376
44.067971233533086 13.4026
44.09199064718605 13.3998
44.11619977548961 13.357999999999999
44.14022328470671 13.3465
44.16424883610785 13.3137
44.18827643127035 13.3006
44.21249381139513 13.2636
44.236525514814076 13.1837
44.26055926674478 13.2256
44.28459506876863 13.2388
44.3088207262813 13.1715
44.33286064928722 13.1527
44.35690262714919 13.0978
44.38094666145278 13.0884
44.4051806219871 13.067
44.42922879003185 13.0221
44.45327901929361 13.0151
44.477331311362136 12.9965
44.501573600619416 12.9971
44.525630039221795 12.956
44.54968854541895 12.9296
44.573937102200176 12.9064
44.5979997645541 12.902999999999999
44.622064499300315 12.8362
44.64613130803592 12.8687
44.67038823869318 12.8102
44.69445921643748 12.845999999999998
44.718532272981385 12.7708
44.742607409926194 12.7583
44.76687274034801 12.7523
44.79095205918753 12.7102
44.81503346325094 12.6909
44.839116954143876 12.6855
44.86339071028742 12.6453
44.88747839599524 12.5934
44.91156817336837 12.538
44.93566004401666 12.5636
44.959942251908146 12.562999999999999
44.984038330325966 12.5428
45.00813650686762 12.4968
45.03223678314731 12.4988
45.05652746888232 12.4939
45.08063196592069 12.432
45.104738567558705 12.3498
45.128847275414856 12.4102
45.15314646515866 12.3374
45.17725940679741 12.3517
45.20137445952892 12.352
45.22568004865265 12.2867
45.24979934496396 12.2815
45.27392075725247 12.2824
45.29804428714431 12.2734
45.322358426247604 12.2375
45.346486212804315 12.2365
45.370616121861914 12.2197
45.39474815505086 12.1667
45.41907087049246 12.1121
45.4432071734666 12.1008
45.46734560548283 12.1372
45.49148616817604 12.1297
45.51581748638564 12.0661
45.5399623320197 12.0601
45.56410931325473 11.972000000000001
45.58825843173002 12.0022
45.61259837920865 11.9298
45.636751793816 11.9407
45.66090735060093 11.9366
45.68506505120716 11.9567
45.7094136545275 11.8581
45.73357566449271 11.8494
45.75773982322992 11.8286
45.78190613238733 11.807
45.806263418194064 11.7466
45.83043404997326 11.8314
45.85460683713677 11.7632
45.87897065658495 11.7359
45.90314777634752 11.6928
45.92732705646868 11.7026
45.9515084986045 11.6553
45.97588104735473 11.6609
46.00006683541565 11.6475
46.02425479047904 11.6144
46.04844491420549 11.6031
46.0728262191024 11.5361
46.09702070211635 11.5174
46.12121735879483 11.5215
46.14541619080294 11.5195
46.169806278764455 11.5253
46.194009483459034 11.4988
46.21821486849841 11.4364
46.24242243555223 11.3944
46.266821333570014 11.373
46.29103328674601 11.3513
46.31524742696538 11.3801
46.33946375590237 11.3052
46.36387149104216 11.3292
46.38809221957392 11.2613
46.41231514186606 11.3137
46.436540259597464 11.2309
46.460956858999374 11.2637
46.48518638983522 11.2191
46.509418121166966 11.1632
46.533652054678114 11.1545
46.55807754555709 11.1454
46.58231590571962 11.1432
46.60655647313217 11.0939
46.630988654873654 11.0684
46.655233659129024 11.0599
46.67948087571551 11.0732
46.70373030632484 11.0499
46.72817142736393 11.0189
46.752425308428684 10.9611
46.77668140861147 10.9577
46.80093972960865 10.9092
46.82538981736788 10.8985
46.849652602470904 10.8662
46.87391761349769 10.8945
46.8981848521493 10.8736
46.9226439341274 10.8451
46.946915650573224 10.8326
46.97118959976749 10.7856
46.99546578341598 10.7904
47.019933887188216 10.7886
47.04421456235744 10.7513
47.06849747711879 10.7362
47.09278263318286 10.673
47.11725978640143 10.6498
47.14154944775105 10.6508
47.165841355555656 10.6609
47.1901355115306 10.6153
47.214621741924994 10.6153
47.23892041698887 10.6029
47.26322134538975 10.5999
47.28771440635075 10.5386
47.31201986422527 10.5159
47.33632758061436 10.4901
47.360637557241866 10.4953
47.38513974410611 10.4758
47.40945426407847 10.4291
47.43377104948137 10.4792
47.45809010204344 10.4502
47.48260144275502 10.3739
47.506925052572285 10.3528
47.53125093475548 10.3459
47.55557909103813 10.3405
47.58009961361992 10.3169
47.60443234110732 10.311
47.62876734791564 10.3174
47.65310463578333 10.2661
47.6776343683373 10.2495
47.7019762413987 10.2278
47.72632040075572 10.2349
47.75066684815169 10.2021
47.77520581885936 10.1811
47.799556865477655 10.1191
47.823910205386 10.1265
47.84826584033272 10.1251
47.87281407745551 10.0868
47.89717432569297 10.0718
47.92153687423484 10.0655
47.94609208429692 10.076
47.97045925671401 10.0411
47.99482873471275 10.0112
48.01920052005013 9.99082
48.04376504619224 9.95247
48.068141469543484 9.9755
48.09252020552573 9.95885
48.11690125590099 9.91478
48.1414751266064 9.8897
48.16586082917454 9.89362
48.19024885144316 9.8374
48.2146391951793 9.83447
48.239222439012764 9.84833
48.26361744916137 9.81022
48.28801478610016 9.79647
48.31241445160131 9.782760000000001
48.337007097209366 9.773610000000001
48.36141144338331 9.734210000000001
48.38581812345755 9.670760000000001
48.41022713920929 9.72971
48.434829215320704 9.7052
48.45924292604658 9.66918
48.48365897780325 9.680710000000001
48.50807737237308 9.63782
48.532688907799276 9.61845
48.55711201168574 9.59565
48.581537463754074 9.60525
48.60615611725119 9.56016
48.63058628942721 9.60192
48.65501881516546 9.519110000000001
48.6794536962573 9.55897
48.70408185970339 9.516869999999999
48.72852147531801 9.470930000000001
48.75296345168211 9.43947
48.77740779059232 9.44869
48.80204549302823 9.45768
48.82649458091802 9.43731
48.85094603676547 9.38345
48.87539986237231 9.35742
48.90004713292306 9.31047
48.92450572200832 9.35942
48.94896668628025 9.330160000000001
48.97343002754588 9.31222
48.99808689542115 9.27206
49.02255501470614 9.31113
49.04702551642794 9.241480000000001
49.0714984023988 9.22776
49.096164896893235 9.22221
49.120642575466796 9.18576
49.145122643748394 9.18547
49.16960510355558 9.158389999999999
49.19428125404938 9.14312
49.2187685210852 9.14759
49.243258185121555 9.11694
49.26794160167084 9.08645
49.2924360839405 9.06908
49.31693296869764 9.06306
49.34143225776915 9.02256
49.36612538195438 8.98599
49.39062950396021 9.04693
49.41513603578346 8.9884
49.4396449792564 8.971110000000001
49.46434784069503 8.972480000000001
49.488861631846454 8.94197
49.513377840166804 8.945739999999999
49.537896467493745 8.917910000000001
49.56260909589029 8.851389999999999
49.587132585683285 8.88619
49.611658500018365 8.83863
49.636186840738596 8.878639999999999
49.66090926588511 8.840530000000001
49.685442483902584 8.84527
49.70997813385706 8.76437
49.734516217597076 8.73483
49.75924846937352 8.779860000000001
49.7837914452858 8.7701
49.80833686055187 8.726510000000001
49.83288471702571 8.698260000000001
49.85762682540054 8.671330000000001
49.882179588965734 8.645380000000001
49.9067347993235 8.65348
49.93129245833333 8.635010000000001
49.95604445336378 8.60698
49.98060703442832 8.61722
50.005172069746266 8.60086
50.02993150438364 8.60318
50.05450147301533 8.53843
50.07907390151433 8.49536
50.10364879174981 8.50208
50.12841816587289 8.49311
50.1529980044635 8.47176
50.17758031042124 8.457130000000001
50.20216508562089 8.47764
50.22694442953363 8.44475
50.25153416817468 8.43449
50.27612638170508 8.39702
50.300721072005196 8.379719999999999
50.325510416102105 8.36852
50.350110084975064 8.33341
50.37471223628208 8.346789999999999
50.39931687190919 8.31846
50.424116246675766 8.29927
50.44872587605249 8.30543
50.47333799543065 8.2917
50.49795260670191 8.25815
50.52276204271512 8.2248
50.54738166295838 8.20478
50.57200378079314 8.20041
50.596628398116835 8.147
50.62144792604559 8.16975
50.646077567609396 8.15842
50.670709714377715 8.16954
50.69553683636198 8.107510000000001
50.72017401885922 8.13304
50.7448137122895 8.1064
50.76945591856022 8.09048
50.79429318636823 8.09254
50.818940443716784 8.05418
50.84359021965163 8.06855
50.868242516085964 8.012139999999999
50.893089960641895 7.95448
50.917747323549435 8.0016
50.94240721271973 8.00741
50.96706963007175 7.961810000000001
50.99192728239342 7.93955
51.01659478166073 7.93693
51.04126481489051 7.9378
51.06593738400761 7.91833
51.090805275207074 7.9027199999999995
51.11548294172845 7.87493
51.14016314993547 7.8277600000000005
51.164845901758845 7.8401
51.18972406304274 7.82084
51.21441192780656 7.82897
51.23910234200271 7.80075
51.2637953075678 7.7266
51.288683770237945 7.7320899999999995
51.31338186432707 7.72624
51.33808251561888 7.70136
51.362978729967345 7.7135
51.387684521509755 7.694389999999999
51.41239287610203 7.671189999999999
51.437103795691165 7.68377
51.46201036644977 7.6413
51.486726441956634 7.609960000000001
51.51144508832545 7.63152
51.536166307509156 7.58304
51.56108326624387 7.564210000000001
51.58580965706056 7.58173
51.61053862657523 7.577160000000001
51.635270176746864 7.542000000000001
51.66019755512065 7.52445
51.68493429268881 7.520810000000001
51.70967361681515 7.47881
51.73441552946465 7.47417
51.759353359237934 7.47277
51.7841004750961 7.454460000000001
51.80885018539685 7.45003
51.833602492111254 7.41069
51.8585508051424 7.36337
51.883308330926425 7.38865
51.90806845906181 7.3567100000000005
51.932831191525715 7.31169
51.95779001977161 7.341889999999999
51.98255798721516 7.32315
52.00732856494335 7.28912
52.03229530577543 7.26279
52.057071130455945 7.27751
52.081849571391054 7.271489999999999
52.106630630568695 7.25972
52.13160794279417 7.241160000000001
52.15639426492067 7.2382100000000005
52.18118321127822 7.1952
52.205974783860896 7.19543
52.23096269971011 7.156280000000001
52.255759551287994 7.17157
52.280559035098186 7.1079300000000005
52.30536115314103 7.087960000000001
52.33035970494467 7.102310000000001
52.35516711807904 7.11411
52.37997717147198 7.09437
52.40478986713005 7.10087
52.42979908731974 7.0726
52.454617094216 7.009469999999999
52.47943774942214 6.985010000000001
52.50426105495102 7.0063
52.529280976059844 6.9905800000000005
52.554109609024096 6.982310000000001
52.57894089837482 6.93849
52.60377484613117 6.9496
52.62880550079408 6.97007
52.65364479223379 6.909560000000001
52.67848674816189 6.884060000000001
52.70352547971946 6.86009
52.72837279155837 6.857530000000001
52.753222773982785 6.8466
52.778075429022984 6.846889999999999
52.80312495150885 6.83373
52.827982978797436 6.8139899999999995
52.85284368481815 6.73694
52.87770707160767 6.763510000000001
52.90276741793998 6.788289999999999
52.92763619336701 6.75455
52.952507655698504 6.7140699999999995
52.977381806977576 6.7321100000000005
53.00245301017842 6.739739999999999
53.02733256653592 6.69715
53.052214817996074 6.7323699999999995
53.077099766608484 6.680339999999999
53.102181859804446 6.6862699999999995
53.127072229988265 6.6895
53.15196530349892 6.6165899999999995
53.17686108239249 6.6043
53.20195409881522 6.58857
53.22685531582556 6.62465
53.25175924441303 6.59158
53.27666588664027 6.56648
53.30176985962693 6.51828
53.3266819565689 6.528980000000001
53.35159677336455 6.5243199999999995
53.376514312083096 6.52039
53.40162927507703 6.45603
53.42655228516116 6.45292
53.45147802340193 6.4351400000000005
53.47660125628886 6.47361
53.50153247842639 6.45
53.52646643496923 6.4291599999999995
53.55140312799818 6.40787
53.576537409691696 6.40027
53.60147960336152 6.377000000000001
53.626424539786164 6.374630000000001
53.65137222105307 6.334230000000001
53.67651758529126 6.3695
53.70147078399681 6.34026
53.72642673383343 6.35588
53.75138543689533 6.30685
53.776541917524526 6.33007
53.801506154876755 6.28395
53.826473151763246 6.27586
53.851442910284916 6.25088
53.87661054126026 6.22011
53.9015858509782 6.18998
53.92656392866066 6.18807
53.95154477641532 6.20864
53.976723591801296 6.15532
54.00171000771266 6.1877
54.02669920004598 6.15471
54.051691170915745 6.07662
54.076881204886796 6.13171
54.101878760928514 6.12669
54.12687910187696 6.05016
54.152077577768296 6.0812800000000005
54.1770835166946 6.067159999999999
54.20209224691339 6.05474
54.22710377055121 6.0304199999999994
54.25231352511594 6.03466
54.27733066384342 5.96801
54.30235060239643 6.00068
54.32737334290836 5.93281
54.35259441062629 5.91496
54.377622783395324 5.93714
54.40265396455061 5.94546
54.42768795623251 5.91102
54.45292037169559 5.89918
54.477960012857906 5.8589400000000005
54.50300247099511 5.84466
54.52804774825457 5.84018
54.55329154616743 5.7997
54.57834249018678 5.79645
54.6033962597977 5.77589
54.6284528571545 5.76079
54.653708072335164 5.72616
54.67877035378786 5.69874
54.70383546947698 5.66787
54.72890342156389 5.64236
54.7541700889442 5.63351
54.77924374251975 5.615559999999999
54.8043202390049 5.5854800000000004
54.82959552413022 5.590269999999999
54.8546777351945 5.5694
54.87976279569621 5.52022
54.90485070780914 5.54314
54.930137506558005 5.53937
54.95523115074295 5.53921
54.98032765308844 5.49611
55.005427015775496 5.44405
55.03072536339621 5.502269999999999
55.05583047570572 5.43266
55.080938454927676 5.43424
55.10604930325027 5.37326
55.131359235107396 5.39119
55.15647585066083 5.31655
55.181595341907496 5.32519
55.20671771104285 5.3204199999999995
55.232039262617704 5.27329
55.25716741665048 5.27453
55.28229845518636 5.252330000000001
55.30743238042802 5.21267
55.33276558731939 5.14727
55.357905315183636 5.139419999999999
55.383047936390035 5.14205
55.40819345314859 5.102609999999999
55.433538351073295 5.092
55.458689688238415 5.0777
55.483843927614096 5.07222
55.509197623043605 5.04261
55.53435769621134 4.99642
55.55952067826466 4.96706
55.5846865714265 4.92846
55.61005202069737 4.88721
55.63522376553902 4.91339
55.66039842818645 4.84639
55.68557601087004 4.8554699999999995
55.7109532500271 4.7964400000000005
55.73613670233794 4.82987
