TT I
1.2716486653135266 7.2675
1.2939594142134223 7.366680000000001
1.3162702121660406 6.72036
1.3385810600174564 6.27623
1.3608919586137629 5.7382800000000005
1.383202908801069 6.12057
1.405513911425503 5.91475
1.4278249673332093 6.28679
1.4501343378461518 5.960369999999999
1.4724455028545926 5.779780000000001
1.4947567236847858 5.462219999999999
1.517068001182951 5.53368
1.5393793361953272 5.7567900000000005
1.5616907295681737 5.7133
1.5840021821477681 5.21443
1.60631369478041 4.63826
1.6286252683124185 5.59911
1.6509369035901333 4.73637
1.6732468618895553 5.1189
1.695558623192809 4.59459
1.7178704487808514 5.74482
1.7401823395001077 5.31769
1.7625012545597203 4.70078
1.7848028405262486 4.7205900000000005
1.8071218901122095 4.70814
1.8294236121921872 4.3491599999999995
1.8517427996910911 4.47771
1.8740620574440425 4.96099
1.8963639900671978 5.08705
1.9186833908139995 4.580769999999999
1.9409854680117449 4.59566
1.9633050151394713 4.6718
1.9856246367570705 4.6353800000000005
2.0079269371922672 4.79234
2.03024671027244 4.55962
2.0525491637446027 4.58044
2.074869091674931 4.38079
2.097171701569106 4.62309
2.1194917877373847 5.06191
2.141811954326636 4.78444
2.164114805233074 4.92345
2.186435135143035 6.6835
2.208738150935709 16.0215
2.231058647554722 34.3202
2.2533792288321184 26.243000000000002
2.275682498336085 11.6933
2.298003251406138 6.703539999999999
2.3203066942619714 5.8068599999999995
2.3426276225136022 5.59155
2.3649486396617507 5.67462
2.387252348930071 6.54263
2.4095735463442893 6.09629
2.4318774374315884 6.64055
2.4541988185014043 6.86221
2.476502894794693 7.4342
2.498824462909887 7.121589999999999
2.521146125856138 7.58621
2.5434504863470337 7.3863199999999996
2.5657723414244717 7.5405
2.588076895590662 8.253
2.610398946189713 8.93339
2.6327210958598384 8.0893
2.6550259469304716 7.624560000000001
2.6773482972090137 8.25805
2.6996533504259 7.923660000000001
2.7219759047039602 8.26334
2.744298562293959 8.72644
2.7666039251246595 8.66461
2.7889267918020164 8.71904
2.8112323652516555 8.39625
2.833555444408179 8.30452
2.8558786311183852 8.4782
2.8781845268938557 8.68684
2.9005079311721484 9.0259
2.9228140460410397 9.32784
2.9451376712799635 9.53726
2.967444008632326 9.06146
2.9897678582247247 9.98823
3.0120918213106695 10.8387
3.0343984987899373 11.151
3.0567226913198637 11.1338
3.079029599759726 11.8679
3.101354025127254 12.7027
3.123678568232338 14.0288
3.145985829517914 13.5821
3.16831061055229 13.8544
3.1906181112775593 14.4123
3.212943133635653 14.9566
3.2352682779763207 14.7677
3.2575761442691227 15.3025
3.2799015350264273 15.8002
3.302209649240067 16.2988
3.3245352898092655 16.7285
3.3468436553365257 16.9382
3.369169549113219 17.5513
3.3914955708171384 18.5373
3.413804319727358 19.0881
3.4361305997334863 19.3832
3.4584396084414553 19.3151
3.4807661501462652 20.1832
3.503092824025881 20.9274
3.5254022288463154 21.1696
3.5477291695206588 22.0212
3.5700388426251948 22.4495
3.5923660534916446 24.1511
3.6146934007816114 42.1352
3.637003482731501 103.87899999999999
3.6593311053109985 118.088
3.681641464033634 66.2407
3.7039693653009733 32.7131
3.726297407241705 26.8867
3.7486081875460804 25.885
3.7709365132734978 26.1631
3.793247578841633 26.3595
3.8155761917550093 26.2379
3.8378875459837216 26.8844
3.8602164494827234 27.4418
3.882545499606844 28.1679
3.9048572932539183 28.6678
3.9271866390645718 29.2054
3.9494987298666713 29.7677
3.971828374764527 30.5786
3.9941581705403255 30.6037
4.016470713506008 30.9604
4.038800813471445 31.7981
4.061113662089144 32.6697
4.0834440696459176 33.518
4.105774632334751 34.5322
4.128087945865126 34.7271
4.150418821249301 35.181
4.172732448931298 37.08
4.195063640413578 38.9246
4.2173775856475215 42.9052
4.239709096631102 79.8582
4.262040768704612 282.43
4.284355196706267 395.93699999999995
4.306687193387355 255.11
4.329001947444346 92.3351
4.35133427213731 49.4481
4.373666762177566 44.6038
4.395982011761091 44.2219
4.418314834921175 45.533
4.44063041906622 54.835
4.4629635787515625 68.4557
4.4852969080429785 68.872
4.5076130004776225 55.2141
4.529946671403969 49.732
4.552263106909177 49.343
4.574597122877047 51.0655
4.596931312711224 51.6577
4.619248269273446 52.2096
4.6415828092605835 53.3211
4.663900117405352 54.1953
4.686235010953232 55.7294
4.708552674085913 56.8432
4.730887924602802 58.4008
4.753223354952695 60.1113
4.775541557023902 61.51
4.797877349456786 62.2988
4.820195915032126 64.516
4.842532072957498 65.6286
4.864868414979744 67.9563
4.88718753227192 70.1084
4.909524244902505 71.4748
4.931843734218147 73.4653
4.954180820867835 75.661
4.976518095879839 78.3278
4.998838149695359 81.529
5.021175803844231 84.9137
5.043496238205739 87.5759
5.065834274903528 91.5058
5.088172504230693 95.9726
5.1104935158799565 101.589
5.132832132875765 123.932
5.155153533596801 172.905
5.1774925416746225 205.706
5.199814334878411 283.403
5.2221537374521505 754.315
5.244493338631803 2331.91
5.266815727034316 7478.17
5.289155727832427 13348.8
5.311478517248165 9530.68
5.333818921080011 2897.51
5.356159527788849 525.877
5.3784829252032536 176.84799999999998
5.400823940070432 138.855
5.423147747031976 124.35799999999999
5.445489173474152 115.619
5.467830807066149 110.34200000000001
5.490155234831516 106.02799999999999
5.512497285125229 102.66
5.534822130975162 101.31200000000001
5.557164601388673 99.4851
5.579489868738879 96.3657
5.601832762690846 96.1861
5.6241758697774475 95.6636
5.646501775867269 94.4287
5.668845311622074 92.9844
5.691171647754637 91.8351
5.713515615597765 90.7121
5.735859800852677 89.9737
5.758186788542988 89.5042
5.780531411018185 89.2017
5.802858837297399 88.6676
5.825203900414495 88.2176
5.8475491852224 88.6486
5.869877275883075 88.8705
5.892223006467101 89.8321
5.914551544266608 90.4061
5.936897724049891 92.0884
5.959244129804903 96.2747
5.981573344815301 107.411
6.0039202049061 165.503
6.026249875609095 352.58
6.04859719346037 806.102
6.070927323278297 1984.06
6.093275102315365 4353.24
6.115623113320588 5288.72
6.137953938319995 3204.58
6.160302415650845 905.1389999999999
6.182633708324452 224.261
6.2049826554078376 111.28399999999999
6.227331838745022 89.8934
6.249663839443684 83.2572
6.27201349767565 81.1464
6.294345974611799 89.6484
6.316696111167083 104.945
6.339046488263839 99.2954
6.361379686074702 80.9766
6.383730546639482 71.2457
6.406064229255215 68.038
6.428415576718203 67.2273
6.450749747566656 66.5522
6.47310158535871 65.4414
6.495453669698332 64.0692
6.517788579421056 63.7174
6.540141159237969 62.9458
6.562476565766648 62.8525
6.5848296444934045 62.1535
6.607182974060425 61.577
6.6295191323281015 62.2823
6.651872965955752 66.4653
6.6742096296068985 98.0045
6.6965639707294615 156.434
6.71891856698715 158.264
6.741255995248479 103.709
6.763611104154477 70.2561
6.785949046381137 60.4055
6.808304671371482 57.6397
6.8306605557940046 57.4065
6.852999275508618 56.6774
6.875355681171544 56.1385
6.897694923437771 56.1558
6.92005185377892 55.9776
6.9423916220322655 55.9906
6.964749080490181 55.5096
6.987106804399774 55.2457
7.009447368180821 55.2619
7.031805625367033 54.7277
7.054146723727803 54.61600000000001
7.076505517631004 54.806000000000004
7.098864581288365 54.7165
7.121206488070854 54.3538
7.143566093607822 54.0288
7.165908543567245 54.6428
7.188268694426048 54.8997
7.2106291193438095 55.1778
7.232972390625943 56.8236
7.255333366030969 72.1712
7.277677189091925 137.475
7.300038718428332 201.28099999999998
7.322400526130865 167.101
7.344745183422596 98.3536
7.367107550224791 63.75899999999999
7.389452767901992 56.4765
7.411815697249891 55.1572
7.434161478756298 53.85
7.456524974096713 53.742
7.478888753837185 53.9005
7.501235387657368 54.4625
7.523599738562711 54.3748
7.545946944825532 54.24100000000001
7.568311870344528 54.6676
7.5906770845765665 55.0701
7.613025156078678 56.7498
7.635390950099687 58.1405
7.657739602662809 57.4312
7.680105979923558 56.1058
7.702472650212829 55.8115
7.724822180948224 55.0114
7.747189439655568 55.4904
7.769539560075357 55.4849
7.791907410653562 55.7009
7.81425812420825 55.8727
7.836626570110925 56.0694
7.858995315087906 56.9489
7.881346924933401 56.8133
7.903716270417482 57.3549
7.926068482028405 57.7701
7.948438431475253 58.3272
7.9708086843180235 58.6427
7.993161805171116 59.0907
8.015532667162402 59.776
8.037886398416653 61.2276
8.060257873014221 61.1708
8.082629655331942 61.5036
8.104984308787587 62.6511
8.127356708900503 66.415
8.149711981398308 73.2405
8.172085002766314 76.4102
8.194458336181368 72.3973
8.216814543847752 68.3758
8.23918850371002 67.9554
8.26154533906492 68.97
8.283919928836452 70.2794
8.306277395339652 71.1175
8.328652618483376 72.4586
8.351028159736202 74.4471
8.373386579575245 76.5203
8.395762759396959 78.1247
8.418121819038275 83.5222
8.440498640894003 98.1829
8.462875785192262 113.867
8.485235811156207 120.711
8.507613602688501 141.91899999999998
8.529974277114228 208.60299999999998
8.552352719347912 323.597
8.574731488360351 557.92
8.59709314210385 1103.57
8.619472567021075 1865.57
8.64183487789147 2297.72
8.664214962183097 1839.55
8.686577933647762 983.578
8.708958680784317 367.51599999999996
8.731339760774953 160.52700000000002
8.753703729764451 108.363
8.77608547780821 96.8678
8.798450116065078 93.2827
8.820832535634787 90.3215
8.843215292401656 88.5601
8.865580941199045 87.3263
8.887964374703538 86.8406
8.910330701447199 88.5545
8.932714815164482 91.6724
8.955099270424924 91.0347
8.977466620733543 87.428
8.999851761421976 83.9938
9.022219798361645 82.0489
9.04460562795561 81.65100000000001
9.066991803441677 81.5142
9.089360876979615 81.3926
9.111747746589993 80.6053
9.13411751544971 80.3005
9.156505082664324 80.0615
9.178875550323522 80.6277
9.20126381862328 80.9757
9.223652438908596 81.5288
9.246023961427412 80.9894
9.26841328802173 80.4805
9.290785518039224 80.1689
9.313175554425882 81.0343
9.335565947154315 80.7003
9.357939245086508 80.6654
9.380330352834827 80.7601
9.40270436697103 81.0962
9.425096193225055 81.3568
9.447488380180165 82.3343
9.469863475295412 82.5799
9.492256385987508 82.9092
9.514632206018318 83.5623
9.537025843935714 83.6607
9.559402392368193 84.1152
9.581796761000229 85.3642
9.604191496441521 86.5098
9.626569144158516 90.5726
9.648964615551032 95.9585
9.671343000390081 98.3412
9.693739211225699 95.3551
9.716135793237463 92.0744
9.738515290448102 91.0351
9.760912617143402 92.1422
9.783292860202891 93.1627
9.805690935076182 93.9869
9.828089385495742 95.1152
9.850470754023561 97.79
9.872869957865444 106.236
9.89525208097539 124.542
9.917652041736662 139.513
9.940052382417589 137.50799999999998
9.962435644102392 133.437
9.984836746950979 152.953
10.007220771957746 204.27200000000002
10.029622640473708 290.497
10.052007432299963 451.475
10.074410069984072 734.9989999999999
10.096813093716005 1217.08
10.119199042482517 1788.85
10.141602840636468 2068.44
10.163989564971628 1620.38
10.186394141051062 906.2360000000001
10.208799107559706 395.906
10.231187001965623 180.356
10.253592751657669 122.056
10.275981430388155 110.95700000000001
10.298387966769793 111.76
10.320794897965431 115.40299999999999
10.343184759907361 114.22200000000001
10.36559248305461 108.06200000000001
10.387983138083852 102.336
10.410391656691655 102.53299999999999
10.432800574501677 110.12
10.455192425893369 123.88600000000001
10.47760214443012 145.279
10.499994797678786 182.856
10.522405320453982 262.211
10.54479877906917 389.565
10.567210109595656 521.178
10.5896218454736 586.4730000000001
10.612016518879773 509.9
10.634429067781074 338.93300000000005
10.656824555333241 194.40200000000002
10.679237920773568 121.146
10.701651695961992 94.6339
10.724048411481384 87.4718
10.746463008485165 84.8366
10.768860546937125 83.2719
10.791275969274796 81.5417
10.81369180576079 80.6135
10.836090585366925 79.2773
10.858507252467449 78.2123
10.88090686379991 77.3847
10.903324365036394 77.2028
10.925724811614439 77.5606
10.948143150509463 78.7113
10.970561909719066 78.0586
10.992963615930844 76.0993
11.015383218085756 73.7413
11.037785768347074 71.8508
11.06020621697282 71.3485
11.082627090322113 71.1085
11.105030913430326 70.6574
11.12745263854165 71.5456
11.149857314510728 75.7523
11.172279894912576 83.4645
11.194702904450653 85.01100000000001
11.217108866490921 80.1372
11.239532736615194 74.5505
11.26193956033512 71.8008
11.284364294577085 70.0251
11.306789462371718 67.3542
11.329197585398376 66.3453
11.351623622610898 66.0205
11.37403261614354 65.1098
11.396459526308487 65.0289
11.418869393879497 64.5273
11.441297180532617 64.1514
11.463725406927658 64.221
11.486136592353875 64.0069
11.508565700543707 64.4995
11.530977768845315 66.9208
11.553407762368774 68.1081
11.575838200059769 67.5127
11.598251599479612 65.0964
11.620682927815501 63.0811
11.64309721895548 62.5109
11.665529441478206 61.8179
11.687962112597958 61.964
11.710377748130886 61.9624
11.732811318753434 62.0043
11.755227854859067 62.1423
11.777662328529495 61.7843
11.800079768750786 61.61
11.822515149015453 61.3745
11.844950984084935 61.4588
11.867369787303163 61.2907
11.889806534289491 61.4717
11.912226250487029 61.6505
11.934663912939751 61.8269
11.9571020346363 61.6904
11.979523127133968 61.5973
12.001962169624331 62.1218
12.024384183972964 62.7348
12.046824150809913 64.9403
12.069264581333726 69.2742
12.091687985297767 74.3546
12.11412934550045 82.9384
12.136553680195208 96.6958
12.158995973632788 120.35799999999999
12.181438735204349 153.059
12.20386447284199 190.58
12.226308172985636 216.512
12.24873485024193 208.467
12.271179492516982 169.805
12.293607112949127 128.22799999999998
12.316052700916226 95.4808
12.338498763250042 78.6131
12.360927805303868 70.2279
12.383374818673879 65.7082
12.405804812803074 63.6429
12.428252780773262 63.283
12.45070122756722 63.2236
12.473132656675375 63.0746
12.49558206341869 63.2928
12.518014453510101 63.4945
12.540464823770117 63.4782
12.562915677315177 63.7823
12.58534951575545 64.5213
12.607801338171472 67.1174
12.630236146511358 73.6078
12.652688941369085 79.2833
12.675124723177234 80.0619
12.697578494048786 75.5276
12.720032754458185 69.7168
12.742470003354093 67.2504
12.764925245138771 66.6178
12.787363476431278 66.7462
12.809819703166806 66.862
12.83227642391173 67.8331
12.854716135692716 68.3979
12.877173846755147 69.5236
12.899614549869717 69.4751
12.9220732548287 70.3518
12.94453245827299 70.6663
12.966974655289818 71.3077
12.989434858002571 72.1851
13.011878055298721 72.9001
13.034339260862497 74.0897
13.056800969391883 75.1242
13.079245674017244 77.0001
13.101708390774869 78.3095
13.12415410463411 83.3647
13.146617833206086 92.9276
13.169064559883248 103.031
13.191529303857127 116.26100000000001
13.213994557076367 136.023
13.236442809902437 169.847
13.258909083908291 222.27900000000002
13.28135835851934 292.658
13.30382565690295 374.725
13.326293469022952 432.458
13.348744283242008 437.441
13.371213125129904 365.64
13.39366497011003 259.969
13.416134845360597 170.676
13.438605238843131 121.895
13.46105863690397 101.49700000000001
13.483530069144786 99.7507
13.505984506951902 103.196
13.528456981549432 111.074
13.550929978879088 124.89299999999999
13.573385983253365 146.168
13.595860028340867 183.78099999999998
13.618317081455832 239.646
13.64079217790333 307.19
13.663250283359057 357.765
13.685726434770173 388.655
13.708203115221277 349.592
13.730662806148091 262.27
13.75314054697177 180.86900000000003
13.775601299246777 124.43299999999999
13.798080104050406 94.3637
13.820559442405358 83.3122
13.843021793671388 80.0114
13.865502201420897 78.6349
13.887965623051947 77.7621
13.910447103807167 76.8591
13.932929122629764 75.4492
13.955394156785959 75.253
13.977877254034569 74.4493
14.000343367582113 73.8172
14.022827546871707 72.9969
14.045294743423524 72.0777
14.06778000837062 71.316
14.090265817715476 71.4744
14.112734645763819 71.2919
14.13522154619454 71.1863
14.157691466286913 71.2815
14.180179461423874 71.0814
14.202668005486178 70.234
14.22513957064374 69.6241
14.247629214846473 68.9669
14.270101881097517 68.8569
14.29259262906496 69.4209
14.315083930490205 70.4427
14.337558255389705 70.8594
14.360050666019726 70.0929
14.382526101071944 69.2244
14.405019624534942 68.1348
14.427513705993134 67.3528
14.449990813291825 67.501
14.47248601302899 67.6324
14.49496423954951 67.554
14.517460561197822 67.461
14.539939910570322 67.3664
14.562437357763558 67.8263
14.58493536931253 68.9884
14.607416409993311 70.0282
14.62991555254159 70.9468
14.652397725157423 70.8093
14.674898002342799 70.0116
14.697398848433282 68.9117
14.719882725991326 69.2976
14.74238471217934 69.7752
14.764869730765593 72.0977
14.787372860692983 74.5955
14.809876564079925 78.712
14.83236330125751 83.3857
14.854868153850365 91.1306
14.877356041159485 103.838
14.899862046604186 121.574
14.922351087688757 148.039
14.944858249632887 181.97299999999998
14.967365991421232 214.643
14.989856770231246 231.98
15.012365673994204 222.408
15.03485761569738 187.953
15.05736768508665 146.322
15.07987833888692 110.65899999999999
15.102372032001655 88.1758
15.124883856909658 75.6053
15.14737872204565 70.8804
15.169891721717274 69.0848
15.192405310371893 69.1652
15.214901940621196 69.7974
15.237416709527137 70.2189
15.259914520936249 70.5995
15.282430473753607 69.5199
15.304947020131227 68.1776
15.327446610371178 67.0897
15.349964346154254 65.9489
15.372465126703139 65.4382
15.394984055556009 65.2992
15.417486030076159 65.0968
15.44000615566487 64.7206
15.462526881230803 64.6642
15.485030653812652 65.0758
15.507552581617434 65.2789
15.530057557334603 65.0636
15.55258069104857 65.0151
15.575104429329837 65.0936
15.597611216864632 64.5266
15.620136166564563 64.5123
15.6426441664095 64.665
15.665170331202765 66.2928
15.687697105158826 68.8058
15.710206930593545 71.8375
15.732734925158933 75.4037
15.755245972089478 80.9121
15.77777519094324 89.5074
15.800287463046663 101.27600000000001
15.822817909869592 120.70100000000001
15.84534897229804 145.327
15.867863089299354 170.783
15.890395385222186 192.03
15.912910736597423 200.425
15.935444269699861 185.868
15.957978423016485 156.455
15.980495633101265 120.36
16.003031029129367 93.1184
16.02554948280019 74.8425
16.048086125229432 66.5553
16.070623392487107 64.4325
16.09314371869582 64.0037
16.11568223789321 63.1518
16.13820381691126 62.0764
16.160743591742527 60.8125
16.183283996022084 59.6379
16.205807461423195 58.696999999999996
16.228349126881973 57.8829
16.25087385432698 57.7652
16.27341678466365 57.3998
16.29594277784926 57.3143
16.31848697676433 57.8281
16.341031811604868 58.1675
16.36355971058487 58.7882
16.3861058195587 58.6275
16.40863499352978 57.3311
16.431182380342005 56.0127
16.453730407713202 55.2605
16.476261501364792 54.91
16.498810812136167 54.5611
16.52134319004079 54.473
16.54389378792203 54.4236
16.566445031001553 54.3862
16.588979342490088 54.2247
16.61153187824822 54.0881
16.634067483263312 53.9704
16.656621315414416 53.9603
16.679175797408888 53.6274
16.701713349928728 53.6287
16.72426913389191 53.8476
16.74680798922351 53.9435
16.76936507887444 54.0559
16.791905240734874 54.2165
16.814463639794468 53.9613
16.837022695210294 53.9915
16.859564824093756 54.43899999999999
16.882125194503903 55.263000000000005
16.904668639217885 56.0206
16.927230328348003 56.3176
16.949792678493612 56.3918
16.972338104193863 55.6378
16.994901778652235 54.9981
17.017448529496576 54.593
17.040013531998152 54.6631
17.06257920018044 54.7903
17.0851279459922 55.5246
17.107694947817667 56.352
17.130245028099072 56.9975
17.15281336730298 58.1079
17.17536478578733 59.7354
17.19793446610687 61.7017
17.220504818648422 64.5779
17.243058251703697 67.9773
17.265629950971032 72.9446
17.288184731571736 78.3727
17.310757781306908 83.0579
17.33333150794385 83.3604
17.355888317140174 81.4152
17.37846339986244 76.0334
17.401021565958885 68.9758
17.42359800851343 63.6057
17.44617513265564 60.4132
17.468735341390783 58.5876
17.491261035594565 57.8359
17.51396340099364 57.9021
17.536490463869136 58.1573
17.559018209820174 57.9069
17.58154663977963 58.1136
17.604251766089718 58.3449
17.626781572227713 58.4551
17.64931206518155 58.7935
17.671843245885103 59.2872
17.69455114821572 59.5777
17.717083712612634 59.6375
17.739616967569667 59.8952
17.762150914021706 60.0591
17.78486160749854 60.049
17.807396945166804 60.3173
17.829932977143503 60.8716
17.85246970436452 62.214
17.875183204129467 63.8842
17.897721330097664 65.6852
17.920260154126645 67.7361
17.942799677153296 70.2411
17.9655159983646 73.5088
17.988056927677544 78.7144
18.010598558807683 86.0298
18.033140892692916 96.3728
18.05586005052525 108.59299999999999
18.07840379824407 121.704
18.10094825154059 132.836
18.12366954819864 140.44299999999998
18.146215420998306 139.07
18.16876200220057 129.375
18.191309292745153 113.585
18.214033452627167 99.7448
18.236582170236648 88.8543
18.259131600016456 83.4691
18.281681742907335 83.7012
18.304408781233683 88.527
18.32696035875955 94.385
18.349512652227624 100.369
18.372065662579683 105.41
18.394795594587553 107.28299999999999
18.41735004715306 102.941
18.43990521943684 95.4008
18.46246111238171 85.5915
18.485193953325208 75.6714
18.507751296070428 68.702
18.530309362314178 64.7313
18.552868153000343 62.3988
18.57560391815056 61.165
18.59816416623245 60.6592
18.620725141597372 60.1488
18.643286845190268 59.8494
18.666025549835414 59.4556
18.688588718427933 58.7913
18.711152618092243 58.6164
18.73389353884365 58.3189
18.75645890921984 57.9056
18.77902501351406 57.4694
18.801591852673102 57.5089
18.824335739722738 57.0171
18.846904057212626 57.1053
18.8694731124168 56.8457
18.89204290628315 56.6675
18.914789774966803 56.5383
18.937361054791623 56.3177
18.959933076131318 56.0589
18.982505839934877 55.8937
19.00525570560582 56.2617
19.027829963004184 56.0144
19.05040496572238 55.9721
19.072980714710468 55.8407
19.095733592739563 55.761
19.11831084296757 56.1091
19.140888842324735 56.7788
19.16346759176222 56.9643
19.18622349753803 57.5693
19.208803755869358 58.2847
19.231384767143577 59.2
19.253966532312948 60.4905
19.276725481241822 62.4159
19.29930876296784 65.0993
19.3218928014549 68.5405
19.34465404436217 72.2037
19.36723960516257 75.4024
19.389825925592426 76.8349
19.412413006605938 75.5433
19.43517731967805 71.4033
19.457765930683355 66.5265
19.48035530514408 61.9433
19.50294544401556 58.2708
19.525712842708348 55.6305
19.54830451925909 54.2057
19.570896963095727 53.2976
19.593490175174704 52.8318
19.616260674962184 53.016000000000005
19.638855432416964 52.8175
19.661450960992624 52.7254
19.68404726164677 52.4684
19.706820878021247 52.4361
19.729418731756834 52.5321
19.752017360452857 52.2927
19.77461676506804 52.4642
19.797393513540218 52.5161
19.819994478951667 52.6913
19.84259622316767 53.2639
19.8651987471481 53.7603
19.887978643247177 53.931999999999995
19.91058273574792 54.2181
19.933187610901943 54.8342
19.955969879466828 55.8085
19.97857632894404 57.3298
20.00118356396599 59.1046
20.023791585494575 60.8657
20.046577028914875 63.8744
20.069186632506966 66.6144
20.091797025500632 68.5114
20.114408208858933 69.2092
20.137196842715273 68.9043
20.159809615886765 67.1744
20.18242318232135 64.2333
20.20503754298326 61.9941
20.227829382875154 60.7918
20.250445341109344 60.9099
20.27306209647285 62.0168
20.29567964993108 63.50899999999999
20.31847471147704 64.6847
20.34109387027612 65.5798
20.363713830075454 65.2268
20.386334591841646 63.3871
20.409132890679302 60.5946
20.431755265564437 57.3442
20.454378445325528 54.7345
20.477002430930366 52.8803
20.499803982716553 51.8134
20.522429589228004 51.0074
20.54505600449589 50.3805
20.567683229489194 50.358999999999995
20.590488049900088 49.7577
20.61311690359731 49.5586
20.63574656993626 49.2527
20.658553853717297 48.9006
20.681185154618298 48.806000000000004
20.703817271080066 48.5546
20.72645020407368 48.3641
20.749260783967177 48.1797
20.771895359337133 48.0291
20.794530754161617 48.1611
20.817166969412938 47.8859
20.83998086114876 47.9186
20.86261872660049 47.891000000000005
20.885257415405402 47.8409
20.90789692853701 47.7358
20.930714147864748 47.6727
20.953355319030678 47.7628
20.97599731745334 47.9096
20.99864014410749 47.7191
21.021460706796564 47.6015
21.044105199328826 47.8162
21.06675052302631 48.1555
21.089396678865015 48.2681
21.112220600704806 48.5124
21.134868430275347 48.9218
21.15751709492456 49.3574
21.180166595629693 49.6807
21.202993892429635 50.2622
21.22564507473034 50.4649
21.24829709602816 50.9151
21.27112693608965 50.854
21.293780644891275 50.5647
21.316435195634053 49.9421
21.339090589297417 49.2768
21.361923832041875 48.6551
21.384580921090404 48.0029
21.407238856007325 47.5989
21.429897637773326 47.4242
21.45273429906592 47.5971
21.475394784108598 47.5799
21.498056118951983 47.4152
21.520718304578022 47.525
21.543558400304388 47.6585
21.566222297108816 47.8567
21.58888704765135 47.8761
21.61155265291521 47.9861
21.63439619898156 48.5732
21.657063523335786 48.6173
21.67973170537063 49.0769
21.7024007460706 49.4575
21.72524775840385 50.3121
21.747918526116475 51.137
21.770590155457388 52.3807
21.79326264741238 54.0306
21.816113141960237 55.8876
21.838787368860547 57.891000000000005
21.861462461341976 60.1816
21.884315579735777 62.5932
21.90699241312273 63.9945
21.92967011506078 64.4119
21.95234868653799 63.8302
21.9752053151131 62.3827
21.997885635446785 60.2079
22.020566828293532 58.3655
22.04324889464272 56.765
22.066109049404666 55.553999999999995
22.088792872571794 55.3837
22.111477572219204 55.4218
22.1341631493376 55.51
22.157026846313123 55.3539
22.179714188221507 54.4239
22.202402410582668 53.333
22.22509151438863 51.8735
22.24795876962584 50.3876
22.270649646204486 49.6572
22.293341407213727 48.9911
22.316034053646906 48.5417
22.338904883215342 48.4063
22.36159931041458 48.2733
22.38429462602756 48.1778
22.40699083104897 48.1792
22.429865251039757 48.2697
22.452563244831367 48.1338
22.47526213102522 48.1441
22.49813925616515 47.9623
22.520839937143307 47.7648
22.543541513520587 47.8822
22.56624398629403 47.6737
22.589124730075895 47.6051
22.611829005656723 47.7929
22.63453418063466 47.6198
22.657240256008077 47.8843
22.680124634582935 47.8733
22.70283252079775 48.3018
22.725541310413075 48.4898
22.74825100442868 48.6531
22.771139033969575 49.0848
22.79385054687155 49.3001
22.81656296718292 49.9085
22.83927629590484 50.8862
22.862167992606945 51.7262
22.88488314827121 52.9258
22.907599215359284 54.2411
22.93031619487366 55.4916
22.953211574954405 56.5563
22.975930389478226 57.3311
22.998650119445763 57.5601
23.02137076586092 56.7514
23.044269845560063 55.3656
23.06699233506288 53.6129
23.089715744034912 51.8008
23.112617610931565 50.2274
23.135342869061212 49.03
23.158069049684816 48.4012
23.1807961538087 47.9417
23.20370174880544 47.873999999999995
23.226430710184808 47.8837
23.249160598093425 47.9278
23.271891413539002 47.8201
23.294800752937697 47.7914
23.31753343374794 48.0074
23.340267045128353 48.1175
23.36300158808808 48.5733
23.38591468821339 48.7841
23.408651104658304 49.0815
23.431388455719986 49.6864
23.454126742409 50.4559
23.4770436196085 51.6472
23.499783787914662 53.0222
23.522524894889884 54.1127
23.54526694154616 55.3488
23.56818761219047 56.7737
23.59093154860734 57.3757
23.613676427751283 57.8683
23.636422250635754 56.7421
23.659346731118656 54.9478
23.68209445191868 53.051
23.704843119509587 50.8209
23.72759273490623 48.8923
23.750521041644767 47.6563
23.77327256312355 46.6151
23.796025035462787 46.0222
23.818956224555475 45.493
23.841710609113413 45.3014
23.86446594758979 45.0482
23.887222241002014 44.8596
23.910157285144578 44.6155
23.932915498962537 44.6668
23.955674670778713 44.3857
23.978434801611975 44.0682
24.001373717286125 44.1451
24.024135776723917 44.0273
24.046898798245582 43.9041
24.06966278287146 43.6909
24.092605586582614 43.6525
24.115371508023642 43.5914
24.1381383956401 43.3579
24.16090625045381 43.3222
24.183852958731244 43.3997
24.206622758582608 43.0778
24.229393528706886 42.9738
24.252165270127392 43.0202
24.27511589952438 43.0004
24.297889594216997 42.8527
24.32066426328598 42.6582
24.34343990775613 42.5247
24.36639447485003 42.5486
24.38917208083877 42.5352
24.41195066531332 42.3461
24.43490819850244 42.4976
24.457688750692377 42.2959
24.48047028445616 42.3659
24.503252800821233 42.4266
24.526214300784112 42.4274
24.548998793132213 42.4295
24.57178427117417 42.4656
24.59457073593893 42.5092
24.617536219319863 42.4166
24.64032466834748 42.3452
24.663114107195035 42.2347
24.685904536893013 41.9531
24.708874020360852 41.7642
24.731666442613744 41.8152
24.754459858818787 41.7363
24.777254270007962 41.5794
24.80022777025625 41.5205
24.82302418230472 41.4254
24.845821592443674 41.5146
24.86862000170663 41.5302
24.891597535453727 41.4865
24.914397953892728 41.6021
24.93719937456671 41.4481
24.96000179851076 41.5979
24.98298338249997 41.8887
25.00578782394922 42.0743
25.028593271784167 42.1375
25.05157790644186 42.3028
25.07438537804115 42.5003
25.097193859145293 42.7963
25.120003350792075 43.1965
25.142992065061257 43.6175
25.165803588823465 43.7924
25.18861612625217 43.9526
25.211429678386736 44.0593
25.234422489079968 44.0189
25.257238081693636 44.0123
25.280054692141732 44.1811
25.3028723214652 44.3223
25.325869245420463 44.3823
25.348688923599397 44.4345
25.371509623787006 44.2801
25.394331347025812 43.9394
25.41733240110666 43.6361
25.440156181590016 42.861000000000004
25.46298098826268 42.1994
25.48580682216873 41.698
25.50881202326435 41.2031
25.53163992281684 40.741
25.55446885274561 40.4856
25.577298814096377 40.1785
25.600308179121807 40.1503
25.623140214533745 40.2403
25.64597328451537 40.1066
25.66898578564376 40.0037
25.691820936010206 39.8978
25.714657124097695 39.9457
25.737494350954734 39.8206
25.760511045684957 39.6647
25.783350361364224 39.8274
25.806190718969255 39.8811
25.82903211955018 40.0158
25.852053024868923 39.9907
25.874896522722523 40.1017
25.897741066713106 39.9178
25.920586657892454 39.9765
25.943611790812668 40.0892
25.966459487728237 40.2818
25.989308234998564 40.321
26.01215803367705 40.7757
26.03518741123814 40.8769
26.05803932412957 41.0628
26.080892291600094 41.0139
26.10374631470478 41.1656
26.12677995397268 41.1985
26.14963609978026 41.2101
26.172493304397875 40.7322
26.19535156888223 40.4208
26.218389486949604 40.1093
26.241249882640123 39.8622
26.26411134137826 39.5693
26.28715248187403 39.5528
26.31001607820869 39.4404
26.3328807407756 39.2924
26.35574647063438 39.4837
26.37879191991473 39.4234
26.401659795896734 39.4537
26.424528742360263 39.5217
26.447398760366614 39.7571
26.470448535598294 39.8301
26.49332070826805 40.1033
26.516193955675355 40.3915
26.53906827888316 40.5242
26.562122397260108 40.7804
26.584998883685063 41.1002
26.607876449110325 41.3294
26.63075509460056 41.6035
26.65381357334404 41.7789
26.67669439061878 41.5253
26.699576291163382 41.4107
26.722459276044212 41.3808
26.745522132402975 41.1134
26.768407297649354 40.9325
26.791293550442003 40.5611
26.814180891848974 40.3805
26.837248143099337 39.935
26.860137673466657 39.9123
26.88302829566349 39.622
26.90592001075963 39.4271
26.92899167420566 39.3744
26.951885586870763 38.89
26.974780595655517 38.6338
26.99785558178161 38.5164
27.020752794605112 38.3893
27.043651106772522 38.0688
27.06655051935668 38.1238
27.089629948036183 38.0347
27.112531573292053 37.9688
27.135434302194138 38.1351
27.158338135817015 38.1232
27.181422024430987 38.018
27.204328079372566 37.89
27.22723524226965 37.9791
27.250143514198573 37.9978
27.273231880156334 37.9509
27.296142382065014 37.7829
27.319053996245536 37.6319
27.341966723775965 37.7873
27.365059584515222 37.8879
27.38797455070062 37.9532
27.410890633481237 37.79
27.433807833936918 37.7197
27.456905206923906 37.9376
27.47982465472398 38.07
27.502745223449743 38.063
27.525666914182825 38.0434
27.548768816912457 38.0233
27.571692763693633 37.8788
27.59461783573812 37.8144
27.617723149491244 37.5635
27.640650484125285 37.5142
27.66357894728264 37.563
27.686508540048052 37.442
27.709618414237887 37.3091
27.732550278321757 37.2462
27.755483275279115 37.3501
27.778417406196485 37.3445
27.801531858397514 37.2498
27.824468269376716 37.2207
27.847405817586786 37.1997
27.870344504116094 37.3907
27.893463551932008 37.4218
27.916404527281053 37.5791
27.93934664422563 37.834
27.962289903855886 37.815
27.98541356491974 38.0388
28.00835912214229 38.2221
28.03130582533231 38.5849
28.054253675581805 38.5909
28.077381967556104 38.4741
28.100332124185126 38.4211
28.123283431160893 38.3637
28.146235889577238 38.0934
28.169368830154156 38.0102
28.192323603752033 37.8922
28.215279532083304 37.6757
28.238415973016764 37.3988
28.261374223145094 37.3809
28.284333631303806 37.2059
28.307294198589954 37.0139
28.330435319167677 36.5418
28.353398217078915 36.3595
28.376362277420153 36.0791
28.39932750129032 36.0115
28.422473319286713 35.8852
28.44544088262495 35.8323
28.468409612800283 35.7972
28.491379510913497 35.5595
28.51453004413313 35.3455
28.53750229057244 35.4465
28.56047570826344 35.3758
28.583450298308804 35.4897
28.606605564586562 35.1404
28.629582511831156 35.138000000000005
28.65256063474956 35.1354
28.675539934446338 35.1277
28.698699951647605 35.1833
28.72168161743193 35.0014
28.74466446331978 34.8649
28.767648490417624 34.9023
28.790813276438353 34.9204
28.813799678527303 35.0014
28.836787265157085 35.0624
28.859955641890075 35.0334
28.882945610203045 34.9497
28.905936766392035 34.8569
28.928929111566863 34.8777
28.952102288520145 34.7739
28.975097024308607 34.6366
28.998092952423807 34.5085
29.021090073977508 34.3228
29.04426806913204 34.2235
29.067267590245258 34.1977
29.090268308143695 34.1146
29.11327022394099 34.0268
29.13645305530891 33.8856
29.159457379627167 33.946
29.18246290519685 33.8359
29.20546963313352 33.8404
29.22865731875826 33.8927
29.25166646419296 33.7987
29.27467681535305 33.6389
29.29768837335608 33.8679
29.320880931312562 33.7834
29.34389491580634 33.75
29.366910110507334 33.6861
29.38992651653503 33.8324
29.41312396492981 33.7896
29.436142806456754 33.6977
29.45916286268059 33.510999999999996
29.48236399319994 33.3898
29.50538649169417 33.3003
29.528410208259935 33.1289
29.55143514402014 32.9555
29.574641196749695 32.9232
29.597668583816574 32.7457
29.6206971934585 32.6679
29.64372702680042 32.6286
29.666938019934474 32.5478
29.689970313635285 32.4542
29.713003834422636 32.4279
29.73603858342347 32.4243
29.759254535188578 32.3506
29.78229175361658 32.3712
29.80533020365064 32.4458
29.82836988641968 32.3723
29.85159081507472 32.3302
29.874632976355343 32.3023
29.89767637376955 32.3807
29.920721008448314 32.1434
29.9439469322847 32.1078
29.96699405457564 31.9686
29.9900424175358 32.0931
30.013092022298157 31.9313
30.03632295963995 31.86
30.059375061131373 31.939
30.08242840783577 32.0293
30.105483000888153 32.0875
30.128718970092244 31.9951
30.151776069006917 31.906999999999996
30.17483441768648 31.9485
30.198074175317235 31.8456
30.221135036724256 31.9377
30.24419715131772 31.8617
30.267260520236203 31.8134
30.290505341942243 31.8671
30.313571232750228 31.8469
30.336638381310948 31.8165
30.35970678876503 31.7555
30.38295669299435 31.7333
30.40602763151657 31.6408
30.429099832366074 31.526
30.452173296685572 31.5077
30.47542830191959 31.5404
30.498504306502497 31.5123
30.521581577995562 31.6034
30.544660117543582 31.7118
30.56792024229725 31.6443
30.59100133132069 31.6219
30.614083691845494 31.7073
30.637167325018545 31.6989
30.660432587840603 31.7325
30.683518779717886 31.7362
30.70660624769615 31.7351
30.729694992924372 31.7654
30.75296541239743 31.868000000000002
30.77605672557558 31.7366
30.799149319462742 31.6554
30.8224236211637 31.4844
30.845518789950724 31.3816
30.868615242910597 31.3913
30.891712981195973 31.2968
30.91499247215866 31.1167
30.938092794619365 31.1339
30.96119440587579 30.9712
30.984297307082752 30.9781
31.00758200598383 30.8795
31.030687500658694 30.6795
31.053794288760695 30.6438
31.076902371446767 30.6064
31.100192296997445 30.728
31.12330298246119 30.6798
31.14641496599209 30.5052
31.169528248749216 30.4949
31.19282341969534 30.4355
31.215939314557186 30.5618
31.239056512134788 30.5277
31.262175013589378 30.4046
31.28547544871168 30.3299
31.30859657161541 30.4139
31.331719001892175 30.4789
31.35484274070538 30.5768
31.378148458819545 30.5044
31.401274828443725 30.4195
31.424402510106933 30.3839
31.447712205419993 30.5893
31.470842524931633 30.3842
31.493974159989783 30.3828
31.51710711176168 30.2946
31.54042212308802 30.3049
31.563557722100917 30.3046
31.586694641341655 30.1328
31.609832881979628 29.9731
31.63315322823208 29.9614
31.656294125521327 29.8911
31.679436347728515 29.8808
31.70257989602529 29.7425
31.725905596152327 29.745
31.74905181052835 29.594
31.772199354521323 29.7474
31.79534822930507 29.7111
31.818679302290967 29.6907
31.84183085259981 29.7301
31.864983737233473 29.629
31.88813795736804 29.7167
31.911474422233013 29.5594
31.934631327356435 29.6077
31.9577895715215 29.6325
31.980949155906522 29.5516
32.004291031706956 29.6791
32.027453310562606 29.4723
32.05061693318573 29.3503
32.07396288236386 29.4415
32.09712920658542 29.3413
32.12029687812702 29.1836
32.14346589817093 29.0809
32.166817291729984 28.9625
32.18998902288583 28.9296
32.21316210610336 28.8648
32.23633654256711 28.8128
32.259693399663725 28.7882
32.282870556771144 28.747
32.30604907069099 28.7635
32.329228942610065 28.6918
32.35259128243769 28.4851
32.375773884550505 28.5168
32.398957848235646 28.54
32.422143174682176 28.4329
32.445511016471215 28.3771
32.468699082679954 28.1784
32.49188851523011 28.1726
32.51507931531304 28.1833
32.538452678331 28.1657
32.56164622776311 28.1707
32.58484114831493 28.1072
32.60803744118015 28.1156
32.631416344731896 28.031999999999996
32.654615396551876 28.088
32.67781582427913 27.8355
32.701198898634416 27.8676
32.72440209253756 27.8359
32.747606665947124 27.7957
32.77081262006088 27.6453
32.79420126883317 27.6456
32.81740999876112 27.6538
32.840620112999424 27.57
32.86383161274818 27.5911
32.88722585534586 27.5815
32.91044014056596 27.6591
32.933655814909734 27.5562
32.95687287957963 27.6368
32.98027273544904 27.4975
33.00349259526636 27.3463
33.026713849030116 27.4774
33.04993649794511 27.3512
33.073341986570746 27.3855
33.09656744032826 27.3863
33.11979429286444 27.291999999999998
33.14302254538647 27.4429
33.166433686291185 27.3732
33.18966475336992 27.334
33.212897224069096 27.2401
33.23613109959831 27.218000000000004
33.259547912343415 27.147
33.2827846121627 27.1713
33.306022720453775 27.1259
33.32926223842861 26.9683
33.352684742614166 27.0729
33.37592709463173 26.9597
33.399170859982064 26.916999999999998
33.422597648419426 26.7902
33.44584425514446 26.6916
33.46909227885668 26.8106
33.4923417207723 26.5836
33.51577423505344 26.6108
33.539026528130385 26.5094
33.56228024307245 26.4944
33.585535381098246 26.3717
33.60897364093058 26.3149
33.63223163992385 26.3914
33.6554910656699 26.2409
33.678751919389796 26.2398
33.702195944520106 26.1478
33.72545966903325 26.2394
33.74872482519663 26.1625
33.771991414233746 26.127
33.79544122444841 26.1385
33.81871069412428 25.9549
33.84198160035767 25.9235
33.86525394437455 26.0193
33.88870955949969 25.9411
33.911984794020626 25.910999999999998
33.93526147001624 25.9078
33.958539588715006 25.8107
33.98200102861669 25.7245
34.0052820477047 25.7371
34.02856451319451 25.6437
34.05203033759056 25.6286
34.07531571090147 25.6727
34.09860253431845 25.6589
34.121890809074316 25.5294
34.145362493118924 25.5271
34.16865368561615 25.4379
34.191946333164054 25.4252
34.21524043699793 25.3914
34.23871800066799 25.3382
34.26201503218366 25.2813
34.28531352370466 25.2985
34.30861347646881 25.1743
34.33209693978188 25.1228
34.3553998301885 25.087
34.378704185565205 25.0709
34.402010007152356 24.9839
34.42549939016683 25.0344
34.44880815937748 24.8562
34.472118398533134 24.9664
34.49543010887669 24.8997
34.51892543169198 24.7743
34.54224009966052 24.8391
34.56555624255917 24.7601
34.58887386163339 24.7498
34.61237514439016 24.646
34.6356957311114 24.5526
34.65901779775809 24.5777
34.68252356662995 24.5503
34.705848608458616 24.4839
34.72917513396849 24.4393
34.75250314440949 24.4155
34.77601490857862 24.2803
34.799345904259795 24.249000000000002
34.82267838863559 24.2976
34.846012362958525 24.2924
34.869530142679984 24.2583
34.89286711232212 24.2392
34.91620557568269 24.2829
34.93954553401677 24.1307
34.9630693495876 24.1453
34.986412313340814 24.1544
35.00975677584668 24.1233
35.033102738362956 24.0574
35.05663261012228 23.978
35.0799815881786 24.0031
35.10333207003229 23.8975
35.12668405694369 23.9425
35.150220005273056 23.8471
35.17357501786656 23.8558
35.19693153931268 23.7924
35.220289570874385 23.7703
35.24383161619786 23.7708
35.267192683604904 23.7451
35.290555264930376 23.6722
35.314101899412165 23.7168
35.33746752422433 23.6497
35.36083466676374 23.6775
35.38420332829803 23.6207
35.407756095629054 23.6509
35.43112781085063 23.6811
35.45450104888391 23.5964
35.477875810999194 23.6602
35.50143473172161 23.5332
35.52481255774625 23.5039
35.54819191167777 23.4237
35.57157279478914 23.4333
35.595137889488406 23.4266
35.61852184675279 23.373
35.641907337029984 23.3027
35.665294361595684 23.2825
35.68886565090076 23.2474
35.7122557598848 23.1939
35.73564740699838 23.2261
35.759040593519934 23.1
35.78261809810353 23.0012
35.80601437933051 22.9798
35.829412203814705 22.9847
35.85281157283719 22.9193
35.876395313415884 22.9574
35.8997977874528 22.8469
35.92320180988546 22.8183
35.946790244133936 22.7492
35.97019737933222 22.6771
35.993606066789866 22.7831
36.01701630779276 22.6795
36.04061101440684 22.6697
36.06402437852291 22.7249
36.08743930005611 22.6932
36.1108557802951 22.6274
36.13445678011326 22.6039
36.15787639383515 22.5172
36.18129757014299 22.5043
36.20472031032821 22.4414
36.22832762423364 22.3634
36.25175350829375 22.384
36.275180960119776 22.3194
36.298609981005924 22.3457
36.32222362992669 22.2734
36.34565580510207 22.333000000000002
36.36908955323448 22.2184
36.39252487562093 22.133000000000003
36.416144880530226 22.1699
36.43958336764275 22.0816
36.463023432914625 22.1677
36.486465077645676 22.0416
36.51009145956204 22.0889
36.53353627947859 22.0304
36.55698268276811 21.9786
36.58043067073321 21.9767
36.60406345072071 21.9141
36.62751462435344 21.9266
36.65096738658405 21.8477
36.67460498210655 21.8311
36.69806093788647 21.7583
36.72151848619297 21.7109
36.744977628333636 21.7542
36.76862165890998 21.717
36.79208400512205 21.6039
36.81554794910557 21.6915
36.83901349217101 21.5566
36.862663978991606 21.4967
36.88613273667352 21.4333
36.90960309738324 21.4544
36.933075062434064 21.4082
36.95673202673572 21.4322
36.98020721697122 21.3738
37.003684015502365 21.2928
37.027162423645365 21.3156
37.050825886711465 21.2262
37.07430753063053 21.2115
37.09779078812467 21.1143
37.121275660513014 21.1229
37.144945643673694 21.1377
37.16843376245278 21.0788
37.19192350009803 21.0967
37.215414857931435 21.0676
37.239091382563885 20.9706
37.262585997426164 20.9777
37.28608223645736 20.9576
37.309763684451696 20.9449
37.33326318851098 20.8437
37.356764320726555 20.8516
37.380267082425526 20.7962
37.40395510942588 20.726
37.42746114683234 20.695999999999998
37.45096881771841 20.6544
37.474478123414166 20.6856
37.49817275092816 20.6799
37.52168534303452 20.6545
37.54519957395567 20.5467
37.568715445024665 20.5502
37.592416694607714 20.5044
37.61593586281424 20.5216
37.63945667518264 20.5455
37.66297913304891 20.4198
37.68668702630454 20.3884
37.710212792059274 20.3091
37.733740207334854 20.3018
37.757269273470364 20.3018
37.780983832050374 20.3141
37.80451621684926 20.250999999999998
37.82805025654007 20.2105
37.851585952464795 20.180999999999997
37.8753071980695 20.1217
37.89884622345676 20.0211
37.92238690911902 20.0379
37.94611318753442 19.9496
37.969657210779765 19.9791
37.99320289834801 19.975
38.016750251586465 19.9243
38.04048325513017 19.8889
38.06403395679343 19.8504
38.087586328183946 19.8049
38.11114037065203 19.8315
38.13488012115898 19.7309
38.1584375229181 19.7117
38.181996599821 19.6557
38.205557353221124 19.6655
38.229303872575656 19.6341
38.2528679961576 19.6845
38.27643380031219 19.5439
38.30000128639589 19.5399
38.32375459653193 19.5212
38.34732546371299 19.5046
38.37089801690786 19.4171
38.39447225747609 19.3459
38.418232380377425 19.4052
38.441810012983396 19.4245
38.46538933705673 19.3132
38.488970353960084 19.2529
38.51273731166058 19.2537
38.536321731567014 19.272000000000002
38.55990784840681 19.1936
38.58367995004091 19.1419
38.60726947812959 19.0758
38.63086070726198 19.0985
38.654453638806274 19.0754
38.678232613930824 19.0173
38.70182896773327 18.9683
38.72542702806741 18.9378
38.7490267963045 18.9221
38.77281266709232 18.9549
38.79641586862214 18.9394
38.8200207821842 18.8561
38.843627409152944 18.8249
38.86742019782782 18.8403
38.891030269149255 18.7524
38.914642058016156 18.7629
38.938255565806124 18.7695
38.96205529464307 18.72
38.98567225787121 18.6673
39.00929094417078 18.7131
39.03291135492255 18.6698
39.05671804624804 18.594
39.080341923549106 18.5575
39.103967529460334 18.5162
39.127594865365744 18.4577
39.15140854155791 18.4284
39.17503935514948 18.4416
39.19867190290282 18.4081
39.22249083587951 18.3785
39.24612686969409 18.3913
39.269764641845306 18.3588
39.293404153722804 18.3381
39.317230110864074 18.198
39.34087311998506 18.195999999999998
39.36451787301696 18.255
39.388164371352595 18.1466
39.41199737518003 18.0911
39.43564738196752 18.1205
39.45929913825317 18.0403
39.48295264543308 18.0645
39.506792718520884 18.0782
39.530449745387216 18.0026
39.55410852735203 17.9743
39.57776906581474 17.9493
39.60161623079 17.8958
39.625280300200025 17.8542
39.64894613032202 17.7774
39.67261372255866 17.7892
39.6964680021016 17.792
39.72013913657293 17.7872
39.74381203738292 17.7238
39.76748670593756 17.6977
39.79134812278169 17.7316
39.81502634488497 17.6301
39.83870633896685 17.6145
39.862388106436654 17.6005
39.88625668336918 17.5464
39.90994201572829 17.5481
39.933629125719285 17.5208
39.957503091207826 17.4859
39.9811937746168 17.5669
40.00488623990914 17.4619
40.02858048850006 17.4333
40.05246165409549 17.4121
40.076159487492085 17.307000000000002
40.099859108448875 17.3367
40.123560518384345 17.3308
40.1474489070226 17.2681
40.171153913178564 17.2214
40.194860712584955 17.208
40.2185693066637 17.1703
40.242464941335314 17.2045
40.26617714307655 17.1718
40.289891143772046 17.1027
40.3136069448471 17.0603
40.33750984859743 17.0459
40.3612292688043 17.0386
40.3849504936829 17.0515
40.40867352466194 17.0149
40.43258372059144 16.9618
40.45631038219906 16.9372
40.48003885420956 16.8655
40.503769138055105 16.9122
40.52768664931955 16.873
40.55142057531802 16.8271
40.57515631746428 16.7839
40.599079334038514 16.7384
40.62281872700477 16.6572
40.64655994043941 16.6597
40.67030297578061 16.6401
40.69423334835778 16.6732
40.71798004609188 16.6657
40.74172857006355 16.5279
40.76547892171441 16.6098
40.7894166736039 16.5924
40.813170699248566 16.6051
40.83692655691388 16.5545
40.86068424804498 16.4903
40.884629402612525 16.4397
40.908390779366385 16.4383
40.932153993938 16.4191
40.95591904777605 16.3894
40.979871628443995 16.375
41.003640379561936 16.334
41.02741097430883 16.3038
41.05118341413683 16.2636
41.075143444384416 16.2657
41.098919593177826 16.2606
41.1226975914255 16.2435
41.14647744058318 16.2261
41.170444943946755 16.1491
41.19422851378379 16.0979
41.218013938914645 16.0825
41.24198706625173 16.0692
41.26577622087193 16.0289
41.289567235177785 16.0145
41.31336011063129 15.9389
41.337340752422875 15.9587
41.361137369129835 15.9663
41.38493585138705 15.9121
41.40873620066004 15.8594
41.43272438060107 15.8418
41.45652848292052 15.8216
41.48033445666918 15.7852
41.50414230331616 15.7386
41.528138045159764 15.7944
41.551949656675205 15.6944
41.575763145513235 15.6638
41.59957851314666 15.6685
41.62358184070442 15.6863
41.64740098505737 15.6617
41.6712220126409 15.5954
41.69504492493139 15.5172
41.71905586207357 15.4962
41.74288256296395 15.4827
41.766711153007456 15.4994
41.79054163368412 15.4013
41.814560204340054 15.4594
41.838394485526365 15.4695
41.86223066180303 15.4349
41.88625497706819 15.3358
41.910094962812 15.3258
41.93393684811168 15.3062
41.95778063445365 15.2073
41.981812625263366 15.1818
42.00566023303407 15.1877
42.029509746323676 15.1518
42.05336116662236 15.1502
42.077400857069705 15.1065
42.10125611078846 15.1304
42.12511327600405 15.1236
42.14897235421036 15.097000000000001
42.173019768448455 15.1076
42.19688269209613 15.0221
42.22074753323349 14.9848
42.24461429335818 14.9437
42.268669455600495 14.9464
42.292540073217886 14.9463
42.31641261433284 14.9685
42.34028708044675 14.8737
42.36435001496739 14.8259
42.38822835065557 14.8499
42.41210861586426 14.8035
42.4359908120986 14.7993
42.46006154323262 14.76
42.48394762115317 14.7317
42.507835634632315 14.7182
42.531912233047436 14.6656
42.55580413732265 14.6841
42.579697981698 14.565
42.60359376768525 14.5585
42.62767820545945 14.5345
42.65157789440821 14.525
42.67547952952185 14.5263
42.699383112316 14.4839
42.72347541395347 14.4448
42.74738291190531 14.4178
42.771292362102166 14.4154
42.795203766063516 14.4029
42.819303956130405 14.4213
42.843219287476536 14.3428
42.86713657716324 14.2869
42.89105582671383 14.3097
42.91516392983864 14.2952
42.939087119032166 14.269
42.963012272677304 14.2233
42.98693939230129 14.1659
43.01105543317513 14.1386
43.034986504731386 14.1108
43.05891954686589 14.1178
43.08285456110972 14.0993
43.10697856448665 14.0578
43.130917542983475 14.045
43.15485849820081 14.0385
43.17880143167367 13.9771
43.20293342237094 13.9399
43.226880332449 13.9152
43.25082922540554 13.975999999999999
43.27496722682525 13.9256
43.29892010567796 13.9035
43.32287497204102 13.9119
43.34683182745632 13.8188
43.370977859791836 13.7917
43.39493871351105 13.7797
43.41890156092628 13.7657
43.44286640358341 13.7275
43.46702049182749 13.7438
43.49098934522816 13.6593
43.51496019852649 13.6757
43.5389330532723 13.6485
43.56309522248204 13.5933
43.58707210044314 13.6487
43.61105098451946 13.6326
43.63503187626491 13.574000000000002
43.659202151562134 13.5338
43.68318707902681 13.5315
43.70717401884041 13.4685
43.731162972560874 13.4809
43.75534137913236 13.450999999999999
43.779334381108384 13.3906
43.803329401683186 13.4063
43.82732644241872 13.3809
43.8515130055166 13.3467
43.87551410707659 13.2864
43.89951723350145 13.3151
43.923709934595614 13.2801
43.94771713129917 13.2759
43.97172635758096 13.2409
43.99573761501002 13.2246
44.0199385169922 13.2123
44.04395385732619 13.1904
44.067971233533086 13.1376
44.09199064718605 13.1277
44.11619977548961 13.0939
44.14022328470671 13.0428
44.16424883610785 13.0765
44.18827643127035 13.005999999999998
44.21249381139513 13.0237
44.236525514814076 13.0074
44.26055926674478 12.9509
44.28459506876863 12.9711
44.3088207262813 12.9246
44.33286064928722 12.9165
44.35690262714919 12.9096
44.38094666145278 12.8355
44.4051806219871 12.8552
44.42922879003185 12.8076
44.45327901929361 12.7738
44.477331311362136 12.7511
44.501573600619416 12.6641
44.525630039221795 12.6889
44.54968854541895 12.6832
44.573937102200176 12.675999999999998
44.5979997645541 12.6591
44.622064499300315 12.6448
44.64613130803592 12.575
44.67038823869318 12.6028
44.69445921643748 12.5365
44.718532272981385 12.5333
44.742607409926194 12.5221
44.76687274034801 12.4957
44.79095205918753 12.4537
44.81503346325094 12.4485
44.839116954143876 12.4374
44.86339071028742 12.3897
44.88747839599524 12.3697
44.91156817336837 12.357999999999999
44.93566004401666 12.3541
44.959942251908146 12.3223
44.984038330325966 12.3224
45.00813650686762 12.2607
45.03223678314731 12.2911
45.05652746888232 12.214
45.08063196592069 12.220999999999998
45.104738567558705 12.217
45.128847275414856 12.151
45.15314646515866 12.1214
45.17725940679741 12.1286
45.20137445952892 12.1369
45.22568004865265 12.0922
45.24979934496396 12.052
45.27392075725247 12.0346
45.29804428714431 11.9944
45.322358426247604 11.9778
45.346486212804315 12.0034
45.370616121861914 11.942
45.39474815505086 11.9442
45.41907087049246 11.9107
45.4432071734666 11.8736
45.46734560548283 11.8828
45.49148616817604 11.8663
45.51581748638564 11.7806
45.5399623320197 11.7825
45.56410931325473 11.7854
45.58825843173002 11.7565
45.61259837920865 11.7052
45.636751793816 11.6784
45.66090735060093 11.7117
45.68506505120716 11.6684
45.7094136545275 11.6228
45.73357566449271 11.6361
45.75773982322992 11.6308
45.78190613238733 11.6064
45.806263418194064 11.5609
45.83043404997326 11.5642
45.85460683713677 11.5897
45.87897065658495 11.5558
45.90314777634752 11.4738
45.92732705646868 11.5035
45.9515084986045 11.4271
45.97588104735473 11.4343
46.00006683541565 11.3861
46.02425479047904 11.3232
46.04844491420549 11.3456
46.0728262191024 11.3936
46.09702070211635 11.3505
46.12121735879483 11.3327
46.14541619080294 11.2912
46.169806278764455 11.2713
46.194009483459034 11.3035
46.21821486849841 11.2648
46.24242243555223 11.2329
46.266821333570014 11.1882
46.29103328674601 11.1883
46.31524742696538 11.1608
46.33946375590237 11.1523
46.36387149104216 11.1173
46.38809221957392 11.0591
46.41231514186606 11.0771
46.436540259597464 11.0494
46.460956858999374 11.0229
46.48518638983522 10.9767
46.509418121166966 10.9552
46.533652054678114 10.9794
46.55807754555709 10.9303
46.58231590571962 10.9237
46.60655647313217 10.8891
46.630988654873654 10.8614
46.655233659129024 10.8291
46.67948087571551 10.839
46.70373030632484 10.8443
46.72817142736393 10.8347
46.752425308428684 10.7941
46.77668140861147 10.7553
46.80093972960865 10.7369
46.82538981736788 10.7168
46.849652602470904 10.7101
46.87391761349769 10.69
46.8981848521493 10.6508
46.9226439341274 10.6734
46.946915650573224 10.6264
46.97118959976749 10.5838
46.99546578341598 10.5472
47.019933887188216 10.5567
47.04421456235744 10.54
47.06849747711879 10.5157
47.09278263318286 10.5167
47.11725978640143 10.5096
47.14154944775105 10.4687
47.165841355555656 10.4545
47.1901355115306 10.4297
47.214621741924994 10.435
47.23892041698887 10.4072
47.26322134538975 10.3296
47.28771440635075 10.3237
47.31201986422527 10.3522
47.33632758061436 10.3173
47.360637557241866 10.2776
47.38513974410611 10.2724
47.40945426407847 10.2207
47.43377104948137 10.2304
47.45809010204344 10.2283
47.48260144275502 10.2116
47.506925052572285 10.1618
47.53125093475548 10.1385
47.55557909103813 10.0982
47.58009961361992 10.1044
47.60443234110732 10.096
47.62876734791564 10.123
47.65310463578333 10.0986
47.6776343683373 10.0773
47.7019762413987 10.0241
47.72632040075572 10.0087
47.75066684815169 10.0023
47.77520581885936 9.98621
47.799556865477655 9.97235
47.823910205386 9.93148
47.84826584033272 9.91748
47.87281407745551 9.92267
47.89717432569297 9.87266
47.92153687423484 9.85764
47.94609208429692 9.85463
47.97045925671401 9.84832
47.99482873471275 9.8314
48.01920052005013 9.80981
48.04376504619224 9.83672
48.068141469543484 9.77495
48.09252020552573 9.754760000000001
48.11690125590099 9.72183
48.1414751266064 9.72865
48.16586082917454 9.697610000000001
48.19024885144316 9.68722
48.2146391951793 9.64183
48.239222439012764 9.66226
48.26361744916137 9.61669
48.28801478610016 9.600769999999999
48.31241445160131 9.61748
48.337007097209366 9.583910000000001
48.36141144338331 9.56209
48.38581812345755 9.54037
48.41022713920929 9.522730000000001
48.434829215320704 9.51117
48.45924292604658 9.50653
48.48365897780325 9.468910000000001
48.50807737237308 9.44502
48.532688907799276 9.44016
48.55711201168574 9.43465
48.581537463754074 9.424610000000001
48.60615611725119 9.37695
48.63058628942721 9.37251
48.65501881516546 9.3236
48.6794536962573 9.308910000000001
48.70408185970339 9.302389999999999
48.72852147531801 9.3063
48.75296345168211 9.260589999999999
48.77740779059232 9.2552
48.80204549302823 9.28262
48.82649458091802 9.24864
48.85094603676547 9.2317
48.87539986237231 9.21395
48.90004713292306 9.15282
48.92450572200832 9.173010000000001
48.94896668628025 9.12785
48.97343002754588 9.11863
48.99808689542115 9.11284
49.02255501470614 9.098989999999999
49.04702551642794 9.04955
49.0714984023988 9.0761
49.096164896893235 9.010539999999999
49.120642575466796 9.000210000000001
49.145122643748394 9.02544
49.16960510355558 8.99558
49.19428125404938 8.97166
49.2187685210852 8.96853
49.243258185121555 8.94473
49.26794160167084 8.92106
49.2924360839405 8.93215
49.31693296869764 8.904010000000001
49.34143225776915 8.8664
49.36612538195438 8.84869
49.39062950396021 8.83155
49.41513603578346 8.84872
49.4396449792564 8.80964
49.46434784069503 8.766110000000001
49.488861631846454 8.74513
49.513377840166804 8.77668
49.537896467493745 8.698939999999999
49.56260909589029 8.667489999999999
49.587132585683285 8.67641
49.611658500018365 8.68003
49.636186840738596 8.66362
49.66090926588511 8.6632
49.685442483902584 8.63798
49.70997813385706 8.57423
49.734516217597076 8.57638
49.75924846937352 8.57145
49.7837914452858 8.51137
49.80833686055187 8.5309
49.83288471702571 8.52219
49.85762682540054 8.53073
49.882179588965734 8.48114
49.9067347993235 8.48024
49.93129245833333 8.479560000000001
49.95604445336378 8.46386
49.98060703442832 8.44443
50.005172069746266 8.419369999999999
50.02993150438364 8.41053
50.05450147301533 8.4099
50.07907390151433 8.369
50.10364879174981 8.40121
50.12841816587289 8.34165
50.1529980044635 8.32784
50.17758031042124 8.32675
50.20216508562089 8.27317
50.22694442953363 8.28838
50.25153416817468 8.23978
50.27612638170508 8.24727
50.300721072005196 8.2201
50.325510416102105 8.22206
50.350110084975064 8.1755
50.37471223628208 8.18341
50.39931687190919 8.13471
50.424116246675766 8.14227
50.44872587605249 8.143889999999999
50.47333799543065 8.13321
50.49795260670191 8.11242
50.52276204271512 8.08019
50.54738166295838 8.056280000000001
50.57200378079314 8.0635
50.596628398116835 8.02735
50.62144792604559 8.02099
50.646077567609396 8.00329
50.670709714377715 8.00836
50.69553683636198 7.9682699999999995
50.72017401885922 7.94924
50.7448137122895 7.96311
50.76945591856022 7.92762
50.79429318636823 7.9385
50.818940443716784 7.895510000000001
50.84359021965163 7.856839999999999
50.868242516085964 7.843710000000001
50.893089960641895 7.8608199999999995
50.917747323549435 7.83
50.94240721271973 7.80965
50.96706963007175 7.83253
50.99192728239342 7.81813
51.01659478166073 7.7874
51.04126481489051 7.780010000000001
51.06593738400761 7.782019999999999
51.090805275207074 7.743539999999999
51.11548294172845 7.705760000000001
51.14016314993547 7.72691
51.164845901758845 7.693630000000001
51.18972406304274 7.67427
51.21441192780656 7.664510000000001
51.23910234200271 7.66188
51.2637953075678 7.623460000000001
51.288683770237945 7.629339999999999
51.31338186432707 7.60503
51.33808251561888 7.563039999999999
51.362978729967345 7.526669999999999
51.387684521509755 7.557119999999999
51.41239287610203 7.50753
51.437103795691165 7.457139999999999
51.46201036644977 7.483960000000001
51.486726441956634 7.49242
51.51144508832545 7.4717
51.536166307509156 7.4584
51.56108326624387 7.43808
51.58580965706056 7.4201
51.61053862657523 7.38852
51.635270176746864 7.35049
51.66019755512065 7.39475
51.68493429268881 7.36742
51.70967361681515 7.369
51.73441552946465 7.363460000000001
51.759353359237934 7.36598
51.7841004750961 7.312589999999999
51.80885018539685 7.303560000000001
51.833602492111254 7.26899
51.8585508051424 7.25295
51.883308330926425 7.24823
51.90806845906181 7.2255
51.932831191525715 7.190460000000001
51.95779001977161 7.19475
51.98255798721516 7.158010000000001
52.00732856494335 7.13112
52.03229530577543 7.14721
52.057071130455945 7.14005
52.081849571391054 7.0648
52.106630630568695 7.088139999999999
52.13160794279417 7.06105
52.15639426492067 7.08029
52.18118321127822 7.08852
52.205974783860896 7.06318
52.23096269971011 7.062289999999999
52.255759551287994 7.034510000000001
52.280559035098186 7.0098899999999995
52.30536115314103 6.959980000000001
52.33035970494467 6.991280000000001
52.35516711807904 6.98216
52.37997717147198 6.928839999999999
52.40478986713005 6.916939999999999
52.42979908731974 6.89566
52.454617094216 6.90865
52.47943774942214 6.8944
52.50426105495102 6.88807
52.529280976059844 6.84403
52.554109609024096 6.833139999999999
52.57894089837482 6.847589999999999
52.60377484613117 6.810989999999999
52.62880550079408 6.813
52.65364479223379 6.78595
52.67848674816189 6.766719999999999
52.70352547971946 6.75524
52.72837279155837 6.72907
52.753222773982785 6.69491
52.778075429022984 6.71661
52.80312495150885 6.69331
52.827982978797436 6.6950199999999995
52.85284368481815 6.653689999999999
52.87770707160767 6.6637699999999995
52.90276741793998 6.688680000000001
52.92763619336701 6.62592
52.952507655698504 6.643
52.977381806977576 6.6356
53.00245301017842 6.62449
53.02733256653592 6.569139999999999
53.052214817996074 6.55859
53.077099766608484 6.5789800000000005
53.102181859804446 6.54516
53.127072229988265 6.54434
53.15196530349892 6.54057
53.17686108239249 6.44526
53.20195409881522 6.46811
53.22685531582556 6.5089
53.25175924441303 6.44874
53.27666588664027 6.41969
53.30176985962693 6.40295
53.3266819565689 6.39334
53.35159677336455 6.34784
53.376514312083096 6.37143
53.40162927507703 6.38858
53.42655228516116 6.39203
53.45147802340193 6.369269999999999
53.47660125628886 6.33204
53.50153247842639 6.3127
53.52646643496923 6.32143
53.55140312799818 6.32143
53.576537409691696 6.31985
53.60147960336152 6.28616
53.626424539786164 6.28782
53.65137222105307 6.21052
53.67651758529126 6.23761
53.70147078399681 6.1870400000000005
53.72642673383343 6.19921
53.75138543689533 6.171530000000001
53.776541917524526 6.1649400000000005
53.801506154876755 6.1256900000000005
53.826473151763246 6.14379
53.851442910284916 6.1334599999999995
53.87661054126026 6.11726
53.9015858509782 6.1037
53.92656392866066 6.084969999999999
53.95154477641532 6.09492
53.976723591801296 6.0601400000000005
54.00171000771266 6.11906
54.02669920004598 6.08132
54.051691170915745 6.05945
54.076881204886796 6.02573
54.101878760928514 6.01998
54.12687910187696 5.97007
54.152077577768296 5.95415
54.1770835166946 5.9233199999999995
54.20209224691339 5.9530400000000006
54.22710377055121 5.92624
54.25231352511594 5.8909
54.27733066384342 5.86077
54.30235060239643 5.844069999999999
54.32737334290836 5.87953
54.35259441062629 5.837969999999999
54.377622783395324 5.8482400000000005
54.40265396455061 5.8622
54.42768795623251 5.76576
54.45292037169559 5.75914
54.477960012857906 5.74605
54.50300247099511 5.75769
54.52804774825457 5.77032
54.55329154616743 5.679130000000001
54.57834249018678 5.66771
54.6033962597977 5.652769999999999
54.6284528571545 5.622999999999999
54.653708072335164 5.60093
54.67877035378786 5.6226199999999995
54.70383546947698 5.608569999999999
54.72890342156389 5.54155
54.7541700889442 5.53451
54.77924374251975 5.553319999999999
54.8043202390049 5.51808
54.82959552413022 5.462999999999999
54.8546777351945 5.4409
54.87976279569621 5.411980000000001
54.90485070780914 5.41057
54.930137506558005 5.3783900000000004
54.95523115074295 5.4637400000000005
54.98032765308844 5.39302
55.005427015775496 5.33064
55.03072536339621 5.32845
55.05583047570572 5.343719999999999
55.080938454927676 5.34387
55.10604930325027 5.27529
55.131359235107396 5.26236
55.15647585066083 5.265680000000001
55.181595341907496 5.25373
55.20671771104285 5.17164
55.232039262617704 5.1471
55.25716741665048 5.1410599999999995
55.28229845518636 5.1452800000000005
55.30743238042802 5.099
55.33276558731939 5.07764
55.357905315183636 5.1589599999999995
55.383047936390035 5.03041
55.40819345314859 5.010330000000001
55.433538351073295 5.01348
55.458689688238415 4.9497
55.483843927614096 4.94687
55.509197623043605 4.94186
55.53435769621134 4.89351
55.55952067826466 4.80586
55.5846865714265 4.85653
55.61005202069737 4.85498
55.63522376553902 4.84886
55.66039842818645 4.80319
55.68557601087004 4.80775
55.7109532500271 4.71856
55.73613670233794 4.76281
