TT I
1.2716486653135266 7.331519999999999
1.2939594142134223 7.159619999999999
1.3162702121660406 7.07752
1.3385810600174564 6.955369999999999
1.3608919586137629 6.29256
1.383202908801069 6.51705
1.405513911425503 6.985869999999999
1.4278249673332093 7.62097
1.4501343378461518 6.35416
1.4724455028545926 5.4754
1.4947567236847858 5.7384900000000005
1.517068001182951 5.76595
1.5393793361953272 5.97944
1.5616907295681737 6.0368
1.5840021821477681 4.86799
1.60631369478041 5.54181
1.6286252683124185 5.30679
1.6509369035901333 4.64569
1.6732468618895553 5.22574
1.695558623192809 4.96352
1.7178704487808514 4.63056
1.7401823395001077 4.28981
1.7625012545597203 5.51679
1.7848028405262486 4.8774
1.8071218901122095 4.9294
1.8294236121921872 4.4036599999999995
1.8517427996910911 4.8916900000000005
1.8740620574440425 5.0489999999999995
1.8963639900671978 4.9975
1.9186833908139995 4.52147
1.9409854680117449 4.7733099999999995
1.9633050151394713 4.8406
1.9856246367570705 4.75073
2.0079269371922672 3.9914
2.03024671027244 4.41303
2.0525491637446027 4.35644
2.074869091674931 4.03466
2.097171701569106 4.4884
2.1194917877373847 4.75758
2.141811954326636 4.60292
2.164114805233074 4.45244
2.186435135143035 5.16845
2.208738150935709 9.43137
2.231058647554722 15.2868
2.2533792288321184 11.6089
2.275682498336085 6.5767
2.298003251406138 5.29911
2.3203066942619714 4.84996
2.3426276225136022 4.97875
2.3649486396617507 5.527909999999999
2.387252348930071 5.04258
2.4095735463442893 5.97205
2.4318774374315884 5.18524
2.4541988185014043 5.73836
2.476502894794693 6.465669999999999
2.498824462909887 6.887460000000001
2.521146125856138 6.3303400000000005
2.5434504863470337 6.32303
2.5657723414244717 6.557810000000001
2.588076895590662 7.456239999999999
2.610398946189713 7.82224
2.6327210958598384 7.51985
2.6550259469304716 6.71855
2.6773482972090137 7.5688699999999995
2.6996533504259 7.9901100000000005
2.7219759047039602 8.60854
2.744298562293959 8.31965
2.7666039251246595 7.23222
2.7889267918020164 7.61523
2.8112323652516555 7.6806600000000005
2.833555444408179 7.36857
2.8558786311183852 8.191310000000001
2.8781845268938557 8.562439999999999
2.9005079311721484 8.96998
2.9228140460410397 9.0024
2.9451376712799635 9.15479
2.967444008632326 9.92932
2.9897678582247247 9.776589999999999
3.0120918213106695 10.0902
3.0343984987899373 10.1449
3.0567226913198637 11.0172
3.079029599759726 11.4937
3.101354025127254 11.9279
3.123678568232338 12.6244
3.145985829517914 13.0805
3.16831061055229 13.4909
3.1906181112775593 14.2582
3.212943133635653 14.2488
3.2352682779763207 14.9369
3.2575761442691227 15.3323
3.2799015350264273 15.6274
3.302209649240067 16.3185
3.3245352898092655 16.695999999999998
3.3468436553365257 17.3436
3.369169549113219 17.7577
3.3914955708171384 18.5714
3.413804319727358 18.8194
3.4361305997334863 19.1405
3.4584396084414553 19.5193
3.4807661501462652 20.421
3.503092824025881 21.0654
3.5254022288463154 21.2116
3.5477291695206588 21.6013
3.5700388426251948 22.1708
3.5923660534916446 23.6131
3.6146934007816114 31.2935
3.637003482731501 53.8618
3.6593311053109985 58.0544
3.681641464033634 38.9052
3.7039693653009733 26.9321
3.726297407241705 25.5438
3.7486081875460804 25.2239
3.7709365132734978 25.8489
3.793247578841633 26.3311
3.8155761917550093 26.7816
3.8378875459837216 27.1034
3.8602164494827234 27.3751
3.882545499606844 27.9467
3.9048572932539183 28.8896
3.9271866390645718 29.236
3.9494987298666713 29.8578
3.971828374764527 30.3247
3.9941581705403255 30.8738
4.016470713506008 31.6019
4.038800813471445 32.4484
4.061113662089144 33.3867
4.0834440696459176 33.4806
4.105774632334751 34.0039
4.128087945865126 34.3334
4.150418821249301 34.9679
4.172732448931298 36.2328
4.195063640413578 37.2096
4.2173775856475215 40.522
4.239709096631102 58.2518
4.262040768704612 132.015
4.284355196706267 167.50099999999998
4.306687193387355 115.014
4.329001947444346 59.46
4.35133427213731 45.0877
4.373666762177566 44.196000000000005
4.395982011761091 44.457
4.418314834921175 45.3815
4.44063041906622 49.4633
4.4629635787515625 54.9807
4.4852969080429785 55.5917
4.5076130004776225 52.6052
4.529946671403969 54.0178
4.552263106909177 55.5232
4.574597122877047 54.5494
4.596931312711224 54.2279
4.619248269273446 54.6452
4.6415828092605835 55.1209
4.663900117405352 56.6077
4.686235010953232 58.1227
4.708552674085913 59.3518
4.730887924602802 60.5984
4.753223354952695 62.303000000000004
4.775541557023902 64.7825
4.797877349456786 67.1314
4.820195915032126 69.0846
4.842532072957498 69.2855
4.864868414979744 71.8394
4.88718753227192 75.3687
4.909524244902505 76.6634
4.931843734218147 77.4806
4.954180820867835 80.5439
4.976518095879839 83.2909
4.998838149695359 86.6104
5.021175803844231 90.3439
5.043496238205739 93.9967
5.065834274903528 98.7008
5.088172504230693 104.346
5.1104935158799565 112.039
5.132832132875765 132.695
5.155153533596801 165.53799999999998
5.1774925416746225 227.50099999999998
5.199814334878411 541.9630000000001
5.2221537374521505 1439.99
5.244493338631803 3547.68
5.266815727034316 7830.94
5.289155727832427 11696.5
5.311478517248165 8428.49
5.333818921080011 2813.0
5.356159527788849 575.188
5.3784829252032536 204.97299999999998
5.400823940070432 157.371
5.423147747031976 135.202
5.445489173474152 124.03
5.467830807066149 120.427
5.490155234831516 117.505
5.512497285125229 112.025
5.534822130975162 107.898
5.557164601388673 105.065
5.579489868738879 101.853
5.601832762690846 100.875
5.6241758697774475 99.5776
5.646501775867269 98.55
5.668845311622074 97.8301
5.691171647754637 97.0975
5.713515615597765 95.7082
5.735859800852677 95.5281
5.758186788542988 95.8258
5.780531411018185 97.3069
5.802858837297399 96.8551
5.825203900414495 97.6623
5.8475491852224 99.4392
5.869877275883075 99.0843
5.892223006467101 98.9596
5.914551544266608 99.2623
5.936897724049891 103.225
5.959244129804903 112.43
5.981573344815301 151.55700000000002
6.0039202049061 300.889
6.026249875609095 609.247
6.04859719346037 1195.87
6.070927323278297 2387.4
6.093275102315365 4271.51
6.115623113320588 5101.5
6.137953938319995 3277.67
6.160302415650845 1024.68
6.182633708324452 252.644
6.2049826554078376 119.95100000000001
6.227331838745022 95.9537
6.249663839443684 87.3261
6.27201349767565 83.5763
6.294345974611799 84.7542
6.316696111167083 88.2143
6.339046488263839 84.7619
6.361379686074702 76.1314
6.383730546639482 72.426
6.406064229255215 70.7334
6.428415576718203 70.6577
6.450749747566656 69.5986
6.47310158535871 67.961
6.495453669698332 66.3044
6.517788579421056 65.5817
6.540141159237969 63.9574
6.562476565766648 63.6747
6.5848296444934045 63.6105
6.607182974060425 63.6283
6.6295191323281015 62.9887
6.651872965955752 64.2837
6.6742096296068985 76.3077
6.6965639707294615 97.7887
6.71891856698715 96.4974
6.741255995248479 76.0009
6.763611104154477 63.7942
6.785949046381137 60.126999999999995
6.808304671371482 59.5894
6.8306605557940046 60.1775
6.852999275508618 59.2413
6.875355681171544 58.2966
6.897694923437771 57.4541
6.92005185377892 57.0149
6.9423916220322655 57.0549
6.964749080490181 56.4248
6.987106804399774 56.2501
7.009447368180821 56.788000000000004
7.031805625367033 56.4845
7.054146723727803 55.6965
7.076505517631004 55.5261
7.098864581288365 55.6598
7.121206488070854 55.5402
7.143566093607822 55.7716
7.165908543567245 56.0732
7.188268694426048 56.245
7.2106291193438095 55.672
7.232972390625943 56.1561
7.255333366030969 62.1615
7.277677189091925 87.0096
7.300038718428332 108.51299999999999
7.322400526130865 95.6595
7.344745183422596 70.45100000000001
7.367107550224791 58.1176
7.389452767901992 56.0629
7.411815697249891 55.4368
7.434161478756298 55.0466
7.456524974096713 55.0504
7.478888753837185 54.9741
7.501235387657368 55.0446
7.523599738562711 55.0899
7.545946944825532 55.0925
7.568311870344528 56.0729
7.5906770845765665 56.1312
7.613025156078678 56.7195
7.635390950099687 57.2672
7.657739602662809 57.0731
7.680105979923558 56.7223
7.702472650212829 56.9768
7.724822180948224 56.7762
7.747189439655568 57.1105
7.769539560075357 57.229
7.791907410653562 57.2358
7.81425812420825 57.3716
7.836626570110925 57.6859
7.858995315087906 58.4869
7.881346924933401 58.6189
7.903716270417482 59.2702
7.926068482028405 59.277
7.948438431475253 60.1982
7.9708086843180235 60.8371
7.993161805171116 61.4247
8.015532667162402 61.8935
8.037886398416653 62.8618
8.060257873014221 63.2226
8.082629655331942 64.1287
8.104984308787587 65.0915
8.127356708900503 67.0953
8.149711981398308 71.4481
8.172085002766314 73.0651
8.194458336181368 71.1057
8.216814543847752 70.1227
8.23918850371002 70.7004
8.26154533906492 71.6408
8.283919928836452 73.4009
8.306277395339652 74.5698
8.328652618483376 75.8962
8.351028159736202 78.1528
8.373386579575245 80.4053
8.395762759396959 82.8139
8.418121819038275 86.9777
8.440498640894003 95.5154
8.462875785192262 109.383
8.485235811156207 141.263
8.507613602688501 212.62400000000002
8.529974277114228 317.532
8.552352719347912 469.12800000000004
8.574731488360351 753.6519999999999
8.59709314210385 1246.32
8.619472567021075 1837.24
8.64183487789147 2172.51
8.664214962183097 1774.24
8.686577933647762 943.46
8.708958680784317 365.032
8.731339760774953 163.809
8.753703729764451 113.05799999999999
8.77608547780821 101.26899999999999
8.798450116065078 97.5184
8.820832535634787 94.3694
8.843215292401656 93.4701
8.865580941199045 92.62200000000001
8.887964374703538 91.5489
8.910330701447199 91.8318
8.932714815164482 92.2039
8.955099270424924 90.6345
8.977466620733543 88.3079
8.999851761421976 86.7631
9.022219798361645 85.6447
9.04460562795561 85.37200000000001
9.066991803441677 84.9144
9.089360876979615 85.3028
9.111747746589993 84.5955
9.13411751544971 83.5512
9.156505082664324 83.1544
9.178875550323522 83.294
9.20126381862328 83.6637
9.223652438908596 83.7096
9.246023961427412 83.9789
9.26841328802173 83.4532
9.290785518039224 84.1234
9.313175554425882 85.6965
9.335565947154315 86.1592
9.357939245086508 86.1172
9.380330352834827 85.7025
9.40270436697103 86.1112
9.425096193225055 85.8327
9.447488380180165 86.226
9.469863475295412 85.726
9.492256385987508 86.3626
9.514632206018318 86.8138
9.537025843935714 87.3481
9.559402392368193 88.3905
9.581796761000229 90.0821
9.604191496441521 91.601
9.626569144158516 93.9914
9.648964615551032 95.7916
9.671343000390081 96.3346
9.693739211225699 95.419
9.716135793237463 94.5049
9.738515290448102 95.0948
9.760912617143402 96.5482
9.783292860202891 98.3154
9.805690935076182 100.156
9.828089385495742 101.15299999999999
9.850470754023561 102.73700000000001
9.872869957865444 107.71600000000001
9.89525208097539 115.787
9.917652041736662 124.59700000000001
9.940052382417589 135.22899999999998
9.962435644102392 168.317
9.984836746950979 224.699
10.007220771957746 297.858
10.029622640473708 413.782
10.052007432299963 607.085
10.074410069984072 894.3789999999999
10.096813093716005 1293.75
10.119199042482517 1710.27
10.141602840636468 1923.48
10.163989564971628 1602.7
10.186394141051062 914.331
10.208799107559706 394.293
10.231187001965623 188.112
10.253592751657669 129.256
10.275981430388155 115.645
10.298387966769793 112.887
10.320794897965431 112.9
10.343184759907361 111.56200000000001
10.36559248305461 108.39
10.387983138083852 109.015
10.410391656691655 118.07
10.432800574501677 132.614
10.455192425893369 150.97299999999998
10.47760214443012 180.37
10.499994797678786 225.79
10.522405320453982 303.972
10.54479877906917 405.588
10.567210109595656 502.82599999999996
10.5896218454736 562.672
10.612016518879773 490.59
10.634429067781074 340.61199999999997
10.656824555333241 196.748
10.679237920773568 123.102
10.701651695961992 97.1134
10.724048411481384 91.0255
10.746463008485165 88.165
10.768860546937125 86.5268
10.791275969274796 84.7176
10.81369180576079 83.4189
10.836090585366925 82.4263
10.858507252467449 81.115
10.88090686379991 80.2056
10.903324365036394 79.6549
10.925724811614439 79.0114
10.948143150509463 79.808
10.970561909719066 78.7177
10.992963615930844 77.6577
11.015383218085756 75.9377
11.037785768347074 74.4864
11.06020621697282 73.9849
11.082627090322113 73.4531
11.105030913430326 72.6701
11.12745263854165 72.709
11.149857314510728 73.9018
11.172279894912576 76.5221
11.194702904450653 76.6121
11.217108866490921 74.0286
11.239532736615194 71.8271
11.26193956033512 71.0296
11.284364294577085 69.7732
11.306789462371718 68.6345
11.329197585398376 68.0722
11.351623622610898 67.9993
11.37403261614354 67.2962
11.396459526308487 67.0676
11.418869393879497 66.4138
11.441297180532617 66.2653
11.463725406927658 65.8801
11.486136592353875 65.5865
11.508565700543707 65.5656
11.530977768845315 66.5865
11.553407762368774 66.6027
11.575838200059769 66.4544
11.598251599479612 65.2464
11.620682927815501 64.6367
11.64309721895548 64.6725
11.665529441478206 64.2092
11.687962112597958 63.942
11.710377748130886 64.1583
11.732811318753434 63.6862
11.755227854859067 63.5812
11.777662328529495 63.6803
11.800079768750786 63.5596
11.822515149015453 63.5769
11.844950984084935 63.7186
11.867369787303163 63.4125
11.889806534289491 63.5888
11.912226250487029 63.7113
11.934663912939751 63.6666
11.9571020346363 64.1337
11.979523127133968 64.5005
12.001962169624331 65.8006
12.024384183972964 68.3796
12.046824150809913 72.767
12.069264581333726 78.1252
12.091687985297767 84.4229
12.11412934550045 94.6913
12.136553680195208 109.93799999999999
12.158995973632788 131.664
12.181438735204349 156.858
12.20386447284199 182.537
12.226308172985636 201.59599999999998
12.24873485024193 200.40599999999998
12.271179492516982 167.687
12.293607112949127 122.73200000000001
12.316052700916226 90.8927
12.338498763250042 75.3031
12.360927805303868 68.5758
12.383374818673879 66.3315
12.405804812803074 65.3767
12.428252780773262 65.2693
12.45070122756722 65.6633
12.473132656675375 65.6577
12.49558206341869 65.6656
12.518014453510101 65.6176
12.540464823770117 65.5246
12.562915677315177 65.9305
12.58534951575545 66.3531
12.607801338171472 67.2341
12.630236146511358 69.8251
12.652688941369085 72.3368
12.675124723177234 72.7142
12.697578494048786 71.1532
12.720032754458185 69.4154
12.742470003354093 68.6337
12.764925245138771 68.8375
12.787363476431278 69.1919
12.809819703166806 69.6727
12.83227642391173 70.4495
12.854716135692716 70.9315
12.877173846755147 72.1419
12.899614549869717 72.5841
12.9220732548287 73.6781
12.94453245827299 74.1459
12.966974655289818 75.3202
12.989434858002571 76.0965
13.011878055298721 76.5523
13.034339260862497 77.4377
13.056800969391883 79.3106
13.079245674017244 82.42299999999999
13.101708390774869 87.8379
13.12415410463411 98.4015
13.146617833206086 110.415
13.169064559883248 123.15100000000001
13.191529303857127 139.188
13.213994557076367 163.873
13.236442809902437 201.334
13.258909083908291 252.834
13.28135835851934 307.65
13.30382565690295 368.665
13.326293469022952 417.42199999999997
13.348744283242008 418.282
13.371213125129904 352.392
13.39366497011003 257.61
13.416134845360597 169.457
13.438605238843131 124.772
13.46105863690397 112.585
13.483530069144786 114.296
13.505984506951902 120.512
13.528456981549432 131.7
13.550929978879088 147.59799999999998
13.573385983253365 172.308
13.595860028340867 209.331
13.618317081455832 255.21900000000002
13.64079217790333 301.64599999999996
13.663250283359057 340.74
13.685726434770173 370.588
13.708203115221277 340.079
13.730662806148091 265.225
13.75314054697177 186.4
13.775601299246777 127.772
13.798080104050406 97.5246
13.820559442405358 86.6631
13.843021793671388 83.0908
13.865502201420897 81.348
13.887965623051947 81.0053
13.910447103807167 79.7881
13.932929122629764 78.4538
13.955394156785959 78.365
13.977877254034569 77.417
14.000343367582113 76.3744
14.022827546871707 75.6483
14.045294743423524 74.9383
14.06778000837062 74.083
14.090265817715476 74.0388
14.112734645763819 73.8241
14.13522154619454 73.5505
14.157691466286913 73.5533
14.180179461423874 73.3067
14.202668005486178 72.4407
14.22513957064374 72.0687
14.247629214846473 71.5723
14.270101881097517 71.4698
14.29259262906496 71.374
14.315083930490205 71.7199
14.337558255389705 71.6795
14.360050666019726 71.5561
14.382526101071944 71.0855
14.405019624534942 70.3707
14.427513705993134 69.9343
14.449990813291825 70.0086
14.47248601302899 70.0848
14.49496423954951 70.1858
14.517460561197822 70.4147
14.539939910570322 69.998
14.562437357763558 70.2497
14.58493536931253 71.0666
14.607416409993311 71.3902
14.62991555254159 71.9034
14.652397725157423 72.0533
14.674898002342799 72.1306
14.697398848433282 72.1234
14.719882725991326 73.7964
14.74238471217934 76.13
14.764869730765593 80.6093
14.787372860692983 84.1241
14.809876564079925 88.8841
14.83236330125751 95.5324
14.854868153850365 105.166
14.877356041159485 119.014
14.899862046604186 137.077
14.922351087688757 158.338
14.944858249632887 182.797
14.967365991421232 202.91299999999998
14.989856770231246 216.83
15.012365673994204 214.199
15.03485761569738 185.197
15.05736768508665 146.476
15.07987833888692 113.421
15.102372032001655 90.0435
15.124883856909658 77.4892
15.14737872204565 73.2921
15.169891721717274 71.831
15.192405310371893 71.4172
15.214901940621196 71.42399999999999
15.237416709527137 71.1195
15.259914520936249 70.6778
15.282430473753607 70.1396
15.304947020131227 68.8861
15.327446610371178 68.7199
15.349964346154254 68.1098
15.372465126703139 68.0407
15.394984055556009 67.8042
15.417486030076159 67.5597
15.44000615566487 67.00399999999999
15.462526881230803 66.9776
15.485030653812652 67.2863
15.507552581617434 67.1262
15.530057557334603 67.3122
15.55258069104857 67.5228
15.575104429329837 67.421
15.597611216864632 67.378
15.620136166564563 68.3004
15.6426441664095 70.5928
15.665170331202765 73.6096
15.687697105158826 76.7531
15.710206930593545 80.3249
15.732734925158933 85.0068
15.755245972089478 91.90700000000001
15.77777519094324 101.632
15.800287463046663 114.50299999999999
15.822817909869592 131.48
15.84534897229804 149.257
15.867863089299354 169.113
15.890395385222186 184.13
15.912910736597423 190.995
15.935444269699861 179.81900000000002
15.957978423016485 153.46
15.980495633101265 120.95
16.003031029129367 94.9059
16.02554948280019 76.508
16.048086125229432 68.0426
16.070623392487107 65.2076
16.09314371869582 64.3682
16.11568223789321 63.4879
16.13820381691126 62.6341
16.160743591742527 62.1299
16.183283996022084 61.3652
16.205807461423195 60.3992
16.228349126881973 59.7728
16.25087385432698 59.7067
16.27341678466365 59.0652
16.29594277784926 58.9249
16.31848697676433 58.8345
16.341031811604868 58.6835
16.36355971058487 58.893
16.3861058195587 58.6453
16.40863499352978 57.7336
16.431182380342005 57.2972
16.453730407713202 56.8635
16.476261501364792 56.6214
16.498810812136167 56.4383
16.52134319004079 56.4905
16.54389378792203 56.4238
16.566445031001553 56.0049
16.588979342490088 56.106
16.61153187824822 55.7829
16.634067483263312 55.6345
16.656621315414416 55.7516
16.679175797408888 55.4412
16.701713349928728 55.4668
16.72426913389191 55.7699
16.74680798922351 55.9216
16.76936507887444 55.68899999999999
16.791905240734874 55.6123
16.814463639794468 55.6113
16.837022695210294 55.5722
16.859564824093756 55.9038
16.882125194503903 56.1391
16.904668639217885 56.5325
16.927230328348003 56.6081
16.949792678493612 57.0052
16.972338104193863 56.567
16.994901778652235 56.4269
17.017448529496576 56.617
17.040013531998152 57.225
17.06257920018044 57.9644
17.0851279459922 58.6937
17.107694947817667 59.5589
17.130245028099072 60.4679
17.15281336730298 61.8847
17.17536478578733 63.6701
17.19793446610687 66.0448
17.220504818648422 68.8031
17.243058251703697 71.5461
17.265629950971032 75.4868
17.288184731571736 78.813
17.310757781306908 82.3517
17.33333150794385 83.2797
17.355888317140174 81.7543
17.37846339986244 77.2998
17.401021565958885 71.493
17.42359800851343 66.1156
17.44617513265564 62.8113
17.468735341390783 60.99100000000001
17.491261035594565 60.1312
17.51396340099364 59.9954
17.536490463869136 60.3176
17.559018209820174 60.1685
17.58154663977963 60.3387
17.604251766089718 60.5502
17.626781572227713 60.6098
17.64931206518155 60.8409
17.671843245885103 61.2995
17.69455114821572 61.5202
17.717083712612634 61.7592
17.739616967569667 61.8483
17.762150914021706 62.3715
17.78486160749854 62.7101
17.807396945166804 63.903999999999996
17.829932977143503 65.4558
17.85246970436452 67.2814
17.875183204129467 69.1275
17.897721330097664 71.2349
17.920260154126645 74.0479
17.942799677153296 77.1113
17.9655159983646 81.2997
17.988056927677544 86.921
18.010598558807683 94.4206
18.033140892692916 103.27
18.05586005052525 112.126
18.07840379824407 122.054
18.10094825154059 132.844
18.12366954819864 139.997
18.146215420998306 139.803
18.16876200220057 132.297
18.191309292745153 119.01899999999999
18.214033452627167 105.186
18.236582170236648 93.6034
18.259131600016456 88.7382
18.281681742907335 88.7451
18.304408781233683 92.3804
18.32696035875955 96.5376
18.349512652227624 100.759
18.372065662579683 105.535
18.394795594587553 106.79299999999999
18.41735004715306 103.186
18.43990521943684 96.6421
18.46246111238171 87.1706
18.485193953325208 78.1301
18.507751296070428 70.8376
18.530309362314178 66.6847
18.552868153000343 64.4138
18.57560391815056 63.0605
18.59816416623245 62.8231
18.620725141597372 62.2425
18.643286845190268 61.7847
18.666025549835414 61.4531
18.688588718427933 60.6676
18.711152618092243 60.5951
18.73389353884365 60.3025
18.75645890921984 60.0601
18.77902501351406 59.6355
18.801591852673102 59.7019
18.824335739722738 59.0338
18.846904057212626 58.9741
18.8694731124168 58.9538
18.89204290628315 58.8606
18.914789774966803 58.7882
18.937361054791623 58.2283
18.959933076131318 57.9741
18.982505839934877 57.8854
19.00525570560582 57.9878
19.027829963004184 57.8683
19.05040496572238 57.965
19.072980714710468 58.2417
19.095733592739563 58.433
19.11831084296757 58.6925
19.140888842324735 59.0115
19.16346759176222 59.2316
19.18622349753803 59.9554
19.208803755869358 61.1237
19.231384767143577 62.1564
19.253966532312948 63.8013
19.276725481241822 65.6941
19.29930876296784 67.6887
19.3218928014549 70.0887
19.34465404436217 72.9246
19.36723960516257 75.554
19.389825925592426 76.5978
19.412413006605938 75.8591
19.43517731967805 72.5762
19.457765930683355 68.0898
19.48035530514408 63.6308
19.50294544401556 59.8658
19.525712842708348 57.3533
19.54830451925909 55.854
19.570896963095727 54.8491
19.593490175174704 54.7781
19.616260674962184 54.7614
19.638855432416964 54.4592
19.661450960992624 54.6409
19.68404726164677 54.3817
19.706820878021247 54.4421
19.729418731756834 54.5614
19.752017360452857 54.347
19.77461676506804 54.6202
19.797393513540218 54.8137
19.819994478951667 55.0689
19.84259622316767 55.498000000000005
19.8651987471481 56.0535
19.887978643247177 56.4404
19.91058273574792 56.8353
19.933187610901943 57.6836
19.955969879466828 58.7489
19.97857632894404 60.4421
20.00118356396599 61.7729
20.023791585494575 63.6885
20.046577028914875 66.0589
20.069186632506966 67.9873
20.091797025500632 69.6444
20.114408208858933 70.5662
20.137196842715273 70.5323
20.159809615886765 69.1904
20.18242318232135 66.5859
20.20503754298326 64.5445
20.227829382875154 63.3093
20.250445341109344 62.928999999999995
20.27306209647285 63.2506
20.29567964993108 64.3682
20.31847471147704 65.2249
20.34109387027612 66.0817
20.363713830075454 66.0775
20.386334591841646 64.5493
20.409132890679302 61.9888
20.431755265564437 58.6043
20.454378445325528 55.8261
20.477002430930366 53.9422
20.499803982716553 52.8629
20.522429589228004 52.1285
20.54505600449589 51.5489
20.567683229489194 51.4441
20.590488049900088 51.1492
20.61311690359731 50.9694
20.63574656993626 50.8502
20.658553853717297 50.555
20.681185154618298 50.4379
20.703817271080066 50.3915
20.72645020407368 49.9658
20.749260783967177 49.7615
20.771895359337133 49.8075
20.794530754161617 49.7681
20.817166969412938 49.6997
20.83998086114876 49.565
20.86261872660049 49.4309
20.885257415405402 49.6801
20.90789692853701 49.5057
20.930714147864748 49.4466
20.953355319030678 49.5615
20.97599731745334 49.7383
20.99864014410749 49.3333
21.021460706796564 49.4184
21.044105199328826 49.6708
21.06675052302631 49.8548
21.089396678865015 50.2388
21.112220600704806 50.4099
21.134868430275347 50.8828
21.15751709492456 50.9949
21.180166595629693 51.1626
21.202993892429635 51.6262
21.22564507473034 51.7012
21.24829709602816 52.1792
21.27112693608965 52.128
21.293780644891275 52.1121
21.316435195634053 51.4794
21.339090589297417 50.7207
21.361923832041875 50.4046
21.384580921090404 49.7491
21.407238856007325 49.128
21.429897637773326 49.2128
21.45273429906592 49.4296
21.475394784108598 49.2424
21.498056118951983 49.1955
21.520718304578022 49.4336
21.543558400304388 49.8258
21.566222297108816 50.1014
21.58888704765135 50.2089
21.61155265291521 50.4734
21.63439619898156 50.8849
21.657063523335786 51.1425
21.67973170537063 51.6106
21.7024007460706 52.108000000000004
21.72524775840385 53.0177
21.747918526116475 54.0855
21.770590155457388 55.2698
21.79326264741238 56.9127
21.816113141960237 58.4962
21.838787368860547 59.9433
21.861462461341976 61.5145
21.884315579735777 63.2314
21.90699241312273 64.5332
21.92967011506078 65.3229
21.95234868653799 65.1138
21.9752053151131 63.9929
21.997885635446785 62.0493
22.020566828293532 60.0614
22.04324889464272 58.2928
22.066109049404666 56.842
22.088792872571794 56.3939
22.111477572219204 56.4903
22.1341631493376 56.7134
22.157026846313123 56.5817
22.179714188221507 55.9935
22.202402410582668 54.8711
22.22509151438863 53.4577
22.24795876962584 51.8909
22.270649646204486 51.0731
22.293341407213727 50.5796
22.316034053646906 50.0303
22.338904883215342 49.8564
22.36159931041458 49.7465
22.38429462602756 49.7108
22.40699083104897 49.3436
22.429865251039757 49.3727
22.452563244831367 49.5351
22.47526213102522 49.5789
22.49813925616515 49.4365
22.520839937143307 49.472
22.543541513520587 49.4541
22.56624398629403 49.3273
22.589124730075895 49.3508
22.611829005656723 49.653999999999996
22.63453418063466 49.6556
22.657240256008077 49.8863
22.680124634582935 50.0987
22.70283252079775 50.3386
22.725541310413075 50.6638
22.74825100442868 50.6882
22.771139033969575 51.2355
22.79385054687155 51.6518
22.81656296718292 52.2222
22.83927629590484 53.0102
22.862167992606945 53.9602
22.88488314827121 54.9667
22.907599215359284 55.7924
22.93031619487366 56.7274
22.953211574954405 57.4047
22.975930389478226 58.1767
22.998650119445763 58.6886
23.02137076586092 57.9418
23.044269845560063 56.6765
23.06699233506288 54.8697
23.089715744034912 53.3695
23.112617610931565 51.7451
23.135342869061212 50.4911
23.158069049684816 49.9431
23.1807961538087 49.6832
23.20370174880544 49.6532
23.226430710184808 49.8166
23.249160598093425 49.9232
23.271891413539002 49.7789
23.294800752937697 49.7791
23.31753343374794 50.0929
23.340267045128353 50.2127
23.36300158808808 50.5637
23.38591468821339 50.7972
23.408651104658304 51.3092
23.431388455719986 52.0032
23.454126742409 52.6763
23.4770436196085 53.6488
23.499783787914662 54.8436
23.522524894889884 55.4725
23.54526694154616 56.2758
23.56818761219047 57.2576
23.59093154860734 57.909
23.613676427751283 58.3226
23.636422250635754 57.4584
23.659346731118656 56.0697
23.68209445191868 54.2762
23.704843119509587 52.1297
23.72759273490623 50.3079
23.750521041644767 48.8901
23.77327256312355 47.8954
23.796025035462787 47.1628
23.818956224555475 46.7612
23.841710609113413 46.8268
23.86446594758979 46.5344
23.887222241002014 46.3212
23.910157285144578 45.7881
23.932915498962537 45.7962
23.955674670778713 45.7652
23.978434801611975 45.535
24.001373717286125 45.452
24.024135776723917 45.3029
24.046898798245582 45.2368
24.06966278287146 45.1379
24.092605586582614 45.0036
24.115371508023642 44.7253
24.1381383956401 44.6385
24.16090625045381 44.6502
24.183852958731244 44.6237
24.206622758582608 44.4971
24.229393528706886 44.2243
24.252165270127392 44.482
24.27511589952438 44.4105
24.297889594216997 43.854
24.32066426328598 43.7681
24.34343990775613 44.0259
24.36639447485003 43.8126
24.38917208083877 43.872
24.41195066531332 43.69
24.43490819850244 43.7837
24.457688750692377 43.6689
24.48047028445616 43.6576
24.503252800821233 43.7397
24.526214300784112 43.8859
24.548998793132213 43.6894
24.57178427117417 43.5715
24.59457073593893 43.8123
24.617536219319863 43.6004
24.64032466834748 43.5269
24.663114107195035 43.4133
24.685904536893013 43.178999999999995
24.708874020360852 43.1155
24.731666442613744 43.1302
24.754459858818787 42.9661
24.777254270007962 43.0276
24.80022777025625 42.9236
24.82302418230472 42.981
24.845821592443674 42.9842
24.86862000170663 42.8792
24.891597535453727 42.7713
24.914397953892728 43.0336
24.93719937456671 42.9906
24.96000179851076 43.2282
24.98298338249997 43.2667
25.00578782394922 43.4267
25.028593271784167 43.6008
25.05157790644186 43.9227
25.07438537804115 44.0894
25.097193859145293 44.364
25.120003350792075 44.5839
25.142992065061257 44.8904
25.165803588823465 45.0369
25.18861612625217 45.3768
25.211429678386736 45.3927
25.234422489079968 45.3521
25.257238081693636 45.4071
25.280054692141732 45.4637
25.3028723214652 45.3651
25.325869245420463 45.3751
25.348688923599397 45.4182
25.371509623787006 45.5328
25.394331347025812 45.1119
25.41733240110666 44.8121
25.440156181590016 44.013000000000005
25.46298098826268 43.5794
25.48580682216873 43.0032
25.50881202326435 42.4052
25.53163992281684 42.1443
25.55446885274561 41.8091
25.577298814096377 41.4504
25.600308179121807 41.4259
25.623140214533745 41.4571
25.64597328451537 41.3645
25.66898578564376 41.1904
25.691820936010206 41.357
25.714657124097695 41.2469
25.737494350954734 41.2429
25.760511045684957 41.1333
25.783350361364224 41.1516
25.806190718969255 41.1238
25.82903211955018 41.2695
25.852053024868923 41.3459
25.874896522722523 41.465
25.897741066713106 41.2413
25.920586657892454 41.3662
25.943611790812668 41.4939
25.966459487728237 41.68899999999999
25.989308234998564 41.6002
26.01215803367705 41.8895
26.03518741123814 42.0385
26.05803932412957 41.9949
26.080892291600094 42.0521
26.10374631470478 42.331
26.12677995397268 42.3316
26.14963609978026 42.2695
26.172493304397875 42.0055
26.19535156888223 41.8023
26.218389486949604 41.4157
26.241249882640123 41.2473
26.26411134137826 40.9377
26.28715248187403 40.8799
26.31001607820869 40.8673
26.3328807407756 40.6314
26.35574647063438 40.836999999999996
26.37879191991473 40.6804
26.401659795896734 40.6791
26.424528742360263 40.986000000000004
26.447398760366614 41.1641
26.470448535598294 41.1559
26.49332070826805 41.398999999999994
26.516193955675355 41.891000000000005
26.53906827888316 42.0135
26.562122397260108 42.0144
26.584998883685063 42.3267
26.607876449110325 42.6347
26.63075509460056 42.6743
26.65381357334404 42.8037
26.67669439061878 42.6881
26.699576291163382 42.6305
26.722459276044212 42.5996
26.745522132402975 42.2691
26.768407297649354 42.0082
26.791293550442003 41.6117
26.814180891848974 41.3547
26.837248143099337 41.0485
26.860137673466657 41.0435
26.88302829566349 40.7888
26.90592001075963 40.5825
26.92899167420566 40.4473
26.951885586870763 39.9669
26.974780595655517 39.9033
26.99785558178161 39.8916
27.020752794605112 39.7436
27.043651106772522 39.5165
27.06655051935668 39.4278
27.089629948036183 39.3816
27.112531573292053 39.3643
27.135434302194138 39.3842
27.158338135817015 39.179
27.181422024430987 39.2946
27.204328079372566 39.1365
27.22723524226965 39.2
27.250143514198573 39.1973
27.273231880156334 39.2119
27.296142382065014 39.0278
27.319053996245536 38.8711
27.341966723775965 39.0731
27.365059584515222 39.1467
27.38797455070062 39.1998
27.410890633481237 39.0118
27.433807833936918 39.0755
27.456905206923906 39.0195
27.47982465472398 39.0338
27.502745223449743 39.2064
27.525666914182825 39.2048
27.548768816912457 39.0756
27.571692763693633 39.2087
27.59461783573812 39.1007
27.617723149491244 38.8533
27.640650484125285 38.6562
27.66357894728264 38.635
27.686508540048052 38.7459
27.709618414237887 38.5665
27.732550278321757 38.4256
27.755483275279115 38.5863
27.778417406196485 38.6474
27.801531858397514 38.6609
27.824468269376716 38.3473
27.847405817586786 38.3685
27.870344504116094 38.6861
27.893463551932008 38.7285
27.916404527281053 38.896
27.93934664422563 38.9303
27.962289903855886 39.0522
27.98541356491974 39.2244
28.00835912214229 39.1976
28.03130582533231 39.6226
28.054253675581805 39.7127
28.077381967556104 39.5928
28.100332124185126 39.5302
28.123283431160893 39.4589
28.146235889577238 39.3512
28.169368830154156 39.1463
28.192323603752033 39.0934
28.215279532083304 38.763000000000005
28.238415973016764 38.5411
28.261374223145094 38.3223
28.284333631303806 38.0392
28.307294198589954 38.0383
28.330435319167677 37.7405
28.353398217078915 37.5258
28.376362277420153 37.2427
28.39932750129032 37.0531
28.422473319286713 36.9062
28.44544088262495 36.9455
28.468409612800283 36.687
28.491379510913497 36.6638
28.51453004413313 36.3869
28.53750229057244 36.4195
28.56047570826344 36.3975
28.583450298308804 36.6071
28.606605564586562 36.2108
28.629582511831156 36.3983
28.65256063474956 36.2242
28.675539934446338 36.1547
28.698699951647605 36.2027
28.72168161743193 35.9882
28.74466446331978 36.2356
28.767648490417624 36.0395
28.790813276438353 36.001999999999995
28.813799678527303 36.03
28.836787265157085 35.9241
28.859955641890075 35.9523
28.882945610203045 35.9078
28.905936766392035 35.7736
28.928929111566863 35.8904
28.952102288520145 35.775999999999996
28.975097024308607 35.6697
28.998092952423807 35.5204
29.021090073977508 35.3877
29.04426806913204 35.335
29.067267590245258 35.1566
29.090268308143695 35.1815
29.11327022394099 35.0753
29.13645305530891 35.0019
29.159457379627167 34.9342
29.18246290519685 34.9178
29.20546963313352 34.8803
29.22865731875826 34.9524
29.25166646419296 34.8865
29.27467681535305 34.7141
29.29768837335608 34.8711
29.320880931312562 34.8274
29.34389491580634 34.8067
29.366910110507334 34.8072
29.38992651653503 34.6876
29.41312396492981 34.6807
29.436142806456754 34.6657
29.45916286268059 34.4581
29.48236399319994 34.3855
29.50538649169417 34.2323
29.528410208259935 34.2701
29.55143514402014 34.0272
29.574641196749695 33.9574
29.597668583816574 33.8591
29.6206971934585 33.6659
29.64372702680042 33.6666
29.666938019934474 33.5811
29.689970313635285 33.5024
29.713003834422636 33.4558
29.73603858342347 33.4432
29.759254535188578 33.2858
29.78229175361658 33.2383
29.80533020365064 33.3698
29.82836988641968 33.3703
29.85159081507472 33.2856
29.874632976355343 33.2995
29.89767637376955 33.2345
29.920721008448314 33.071999999999996
29.9439469322847 33.065
29.96699405457564 32.99
29.9900424175358 33.0226
30.013092022298157 33.0521
30.03632295963995 32.9668
30.059375061131373 33.0275
30.08242840783577 33.0401
30.105483000888153 32.9404
30.128718970092244 32.7705
30.151776069006917 32.8766
30.17483441768648 32.9126
30.198074175317235 32.9337
30.221135036724256 32.9478
30.24419715131772 32.8634
30.267260520236203 32.7455
30.290505341942243 32.7736
30.313571232750228 32.8544
30.336638381310948 32.7806
30.35970678876503 32.7377
30.38295669299435 32.6561
30.40602763151657 32.6791
30.429099832366074 32.584
30.452173296685572 32.574
30.47542830191959 32.5563
30.498504306502497 32.5649
30.521581577995562 32.599000000000004
30.544660117543582 32.6695
30.56792024229725 32.7808
30.59100133132069 32.5831
30.614083691845494 32.6578
30.637167325018545 32.6255
30.660432587840603 32.6212
30.683518779717886 32.5869
30.70660624769615 32.7111
30.729694992924372 32.7772
30.75296541239743 32.6459
30.77605672557558 32.6273
30.799149319462742 32.5747
30.8224236211637 32.5384
30.845518789950724 32.4
30.868615242910597 32.3758
30.891712981195973 32.116
30.91499247215866 32.0331
30.938092794619365 32.043
30.96119440587579 31.9275
30.984297307082752 31.7951
31.00758200598383 31.7401
31.030687500658694 31.6067
31.053794288760695 31.6125
31.076902371446767 31.590999999999998
31.100192296997445 31.6045
31.12330298246119 31.5361
31.14641496599209 31.3843
31.169528248749216 31.4609
31.19282341969534 31.4662
31.215939314557186 31.476999999999997
31.239056512134788 31.5173
31.262175013589378 31.5152
31.28547544871168 31.3401
31.30859657161541 31.291999999999998
31.331719001892175 31.3041
31.35484274070538 31.5038
31.378148458819545 31.3507
31.401274828443725 31.3437
31.424402510106933 31.2637
31.447712205419993 31.3638
31.470842524931633 31.2525
31.493974159989783 31.2813
31.51710711176168 31.2578
31.54042212308802 31.2804
31.563557722100917 31.2537
31.586694641341655 31.0847
31.609832881979628 31.0059
31.63315322823208 30.9246
31.656294125521327 30.7881
31.679436347728515 30.8399
31.70257989602529 30.6817
31.725905596152327 30.6819
31.74905181052835 30.5946
31.772199354521323 30.7018
31.79534822930507 30.651999999999997
31.818679302290967 30.6998
31.84183085259981 30.5538
31.864983737233473 30.5717
31.88813795736804 30.6364
31.911474422233013 30.451999999999998
31.934631327356435 30.5392
31.9577895715215 30.4825
31.980949155906522 30.3717
32.004291031706956 30.4488
32.027453310562606 30.2609
32.05061693318573 30.1478
32.07396288236386 30.3855
32.09712920658542 30.2592
32.12029687812702 30.1501
32.14346589817093 29.9919
32.166817291729984 29.9883
32.18998902288583 29.9017
32.21316210610336 29.8789
32.23633654256711 29.7034
32.259693399663725 29.6571
32.282870556771144 29.5944
32.30604907069099 29.6604
32.329228942610065 29.5686
32.35259128243769 29.4287
32.375773884550505 29.4385
32.398957848235646 29.3695
32.422143174682176 29.3469
32.445511016471215 29.1692
32.468699082679954 29.1308
32.49188851523011 29.0725
32.51507931531304 29.0571
32.538452678331 29.1206
32.56164622776311 29.0201
32.58484114831493 28.9484
32.60803744118015 28.9338
32.631416344731896 28.8854
32.654615396551876 28.8068
32.67781582427913 28.8268
32.701198898634416 28.723000000000003
32.72440209253756 28.6625
32.747606665947124 28.6743
32.77081262006088 28.5944
32.79420126883317 28.5888
32.81740999876112 28.5908
32.840620112999424 28.5085
32.86383161274818 28.4653
32.88722585534586 28.3939
32.91044014056596 28.487
32.933655814909734 28.3949
32.95687287957963 28.4117
32.98027273544904 28.2943
33.00349259526636 28.3133
33.026713849030116 28.3292
33.04993649794511 28.2908
33.073341986570746 28.3141
33.09656744032826 28.2038
33.11979429286444 28.2062
33.14302254538647 28.2096
33.166433686291185 28.1202
33.18966475336992 28.2146
33.212897224069096 28.0228
33.23613109959831 28.0113
33.259547912343415 27.9132
33.2827846121627 27.9231
33.306022720453775 27.8512
33.32926223842861 27.8445
33.352684742614166 27.8092
33.37592709463173 27.7903
33.399170859982064 27.7633
33.422597648419426 27.5993
33.44584425514446 27.5263
33.46909227885668 27.5168
33.4923417207723 27.4216
33.51577423505344 27.4057
33.539026528130385 27.3222
33.56228024307245 27.3393
33.585535381098246 27.1579
33.60897364093058 27.1856
33.63223163992385 27.2046
33.6554910656699 27.0863
33.678751919389796 27.0541
33.702195944520106 26.9999
33.72545966903325 27.0029
33.74872482519663 26.9251
33.771991414233746 26.9445
33.79544122444841 26.9159
33.81871069412428 26.8275
33.84198160035767 26.8216
33.86525394437455 26.7636
33.88870955949969 26.7173
33.911984794020626 26.6085
33.93526147001624 26.6595
33.958539588715006 26.6066
33.98200102861669 26.54
34.0052820477047 26.5192
34.02856451319451 26.4898
34.05203033759056 26.2775
34.07531571090147 26.2598
34.09860253431845 26.3402
34.121890809074316 26.3282
34.145362493118924 26.2609
34.16865368561615 26.2714
34.191946333164054 26.2632
34.21524043699793 26.2224
34.23871800066799 26.1058
34.26201503218366 26.0187
34.28531352370466 25.9883
34.30861347646881 25.9284
34.33209693978188 25.9445
34.3553998301885 25.9657
34.378704185565205 25.7518
34.402010007152356 25.6699
34.42549939016683 25.7631
34.44880815937748 25.7402
34.472118398533134 25.7032
34.49543010887669 25.6026
34.51892543169198 25.5187
34.54224009966052 25.5271
34.56555624255917 25.5058
34.58887386163339 25.4516
34.61237514439016 25.3643
34.6356957311114 25.3785
34.65901779775809 25.3418
34.68252356662995 25.3238
34.705848608458616 25.3361
34.72917513396849 25.2185
34.75250314440949 25.15
34.77601490857862 25.1118
34.799345904259795 25.1309
34.82267838863559 25.1034
34.846012362958525 25.0743
34.869530142679984 24.9831
34.89286711232212 24.9331
34.91620557568269 24.9317
34.93954553401677 24.9313
34.9630693495876 24.891
34.986412313340814 24.8903
35.00975677584668 24.8322
35.033102738362956 24.835
35.05663261012228 24.6549
35.0799815881786 24.7265
35.10333207003229 24.7004
35.12668405694369 24.6747
35.150220005273056 24.6335
35.17357501786656 24.6254
35.19693153931268 24.5391
35.220289570874385 24.467
35.24383161619786 24.5344
35.267192683604904 24.5232
35.290555264930376 24.5036
35.314101899412165 24.378
35.33746752422433 24.3378
35.36083466676374 24.3302
35.38420332829803 24.3318
35.407756095629054 24.3365
35.43112781085063 24.3088
35.45450104888391 24.2251
35.477875810999194 24.2224
35.50143473172161 24.1953
35.52481255774625 24.2412
35.54819191167777 24.1624
35.57157279478914 24.0886
35.595137889488406 24.07
35.61852184675279 23.9372
35.641907337029984 23.9666
35.665294361595684 24.0028
35.68886565090076 23.9155
35.7122557598848 23.8805
35.73564740699838 23.8522
35.759040593519934 23.8267
35.78261809810353 23.7712
35.80601437933051 23.6576
35.829412203814705 23.6056
35.85281157283719 23.5767
35.876395313415884 23.5999
35.8997977874528 23.5419
35.92320180988546 23.5765
35.946790244133936 23.4836
35.97019737933222 23.4035
35.993606066789866 23.4587
36.01701630779276 23.3636
36.04061101440684 23.3613
36.06402437852291 23.3593
36.08743930005611 23.2699
36.1108557802951 23.2627
36.13445678011326 23.2729
36.15787639383515 23.1741
36.18129757014299 23.2066
36.20472031032821 23.0865
36.22832762423364 23.0744
36.25175350829375 23.0659
36.275180960119776 22.9473
36.298609981005924 23.0369
36.32222362992669 22.9815
36.34565580510207 22.9105
36.36908955323448 22.8243
36.39252487562093 22.7496
36.416144880530226 22.7712
36.43958336764275 22.7852
36.463023432914625 22.8274
36.486465077645676 22.6595
36.51009145956204 22.7236
36.53353627947859 22.7839
36.55698268276811 22.7302
36.58043067073321 22.5735
36.60406345072071 22.4999
36.62751462435344 22.5121
36.65096738658405 22.5262
36.67460498210655 22.4475
36.69806093788647 22.4465
36.72151848619297 22.3245
36.744977628333636 22.3938
36.76862165890998 22.2383
36.79208400512205 22.3117
36.81554794910557 22.3172
36.83901349217101 22.171
36.862663978991606 22.1664
36.88613273667352 22.0895
36.90960309738324 22.0893
36.933075062434064 22.0317
36.95673202673572 21.9867
36.98020721697122 21.9549
37.003684015502365 21.8649
37.027162423645365 21.8488
37.050825886711465 21.9311
37.07430753063053 21.8264
37.09779078812467 21.7354
37.121275660513014 21.7393
37.144945643673694 21.7584
37.16843376245278 21.7505
37.19192350009803 21.7952
37.215414857931435 21.6876
37.239091382563885 21.5698
37.262585997426164 21.5495
37.28608223645736 21.5516
37.309763684451696 21.5071
37.33326318851098 21.5352
37.356764320726555 21.4923
37.380267082425526 21.4068
37.40395510942588 21.384
37.42746114683234 21.3082
37.45096881771841 21.2872
37.474478123414166 21.3904
37.49817275092816 21.2957
37.52168534303452 21.2357
37.54519957395567 21.1244
37.568715445024665 21.1326
37.592416694607714 21.0439
37.61593586281424 21.1326
37.63945667518264 21.1437
37.66297913304891 21.0344
37.68668702630454 20.9551
37.710212792059274 20.9258
37.733740207334854 20.8774
37.757269273470364 20.8953
37.780983832050374 20.8564
37.80451621684926 20.7861
37.82805025654007 20.8176
37.851585952464795 20.746
37.8753071980695 20.7026
37.89884622345676 20.6103
37.92238690911902 20.5537
37.94611318753442 20.6121
37.969657210779765 20.5879
37.99320289834801 20.5743
38.016750251586465 20.5285
38.04048325513017 20.4989
38.06403395679343 20.4788
38.087586328183946 20.4245
38.11114037065203 20.4089
38.13488012115898 20.4017
38.1584375229181 20.2692
38.181996599821 20.3119
38.205557353221124 20.198
38.229303872575656 20.1754
38.2528679961576 20.2036
38.27643380031219 20.1715
38.30000128639589 20.1243
38.32375459653193 20.1705
38.34732546371299 20.0873
38.37089801690786 20.0138
38.39447225747609 19.9554
38.418232380377425 19.9666
38.441810012983396 19.9861
38.46538933705673 19.9047
38.488970353960084 19.9125
38.51273731166058 19.8753
38.536321731567014 19.746
38.55990784840681 19.756
38.58367995004091 19.6743
38.60726947812959 19.7077
38.63086070726198 19.7295
38.654453638806274 19.7422
38.678232613930824 19.6278
38.70182896773327 19.5613
38.72542702806741 19.5418
38.7490267963045 19.4882
38.77281266709232 19.4913
38.79641586862214 19.4535
38.8200207821842 19.4047
38.843627409152944 19.3911
38.86742019782782 19.3331
38.891030269149255 19.3755
38.914642058016156 19.3361
38.938255565806124 19.2407
38.96205529464307 19.2399
38.98567225787121 19.1911
39.00929094417078 19.2006
39.03291135492255 19.2362
39.05671804624804 19.1764
39.080341923549106 19.1891
39.103967529460334 19.1239
39.127594865365744 18.9251
39.15140854155791 18.9545
39.17503935514948 18.9753
39.19867190290282 18.9731
39.22249083587951 18.9169
39.24612686969409 18.9082
39.269764641845306 18.9106
39.293404153722804 18.8529
39.317230110864074 18.7665
39.34087311998506 18.6905
39.36451787301696 18.7332
39.388164371352595 18.68
39.41199737518003 18.6483
39.43564738196752 18.6417
39.45929913825317 18.6176
39.48295264543308 18.5888
39.506792718520884 18.549
39.530449745387216 18.4898
39.55410852735203 18.4204
39.57776906581474 18.4688
39.60161623079 18.4661
39.625280300200025 18.4236
39.64894613032202 18.3552
39.67261372255866 18.3369
39.6964680021016 18.2807
39.72013913657293 18.2809
39.74381203738292 18.2649
39.76748670593756 18.2603
39.79134812278169 18.2474
39.81502634488497 18.1964
39.83870633896685 18.1465
39.862388106436654 18.1065
39.88625668336918 18.0489
39.90994201572829 18.0854
39.933629125719285 18.0494
39.957503091207826 17.9612
39.9811937746168 18.0422
40.00488623990914 17.9539
40.02858048850006 17.9175
40.05246165409549 17.8563
40.076159487492085 17.7703
40.099859108448875 17.8331
40.123560518384345 17.8327
40.1474489070226 17.8182
40.171153913178564 17.7793
40.194860712584955 17.7232
40.2185693066637 17.7127
40.242464941335314 17.617
40.26617714307655 17.6219
40.289891143772046 17.6106
40.3136069448471 17.5364
40.33750984859743 17.5338
40.3612292688043 17.5199
40.3849504936829 17.4881
40.40867352466194 17.4909
40.43258372059144 17.4227
40.45631038219906 17.4505
40.48003885420956 17.3965
40.503769138055105 17.359
40.52768664931955 17.38
40.55142057531802 17.3449
40.57515631746428 17.2634
40.599079334038514 17.2345
40.62281872700477 17.1861
40.64655994043941 17.2099
40.67030297578061 17.1478
40.69423334835778 17.0948
40.71798004609188 17.1122
40.74172857006355 17.0839
40.76547892171441 17.0673
40.7894166736039 17.0465
40.813170699248566 16.9922
40.83692655691388 16.9558
40.86068424804498 16.9364
40.884629402612525 16.9385
40.908390779366385 16.9257
40.932153993938 16.8482
40.95591904777605 16.9053
40.979871628443995 16.8851
41.003640379561936 16.8638
41.02741097430883 16.7941
41.05118341413683 16.7164
41.075143444384416 16.6793
41.098919593177826 16.6708
41.1226975914255 16.7024
41.14647744058318 16.5964
41.170444943946755 16.6256
41.19422851378379 16.5682
41.218013938914645 16.5474
41.24198706625173 16.4527
41.26577622087193 16.4488
41.289567235177785 16.4352
41.31336011063129 16.4304
41.337340752422875 16.4335
41.361137369129835 16.4418
41.38493585138705 16.3282
41.40873620066004 16.2987
41.43272438060107 16.3047
41.45652848292052 16.2308
41.48033445666918 16.2519
41.50414230331616 16.2166
41.528138045159764 16.1736
41.551949656675205 16.0925
41.575763145513235 16.1315
41.59957851314666 16.0667
41.62358184070442 16.0565
41.64740098505737 16.0294
41.6712220126409 15.9898
41.69504492493139 15.9548
41.71905586207357 15.9733
41.74288256296395 15.925
41.766711153007456 15.8932
41.79054163368412 15.8822
41.814560204340054 15.8611
41.838394485526365 15.8461
41.86223066180303 15.815
41.88625497706819 15.7484
41.910094962812 15.7945
41.93393684811168 15.7439
41.95778063445365 15.6918
41.981812625263366 15.6948
42.00566023303407 15.6337
42.029509746323676 15.6233
42.05336116662236 15.5791
42.077400857069705 15.5464
42.10125611078846 15.5613
42.12511327600405 15.5487
42.14897235421036 15.5349
42.173019768448455 15.4785
42.19688269209613 15.4134
42.22074753323349 15.4353
42.24461429335818 15.3578
42.268669455600495 15.3235
42.292540073217886 15.3267
42.31641261433284 15.2881
42.34028708044675 15.2965
42.36435001496739 15.2974
42.38822835065557 15.2415
42.41210861586426 15.2286
42.4359908120986 15.1845
42.46006154323262 15.1341
42.48394762115317 15.1583
42.507835634632315 15.1658
42.531912233047436 15.0728
42.55580413732265 15.0096
42.579697981698 15.0456
42.60359376768525 15.0199
42.62767820545945 15.0103
42.65157789440821 14.9436
42.67547952952185 14.8997
42.699383112316 14.915
42.72347541395347 14.8629
42.74738291190531 14.8668
42.771292362102166 14.8806
42.795203766063516 14.8003
42.819303956130405 14.7759
42.843219287476536 14.735999999999999
42.86713657716324 14.7106
42.89105582671383 14.725
42.91516392983864 14.6985
42.939087119032166 14.6594
42.963012272677304 14.6631
42.98693939230129 14.5917
43.01105543317513 14.5984
43.034986504731386 14.5897
43.05891954686589 14.5236
43.08285456110972 14.4968
43.10697856448665 14.4509
43.130917542983475 14.3949
43.15485849820081 14.4071
43.17880143167367 14.4076
43.20293342237094 14.3715
43.226880332449 14.3361
43.25082922540554 14.3406
43.27496722682525 14.2884
43.29892010567796 14.2626
43.32287497204102 14.2406
43.34683182745632 14.1632
43.370977859791836 14.184000000000001
43.39493871351105 14.2349
43.41890156092628 14.2034
43.44286640358341 14.1254
43.46702049182749 14.0917
43.49098934522816 14.0478
43.51496019852649 14.0014
43.5389330532723 13.9796
43.56309522248204 13.960999999999999
43.58707210044314 13.9648
43.61105098451946 13.9277
43.63503187626491 13.856
43.659202151562134 13.8545
43.68318707902681 13.8587
43.70717401884041 13.8888
43.731162972560874 13.8259
43.75534137913236 13.7921
43.779334381108384 13.7746
43.803329401683186 13.7063
43.82732644241872 13.745
43.8515130055166 13.744000000000002
43.87551410707659 13.6802
43.89951723350145 13.6936
43.923709934595614 13.6618
43.94771713129917 13.6632
43.97172635758096 13.6242
43.99573761501002 13.5672
44.0199385169922 13.5501
44.04395385732619 13.5244
44.067971233533086 13.5212
44.09199064718605 13.5018
44.11619977548961 13.4449
44.14022328470671 13.442
44.16424883610785 13.4748
44.18827643127035 13.4394
44.21249381139513 13.3391
44.236525514814076 13.2805
44.26055926674478 13.3701
44.28459506876863 13.2667
44.3088207262813 13.2201
44.33286064928722 13.2243
44.35690262714919 13.232999999999999
44.38094666145278 13.2227
44.4051806219871 13.1893
44.42922879003185 13.1573
44.45327901929361 13.1102
44.477331311362136 13.1042
44.501573600619416 13.0746
44.525630039221795 13.0884
44.54968854541895 13.0722
44.573937102200176 13.0351
44.5979997645541 13.0295
44.622064499300315 12.9415
44.64613130803592 12.9122
44.67038823869318 12.9026
44.69445921643748 12.9256
44.718532272981385 12.845999999999998
44.742607409926194 12.8027
44.76687274034801 12.7905
44.79095205918753 12.7894
44.81503346325094 12.7724
44.839116954143876 12.7585
44.86339071028742 12.7401
44.88747839599524 12.7062
44.91156817336837 12.692
44.93566004401666 12.7027
44.959942251908146 12.6832
44.984038330325966 12.648
45.00813650686762 12.5613
45.03223678314731 12.612
45.05652746888232 12.59
45.08063196592069 12.5449
45.104738567558705 12.4964
45.128847275414856 12.4808
45.15314646515866 12.4489
45.17725940679741 12.4513
45.20137445952892 12.468
45.22568004865265 12.4511
45.24979934496396 12.3905
45.27392075725247 12.3816
45.29804428714431 12.3376
45.322358426247604 12.3328
45.346486212804315 12.2867
45.370616121861914 12.2732
45.39474815505086 12.2433
45.41907087049246 12.21
45.4432071734666 12.2405
45.46734560548283 12.2039
45.49148616817604 12.1975
45.51581748638564 12.1649
45.5399623320197 12.1286
45.56410931325473 12.0982
45.58825843173002 12.0918
45.61259837920865 12.0378
45.636751793816 12.0451
45.66090735060093 11.9673
45.68506505120716 12.0016
45.7094136545275 11.9848
45.73357566449271 11.9319
45.75773982322992 11.9164
45.78190613238733 11.9234
45.806263418194064 11.8892
45.83043404997326 11.8933
45.85460683713677 11.839
45.87897065658495 11.8517
45.90314777634752 11.7617
45.92732705646868 11.7809
45.9515084986045 11.7194
45.97588104735473 11.7653
46.00006683541565 11.727
46.02425479047904 11.6743
46.04844491420549 11.7024
46.0728262191024 11.642000000000001
46.09702070211635 11.6346
46.12121735879483 11.6389
46.14541619080294 11.6383
46.169806278764455 11.6032
46.194009483459034 11.5616
46.21821486849841 11.5477
46.24242243555223 11.5108
46.266821333570014 11.499
46.29103328674601 11.4467
46.31524742696538 11.4659
46.33946375590237 11.4151
46.36387149104216 11.3952
46.38809221957392 11.3738
46.41231514186606 11.3834
46.436540259597464 11.3414
46.460956858999374 11.3479
46.48518638983522 11.3324
46.509418121166966 11.3043
46.533652054678114 11.2767
46.55807754555709 11.207
46.58231590571962 11.2408
46.60655647313217 11.1874
46.630988654873654 11.14
46.655233659129024 11.1507
46.67948087571551 11.1314
46.70373030632484 11.1302
46.72817142736393 11.1067
46.752425308428684 11.0889
46.77668140861147 11.0446
46.80093972960865 11.0204
46.82538981736788 10.9779
46.849652602470904 11.0039
46.87391761349769 10.9366
46.8981848521493 10.969000000000001
46.9226439341274 10.9183
46.946915650573224 10.8676
46.97118959976749 10.8538
46.99546578341598 10.831
47.019933887188216 10.845999999999998
47.04421456235744 10.8566
47.06849747711879 10.8518
47.09278263318286 10.7849
47.11725978640143 10.7319
47.14154944775105 10.7274
47.165841355555656 10.7429
47.1901355115306 10.722000000000001
47.214621741924994 10.6975
47.23892041698887 10.6927
47.26322134538975 10.6484
47.28771440635075 10.6022
47.31201986422527 10.6279
47.33632758061436 10.5782
47.360637557241866 10.5486
47.38513974410611 10.5423
47.40945426407847 10.5137
47.43377104948137 10.5152
47.45809010204344 10.5131
47.48260144275502 10.4612
47.506925052572285 10.4526
47.53125093475548 10.4215
47.55557909103813 10.4642
47.58009961361992 10.4245
47.60443234110732 10.379000000000001
47.62876734791564 10.3705
47.65310463578333 10.3563
47.6776343683373 10.3478
47.7019762413987 10.2864
47.72632040075572 10.2762
47.75066684815169 10.2594
47.77520581885936 10.2464
47.799556865477655 10.2259
47.823910205386 10.2018
47.84826584033272 10.1784
47.87281407745551 10.1525
47.89717432569297 10.1521
47.92153687423484 10.1442
47.94609208429692 10.1496
47.97045925671401 10.1114
47.99482873471275 10.0673
48.01920052005013 10.0673
48.04376504619224 10.003
48.068141469543484 10.0648
48.09252020552573 10.0318
48.11690125590099 9.97418
48.1414751266064 9.91041
48.16586082917454 9.968169999999999
48.19024885144316 9.93657
48.2146391951793 9.93469
48.239222439012764 9.95619
48.26361744916137 9.86116
48.28801478610016 9.8771
48.31241445160131 9.87347
48.337007097209366 9.82048
48.36141144338331 9.797260000000001
48.38581812345755 9.768939999999999
48.41022713920929 9.79715
48.434829215320704 9.77942
48.45924292604658 9.76596
48.48365897780325 9.73546
48.50807737237308 9.73521
48.532688907799276 9.708839999999999
48.55711201168574 9.662510000000001
48.581537463754074 9.670810000000001
48.60615611725119 9.684
48.63058628942721 9.62082
48.65501881516546 9.59257
48.6794536962573 9.58928
48.70408185970339 9.554219999999999
48.72852147531801 9.54018
48.75296345168211 9.508289999999999
48.77740779059232 9.53228
48.80204549302823 9.50906
48.82649458091802 9.47895
48.85094603676547 9.45389
48.87539986237231 9.454310000000001
48.90004713292306 9.416139999999999
48.92450572200832 9.359169999999999
48.94896668628025 9.375910000000001
48.97343002754588 9.353069999999999
48.99808689542115 9.33642
49.02255501470614 9.35854
49.04702551642794 9.336960000000001
49.0714984023988 9.28209
49.096164896893235 9.27058
49.120642575466796 9.27771
49.145122643748394 9.25512
49.16960510355558 9.2129
49.19428125404938 9.224960000000001
49.2187685210852 9.21622
49.243258185121555 9.1921
49.26794160167084 9.18966
49.2924360839405 9.12831
49.31693296869764 9.07749
49.34143225776915 9.09857
49.36612538195438 9.084389999999999
49.39062950396021 9.09107
49.41513603578346 9.085139999999999
49.4396449792564 9.03978
49.46434784069503 9.02872
49.488861631846454 9.00432
49.513377840166804 8.960469999999999
49.537896467493745 8.964889999999999
49.56260909589029 8.91266
49.587132585683285 8.91431
49.611658500018365 8.87637
49.636186840738596 8.85599
49.66090926588511 8.90638
49.685442483902584 8.89257
49.70997813385706 8.82697
49.734516217597076 8.817739999999999
49.75924846937352 8.80518
49.7837914452858 8.791269999999999
49.80833686055187 8.77552
49.83288471702571 8.79101
49.85762682540054 8.753589999999999
49.882179588965734 8.700510000000001
49.9067347993235 8.708160000000001
49.93129245833333 8.694460000000001
49.95604445336378 8.66893
49.98060703442832 8.66185
50.005172069746266 8.6546
50.02993150438364 8.63702
50.05450147301533 8.63008
50.07907390151433 8.61927
50.10364879174981 8.60497
50.12841816587289 8.57267
50.1529980044635 8.55156
50.17758031042124 8.53461
50.20216508562089 8.502
50.22694442953363 8.47565
50.25153416817468 8.46935
50.27612638170508 8.453710000000001
50.300721072005196 8.43621
50.325510416102105 8.40775
50.350110084975064 8.41879
50.37471223628208 8.43644
50.39931687190919 8.39833
50.424116246675766 8.368780000000001
50.44872587605249 8.34559
50.47333799543065 8.34463
50.49795260670191 8.3253
50.52276204271512 8.317689999999999
50.54738166295838 8.34808
50.57200378079314 8.29609
50.596628398116835 8.24492
50.62144792604559 8.24398
50.646077567609396 8.22737
50.670709714377715 8.228110000000001
50.69553683636198 8.20048
50.72017401885922 8.17575
50.7448137122895 8.1203
50.76945591856022 8.151019999999999
50.79429318636823 8.17843
50.818940443716784 8.13958
50.84359021965163 8.10009
50.868242516085964 8.08601
50.893089960641895 8.05746
50.917747323549435 8.05675
50.94240721271973 8.0648
50.96706963007175 8.0149
50.99192728239342 8.00418
51.01659478166073 8.01029
51.04126481489051 7.99662
51.06593738400761 7.9721
51.090805275207074 7.91415
51.11548294172845 7.926089999999999
51.14016314993547 7.91189
51.164845901758845 7.89998
51.18972406304274 7.89796
51.21441192780656 7.8757600000000005
51.23910234200271 7.8296
51.2637953075678 7.846439999999999
51.288683770237945 7.80508
51.31338186432707 7.778410000000001
51.33808251561888 7.763489999999999
51.362978729967345 7.77584
51.387684521509755 7.74705
51.41239287610203 7.74357
51.437103795691165 7.709630000000001
51.46201036644977 7.698119999999999
51.486726441956634 7.67311
51.51144508832545 7.655480000000001
51.536166307509156 7.62684
51.56108326624387 7.616110000000001
51.58580965706056 7.620610000000001
51.61053862657523 7.5787
51.635270176746864 7.56186
51.66019755512065 7.585960000000001
51.68493429268881 7.556369999999999
51.70967361681515 7.550110000000001
51.73441552946465 7.50069
51.759353359237934 7.49535
51.7841004750961 7.50938
51.80885018539685 7.4757
51.833602492111254 7.471539999999999
51.8585508051424 7.45556
51.883308330926425 7.41568
51.90806845906181 7.4118
51.932831191525715 7.38991
51.95779001977161 7.347160000000001
51.98255798721516 7.37115
52.00732856494335 7.37091
52.03229530577543 7.33304
52.057071130455945 7.311
52.081849571391054 7.280010000000001
52.106630630568695 7.29633
52.13160794279417 7.2782800000000005
52.15639426492067 7.253610000000001
52.18118321127822 7.25409
52.205974783860896 7.26502
52.23096269971011 7.21295
52.255759551287994 7.20144
52.280559035098186 7.18239
52.30536115314103 7.1905
52.33035970494467 7.118530000000001
52.35516711807904 7.1906300000000005
52.37997717147198 7.15755
52.40478986713005 7.15517
52.42979908731974 7.09582
52.454617094216 7.10392
52.47943774942214 7.09465
52.50426105495102 7.07712
52.529280976059844 7.07022
52.554109609024096 7.024839999999999
52.57894089837482 7.029389999999999
52.60377484613117 7.000610000000001
52.62880550079408 6.98014
52.65364479223379 6.9604
52.67848674816189 6.943410000000001
52.70352547971946 6.9520800000000005
52.72837279155837 6.9283
52.753222773982785 6.91834
52.778075429022984 6.931080000000001
52.80312495150885 6.87558
52.827982978797436 6.89239
52.85284368481815 6.849139999999999
52.87770707160767 6.8205
52.90276741793998 6.81203
52.92763619336701 6.8113600000000005
52.952507655698504 6.77458
52.977381806977576 6.772989999999999
53.00245301017842 6.7820100000000005
53.02733256653592 6.75719
53.052214817996074 6.74925
53.077099766608484 6.70671
53.102181859804446 6.695989999999999
53.127072229988265 6.708310000000001
53.15196530349892 6.6885
53.17686108239249 6.689189999999999
53.20195409881522 6.6567
53.22685531582556 6.68342
53.25175924441303 6.6174100000000005
53.27666588664027 6.5831100000000005
53.30176985962693 6.555910000000001
53.3266819565689 6.59744
53.35159677336455 6.595389999999999
53.376514312083096 6.55259
53.40162927507703 6.54214
53.42655228516116 6.5254900000000005
53.45147802340193 6.522469999999999
53.47660125628886 6.53543
53.50153247842639 6.50256
53.52646643496923 6.47141
53.55140312799818 6.46964
53.576537409691696 6.4193
53.60147960336152 6.43342
53.626424539786164 6.443890000000001
53.65137222105307 6.43695
53.67651758529126 6.40837
53.70147078399681 6.33361
53.72642673383343 6.33553
53.75138543689533 6.339119999999999
53.776541917524526 6.35093
53.801506154876755 6.31139
53.826473151763246 6.30317
53.851442910284916 6.29407
53.87661054126026 6.29024
53.9015858509782 6.29587
53.92656392866066 6.22661
53.95154477641532 6.24712
53.976723591801296 6.2493
54.00171000771266 6.24929
54.02669920004598 6.1881699999999995
54.051691170915745 6.18309
54.076881204886796 6.20455
54.101878760928514 6.11263
54.12687910187696 6.128340000000001
54.152077577768296 6.143330000000001
54.1770835166946 6.0648
54.20209224691339 6.0724
54.22710377055121 6.08293
54.25231352511594 6.064769999999999
54.27733066384342 6.03554
54.30235060239643 6.03677
54.32737334290836 6.05872
54.35259441062629 6.015619999999999
54.377622783395324 6.01219
54.40265396455061 6.00699
54.42768795623251 5.90666
54.45292037169559 5.8779900000000005
54.477960012857906 5.91245
54.50300247099511 5.89799
54.52804774825457 5.87626
54.55329154616743 5.863980000000001
54.57834249018678 5.85065
54.6033962597977 5.7931
54.6284528571545 5.79291
54.653708072335164 5.76864
54.67877035378786 5.77417
54.70383546947698 5.66929
54.72890342156389 5.682869999999999
54.7541700889442 5.67047
54.77924374251975 5.66559
54.8043202390049 5.63065
54.82959552413022 5.6158
54.8546777351945 5.60431
54.87976279569621 5.54085
54.90485070780914 5.64245
54.930137506558005 5.58574
54.95523115074295 5.5658
54.98032765308844 5.51312
55.005427015775496 5.5393
55.03072536339621 5.51666
55.05583047570572 5.4163
55.080938454927676 5.4751900000000004
55.10604930325027 5.42316
55.131359235107396 5.40015
55.15647585066083 5.33835
55.181595341907496 5.37171
55.20671771104285 5.3474699999999995
55.232039262617704 5.3379199999999996
55.25716741665048 5.27377
55.28229845518636 5.28913
55.30743238042802 5.23074
55.33276558731939 5.1957699999999996
55.357905315183636 5.21241
55.383047936390035 5.183680000000001
55.40819345314859 5.1128599999999995
55.433538351073295 5.1272400000000005
55.458689688238415 5.106990000000001
55.483843927614096 5.01014
55.509197623043605 5.04063
55.53435769621134 5.04978
55.55952067826466 4.9823
55.5846865714265 4.98634
55.61005202069737 4.95456
55.63522376553902 4.9653599999999996
55.66039842818645 4.9558800000000005
55.68557601087004 4.92357
55.7109532500271 4.828180000000001
55.73613670233794 4.913819999999999
