TT I
1.2716486653135266 7.52232
1.2939594142134223 7.179710000000001
1.3162702121660406 6.7475
1.3385810600174564 6.59294
1.3608919586137629 6.54534
1.383202908801069 5.66844
1.405513911425503 5.70282
1.4278249673332093 6.29336
1.4501343378461518 6.00913
1.4724455028545926 5.93431
1.4947567236847858 5.54525
1.517068001182951 5.66935
1.5393793361953272 6.25835
1.5616907295681737 6.14245
1.5840021821477681 5.18456
1.60631369478041 5.27367
1.6286252683124185 5.26971
1.6509369035901333 4.871659999999999
1.6732468618895553 5.0126
1.695558623192809 4.87712
1.7178704487808514 5.04994
1.7401823395001077 4.93329
1.7625012545597203 4.76626
1.7848028405262486 4.94466
1.8071218901122095 4.68688
1.8294236121921872 4.09842
1.8517427996910911 5.058330000000001
1.8740620574440425 5.0204
1.8963639900671978 4.97487
1.9186833908139995 4.89271
1.9409854680117449 5.04312
1.9633050151394713 5.38722
1.9856246367570705 4.7249300000000005
2.0079269371922672 4.63419
2.03024671027244 4.06902
2.0525491637446027 5.0145
2.074869091674931 4.76466
2.097171701569106 4.70047
2.1194917877373847 4.8899
2.141811954326636 4.8299199999999995
2.164114805233074 4.66484
2.186435135143035 4.95699
2.208738150935709 9.75478
2.231058647554722 17.6895
2.2533792288321184 13.7024
2.275682498336085 7.46862
2.298003251406138 5.49106
2.3203066942619714 5.55561
2.3426276225136022 5.40036
2.3649486396617507 5.02381
2.387252348930071 5.84641
2.4095735463442893 5.31553
2.4318774374315884 5.40026
2.4541988185014043 6.19667
2.476502894794693 6.919860000000001
2.498824462909887 6.77402
2.521146125856138 6.75754
2.5434504863470337 6.432169999999999
2.5657723414244717 7.5147
2.588076895590662 8.39564
2.610398946189713 7.48428
2.6327210958598384 7.10991
2.6550259469304716 7.649439999999999
2.6773482972090137 7.29985
2.6996533504259 7.84755
2.7219759047039602 8.156189999999999
2.744298562293959 7.70747
2.7666039251246595 8.09325
2.7889267918020164 8.14734
2.8112323652516555 7.9626600000000005
2.833555444408179 7.866230000000001
2.8558786311183852 8.05681
2.8781845268938557 8.76108
2.9005079311721484 8.47681
2.9228140460410397 8.73405
2.9451376712799635 9.12368
2.967444008632326 9.32277
2.9897678582247247 9.94898
3.0120918213106695 10.2365
3.0343984987899373 10.4524
3.0567226913198637 11.0649
3.079029599759726 11.1478
3.101354025127254 11.8545
3.123678568232338 12.6993
3.145985829517914 12.834000000000001
3.16831061055229 13.423
3.1906181112775593 13.917
3.212943133635653 14.8555
3.2352682779763207 14.9764
3.2575761442691227 15.1339
3.2799015350264273 15.1967
3.302209649240067 15.8424
3.3245352898092655 16.4233
3.3468436553365257 17.1011
3.369169549113219 17.5479
3.3914955708171384 18.7957
3.413804319727358 18.771
3.4361305997334863 18.7617
3.4584396084414553 19.6947
3.4807661501462652 20.0618
3.503092824025881 20.8797
3.5254022288463154 21.0913
3.5477291695206588 21.0659
3.5700388426251948 22.1944
3.5923660534916446 23.0589
3.6146934007816114 31.9219
3.637003482731501 58.9114
3.6593311053109985 65.0666
3.681641464033634 42.2105
3.7039693653009733 27.7563
3.726297407241705 25.4643
3.7486081875460804 25.5406
3.7709365132734978 25.8393
3.793247578841633 26.3423
3.8155761917550093 26.5594
3.8378875459837216 26.9916
3.8602164494827234 27.559
3.882545499606844 28.04
3.9048572932539183 29.0617
3.9271866390645718 29.4182
3.9494987298666713 29.6967
3.971828374764527 30.3214
3.9941581705403255 30.3948
4.016470713506008 31.3763
4.038800813471445 32.1672
4.061113662089144 32.8228
4.0834440696459176 33.9076
4.105774632334751 33.7061
4.128087945865126 34.4206
4.150418821249301 35.4304
4.172732448931298 36.1796
4.195063640413578 37.6653
4.2173775856475215 40.1133
4.239709096631102 59.1977
4.262040768704612 150.28799999999998
4.284355196706267 193.963
4.306687193387355 130.227
4.329001947444346 62.7931
4.35133427213731 45.1234
4.373666762177566 43.6252
4.395982011761091 43.8324
4.418314834921175 44.9744
4.44063041906622 50.273999999999994
4.4629635787515625 56.458999999999996
4.4852969080429785 56.8817
4.5076130004776225 52.5344
4.529946671403969 52.6215
4.552263106909177 54.2989
4.574597122877047 53.3968
4.596931312711224 53.7397
4.619248269273446 54.1942
4.6415828092605835 54.776
4.663900117405352 55.8791
4.686235010953232 57.2953
4.708552674085913 58.5613
4.730887924602802 60.0722
4.753223354952695 61.5678
4.775541557023902 64.1133
4.797877349456786 65.805
4.820195915032126 67.5182
4.842532072957498 68.0683
4.864868414979744 70.7657
4.88718753227192 73.2331
4.909524244902505 75.2683
4.931843734218147 76.3291
4.954180820867835 79.3247
4.976518095879839 82.2762
4.998838149695359 85.2389
5.021175803844231 88.5263
5.043496238205739 91.7984
5.065834274903528 96.7644
5.088172504230693 101.7
5.1104935158799565 109.197
5.132832132875765 128.121
5.155153533596801 163.181
5.1774925416746225 211.735
5.199814334878411 459.634
5.2221537374521505 1249.99
5.244493338631803 3196.58
5.266815727034316 7844.09
5.289155727832427 12371.3
5.311478517248165 8392.38
5.333818921080011 2846.91
5.356159527788849 587.554
5.3784829252032536 197.23
5.400823940070432 151.245
5.423147747031976 131.685
5.445489173474152 121.09100000000001
5.467830807066149 117.066
5.490155234831516 114.205
5.512497285125229 109.152
5.534822130975162 105.836
5.557164601388673 103.163
5.579489868738879 100.111
5.601832762690846 98.789
5.6241758697774475 97.8715
5.646501775867269 97.2201
5.668845311622074 95.8912
5.691171647754637 95.5505
5.713515615597765 94.3069
5.735859800852677 93.5351
5.758186788542988 93.4675
5.780531411018185 95.4071
5.802858837297399 94.9032
5.825203900414495 94.8262
5.8475491852224 96.23100000000001
5.869877275883075 96.6676
5.892223006467101 96.5335
5.914551544266608 96.9277
5.936897724049891 100.06299999999999
5.959244129804903 108.071
5.981573344815301 138.997
6.0039202049061 265.92
6.026249875609095 550.118
6.04859719346037 1106.76
6.070927323278297 2346.28
6.093275102315365 4434.74
6.115623113320588 5513.62
6.137953938319995 3360.37
6.160302415650845 1034.61
6.182633708324452 245.917
6.2049826554078376 115.53299999999999
6.227331838745022 93.6193
6.249663839443684 85.9046
6.27201349767565 82.7006
6.294345974611799 84.2022
6.316696111167083 89.1698
6.339046488263839 85.7907
6.361379686074702 76.2823
6.383730546639482 71.2382
6.406064229255215 69.6983
6.428415576718203 69.6452
6.450749747566656 68.2231
6.47310158535871 66.5745
6.495453669698332 65.942
6.517788579421056 65.1794
6.540141159237969 63.8575
6.562476565766648 63.442
6.5848296444934045 62.6543
6.607182974060425 62.7234
6.6295191323281015 62.6945
6.651872965955752 64.2597
6.6742096296068985 78.8298
6.6965639707294615 104.303
6.71891856698715 103.93
6.741255995248479 79.0054
6.763611104154477 63.948
6.785949046381137 59.698
6.808304671371482 58.9398
6.8306605557940046 59.1412
6.852999275508618 57.8413
6.875355681171544 57.5577
6.897694923437771 57.0748
6.92005185377892 56.7951
6.9423916220322655 56.8495
6.964749080490181 55.7784
6.987106804399774 55.7833
7.009447368180821 56.1953
7.031805625367033 55.5956
7.054146723727803 55.6137
7.076505517631004 55.2964
7.098864581288365 55.2876
7.121206488070854 55.3179
7.143566093607822 55.0319
7.165908543567245 55.2485
7.188268694426048 55.3929
7.2106291193438095 55.4858
7.232972390625943 56.0559
7.255333366030969 63.2393
7.277677189091925 91.9196
7.300038718428332 119.695
7.322400526130865 104.613
7.344745183422596 74.4284
7.367107550224791 58.722
7.389452767901992 55.3595
7.411815697249891 54.9575
7.434161478756298 54.2877
7.456524974096713 54.0239
7.478888753837185 54.0335
7.501235387657368 54.2689
7.523599738562711 54.5202
7.545946944825532 55.1669
7.568311870344528 55.2301
7.5906770845765665 55.3356
7.613025156078678 56.2122
7.635390950099687 57.4507
7.657739602662809 56.7611
7.680105979923558 56.4047
7.702472650212829 56.8527
7.724822180948224 56.6523
7.747189439655568 56.4978
7.769539560075357 56.4559
7.791907410653562 56.8279
7.81425812420825 56.6113
7.836626570110925 57.1754
7.858995315087906 58.0365
7.881346924933401 58.0005
7.903716270417482 58.4852
7.926068482028405 59.0123
7.948438431475253 59.2695
7.9708086843180235 60.1033
7.993161805171116 60.512
8.015532667162402 61.2067
8.037886398416653 62.1873
8.060257873014221 62.8291
8.082629655331942 63.239
8.104984308787587 64.1316
8.127356708900503 66.7708
8.149711981398308 70.9889
8.172085002766314 72.9552
8.194458336181368 70.9271
8.216814543847752 69.5531
8.23918850371002 69.6777
8.26154533906492 70.82300000000001
8.283919928836452 72.1727
8.306277395339652 73.4769
8.328652618483376 74.8697
8.351028159736202 77.1087
8.373386579575245 79.4488
8.395762759396959 81.0777
8.418121819038275 85.5282
8.440498640894003 94.8094
8.462875785192262 107.45100000000001
8.485235811156207 132.924
8.507613602688501 191.986
8.529974277114228 290.29200000000003
8.552352719347912 435.79400000000004
8.574731488360351 715.148
8.59709314210385 1251.58
8.619472567021075 1873.34
8.64183487789147 2196.19
8.664214962183097 1769.12
8.686577933647762 943.845
8.708958680784317 371.67199999999997
8.731339760774953 162.684
8.753703729764451 111.72
8.77608547780821 100.03299999999999
8.798450116065078 96.0035
8.820832535634787 93.0511
8.843215292401656 91.6721
8.865580941199045 91.2399
8.887964374703538 90.1285
8.910330701447199 90.7097
8.932714815164482 91.0535
8.955099270424924 89.4372
8.977466620733543 87.171
8.999851761421976 85.4927
9.022219798361645 84.4073
9.04460562795561 84.4618
9.066991803441677 83.9068
9.089360876979615 83.9947
9.111747746589993 83.6843
9.13411751544971 82.96600000000001
9.156505082664324 82.4094
9.178875550323522 82.1224
9.20126381862328 82.7397
9.223652438908596 83.2606
9.246023961427412 83.3194
9.26841328802173 82.5672
9.290785518039224 82.5175
9.313175554425882 84.0119
9.335565947154315 84.2726
9.357939245086508 84.6194
9.380330352834827 84.8302
9.40270436697103 84.7348
9.425096193225055 84.1742
9.447488380180165 84.8871
9.469863475295412 85.1168
9.492256385987508 85.3046
9.514632206018318 86.0683
9.537025843935714 86.6937
9.559402392368193 87.1072
9.581796761000229 88.6994
9.604191496441521 89.8843
9.626569144158516 92.4844
9.648964615551032 95.1368
9.671343000390081 96.0318
9.693739211225699 95.0686
9.716135793237463 93.8019
9.738515290448102 93.8853
9.760912617143402 95.1664
9.783292860202891 96.9134
9.805690935076182 98.2286
9.828089385495742 99.2582
9.850470754023561 101.249
9.872869957865444 106.12
9.89525208097539 116.137
9.917652041736662 125.344
9.940052382417589 132.493
9.962435644102392 156.798
9.984836746950979 206.30700000000002
10.007220771957746 272.692
10.029622640473708 380.26
10.052007432299963 571.493
10.074410069984072 859.6619999999999
10.096813093716005 1281.59
10.119199042482517 1720.3
10.141602840636468 1933.04
10.163989564971628 1550.77
10.186394141051062 863.988
10.208799107559706 374.916
10.231187001965623 180.238
10.253592751657669 125.428
10.275981430388155 113.412
10.298387966769793 111.48299999999999
10.320794897965431 111.999
10.343184759907361 111.03200000000001
10.36559248305461 107.325
10.387983138083852 106.304
10.410391656691655 113.306
10.432800574501677 126.82700000000001
10.455192425893369 144.194
10.47760214443012 171.247
10.499994797678786 216.423
10.522405320453982 297.975
10.54479877906917 409.58099999999996
10.567210109595656 524.052
10.5896218454736 568.3580000000001
10.612016518879773 498.98699999999997
10.634429067781074 333.423
10.656824555333241 193.083
10.679237920773568 119.941
10.701651695961992 95.6467
10.724048411481384 89.6998
10.746463008485165 87.1975
10.768860546937125 85.4637
10.791275969274796 83.7487
10.81369180576079 82.4519
10.836090585366925 81.3009
10.858507252467449 79.9786
10.88090686379991 79.0432
10.903324365036394 78.5939
10.925724811614439 78.0227
10.948143150509463 78.8097
10.970561909719066 78.4279
10.992963615930844 76.6632
11.015383218085756 75.0733
11.037785768347074 73.6741
11.06020621697282 72.8624
11.082627090322113 72.5879
11.105030913430326 72.0048
11.12745263854165 71.9036
11.149857314510728 73.6056
11.172279894912576 76.9471
11.194702904450653 76.9425
11.217108866490921 74.2743
11.239532736615194 71.6451
11.26193956033512 70.3188
11.284364294577085 69.4496
11.306789462371718 68.0417
11.329197585398376 67.4595
11.351623622610898 67.3159
11.37403261614354 66.615
11.396459526308487 66.2932
11.418869393879497 65.8662
11.441297180532617 65.6992
11.463725406927658 65.2235
11.486136592353875 64.9816
11.508565700543707 65.0144
11.530977768845315 66.0515
11.553407762368774 66.4353
11.575838200059769 65.9652
11.598251599479612 65.0089
11.620682927815501 64.3435
11.64309721895548 63.8843
11.665529441478206 63.6571
11.687962112597958 63.2648
11.710377748130886 63.0045
11.732811318753434 63.1174
11.755227854859067 63.2042
11.777662328529495 63.027
11.800079768750786 62.9623
11.822515149015453 62.8832
11.844950984084935 63.2417
11.867369787303163 62.74
11.889806534289491 62.7443
11.912226250487029 63.0532
11.934663912939751 63.308
11.9571020346363 63.5874
11.979523127133968 63.8624
12.001962169624331 64.6522
12.024384183972964 66.6153
12.046824150809913 70.4982
12.069264581333726 75.5463
12.091687985297767 81.8947
12.11412934550045 91.1299
12.136553680195208 105.895
12.158995973632788 128.972
12.181438735204349 155.282
12.20386447284199 182.257
12.226308172985636 203.44099999999997
12.24873485024193 196.199
12.271179492516982 162.08100000000002
12.293607112949127 121.178
12.316052700916226 89.4815
12.338498763250042 74.59899999999999
12.360927805303868 68.1599
12.383374818673879 65.8523
12.405804812803074 64.2783
12.428252780773262 64.1905
12.45070122756722 64.529
12.473132656675375 64.5416
12.49558206341869 64.9857
12.518014453510101 64.8954
12.540464823770117 64.8977
12.562915677315177 65.1018
12.58534951575545 65.5272
12.607801338171472 67.048
12.630236146511358 69.767
12.652688941369085 72.8477
12.675124723177234 72.9322
12.697578494048786 71.1901
12.720032754458185 68.9042
12.742470003354093 67.9611
12.764925245138771 67.9005
12.787363476431278 68.1692
12.809819703166806 68.6136
12.83227642391173 69.6863
12.854716135692716 70.1553
12.877173846755147 71.3541
12.899614549869717 71.5799
12.9220732548287 72.6139
12.94453245827299 73.1302
12.966974655289818 74.0614
12.989434858002571 74.7991
13.011878055298721 75.5882
13.034339260862497 76.9273
13.056800969391883 78.179
13.079245674017244 80.748
13.101708390774869 85.1164
13.12415410463411 94.4001
13.146617833206086 105.89399999999999
13.169064559883248 117.50399999999999
13.191529303857127 132.89600000000002
13.213994557076367 157.61
13.236442809902437 196.003
13.258909083908291 251.50400000000002
13.28135835851934 311.251
13.30382565690295 377.11800000000005
13.326293469022952 429.006
13.348744283242008 425.38199999999995
13.371213125129904 347.496
13.39366497011003 252.517
13.416134845360597 167.392
13.438605238843131 122.15700000000001
13.46105863690397 108.54
13.483530069144786 110.615
13.505984506951902 116.296
13.528456981549432 126.242
13.550929978879088 142.53
13.573385983253365 167.71200000000002
13.595860028340867 207.12599999999998
13.618317081455832 254.328
13.64079217790333 307.171
13.663250283359057 349.469
13.685726434770173 365.042
13.708203115221277 333.089
13.730662806148091 255.138
13.75314054697177 181.799
13.775601299246777 124.87899999999999
13.798080104050406 96.3967
13.820559442405358 85.5992
13.843021793671388 82.0031
13.865502201420897 80.2938
13.887965623051947 80.1489
13.910447103807167 78.9807
13.932929122629764 77.778
13.955394156785959 77.0013
13.977877254034569 76.2575
14.000343367582113 75.4583
14.022827546871707 75.1906
14.045294743423524 74.2624
14.06778000837062 73.4079
14.090265817715476 73.3273
14.112734645763819 73.0034
14.13522154619454 72.5282
14.157691466286913 72.2813
14.180179461423874 72.2954
14.202668005486178 71.734
14.22513957064374 71.1426
14.247629214846473 70.7605
14.270101881097517 70.6723
14.29259262906496 70.6774
14.315083930490205 70.992
14.337558255389705 71.0041
14.360050666019726 71.0011
14.382526101071944 70.1731
14.405019624534942 69.7012
14.427513705993134 69.3925
14.449990813291825 69.3823
14.47248601302899 69.2153
14.49496423954951 69.355
14.517460561197822 69.3686
14.539939910570322 68.9736
14.562437357763558 69.3744
14.58493536931253 70.2491
14.607416409993311 70.7642
14.62991555254159 71.2926
14.652397725157423 71.1536
14.674898002342799 71.192
14.697398848433282 71.1589
14.719882725991326 72.483
14.74238471217934 74.4346
14.764869730765593 78.7217
14.787372860692983 82.0311
14.809876564079925 86.3681
14.83236330125751 92.4363
14.854868153850365 101.573
14.877356041159485 115.749
14.899862046604186 134.136
14.922351087688757 158.296
14.944858249632887 184.855
14.967365991421232 209.199
14.989856770231246 223.023
15.012365673994204 215.99200000000002
15.03485761569738 184.933
15.05736768508665 144.381
15.07987833888692 111.066
15.102372032001655 88.7778
15.124883856909658 76.2248
15.14737872204565 72.0837
15.169891721717274 70.8057
15.192405310371893 70.6189
15.214901940621196 70.6132
15.237416709527137 70.4266
15.259914520936249 70.2328
15.282430473753607 69.6248
15.304947020131227 68.6473
15.327446610371178 68.185
15.349964346154254 67.3921
15.372465126703139 67.1582
15.394984055556009 67.0306
15.417486030076159 66.9287
15.44000615566487 66.4664
15.462526881230803 66.6186
15.485030653812652 66.6209
15.507552581617434 66.4016
15.530057557334603 66.4782
15.55258069104857 66.6279
15.575104429329837 66.7808
15.597611216864632 66.3742
15.620136166564563 66.7631
15.6426441664095 68.786
15.665170331202765 71.8046
15.687697105158826 74.6276
15.710206930593545 78.2684
15.732734925158933 82.5622
15.755245972089478 89.494
15.77777519094324 99.1207
15.800287463046663 112.603
15.822817909869592 130.816
15.84534897229804 150.625
15.867863089299354 172.86599999999999
15.890395385222186 189.72400000000002
15.912910736597423 193.234
15.935444269699861 180.595
15.957978423016485 151.21
15.980495633101265 119.458
16.003031029129367 93.98200000000001
16.02554948280019 75.5086
16.048086125229432 67.1937
16.070623392487107 64.8021
16.09314371869582 63.8854
16.11568223789321 62.9547
16.13820381691126 62.21
16.160743591742527 61.4587
16.183283996022084 60.8338
16.205807461423195 59.7783
16.228349126881973 59.2581
16.25087385432698 59.0443
16.27341678466365 58.857
16.29594277784926 58.4193
16.31848697676433 58.265
16.341031811604868 58.0832
16.36355971058487 58.4841
16.3861058195587 58.1878
16.40863499352978 57.1157
16.431182380342005 56.8129
16.453730407713202 56.3285
16.476261501364792 56.0154
16.498810812136167 55.6532
16.52134319004079 55.9025
16.54389378792203 55.7627
16.566445031001553 55.4858
16.588979342490088 55.4402
16.61153187824822 55.2368
16.634067483263312 55.1439
16.656621315414416 55.0176
16.679175797408888 54.7999
16.701713349928728 54.7145
16.72426913389191 54.8636
16.74680798922351 54.9811
16.76936507887444 55.1598
16.791905240734874 55.162
16.814463639794468 54.8843
16.837022695210294 54.9891
16.859564824093756 55.3859
16.882125194503903 55.7366
16.904668639217885 56.091
16.927230328348003 56.2729
16.949792678493612 56.3266
16.972338104193863 56.1879
16.994901778652235 55.7387
17.017448529496576 56.0546
17.040013531998152 56.3369
17.06257920018044 57.0529
17.0851279459922 57.8447
17.107694947817667 58.7555
17.130245028099072 59.4682
17.15281336730298 60.8983
17.17536478578733 62.505
17.19793446610687 64.9494
17.220504818648422 67.8036
17.243058251703697 71.1386
17.265629950971032 75.1472
17.288184731571736 78.6096
17.310757781306908 82.2818
17.33333150794385 83.7275
17.355888317140174 81.2286
17.37846339986244 76.7995
17.401021565958885 70.7849
17.42359800851343 65.6995
17.44617513265564 62.0712
17.468735341390783 60.3701
17.491261035594565 59.5679
17.51396340099364 59.1813
17.536490463869136 59.4437
17.559018209820174 59.4652
17.58154663977963 59.6412
17.604251766089718 59.5803
17.626781572227713 59.956
17.64931206518155 60.1508
17.671843245885103 60.6126
17.69455114821572 60.633
17.717083712612634 61.0837
17.739616967569667 61.4746
17.762150914021706 61.618
17.78486160749854 61.7043
17.807396945166804 62.8629
17.829932977143503 64.2531
17.85246970436452 65.9175
17.875183204129467 67.796
17.897721330097664 69.8778
17.920260154126645 72.2616
17.942799677153296 75.6671
17.9655159983646 79.4591
17.988056927677544 85.2055
18.010598558807683 93.1145
18.033140892692916 102.73700000000001
18.05586005052525 112.405
18.07840379824407 123.334
18.10094825154059 134.496
18.12366954819864 141.156
18.146215420998306 141.048
18.16876200220057 132.399
18.191309292745153 117.185
18.214033452627167 103.295
18.236582170236648 91.5403
18.259131600016456 87.2776
18.281681742907335 87.9772
18.304408781233683 91.9999
18.32696035875955 96.7545
18.349512652227624 101.35
18.372065662579683 105.545
18.394795594587553 106.465
18.41735004715306 103.024
18.43990521943684 95.8264
18.46246111238171 86.3619
18.485193953325208 76.8892
18.507751296070428 69.6632
18.530309362314178 65.8297
18.552868153000343 63.6044
18.57560391815056 62.4472
18.59816416623245 62.1517
18.620725141597372 61.8879
18.643286845190268 61.0475
18.666025549835414 60.751999999999995
18.688588718427933 59.998000000000005
18.711152618092243 60.0508
18.73389353884365 59.8763
18.75645890921984 59.2692
18.77902501351406 59.097
18.801591852673102 58.9333
18.824335739722738 58.5139
18.846904057212626 58.3795
18.8694731124168 57.9739
18.89204290628315 58.0332
18.914789774966803 58.0866
18.937361054791623 57.6773
18.959933076131318 57.3449
18.982505839934877 57.3583
19.00525570560582 57.2844
19.027829963004184 57.1091
19.05040496572238 57.2509
19.072980714710468 57.5087
19.095733592739563 57.6593
19.11831084296757 57.7918
19.140888842324735 58.3981
19.16346759176222 58.7851
19.18622349753803 59.105
19.208803755869358 59.9899
19.231384767143577 61.3074
19.253966532312948 62.8422
19.276725481241822 65.1617
19.29930876296784 67.6442
19.3218928014549 70.294
19.34465404436217 73.0497
19.36723960516257 75.2194
19.389825925592426 76.3024
19.412413006605938 75.3882
19.43517731967805 72.2304
19.457765930683355 67.3284
19.48035530514408 63.2087
19.50294544401556 59.3451
19.525712842708348 56.818999999999996
19.54830451925909 55.3253
19.570896963095727 54.4577
19.593490175174704 54.0492
19.616260674962184 54.2053
19.638855432416964 53.8392
19.661450960992624 53.8532
19.68404726164677 53.8841
19.706820878021247 53.4091
19.729418731756834 53.7067
19.752017360452857 53.7221
19.77461676506804 53.9171
19.797393513540218 54.1878
19.819994478951667 54.4588
19.84259622316767 54.9339
19.8651987471481 55.1632
19.887978643247177 55.5729
19.91058273574792 56.1858
19.933187610901943 56.9716
19.955969879466828 58.1239
19.97857632894404 59.8422
20.00118356396599 61.3011
20.023791585494575 63.4223
20.046577028914875 65.8728
20.069186632506966 67.9823
20.091797025500632 69.8786
20.114408208858933 70.308
20.137196842715273 69.8748
20.159809615886765 68.3592
20.18242318232135 65.7832
20.20503754298326 63.8733
20.227829382875154 62.7139
20.250445341109344 62.5529
20.27306209647285 63.1284
20.29567964993108 64.3194
20.31847471147704 65.0979
20.34109387027612 65.7619
20.363713830075454 65.4044
20.386334591841646 64.0315
20.409132890679302 61.5131
20.431755265564437 58.4571
20.454378445325528 55.6907
20.477002430930366 53.4861
20.499803982716553 52.4034
20.522429589228004 51.7054
20.54505600449589 51.0698
20.567683229489194 51.0925
20.590488049900088 50.7364
20.61311690359731 50.5206
20.63574656993626 50.1534
20.658553853717297 49.7864
20.681185154618298 49.956
20.703817271080066 49.8647
20.72645020407368 49.4195
20.749260783967177 49.5145
20.771895359337133 49.5587
20.794530754161617 49.2949
20.817166969412938 49.1383
20.83998086114876 49.1443
20.86261872660049 49.1423
20.885257415405402 48.9251
20.90789692853701 48.9296
20.930714147864748 49.1123
20.953355319030678 49.1356
20.97599731745334 49.0373
20.99864014410749 48.8316
21.021460706796564 48.9037
21.044105199328826 49.1562
21.06675052302631 49.5181
21.089396678865015 49.6343
21.112220600704806 49.8832
21.134868430275347 50.232
21.15751709492456 50.4451
21.180166595629693 50.7799
21.202993892429635 51.1376
21.22564507473034 51.6074
21.24829709602816 51.8792
21.27112693608965 51.6911
21.293780644891275 51.5698
21.316435195634053 50.9769
21.339090589297417 50.3025
21.361923832041875 49.8629
21.384580921090404 49.4028
21.407238856007325 48.6906
21.429897637773326 48.7821
21.45273429906592 48.66
21.475394784108598 48.788000000000004
21.498056118951983 48.7255
21.520718304578022 48.8919
21.543558400304388 48.9909
21.566222297108816 49.3769
21.58888704765135 49.5339
21.61155265291521 49.7463
21.63439619898156 50.2084
21.657063523335786 50.455
21.67973170537063 50.93899999999999
21.7024007460706 51.4726
21.72524775840385 52.1785
21.747918526116475 53.3329
21.770590155457388 54.6873
21.79326264741238 56.3022
21.816113141960237 57.8444
21.838787368860547 59.5668
21.861462461341976 61.3978
21.884315579735777 63.1474
21.90699241312273 64.3579
21.92967011506078 64.9674
21.95234868653799 64.5644
21.9752053151131 63.5251
21.997885635446785 61.4481
22.020566828293532 59.5572
22.04324889464272 57.8977
22.066109049404666 56.68
22.088792872571794 56.2333
22.111477572219204 56.5357
22.1341631493376 56.3397
22.157026846313123 56.3004
22.179714188221507 55.4927
22.202402410582668 54.4996
22.22509151438863 53.1344
22.24795876962584 51.6902
22.270649646204486 50.786
22.293341407213727 50.0629
22.316034053646906 49.5144
22.338904883215342 49.4314
22.36159931041458 49.3933
22.38429462602756 49.1874
22.40699083104897 48.9719
22.429865251039757 49.1605
22.452563244831367 48.9599
22.47526213102522 48.9172
22.49813925616515 48.9863
22.520839937143307 48.9724
22.543541513520587 48.9465
22.56624398629403 48.8911
22.589124730075895 48.8716
22.611829005656723 49.1793
22.63453418063466 49.1528
22.657240256008077 49.3236
22.680124634582935 49.5415
22.70283252079775 49.9427
22.725541310413075 50.1076
22.74825100442868 50.1472
22.771139033969575 50.6689
22.79385054687155 50.8573
22.81656296718292 51.5651
22.83927629590484 52.5006
22.862167992606945 53.5429
22.88488314827121 54.7303
22.907599215359284 55.607
22.93031619487366 56.5946
22.953211574954405 57.6003
22.975930389478226 58.1866
22.998650119445763 58.477
23.02137076586092 57.5073
23.044269845560063 56.1821
23.06699233506288 54.582
23.089715744034912 52.7313
23.112617610931565 51.2396
23.135342869061212 50.0737
23.158069049684816 49.4021
23.1807961538087 49.106
23.20370174880544 49.1795
23.226430710184808 49.3195
23.249160598093425 49.3297
23.271891413539002 49.2642
23.294800752937697 49.3701
23.31753343374794 49.4109
23.340267045128353 49.5034
23.36300158808808 49.9758
23.38591468821339 50.2779
23.408651104658304 50.7881
23.431388455719986 51.4118
23.454126742409 52.2536
23.4770436196085 53.1716
23.499783787914662 54.3768
23.522524894889884 55.1943
23.54526694154616 56.2645
23.56818761219047 57.36600000000001
23.59093154860734 57.9284
23.613676427751283 58.1741
23.636422250635754 57.2447
23.659346731118656 55.5352
23.68209445191868 53.5741
23.704843119509587 51.5983
23.72759273490623 49.718
23.750521041644767 48.4165
23.77327256312355 47.4581
23.796025035462787 46.7942
23.818956224555475 46.2964
23.841710609113413 46.1956
23.86446594758979 45.9488
23.887222241002014 45.7973
23.910157285144578 45.4033
23.932915498962537 45.4486
23.955674670778713 45.3709
23.978434801611975 44.9766
24.001373717286125 45.0088
24.024135776723917 44.8875
24.046898798245582 44.7436
24.06966278287146 44.7304
24.092605586582614 44.4986
24.115371508023642 44.4294
24.1381383956401 44.3731
24.16090625045381 44.1732
24.183852958731244 44.1288
24.206622758582608 43.9999
24.229393528706886 43.8199
24.252165270127392 43.9549
24.27511589952438 43.9116
24.297889594216997 43.7238
24.32066426328598 43.5447
24.34343990775613 43.7099
24.36639447485003 43.4071
24.38917208083877 43.3894
24.41195066531332 43.325
24.43490819850244 43.3487
24.457688750692377 43.2435
24.48047028445616 43.2378
24.503252800821233 43.3304
24.526214300784112 43.4458
24.548998793132213 43.3407
24.57178427117417 43.167
24.59457073593893 43.2106
24.617536219319863 43.2258
24.64032466834748 43.2168
24.663114107195035 43.1286
24.685904536893013 42.7485
24.708874020360852 42.6997
24.731666442613744 42.662
24.754459858818787 42.6433
24.777254270007962 42.5024
24.80022777025625 42.653999999999996
24.82302418230472 42.5109
24.845821592443674 42.4962
24.86862000170663 42.4859
24.891597535453727 42.4289
24.914397953892728 42.6867
24.93719937456671 42.6405
24.96000179851076 42.6814
24.98298338249997 42.9526
25.00578782394922 43.0204
25.028593271784167 43.2059
25.05157790644186 43.4562
25.07438537804115 43.6971
25.097193859145293 43.8747
25.120003350792075 44.0627
25.142992065061257 44.4109
25.165803588823465 44.659
25.18861612625217 44.8562
25.211429678386736 44.8764
25.234422489079968 44.9928
25.257238081693636 45.0041
25.280054692141732 45.1686
25.3028723214652 45.0733
25.325869245420463 45.1795
25.348688923599397 45.2795
25.371509623787006 45.1453
25.394331347025812 44.7924
25.41733240110666 44.3973
25.440156181590016 43.6269
25.46298098826268 43.17
25.48580682216873 42.7075
25.50881202326435 41.9932
25.53163992281684 41.6974
25.55446885274561 41.505
25.577298814096377 41.1157
25.600308179121807 41.0285
25.623140214533745 41.1449
25.64597328451537 41.1438
25.66898578564376 40.8161
25.691820936010206 40.7893
25.714657124097695 40.7516
25.737494350954734 40.8675
25.760511045684957 40.6996
25.783350361364224 40.7749
25.806190718969255 40.6418
25.82903211955018 40.8332
25.852053024868923 40.8519
25.874896522722523 41.0017
25.897741066713106 40.923
25.920586657892454 40.9453
25.943611790812668 41.1479
25.966459487728237 41.3052
25.989308234998564 41.2776
26.01215803367705 41.5745
26.03518741123814 41.7564
26.05803932412957 41.6584
26.080892291600094 41.7871
26.10374631470478 41.9001
26.12677995397268 42.0249
26.14963609978026 41.9358
26.172493304397875 41.6178
26.19535156888223 41.3122
26.218389486949604 40.9951
26.241249882640123 40.757
26.26411134137826 40.4611
26.28715248187403 40.5855
26.31001607820869 40.444
26.3328807407756 40.2634
26.35574647063438 40.4351
26.37879191991473 40.3047
26.401659795896734 40.5147
26.424528742360263 40.644
26.447398760366614 40.786
26.470448535598294 40.9001
26.49332070826805 41.0416
26.516193955675355 41.233000000000004
26.53906827888316 41.5083
26.562122397260108 41.7528
26.584998883685063 42.0797
26.607876449110325 42.2189
26.63075509460056 42.4137
26.65381357334404 42.5632
26.67669439061878 42.5461
26.699576291163382 42.3721
26.722459276044212 42.2104
26.745522132402975 41.8934
26.768407297649354 41.5488
26.791293550442003 41.2117
26.814180891848974 41.0775
26.837248143099337 40.7249
26.860137673466657 40.6659
26.88302829566349 40.458
26.90592001075963 40.2978
26.92899167420566 40.0651
26.951885586870763 39.7674
26.974780595655517 39.4781
26.99785558178161 39.3669
27.020752794605112 39.3524
27.043651106772522 39.2043
27.06655051935668 39.2079
27.089629948036183 39.0184
27.112531573292053 38.9464
27.135434302194138 38.9718
27.158338135817015 38.8363
27.181422024430987 38.7645
27.204328079372566 38.6961
27.22723524226965 38.843
27.250143514198573 38.8608
27.273231880156334 38.9248
27.296142382065014 38.6714
27.319053996245536 38.5855
27.341966723775965 38.7594
27.365059584515222 38.7097
27.38797455070062 38.6728
27.410890633481237 38.6058
27.433807833936918 38.775
27.456905206923906 38.8097
27.47982465472398 38.8705
27.502745223449743 38.7862
27.525666914182825 38.9895
27.548768816912457 38.93
27.571692763693633 38.7791
27.59461783573812 38.574
27.617723149491244 38.592
27.640650484125285 38.5081
27.66357894728264 38.435
27.686508540048052 38.3547
27.709618414237887 38.2098
27.732550278321757 38.0524
27.755483275279115 38.1293
27.778417406196485 38.0594
27.801531858397514 38.1388
27.824468269376716 38.1327
27.847405817586786 38.0476
27.870344504116094 38.3526
27.893463551932008 38.3939
27.916404527281053 38.5715
27.93934664422563 38.619
27.962289903855886 38.7045
27.98541356491974 38.8933
28.00835912214229 38.9824
28.03130582533231 39.2883
28.054253675581805 39.3776
28.077381967556104 39.3743
28.100332124185126 39.2267
28.123283431160893 39.2461
28.146235889577238 38.958
28.169368830154156 38.895
28.192323603752033 38.6295
28.215279532083304 38.3001
28.238415973016764 38.094
28.261374223145094 37.9375
28.284333631303806 37.8419
28.307294198589954 37.6593
28.330435319167677 37.3094
28.353398217078915 37.0783
28.376362277420153 36.8271
28.39932750129032 36.6748
28.422473319286713 36.6303
28.44544088262495 36.5889
28.468409612800283 36.4877
28.491379510913497 36.2576
28.51453004413313 36.2151
28.53750229057244 36.1279
28.56047570826344 36.1357
28.583450298308804 36.035
28.606605564586562 35.9008
28.629582511831156 35.9943
28.65256063474956 35.9479
28.675539934446338 35.8852
28.698699951647605 35.7872
28.72168161743193 35.6778
28.74466446331978 35.7781
28.767648490417624 35.738
28.790813276438353 35.7123
28.813799678527303 35.6853
28.836787265157085 35.7071
28.859955641890075 35.7222
28.882945610203045 35.6632
28.905936766392035 35.5703
28.928929111566863 35.5425
28.952102288520145 35.6259
28.975097024308607 35.3956
28.998092952423807 35.2501
29.021090073977508 35.1204
29.04426806913204 35.0605
29.067267590245258 34.9893
29.090268308143695 34.819
29.11327022394099 34.7551
29.13645305530891 34.6939
29.159457379627167 34.7456
29.18246290519685 34.5639
29.20546963313352 34.5414
29.22865731875826 34.5863
29.25166646419296 34.5935
29.27467681535305 34.4109
29.29768837335608 34.4725
29.320880931312562 34.4853
29.34389491580634 34.4423
29.366910110507334 34.4601
29.38992651653503 34.5262
29.41312396492981 34.5357
29.436142806456754 34.3409
29.45916286268059 34.3011
29.48236399319994 34.1504
29.50538649169417 34.016
29.528410208259935 34.0008
29.55143514402014 33.7914
29.574641196749695 33.5859
29.597668583816574 33.4885
29.6206971934585 33.3457
29.64372702680042 33.3784
29.666938019934474 33.3256
29.689970313635285 33.1855
29.713003834422636 33.1682
29.73603858342347 33.2029
29.759254535188578 33.0966
29.78229175361658 33.0198
29.80533020365064 33.0715
29.82836988641968 33.0953
29.85159081507472 33.1277
29.874632976355343 32.9929
29.89767637376955 33.0193
29.920721008448314 32.8898
29.9439469322847 32.7169
29.96699405457564 32.7714
29.9900424175358 32.7872
30.013092022298157 32.692
30.03632295963995 32.6571
30.059375061131373 32.7735
30.08242840783577 32.7679
30.105483000888153 32.7672
30.128718970092244 32.6669
30.151776069006917 32.6195
30.17483441768648 32.7117
30.198074175317235 32.6563
30.221135036724256 32.6371
30.24419715131772 32.5606
30.267260520236203 32.5241
30.290505341942243 32.6418
30.313571232750228 32.5327
30.336638381310948 32.4163
30.35970678876503 32.4008
30.38295669299435 32.3991
30.40602763151657 32.4906
30.429099832366074 32.4537
30.452173296685572 32.3767
30.47542830191959 32.3806
30.498504306502497 32.2333
30.521581577995562 32.3578
30.544660117543582 32.3949
30.56792024229725 32.4007
30.59100133132069 32.382
30.614083691845494 32.3567
30.637167325018545 32.431999999999995
30.660432587840603 32.3853
30.683518779717886 32.2995
30.70660624769615 32.4958
30.729694992924372 32.4996
30.75296541239743 32.4817
30.77605672557558 32.3902
30.799149319462742 32.1941
30.8224236211637 32.1036
30.845518789950724 32.1035
30.868615242910597 32.1192
30.891712981195973 31.9239
30.91499247215866 31.7955
30.938092794619365 31.6779
30.96119440587579 31.6756
30.984297307082752 31.5732
31.00758200598383 31.4459
31.030687500658694 31.3782
31.053794288760695 31.3579
31.076902371446767 31.2628
31.100192296997445 31.4067
31.12330298246119 31.2204
31.14641496599209 31.1898
31.169528248749216 31.2105
31.19282341969534 31.0941
31.215939314557186 31.2298
31.239056512134788 31.2455
31.262175013589378 31.1324
31.28547544871168 31.0815
31.30859657161541 31.0644
31.331719001892175 31.0843
31.35484274070538 31.138
31.378148458819545 31.1181
31.401274828443725 31.1129
31.424402510106933 31.066999999999997
31.447712205419993 31.1517
31.470842524931633 30.9849
31.493974159989783 31.078000000000003
31.51710711176168 31.0695
31.54042212308802 31.0168
31.563557722100917 30.9352
31.586694641341655 30.8261
31.609832881979628 30.6892
31.63315322823208 30.6589
31.656294125521327 30.5631
31.679436347728515 30.5468
31.70257989602529 30.5176
31.725905596152327 30.3552
31.74905181052835 30.3164
31.772199354521323 30.423000000000002
31.79534822930507 30.3303
31.818679302290967 30.3137
31.84183085259981 30.2004
31.864983737233473 30.3137
31.88813795736804 30.425
31.911474422233013 30.2373
31.934631327356435 30.3438
31.9577895715215 30.4
31.980949155906522 30.281999999999996
32.004291031706956 30.198
32.027453310562606 30.0634
32.05061693318573 29.9234
32.07396288236386 30.0195
32.09712920658542 30.0099
32.12029687812702 29.8392
32.14346589817093 29.7477
32.166817291729984 29.7399
32.18998902288583 29.6358
32.21316210610336 29.5397
32.23633654256711 29.4417
32.259693399663725 29.3757
32.282870556771144 29.3367
32.30604907069099 29.3402
32.329228942610065 29.2853
32.35259128243769 29.1359
32.375773884550505 29.0993
32.398957848235646 29.1265
32.422143174682176 29.0019
32.445511016471215 28.9575
32.468699082679954 28.93
32.49188851523011 28.8551
32.51507931531304 28.7634
32.538452678331 28.8501
32.56164622776311 28.8009
32.58484114831493 28.7447
32.60803744118015 28.7677
32.631416344731896 28.7444
32.654615396551876 28.704
32.67781582427913 28.6536
32.701198898634416 28.4576
32.72440209253756 28.4089
32.747606665947124 28.4713
32.77081262006088 28.3289
32.79420126883317 28.4271
32.81740999876112 28.4244
32.840620112999424 28.2607
32.86383161274818 28.2371
32.88722585534586 28.2101
32.91044014056596 28.2027
32.933655814909734 28.1936
32.95687287957963 28.1159
32.98027273544904 28.0568
33.00349259526636 28.0262
33.026713849030116 28.0741
33.04993649794511 27.9834
33.073341986570746 27.9643
33.09656744032826 27.9528
33.11979429286444 27.9478
33.14302254538647 27.8456
33.166433686291185 27.9828
33.18966475336992 27.9355
33.212897224069096 27.8012
33.23613109959831 27.7937
33.259547912343415 27.6723
33.2827846121627 27.7344
33.306022720453775 27.7032
33.32926223842861 27.6422
33.352684742614166 27.4361
33.37592709463173 27.5307
33.399170859982064 27.5095
33.422597648419426 27.4248
33.44584425514446 27.2814
33.46909227885668 27.3035
33.4923417207723 27.1236
33.51577423505344 27.2186
33.539026528130385 27.0433
33.56228024307245 27.0148
33.585535381098246 26.8964
33.60897364093058 26.8729
33.63223163992385 26.8501
33.6554910656699 26.8264
33.678751919389796 26.9282
33.702195944520106 26.8337
33.72545966903325 26.8075
33.74872482519663 26.6214
33.771991414233746 26.5866
33.79544122444841 26.585
33.81871069412428 26.5094
33.84198160035767 26.5898
33.86525394437455 26.5162
33.88870955949969 26.4934
33.911984794020626 26.3589
33.93526147001624 26.3974
33.958539588715006 26.4017
33.98200102861669 26.3354
34.0052820477047 26.2023
34.02856451319451 26.2077
34.05203033759056 26.18
34.07531571090147 26.1965
34.09860253431845 26.1979
34.121890809074316 26.0997
34.145362493118924 26.0246
34.16865368561615 25.9675
34.191946333164054 25.9294
34.21524043699793 25.9707
34.23871800066799 25.9533
34.26201503218366 25.8672
34.28531352370466 25.7882
34.30861347646881 25.7326
34.33209693978188 25.7419
34.3553998301885 25.6899
34.378704185565205 25.5859
34.402010007152356 25.5329
34.42549939016683 25.6224
34.44880815937748 25.5202
34.472118398533134 25.3962
34.49543010887669 25.4252
34.51892543169198 25.2725
34.54224009966052 25.2746
34.56555624255917 25.296
34.58887386163339 25.2033
34.61237514439016 25.1262
34.6356957311114 25.1445
34.65901779775809 25.1109
34.68252356662995 25.0962
34.705848608458616 25.0898
34.72917513396849 25.0919
34.75250314440949 24.8735
34.77601490857862 24.7982
34.799345904259795 24.7934
34.82267838863559 24.8008
34.846012362958525 24.8764
34.869530142679984 24.8555
34.89286711232212 24.7102
34.91620557568269 24.7105
34.93954553401677 24.7041
34.9630693495876 24.6133
34.986412313340814 24.7024
35.00975677584668 24.6835
35.033102738362956 24.5965
35.05663261012228 24.4607
35.0799815881786 24.5397
35.10333207003229 24.406
35.12668405694369 24.4919
35.150220005273056 24.4545
35.17357501786656 24.4205
35.19693153931268 24.381999999999998
35.220289570874385 24.3084
35.24383161619786 24.2314
35.267192683604904 24.2401
35.290555264930376 24.2159
35.314101899412165 24.2349
35.33746752422433 24.2293
35.36083466676374 24.2091
35.38420332829803 24.1745
35.407756095629054 24.2315
35.43112781085063 24.1533
35.45450104888391 24.1214
35.477875810999194 24.095
35.50143473172161 24.013
35.52481255774625 23.9949
35.54819191167777 23.9981
35.57157279478914 23.9137
35.595137889488406 23.8985
35.61852184675279 23.8089
35.641907337029984 23.6813
35.665294361595684 23.6687
35.68886565090076 23.6677
35.7122557598848 23.6323
35.73564740699838 23.7167
35.759040593519934 23.5702
35.78261809810353 23.6469
35.80601437933051 23.5129
35.829412203814705 23.5175
35.85281157283719 23.3332
35.876395313415884 23.3787
35.8997977874528 23.3792
35.92320180988546 23.2976
35.946790244133936 23.2838
35.97019737933222 23.2607
35.993606066789866 23.2135
36.01701630779276 23.1763
36.04061101440684 23.0874
36.06402437852291 23.1167
36.08743930005611 23.1202
36.1108557802951 22.9998
36.13445678011326 23.0329
36.15787639383515 23.0289
36.18129757014299 22.910999999999998
36.20472031032821 22.9035
36.22832762423364 22.8237
36.25175350829375 22.7835
36.275180960119776 22.734
36.298609981005924 22.8184
36.32222362992669 22.7822
36.34565580510207 22.7445
36.36908955323448 22.6252
36.39252487562093 22.6592
36.416144880530226 22.5771
36.43958336764275 22.4795
36.463023432914625 22.5792
36.486465077645676 22.4928
36.51009145956204 22.5288
36.53353627947859 22.5031
36.55698268276811 22.4798
36.58043067073321 22.3836
36.60406345072071 22.3232
36.62751462435344 22.3558
36.65096738658405 22.3463
36.67460498210655 22.2984
36.69806093788647 22.2248
36.72151848619297 22.1088
36.744977628333636 22.1985
36.76862165890998 22.1349
36.79208400512205 22.134
36.81554794910557 22.1638
36.83901349217101 21.9741
36.862663978991606 21.9656
36.88613273667352 21.9063
36.90960309738324 21.9528
36.933075062434064 21.8499
36.95673202673572 21.82
36.98020721697122 21.7808
37.003684015502365 21.7969
37.027162423645365 21.7993
37.050825886711465 21.7262
37.07430753063053 21.6493
37.09779078812467 21.6333
37.121275660513014 21.6086
37.144945643673694 21.6005
37.16843376245278 21.5966
37.19192350009803 21.5625
37.215414857931435 21.4684
37.239091382563885 21.3655
37.262585997426164 21.4072
37.28608223645736 21.4043
37.309763684451696 21.3169
37.33326318851098 21.294
37.356764320726555 21.2908
37.380267082425526 21.2373
37.40395510942588 21.2291
37.42746114683234 21.1954
37.45096881771841 21.1312
37.474478123414166 21.1622
37.49817275092816 21.0865
37.52168534303452 21.089000000000002
37.54519957395567 20.9199
37.568715445024665 20.9064
37.592416694607714 20.9072
37.61593586281424 20.9166
37.63945667518264 20.9297
37.66297913304891 20.8713
37.68668702630454 20.8955
37.710212792059274 20.7636
37.733740207334854 20.7251
37.757269273470364 20.7023
37.780983832050374 20.6769
37.80451621684926 20.6453
37.82805025654007 20.5679
37.851585952464795 20.5301
37.8753071980695 20.5568
37.89884622345676 20.4484
37.92238690911902 20.4791
37.94611318753442 20.4462
37.969657210779765 20.4155
37.99320289834801 20.4247
38.016750251586465 20.3233
38.04048325513017 20.2976
38.06403395679343 20.2067
38.087586328183946 20.204
38.11114037065203 20.2106
38.13488012115898 20.2341
38.1584375229181 20.0998
38.181996599821 20.1003
38.205557353221124 20.0091
38.229303872575656 20.0791
38.2528679961576 20.004
38.27643380031219 19.9928
38.30000128639589 19.9588
38.32375459653193 19.9092
38.34732546371299 19.9259
38.37089801690786 19.8146
38.39447225747609 19.7948
38.418232380377425 19.7516
38.441810012983396 19.7994
38.46538933705673 19.7264
38.488970353960084 19.6824
38.51273731166058 19.6546
38.536321731567014 19.5527
38.55990784840681 19.6398
38.58367995004091 19.6258
38.60726947812959 19.4756
38.63086070726198 19.4894
38.654453638806274 19.4599
38.678232613930824 19.42
38.70182896773327 19.3463
38.72542702806741 19.3414
38.7490267963045 19.3097
38.77281266709232 19.3715
38.79641586862214 19.375
38.8200207821842 19.2751
38.843627409152944 19.2833
38.86742019782782 19.1854
38.891030269149255 19.1612
38.914642058016156 19.1638
38.938255565806124 19.1102
38.96205529464307 19.0993
38.98567225787121 19.0403
39.00929094417078 19.0032
39.03291135492255 19.0154
39.05671804624804 18.9754
39.080341923549106 18.8884
39.103967529460334 18.8648
39.127594865365744 18.8914
39.15140854155791 18.8357
39.17503935514948 18.8816
39.19867190290282 18.796
39.22249083587951 18.7839
39.24612686969409 18.7139
39.269764641845306 18.7017
39.293404153722804 18.7049
39.317230110864074 18.6169
39.34087311998506 18.5335
39.36451787301696 18.6005
39.388164371352595 18.5595
39.41199737518003 18.4828
39.43564738196752 18.5036
39.45929913825317 18.4424
39.48295264543308 18.4707
39.506792718520884 18.3762
39.530449745387216 18.3342
39.55410852735203 18.3113
39.57776906581474 18.352999999999998
39.60161623079 18.3039
39.625280300200025 18.2933
39.64894613032202 18.2085
39.67261372255866 18.1839
39.6964680021016 18.1592
39.72013913657293 18.1339
39.74381203738292 18.1101
39.76748670593756 18.1405
39.79134812278169 18.0787
39.81502634488497 18.0887
39.83870633896685 18.0084
39.862388106436654 17.9645
39.88625668336918 17.9501
39.90994201572829 17.9588
39.933629125719285 17.8709
39.957503091207826 17.8293
39.9811937746168 17.8225
40.00488623990914 17.7212
40.02858048850006 17.6802
40.05246165409549 17.6949
40.076159487492085 17.6892
40.099859108448875 17.729
40.123560518384345 17.6921
40.1474489070226 17.6506
40.171153913178564 17.5832
40.194860712584955 17.5571
40.2185693066637 17.6063
40.242464941335314 17.5408
40.26617714307655 17.5153
40.289891143772046 17.485
40.3136069448471 17.4165
40.33750984859743 17.424
40.3612292688043 17.357
40.3849504936829 17.3321
40.40867352466194 17.3535
40.43258372059144 17.2277
40.45631038219906 17.2528
40.48003885420956 17.202
40.503769138055105 17.1784
40.52768664931955 17.2589
40.55142057531802 17.1774
40.57515631746428 17.1605
40.599079334038514 17.1127
40.62281872700477 17.0542
40.64655994043941 17.0233
40.67030297578061 17.0269
40.69423334835778 17.0692
40.71798004609188 16.9499
40.74172857006355 16.932000000000002
40.76547892171441 16.8629
40.7894166736039 16.8702
40.813170699248566 16.8467
40.83692655691388 16.8352
40.86068424804498 16.7965
40.884629402612525 16.811
40.908390779366385 16.7547
40.932153993938 16.6911
40.95591904777605 16.7169
40.979871628443995 16.7567
41.003640379561936 16.6593
41.02741097430883 16.6277
41.05118341413683 16.5974
41.075143444384416 16.5469
41.098919593177826 16.5198
41.1226975914255 16.5232
41.14647744058318 16.4952
41.170444943946755 16.506
41.19422851378379 16.4753
41.218013938914645 16.4469
41.24198706625173 16.3476
41.26577622087193 16.2911
41.289567235177785 16.3412
41.31336011063129 16.3202
41.337340752422875 16.2515
41.361137369129835 16.2007
41.38493585138705 16.2143
41.40873620066004 16.2358
41.43272438060107 16.087
41.45652848292052 16.1004
41.48033445666918 16.0904
41.50414230331616 16.0668
41.528138045159764 16.0195
41.551949656675205 15.9487
41.575763145513235 15.9474
41.59957851314666 15.9373
41.62358184070442 15.9092
41.64740098505737 15.889000000000001
41.6712220126409 15.8907
41.69504492493139 15.8377
41.71905586207357 15.8535
41.74288256296395 15.7727
41.766711153007456 15.7739
41.79054163368412 15.7865
41.814560204340054 15.7845
41.838394485526365 15.7517
41.86223066180303 15.6804
41.88625497706819 15.6309
41.910094962812 15.6036
41.93393684811168 15.5853
41.95778063445365 15.4736
41.981812625263366 15.4819
42.00566023303407 15.5155
42.029509746323676 15.4698
42.05336116662236 15.4244
42.077400857069705 15.4491
42.10125611078846 15.4165
42.12511327600405 15.3635
42.14897235421036 15.3266
42.173019768448455 15.35
42.19688269209613 15.2769
42.22074753323349 15.3253
42.24461429335818 15.2521
42.268669455600495 15.2158
42.292540073217886 15.1874
42.31641261433284 15.1967
42.34028708044675 15.1887
42.36435001496739 15.1097
42.38822835065557 15.0782
42.41210861586426 15.0974
42.4359908120986 15.0719
42.46006154323262 15.0316
42.48394762115317 15.0104
42.507835634632315 15.1073
42.531912233047436 15.0019
42.55580413732265 14.9445
42.579697981698 14.9137
42.60359376768525 14.8758
42.62767820545945 14.8115
42.65157789440821 14.8622
42.67547952952185 14.8029
42.699383112316 14.81
42.72347541395347 14.7537
42.74738291190531 14.7328
42.771292362102166 14.6916
42.795203766063516 14.7307
42.819303956130405 14.6229
42.843219287476536 14.6095
42.86713657716324 14.6073
42.89105582671383 14.5687
42.91516392983864 14.5364
42.939087119032166 14.5374
42.963012272677304 14.4836
42.98693939230129 14.4691
43.01105543317513 14.4347
43.034986504731386 14.4294
43.05891954686589 14.4066
43.08285456110972 14.4058
43.10697856448665 14.2827
43.130917542983475 14.3093
43.15485849820081 14.2991
43.17880143167367 14.2503
43.20293342237094 14.2576
43.226880332449 14.2052
43.25082922540554 14.2146
43.27496722682525 14.1975
43.29892010567796 14.1951
43.32287497204102 14.1234
43.34683182745632 14.0799
43.370977859791836 14.0594
43.39493871351105 14.0683
43.41890156092628 14.0477
43.44286640358341 14.0316
43.46702049182749 14.0112
43.49098934522816 13.9282
43.51496019852649 13.9451
43.5389330532723 13.8956
43.56309522248204 13.8772
43.58707210044314 13.8713
43.61105098451946 13.8274
43.63503187626491 13.7723
43.659202151562134 13.7763
43.68318707902681 13.779000000000002
43.70717401884041 13.7357
43.731162972560874 13.704
43.75534137913236 13.6807
43.779334381108384 13.6637
43.803329401683186 13.69
43.82732644241872 13.629000000000001
43.8515130055166 13.6317
43.87551410707659 13.5187
43.89951723350145 13.5596
43.923709934595614 13.49
43.94771713129917 13.5071
43.97172635758096 13.5009
43.99573761501002 13.4604
44.0199385169922 13.3958
44.04395385732619 13.4109
44.067971233533086 13.3802
44.09199064718605 13.3569
44.11619977548961 13.3603
44.14022328470671 13.3455
44.16424883610785 13.3121
44.18827643127035 13.2738
44.21249381139513 13.3031
44.236525514814076 13.2059
44.26055926674478 13.1907
44.28459506876863 13.2062
44.3088207262813 13.1035
44.33286064928722 13.0827
44.35690262714919 13.0766
44.38094666145278 13.0399
44.4051806219871 13.0891
44.42922879003185 13.039000000000001
44.45327901929361 13.0383
44.477331311362136 13.0115
44.501573600619416 12.9718
44.525630039221795 12.9023
44.54968854541895 12.9425
44.573937102200176 12.9222
44.5979997645541 12.9046
44.622064499300315 12.8903
44.64613130803592 12.8476
44.67038823869318 12.8095
44.69445921643748 12.7942
44.718532272981385 12.7764
44.742607409926194 12.8029
44.76687274034801 12.7157
44.79095205918753 12.6553
44.81503346325094 12.7179
44.839116954143876 12.6549
44.86339071028742 12.6485
44.88747839599524 12.665999999999999
44.91156817336837 12.622
44.93566004401666 12.5925
44.959942251908146 12.5903
44.984038330325966 12.5906
45.00813650686762 12.5075
45.03223678314731 12.5109
45.05652746888232 12.4443
45.08063196592069 12.4176
45.104738567558705 12.412
45.128847275414856 12.4041
45.15314646515866 12.3483
45.17725940679741 12.3859
45.20137445952892 12.3418
45.22568004865265 12.3377
45.24979934496396 12.2924
45.27392075725247 12.2559
45.29804428714431 12.2386
45.322358426247604 12.2581
45.346486212804315 12.2187
45.370616121861914 12.2038
45.39474815505086 12.1774
45.41907087049246 12.1118
45.4432071734666 12.0942
45.46734560548283 12.0631
45.49148616817604 12.0688
45.51581748638564 12.0681
45.5399623320197 12.0235
45.56410931325473 12.0119
45.58825843173002 12.0239
45.61259837920865 11.9652
45.636751793816 11.9792
45.66090735060093 11.9099
45.68506505120716 11.9165
45.7094136545275 11.8416
45.73357566449271 11.8559
45.75773982322992 11.8772
45.78190613238733 11.8111
45.806263418194064 11.769
45.83043404997326 11.752
45.85460683713677 11.7938
45.87897065658495 11.7308
45.90314777634752 11.7195
45.92732705646868 11.7177
45.9515084986045 11.6972
45.97588104735473 11.6468
46.00006683541565 11.6483
46.02425479047904 11.6381
46.04844491420549 11.5868
46.0728262191024 11.5872
46.09702070211635 11.5738
46.12121735879483 11.5568
46.14541619080294 11.5059
46.169806278764455 11.4714
46.194009483459034 11.4588
46.21821486849841 11.4814
46.24242243555223 11.4069
46.266821333570014 11.377
46.29103328674601 11.3745
46.31524742696538 11.364
46.33946375590237 11.3355
46.36387149104216 11.3152
46.38809221957392 11.284
46.41231514186606 11.2958
46.436540259597464 11.2598
46.460956858999374 11.2434
46.48518638983522 11.1961
46.509418121166966 11.1941
46.533652054678114 11.1449
46.55807754555709 11.1476
46.58231590571962 11.1551
46.60655647313217 11.0913
46.630988654873654 11.0763
46.655233659129024 11.039000000000001
46.67948087571551 11.0756
46.70373030632484 11.0438
46.72817142736393 11.0105
46.752425308428684 10.9869
46.77668140861147 10.99
46.80093972960865 10.9453
46.82538981736788 10.9242
46.849652602470904 10.9324
46.87391761349769 10.8672
46.8981848521493 10.8696
46.9226439341274 10.82
46.946915650573224 10.799000000000001
46.97118959976749 10.7875
46.99546578341598 10.8197
47.019933887188216 10.7769
47.04421456235744 10.7729
47.06849747711879 10.7239
47.09278263318286 10.7061
47.11725978640143 10.718
47.14154944775105 10.6693
47.165841355555656 10.6565
47.1901355115306 10.6202
47.214621741924994 10.6334
47.23892041698887 10.5856
47.26322134538975 10.5562
47.28771440635075 10.5598
47.31201986422527 10.5444
47.33632758061436 10.5022
47.360637557241866 10.4563
47.38513974410611 10.4755
47.40945426407847 10.4042
47.43377104948137 10.4564
47.45809010204344 10.4006
47.48260144275502 10.4077
47.506925052572285 10.4018
47.53125093475548 10.3551
47.55557909103813 10.3185
47.58009961361992 10.3437
47.60443234110732 10.3078
47.62876734791564 10.264000000000001
47.65310463578333 10.2236
47.6776343683373 10.255
47.7019762413987 10.1754
47.72632040075572 10.1614
47.75066684815169 10.1605
47.77520581885936 10.1606
47.799556865477655 10.1326
47.823910205386 10.119
47.84826584033272 10.0893
47.87281407745551 10.1013
47.89717432569297 10.0975
47.92153687423484 10.0663
47.94609208429692 10.0543
47.97045925671401 10.0286
47.99482873471275 9.98369
48.01920052005013 9.93335
48.04376504619224 9.929089999999999
48.068141469543484 9.96195
48.09252020552573 9.93643
48.11690125590099 9.92942
48.1414751266064 9.94478
48.16586082917454 9.8643
48.19024885144316 9.878639999999999
48.2146391951793 9.82985
48.239222439012764 9.8043
48.26361744916137 9.81617
48.28801478610016 9.81058
48.31241445160131 9.78905
48.337007097209366 9.77112
48.36141144338331 9.7895
48.38581812345755 9.74677
48.41022713920929 9.74688
48.434829215320704 9.676860000000001
48.45924292604658 9.66822
48.48365897780325 9.662510000000001
48.50807737237308 9.65211
48.532688907799276 9.63849
48.55711201168574 9.57646
48.581537463754074 9.542589999999999
48.60615611725119 9.58491
48.63058628942721 9.577919999999999
48.65501881516546 9.5521
48.6794536962573 9.5203
48.70408185970339 9.48738
48.72852147531801 9.47975
48.75296345168211 9.446769999999999
48.77740779059232 9.455119999999999
48.80204549302823 9.434619999999999
48.82649458091802 9.45912
48.85094603676547 9.3651
48.87539986237231 9.335280000000001
48.90004713292306 9.33982
48.92450572200832 9.330010000000001
48.94896668628025 9.32282
48.97343002754588 9.29112
48.99808689542115 9.251430000000001
49.02255501470614 9.269169999999999
49.04702551642794 9.23806
49.0714984023988 9.22377
49.096164896893235 9.16723
49.120642575466796 9.19169
49.145122643748394 9.2216
49.16960510355558 9.173960000000001
49.19428125404938 9.12571
49.2187685210852 9.11421
49.243258185121555 9.07879
49.26794160167084 9.05747
49.2924360839405 9.069510000000001
49.31693296869764 9.059510000000001
49.34143225776915 9.00497
49.36612538195438 8.99547
49.39062950396021 8.989139999999999
49.41513603578346 8.94356
49.4396449792564 8.94187
49.46434784069503 8.95102
49.488861631846454 8.935939999999999
49.513377840166804 8.926
49.537896467493745 8.8917
49.56260909589029 8.86815
49.587132585683285 8.852960000000001
49.611658500018365 8.84404
49.636186840738596 8.81408
49.66090926588511 8.84029
49.685442483902584 8.80073
49.70997813385706 8.77967
49.734516217597076 8.72006
49.75924846937352 8.74266
49.7837914452858 8.73971
49.80833686055187 8.68609
49.83288471702571 8.67218
49.85762682540054 8.69586
49.882179588965734 8.63707
49.9067347993235 8.60977
49.93129245833333 8.65366
49.95604445336378 8.61897
49.98060703442832 8.6007
50.005172069746266 8.56128
50.02993150438364 8.56329
50.05450147301533 8.53925
50.07907390151433 8.51694
50.10364879174981 8.48216
50.12841816587289 8.49816
50.1529980044635 8.49804
50.17758031042124 8.467830000000001
50.20216508562089 8.46263
50.22694442953363 8.44401
50.25153416817468 8.38597
50.27612638170508 8.40891
50.300721072005196 8.3641
50.325510416102105 8.35013
50.350110084975064 8.330630000000001
50.37471223628208 8.30279
50.39931687190919 8.30194
50.424116246675766 8.28973
50.44872587605249 8.3155
50.47333799543065 8.28527
50.49795260670191 8.25535
50.52276204271512 8.255180000000001
50.54738166295838 8.22626
50.57200378079314 8.21522
50.596628398116835 8.16798
50.62144792604559 8.15198
50.646077567609396 8.16029
50.670709714377715 8.12698
50.69553683636198 8.129489999999999
50.72017401885922 8.10678
50.7448137122895 8.07961
50.76945591856022 8.069339999999999
50.79429318636823 8.07415
50.818940443716784 8.04851
50.84359021965163 8.0088
50.868242516085964 8.05752
50.893089960641895 8.00707
50.917747323549435 7.97469
50.94240721271973 7.9698
50.96706963007175 7.928260000000001
50.99192728239342 7.9561
51.01659478166073 7.93324
51.04126481489051 7.9013100000000005
51.06593738400761 7.8821
51.090805275207074 7.871589999999999
51.11548294172845 7.857130000000001
51.14016314993547 7.83789
51.164845901758845 7.839639999999999
51.18972406304274 7.808510000000001
51.21441192780656 7.80507
51.23910234200271 7.78746
51.2637953075678 7.790719999999999
51.288683770237945 7.744610000000001
51.31338186432707 7.74966
51.33808251561888 7.7254
51.362978729967345 7.7112300000000005
51.387684521509755 7.69653
51.41239287610203 7.68415
51.437103795691165 7.648960000000001
51.46201036644977 7.643510000000001
51.486726441956634 7.60561
51.51144508832545 7.6623399999999995
51.536166307509156 7.6247
51.56108326624387 7.58125
51.58580965706056 7.57945
51.61053862657523 7.5276
51.635270176746864 7.48763
51.66019755512065 7.51227
51.68493429268881 7.49827
51.70967361681515 7.46484
51.73441552946465 7.4534899999999995
51.759353359237934 7.44039
51.7841004750961 7.45781
51.80885018539685 7.44845
51.833602492111254 7.416189999999999
51.8585508051424 7.38622
51.883308330926425 7.40445
51.90806845906181 7.347410000000001
51.932831191525715 7.30624
51.95779001977161 7.29177
51.98255798721516 7.31571
52.00732856494335 7.280360000000001
52.03229530577543 7.239510000000001
52.057071130455945 7.24892
52.081849571391054 7.25402
52.106630630568695 7.24495
52.13160794279417 7.250210000000001
52.15639426492067 7.1889
52.18118321127822 7.1904
52.205974783860896 7.15378
52.23096269971011 7.159619999999999
52.255759551287994 7.144819999999999
52.280559035098186 7.14376
52.30536115314103 7.09623
52.33035970494467 7.108630000000001
52.35516711807904 7.0853399999999995
52.37997717147198 7.071689999999999
52.40478986713005 7.08754
52.42979908731974 7.03603
52.454617094216 7.03292
52.47943774942214 7.0187800000000005
52.50426105495102 6.9904399999999995
52.529280976059844 6.9612300000000005
52.554109609024096 6.9542600000000006
52.57894089837482 6.94562
52.60377484613117 6.975039999999999
52.62880550079408 6.95452
52.65364479223379 6.8791899999999995
52.67848674816189 6.87025
52.70352547971946 6.87979
52.72837279155837 6.894760000000001
52.753222773982785 6.85193
52.778075429022984 6.84824
52.80312495150885 6.841539999999999
52.827982978797436 6.799639999999999
52.85284368481815 6.7910699999999995
52.87770707160767 6.754989999999999
52.90276741793998 6.762389999999999
52.92763619336701 6.74488
52.952507655698504 6.77951
52.977381806977576 6.73278
53.00245301017842 6.70028
53.02733256653592 6.7183600000000006
53.052214817996074 6.742889999999999
53.077099766608484 6.64902
53.102181859804446 6.64613
53.127072229988265 6.658289999999999
53.15196530349892 6.639810000000001
53.17686108239249 6.60307
53.20195409881522 6.59018
53.22685531582556 6.5869
53.25175924441303 6.53019
53.27666588664027 6.54753
53.30176985962693 6.56492
53.3266819565689 6.51584
53.35159677336455 6.5112
53.376514312083096 6.49925
53.40162927507703 6.44373
53.42655228516116 6.460459999999999
53.45147802340193 6.45581
53.47660125628886 6.41397
53.50153247842639 6.43446
53.52646643496923 6.41275
53.55140312799818 6.40486
53.576537409691696 6.40421
53.60147960336152 6.39976
53.626424539786164 6.37649
53.65137222105307 6.29776
53.67651758529126 6.30711
53.70147078399681 6.3346
53.72642673383343 6.32285
53.75138543689533 6.33515
53.776541917524526 6.31015
53.801506154876755 6.26323
53.826473151763246 6.21823
53.851442910284916 6.2165300000000006
53.87661054126026 6.22666
53.9015858509782 6.21137
53.92656392866066 6.23877
53.95154477641532 6.20714
53.976723591801296 6.1791
54.00171000771266 6.17673
54.02669920004598 6.171
54.051691170915745 6.11377
54.076881204886796 6.09015
54.101878760928514 6.089090000000001
54.12687910187696 6.08785
54.152077577768296 6.11715
54.1770835166946 6.04177
54.20209224691339 6.03485
54.22710377055121 6.01167
54.25231352511594 6.0182400000000005
54.27733066384342 5.9809
54.30235060239643 5.9533
54.32737334290836 5.98046
54.35259441062629 5.92716
54.377622783395324 5.9211800000000006
54.40265396455061 5.93314
54.42768795623251 5.9097599999999995
54.45292037169559 5.86449
54.477960012857906 5.8508
54.50300247099511 5.83371
54.52804774825457 5.81813
54.55329154616743 5.79283
54.57834249018678 5.8019300000000005
54.6033962597977 5.77468
54.6284528571545 5.75231
54.653708072335164 5.67716
54.67877035378786 5.7099400000000005
54.70383546947698 5.68555
54.72890342156389 5.71703
54.7541700889442 5.63284
54.77924374251975 5.65665
54.8043202390049 5.60078
54.82959552413022 5.56565
54.8546777351945 5.569
54.87976279569621 5.5271099999999995
54.90485070780914 5.53608
54.930137506558005 5.51369
54.95523115074295 5.51751
54.98032765308844 5.48265
55.005427015775496 5.4633
55.03072536339621 5.443630000000001
55.05583047570572 5.4076
55.080938454927676 5.3874
55.10604930325027 5.35904
55.131359235107396 5.40765
55.15647585066083 5.33402
55.181595341907496 5.33215
55.20671771104285 5.2855300000000005
55.232039262617704 5.31756
55.25716741665048 5.226
55.28229845518636 5.221080000000001
55.30743238042802 5.181430000000001
55.33276558731939 5.25981
55.357905315183636 5.14473
55.383047936390035 5.1168
55.40819345314859 5.0813
55.433538351073295 5.08063
55.458689688238415 5.08271
55.483843927614096 5.00331
55.509197623043605 5.016
55.53435769621134 5.00547
55.55952067826466 4.9215599999999995
55.5846865714265 4.93141
55.61005202069737 4.9002300000000005
55.63522376553902 4.88928
55.66039842818645 4.87247
55.68557601087004 4.89691
55.7109532500271 4.813280000000001
55.73613670233794 4.81843
