TT I
1.2716486653135266 11.2789
1.2939594142134223 10.7677
1.3162702121660406 10.2329
1.3385810600174564 9.37156
1.3608919586137629 9.13214
1.383202908801069 8.94461
1.405513911425503 8.66871
1.4278249673332093 9.295760000000001
1.4501343378461518 8.86396
1.4724455028545926 8.40574
1.4947567236847858 8.19519
1.517068001182951 8.868269999999999
1.5393793361953272 8.80896
1.5616907295681737 8.50336
1.5840021821477681 7.94735
1.60631369478041 8.109589999999999
1.6286252683124185 7.41135
1.6509369035901333 7.27923
1.6732468618895553 7.2127300000000005
1.695558623192809 6.979889999999999
1.7178704487808514 6.9343
1.7401823395001077 6.6405
1.7625012545597203 7.13731
1.7848028405262486 7.5724
1.8071218901122095 7.36777
1.8294236121921872 6.447430000000001
1.8517427996910911 6.9269
1.8740620574440425 7.2819199999999995
1.8963639900671978 7.093999999999999
1.9186833908139995 6.5312
1.9409854680117449 7.215089999999999
1.9633050151394713 7.313339999999999
1.9856246367570705 6.73147
2.0079269371922672 6.1990300000000005
2.03024671027244 6.47776
2.0525491637446027 7.035010000000001
2.074869091674931 6.59995
2.097171701569106 6.99867
2.1194917877373847 7.15803
2.141811954326636 6.78642
2.164114805233074 5.89851
2.186435135143035 6.70148
2.208738150935709 5.96512
2.231058647554722 5.80943
2.2533792288321184 5.9352
2.275682498336085 5.6858
2.298003251406138 5.87948
2.3203066942619714 6.30314
2.3426276225136022 5.52302
2.3649486396617507 5.30881
2.387252348930071 5.639469999999999
2.4095735463442893 5.71558
2.4318774374315884 5.57881
2.4541988185014043 5.29697
2.476502894794693 5.76738
2.498824462909887 5.28745
2.521146125856138 5.13607
2.5434504863470337 5.27844
2.5657723414244717 5.01112
2.588076895590662 5.65377
2.610398946189713 6.1133
2.6327210958598384 5.88583
2.6550259469304716 5.84575
2.6773482972090137 5.70715
2.6996533504259 6.045
2.7219759047039602 6.26403
2.744298562293959 6.64192
2.7666039251246595 6.607810000000001
2.7889267918020164 6.99914
2.8112323652516555 7.25622
2.833555444408179 7.37677
2.8558786311183852 7.8749199999999995
2.8781845268938557 8.85747
2.9005079311721484 9.123569999999999
2.9228140460410397 9.154589999999999
2.9451376712799635 9.92319
2.967444008632326 10.5758
2.9897678582247247 11.0386
3.0120918213106695 11.3983
3.0343984987899373 11.4403
3.0567226913198637 12.0806
3.079029599759726 12.9225
3.101354025127254 13.3126
3.123678568232338 13.6742
3.145985829517914 13.5627
3.16831061055229 14.1915
3.1906181112775593 15.0869
3.212943133635653 15.5618
3.2352682779763207 15.509
3.2575761442691227 16.3071
3.2799015350264273 16.1538
3.302209649240067 16.5494
3.3245352898092655 16.8728
3.3468436553365257 17.557000000000002
3.369169549113219 17.9347
3.3914955708171384 18.3682
3.413804319727358 18.9058
3.4361305997334863 18.7745
3.4584396084414553 19.097
3.4807661501462652 19.9185
3.503092824025881 20.3642
3.5254022288463154 20.2303
3.5477291695206588 20.8174
3.5700388426251948 20.9032
3.5923660534916446 21.7355
3.6146934007816114 21.7754
3.637003482731501 22.0421
3.6593311053109985 22.5901
3.681641464033634 23.1386
3.7039693653009733 23.0568
3.726297407241705 23.5647
3.7486081875460804 23.3326
3.7709365132734978 24.3473
3.793247578841633 24.9814
3.8155761917550093 25.1974
3.8378875459837216 24.9794
3.8602164494827234 25.4367
3.882545499606844 26.1877
3.9048572932539183 26.8484
3.9271866390645718 27.0655
3.9494987298666713 27.7686
3.971828374764527 28.2419
3.9941581705403255 28.7319
4.016470713506008 28.9292
4.038800813471445 29.7197
4.061113662089144 29.8691
4.0834440696459176 31.0523
4.105774632334751 31.3768
4.128087945865126 31.4247
4.150418821249301 32.4957
4.172732448931298 32.6352
4.195063640413578 32.9085
4.2173775856475215 34.4835
4.239709096631102 35.0751
4.262040768704612 35.332
4.284355196706267 35.818000000000005
4.306687193387355 36.3936
4.329001947444346 38.0751
4.35133427213731 38.948
4.373666762177566 39.3937
4.395982011761091 39.8482
4.418314834921175 40.6731
4.44063041906622 41.8068
4.4629635787515625 42.047
4.4852969080429785 42.9983
4.5076130004776225 44.6504
4.529946671403969 45.4269
4.552263106909177 45.7235
4.574597122877047 47.2059
4.596931312711224 48.9093
4.619248269273446 49.714
4.6415828092605835 50.5629
4.663900117405352 52.305
4.686235010953232 53.878
4.708552674085913 55.1534
4.730887924602802 56.5556
4.753223354952695 57.7732
4.775541557023902 59.5184
4.797877349456786 61.6127
4.820195915032126 63.5803
4.842532072957498 65.3578
4.864868414979744 67.688
4.88718753227192 70.2565
4.909524244902505 73.5069
4.931843734218147 76.7738
4.954180820867835 81.5537
4.976518095879839 86.4557
4.998838149695359 92.0352
5.021175803844231 99.861
5.043496238205739 107.12
5.065834274903528 114.62299999999999
5.088172504230693 124.69
5.1104935158799565 139.045
5.132832132875765 163.12
5.155153533596801 202.304
5.1774925416746225 300.42
5.199814334878411 734.097
5.2221537374521505 2005.79
5.244493338631803 3007.3
5.266815727034316 2975.34
5.289155727832427 4124.46
5.311478517248165 7647.82
5.333818921080011 8225.22
5.356159527788849 4485.67
5.3784829252032536 1537.07
5.400823940070432 554.475
5.423147747031976 290.21299999999997
5.445489173474152 205.642
5.467830807066149 169.675
5.490155234831516 150.055
5.512497285125229 136.77
5.534822130975162 128.625
5.557164601388673 121.925
5.579489868738879 115.662
5.601832762690846 111.803
5.6241758697774475 108.721
5.646501775867269 107.194
5.668845311622074 105.199
5.691171647754637 104.819
5.713515615597765 102.609
5.735859800852677 101.374
5.758186788542988 101.023
5.780531411018185 102.12700000000001
5.802858837297399 102.39200000000001
5.825203900414495 103.552
5.8475491852224 106.448
5.869877275883075 110.12299999999999
5.892223006467101 115.21700000000001
5.914551544266608 123.609
5.936897724049891 136.49200000000002
5.959244129804903 158.471
5.981573344815301 211.483
6.0039202049061 374.056
6.026249875609095 778.966
6.04859719346037 1173.76
6.070927323278297 1240.21
6.093275102315365 1289.43
6.115623113320588 1998.87
6.137953938319995 3206.7
6.160302415650845 2882.45
6.182633708324452 1382.72
6.2049826554078376 500.042
6.227331838745022 218.75
6.249663839443684 143.173
6.27201349767565 114.354
6.294345974611799 99.0617
6.316696111167083 88.376
6.339046488263839 81.6219
6.361379686074702 77.0429
6.383730546639482 73.5502
6.406064229255215 69.8317
6.428415576718203 68.4031
6.450749747566656 66.3218
6.47310158535871 64.5706
6.495453669698332 63.2744
6.517788579421056 61.8246
6.540141159237969 60.6546
6.562476565766648 59.7955
6.5848296444934045 58.993
6.607182974060425 57.7902
6.6295191323281015 57.6413
6.651872965955752 56.382
6.6742096296068985 56.1427
6.6965639707294615 55.7671
6.71891856698715 54.5693
6.741255995248479 54.0845
6.763611104154477 53.6601
6.785949046381137 53.5339
6.808304671371482 52.886
6.8306605557940046 52.9046
6.852999275508618 52.0383
6.875355681171544 52.0124
6.897694923437771 52.0189
6.92005185377892 51.6493
6.9423916220322655 51.2491
6.964749080490181 50.6802
6.987106804399774 50.5566
7.009447368180821 50.7292
7.031805625367033 50.633
7.054146723727803 50.3915
7.076505517631004 50.4558
7.098864581288365 50.5276
7.121206488070854 49.7594
7.143566093607822 49.9229
7.165908543567245 49.3471
7.188268694426048 49.5521
7.2106291193438095 49.288999999999994
7.232972390625943 49.2069
7.255333366030969 49.1706
7.277677189091925 49.0085
7.300038718428332 48.9866
7.322400526130865 48.9254
7.344745183422596 49.7431
7.367107550224791 49.922
7.389452767901992 50.2272
7.411815697249891 50.3357
7.434161478756298 50.1947
7.456524974096713 50.8909
7.478888753837185 52.1503
7.501235387657368 56.9689
7.523599738562711 76.8642
7.545946944825532 122.852
7.568311870344528 155.457
7.5906770845765665 136.134
7.613025156078678 90.5675
7.635390950099687 64.46300000000001
7.657739602662809 55.1462
7.680105979923558 52.7368
7.702472650212829 52.2803
7.724822180948224 51.7573
7.747189439655568 51.7425
7.769539560075357 51.4818
7.791907410653562 52.1114
7.81425812420825 51.7379
7.836626570110925 52.1405
7.858995315087906 52.571999999999996
7.881346924933401 52.9198
7.903716270417482 53.4311
7.926068482028405 53.8838
7.948438431475253 54.2092
7.9708086843180235 54.6507
7.993161805171116 55.2133
8.015532667162402 55.8054
8.037886398416653 56.3964
8.060257873014221 56.7614
8.082629655331942 57.8846
8.104984308787587 58.1196
8.127356708900503 59.0217
8.149711981398308 59.7987
8.172085002766314 60.6101
8.194458336181368 61.4833
8.216814543847752 62.6941
8.23918850371002 64.2693
8.26154533906492 65.5169
8.283919928836452 67.5052
8.306277395339652 68.4345
8.328652618483376 70.102
8.351028159736202 72.9953
8.373386579575245 75.9605
8.395762759396959 78.6124
8.418121819038275 82.8423
8.440498640894003 89.585
8.462875785192262 100.441
8.485235811156207 122.831
8.507613602688501 194.362
8.529974277114228 376.18800000000005
8.552352719347912 564.007
8.574731488360351 619.105
8.59709314210385 506.33
8.619472567021075 450.398
8.64183487789147 631.256
8.664214962183097 1192.67
8.686577933647762 1693.0
8.708958680784317 1467.58
8.731339760774953 853.33
8.753703729764451 349.717
8.77608547780821 167.75099999999998
8.798450116065078 124.34200000000001
8.820832535634787 107.639
8.843215292401656 99.0222
8.865580941199045 93.5234
8.887964374703538 90.0462
8.910330701447199 87.1194
8.932714815164482 85.0564
8.955099270424924 83.4836
8.977466620733543 82.6196
8.999851761421976 82.0145
9.022219798361645 80.7169
9.04460562795561 81.1236
9.066991803441677 80.3255
9.089360876979615 80.0099
9.111747746589993 80.3552
9.13411751544971 80.5167
9.156505082664324 81.2162
9.178875550323522 83.8334
9.20126381862328 91.177
9.223652438908596 123.196
9.246023961427412 194.627
9.26841328802173 249.91
9.290785518039224 230.769
9.313175554425882 164.377
9.335565947154315 108.781
9.357939245086508 89.0015
9.380330352834827 83.0273
9.40270436697103 80.7768
9.425096193225055 79.6875
9.447488380180165 80.0933
9.469863475295412 79.6265
9.492256385987508 79.7109
9.514632206018318 80.3522
9.537025843935714 80.1713
9.559402392368193 80.5043
9.581796761000229 81.059
9.604191496441521 81.5126
9.626569144158516 82.1277
9.648964615551032 83.0184
9.671343000390081 83.3908
9.693739211225699 84.2637
9.716135793237463 85.4666
9.738515290448102 85.9838
9.760912617143402 87.2597
9.783292860202891 88.5411
9.805690935076182 90.1804
9.828089385495742 91.7721
9.850470754023561 94.4731
9.872869957865444 97.5406
9.89525208097539 101.25
9.917652041736662 107.083
9.940052382417589 116.939
9.962435644102392 140.86
9.984836746950979 202.63099999999997
10.007220771957746 349.843
10.029622640473708 519.8969999999999
10.052007432299963 571.556
10.074410069984072 492.61400000000003
10.096813093716005 395.608
10.119199042482517 393.22900000000004
10.141602840636468 587.528
10.163989564971628 1044.67
10.186394141051062 1546.38
10.208799107559706 1463.05
10.231187001965623 945.6139999999999
10.253592751657669 437.202
10.275981430388155 202.455
10.298387966769793 137.864
10.320794897965431 120.62899999999999
10.343184759907361 111.594
10.36559248305461 106.45
10.387983138083852 104.811
10.410391656691655 107.587
10.432800574501677 122.853
10.455192425893369 163.708
10.47760214443012 209.178
10.499994797678786 223.195
10.522405320453982 196.218
10.54479877906917 165.18400000000003
10.567210109595656 159.702
10.5896218454736 196.303
10.612016518879773 304.865
10.634429067781074 449.48800000000006
10.656824555333241 488.61
10.679237920773568 391.285
10.701651695961992 244.56900000000002
10.724048411481384 159.173
10.746463008485165 120.45299999999999
10.768860546937125 97.8833
10.791275969274796 85.2352
10.81369180576079 80.3901
10.836090585366925 77.597
10.858507252467449 75.88
10.88090686379991 74.1031
10.903324365036394 72.8367
10.925724811614439 71.3332
10.948143150509463 71.4457
10.970561909719066 69.9027
10.992963615930844 69.3779
11.015383218085756 68.2573
11.037785768347074 67.5058
11.06020621697282 66.8232
11.082627090322113 66.1801
11.105030913430326 65.587
11.12745263854165 64.9384
11.149857314510728 64.1135
11.172279894912576 63.9175
11.194702904450653 63.0502
11.217108866490921 62.4872
11.239532736615194 62.5696
11.26193956033512 62.3532
11.284364294577085 61.574
11.306789462371718 61.2926
11.329197585398376 60.8359
11.351623622610898 60.6711
11.37403261614354 60.1375
11.396459526308487 60.0435
11.418869393879497 59.5493
11.441297180532617 59.6303
11.463725406927658 59.2442
11.486136592353875 59.1114
11.508565700543707 58.4923
11.530977768845315 58.4849
11.553407762368774 57.9109
11.575838200059769 57.97
11.598251599479612 57.9399
11.620682927815501 57.9492
11.64309721895548 58.0202
11.665529441478206 57.7746
11.687962112597958 57.4332
11.710377748130886 57.6979
11.732811318753434 57.4782
11.755227854859067 57.5146
11.777662328529495 57.4222
11.800079768750786 57.2847
11.822515149015453 57.608000000000004
11.844950984084935 58.3246
11.867369787303163 58.7214
11.889806534289491 60.3279
11.912226250487029 64.7261
11.934663912939751 76.8043
11.9571020346363 92.4384
11.979523127133968 100.479
12.001962169624331 96.5177
12.024384183972964 85.0855
12.046824150809913 76.2838
12.069264581333726 78.7628
12.091687985297767 87.5839
12.11412934550045 94.3054
12.136553680195208 93.5496
12.158995973632788 87.2538
12.181438735204349 81.3723
12.20386447284199 79.6532
12.226308172985636 86.5143
12.24873485024193 107.90299999999999
12.271179492516982 144.447
12.293607112949127 175.493
12.316052700916226 173.13299999999998
12.338498763250042 136.04
12.360927805303868 95.9749
12.383374818673879 73.7635
12.405804812803074 64.545
12.428252780773262 61.6534
12.45070122756722 60.3368
12.473132656675375 59.4952
12.49558206341869 59.1462
12.518014453510101 58.7716
12.540464823770117 58.8735
12.562915677315177 58.8999
12.58534951575545 59.1186
12.607801338171472 59.1155
12.630236146511358 59.1433
12.652688941369085 59.3823
12.675124723177234 59.7281
12.697578494048786 60.0301
12.720032754458185 60.2299
12.742470003354093 60.629
12.764925245138771 61.0784
12.787363476431278 61.2324
12.809819703166806 61.7924
12.83227642391173 62.3692
12.854716135692716 62.777
12.877173846755147 64.1485
12.899614549869717 64.2212
12.9220732548287 65.0119
12.94453245827299 65.5173
12.966974655289818 66.5708
12.989434858002571 67.7411
13.011878055298721 68.6832
13.034339260862497 70.0303
13.056800969391883 72.3161
13.079245674017244 77.2251
13.101708390774869 83.0
13.12415410463411 91.1656
13.146617833206086 107.229
13.169064559883248 132.903
13.191529303857127 158.67
13.213994557076367 171.632
13.236442809902437 162.384
13.258909083908291 142.30700000000002
13.28135835851934 128.19299999999998
13.30382565690295 126.105
13.326293469022952 140.267
13.348744283242008 182.375
13.371213125129904 268.193
13.39366497011003 357.593
13.416134845360597 382.971
13.438605238843131 321.777
13.46105863690397 221.928
13.483530069144786 155.705
13.505984506951902 140.94799999999998
13.528456981549432 155.171
13.550929978879088 165.77200000000002
13.573385983253365 161.847
13.595860028340867 144.105
13.618317081455832 126.48899999999999
13.64079217790333 118.48299999999999
13.663250283359057 121.45100000000001
13.685726434770173 141.60299999999998
13.708203115221277 198.226
13.730662806148091 281.543
13.75314054697177 337.098
13.775601299246777 324.024
13.798080104050406 242.31599999999997
13.820559442405358 152.586
13.843021793671388 104.023
13.865502201420897 85.1789
13.887965623051947 79.3403
13.910447103807167 76.3209
13.932929122629764 74.2205
13.955394156785959 73.4715
13.977877254034569 72.3069
14.000343367582113 71.1881
14.022827546871707 70.741
14.045294743423524 69.9005
14.06778000837062 69.6229
14.090265817715476 70.7205
14.112734645763819 73.4784
14.13522154619454 81.9477
14.157691466286913 93.1827
14.180179461423874 98.1346
14.202668005486178 95.2624
14.22513957064374 86.7107
14.247629214846473 76.6761
14.270101881097517 70.21600000000001
14.29259262906496 67.0946
14.315083930490205 65.709
14.337558255389705 65.096
14.360050666019726 64.6413
14.382526101071944 64.2719
14.405019624534942 64.1153
14.427513705993134 63.9083
14.449990813291825 63.836000000000006
14.47248601302899 63.4714
14.49496423954951 63.6712
14.517460561197822 63.5793
14.539939910570322 63.0177
14.562437357763558 63.4645
14.58493536931253 63.6752
14.607416409993311 63.8114
14.62991555254159 63.861999999999995
14.652397725157423 64.1462
14.674898002342799 64.5782
14.697398848433282 64.8198
14.719882725991326 65.9847
14.74238471217934 66.8887
14.764869730765593 70.3115
14.787372860692983 76.7386
14.809876564079925 88.9375
14.83236330125751 101.275
14.854868153850365 107.214
14.877356041159485 105.167
14.899862046604186 97.6612
14.922351087688757 89.6246
14.944858249632887 85.6551
14.967365991421232 86.8025
14.989856770231246 93.4975
15.012365673994204 112.641
15.03485761569738 149.06
15.05736768508665 188.446
15.07987833888692 205.063
15.102372032001655 188.665
15.124883856909658 144.216
15.14737872204565 104.744
15.169891721717274 82.4676
15.192405310371893 73.2103
15.214901940621196 68.8533
15.237416709527137 66.288
15.259914520936249 64.9854
15.282430473753607 63.703
15.304947020131227 62.8522
15.327446610371178 62.4371
15.349964346154254 62.1021
15.372465126703139 61.8306
15.394984055556009 61.3063
15.417486030076159 61.3229
15.44000615566487 60.8747
15.462526881230803 60.736999999999995
15.485030653812652 60.8293
15.507552581617434 60.7968
15.530057557334603 60.7331
15.55258069104857 60.7698
15.575104429329837 61.2588
15.597611216864632 60.9932
15.620136166564563 61.5056
15.6426441664095 62.5638
15.665170331202765 65.018
15.687697105158826 70.4899
15.710206930593545 79.8446
15.732734925158933 90.1102
15.755245972089478 95.9357
15.77777519094324 96.0086
15.800287463046663 90.2534
15.822817909869592 82.76299999999999
15.84534897229804 77.6661
15.867863089299354 76.7284
15.890395385222186 79.3115
15.912910736597423 87.72399999999999
15.935444269699861 108.507
15.957978423016485 142.137
15.980495633101265 172.293
16.003031029129367 183.666
16.02554948280019 164.167
16.048086125229432 129.555
16.070623392487107 99.3428
16.09314371869582 81.3562
16.11568223789321 72.1432
16.13820381691126 66.1807
16.160743591742527 62.1386
16.183283996022084 59.2023
16.205807461423195 56.9368
16.228349126881973 55.7565
16.25087385432698 55.4183
16.27341678466365 54.59
16.29594277784926 54.2152
16.31848697676433 53.6773
16.341031811604868 53.0871
16.36355971058487 53.0401
16.3861058195587 52.702
16.40863499352978 52.2574
16.431182380342005 52.0684
16.453730407713202 51.5542
16.476261501364792 51.3064
16.498810812136167 51.2617
16.52134319004079 51.3069
16.54389378792203 51.1045
16.566445031001553 50.9676
16.588979342490088 50.591
16.61153187824822 50.7137
16.634067483263312 50.5584
16.656621315414416 50.4665
16.679175797408888 50.1266
16.701713349928728 50.1292
16.72426913389191 50.2079
16.74680798922351 50.2401
16.76936507887444 50.0638
16.791905240734874 50.2215
16.814463639794468 50.1521
16.837022695210294 50.1272
16.859564824093756 50.3223
16.882125194503903 50.7621
16.904668639217885 51.924
16.927230328348003 53.3668
16.949792678493612 54.6947
16.972338104193863 55.2291
16.994901778652235 54.6247
17.017448529496576 53.8646
17.040013531998152 52.964
17.06257920018044 52.3166
17.0851279459922 53.0552
17.107694947817667 54.7802
17.130245028099072 56.6939
17.15281336730298 58.5691
17.17536478578733 59.1019
17.19793446610687 58.4727
17.220504818648422 57.0854
17.243058251703697 55.7636
17.265629950971032 55.2361
17.288184731571736 55.5542
17.310757781306908 56.5809
17.33333150794385 58.1838
17.355888317140174 61.7485
17.37846339986244 67.9312
17.401021565958885 74.9576
17.42359800851343 78.298
17.44617513265564 76.4183
17.468735341390783 70.2932
17.491261035594565 62.8557
17.51396340099364 57.952
17.536490463869136 55.9301
17.559018209820174 54.7478
17.58154663977963 54.708999999999996
17.604251766089718 54.5783
17.626781572227713 54.71
17.64931206518155 54.6472
17.671843245885103 55.004
17.69455114821572 55.2738
17.717083712612634 55.7254
17.739616967569667 56.9839
17.762150914021706 58.6436
17.78486160749854 59.4767
17.807396945166804 60.3743
17.829932977143503 60.8155
17.85246970436452 61.2888
17.875183204129467 63.2048
17.897721330097664 67.8706
17.920260154126645 73.7054
17.942799677153296 78.4757
17.9655159983646 79.917
17.988056927677544 78.3113
18.010598558807683 74.8217
18.033140892692916 71.5013
18.05586005052525 69.1881
18.07840379824407 68.794
18.10094825154059 70.8795
18.12366954819864 75.2422
18.146215420998306 84.6912
18.16876200220057 101.295
18.191309292745153 123.465
18.214033452627167 141.833
18.236582170236648 144.399
18.259131600016456 131.57399999999998
18.281681742907335 108.98
18.304408781233683 88.0949
18.32696035875955 75.5032
18.349512652227624 69.8667
18.372065662579683 68.6875
18.394795594587553 70.3657
18.41735004715306 75.4303
18.43990521943684 83.9419
18.46246111238171 93.6792
18.485193953325208 99.8012
18.507751296070428 97.5566
18.530309362314178 88.5963
18.552868153000343 77.5674
18.57560391815056 68.8845
18.59816416623245 63.9215
18.620725141597372 61.1525
18.643286845190268 59.3661
18.666025549835414 58.1446
18.688588718427933 56.8061
18.711152618092243 56.2625
18.73389353884365 55.7107
18.75645890921984 55.1537
18.77902501351406 54.8052
18.801591852673102 54.6798
18.824335739722738 54.0546
18.846904057212626 54.1662
18.8694731124168 53.8147
18.89204290628315 53.8799
18.914789774966803 53.5142
18.937361054791623 53.2382
18.959933076131318 53.0418
18.982505839934877 52.8666
19.00525570560582 52.9702
19.027829963004184 52.7176
19.05040496572238 52.6993
19.072980714710468 52.7093
19.095733592739563 53.0493
19.11831084296757 53.3185
19.140888842324735 54.4941
19.16346759176222 55.5087
19.18622349753803 56.7122
19.208803755869358 57.4004
19.231384767143577 57.1077
19.253966532312948 56.5716
19.276725481241822 56.1496
19.29930876296784 56.4656
19.3218928014549 57.5362
19.34465404436217 58.4211
19.36723960516257 59.2144
19.389825925592426 59.7903
19.412413006605938 60.5218
19.43517731967805 62.8234
19.457765930683355 66.5986
19.48035530514408 70.0233
19.50294544401556 70.9875
19.525712842708348 68.4832
19.54830451925909 63.6584
19.570896963095727 57.8814
19.593490175174704 53.722
19.616260674962184 51.798
19.638855432416964 50.6799
19.661450960992624 50.1533
19.68404726164677 49.8484
19.706820878021247 49.5463
19.729418731756834 49.6689
19.752017360452857 49.3403
19.77461676506804 49.5007
19.797393513540218 49.4383
19.819994478951667 50.0634
19.84259622316767 50.8156
19.8651987471481 51.8386
19.887978643247177 52.6716
19.91058273574792 53.4576
19.933187610901943 53.7094
19.955969879466828 53.2039
19.97857632894404 52.4012
20.00118356396599 51.6924
20.023791585494575 51.1338
20.046577028914875 51.4428
20.069186632506966 51.9961
20.091797025500632 53.3624
20.114408208858933 54.8507
20.137196842715273 57.2474
20.159809615886765 60.5371
20.18242318232135 63.9244
20.20503754298326 66.5035
20.227829382875154 66.7356
20.250445341109344 64.575
20.27306209647285 60.4975
20.29567964993108 56.2696
20.31847471147704 53.3404
20.34109387027612 52.0676
20.363713830075454 52.4927
20.386334591841646 53.9334
20.409132890679302 57.108000000000004
20.431755265564437 60.0733
20.454378445325528 61.5474
20.477002430930366 60.9302
20.499803982716553 58.0775
20.522429589228004 53.9492
20.54505600449589 50.5547
20.567683229489194 48.5532
20.590488049900088 47.5525
20.61311690359731 47.0571
20.63574656993626 46.6766
20.658553853717297 46.4124
20.681185154618298 46.3748
20.703817271080066 46.1386
20.72645020407368 46.1238
20.749260783967177 46.3307
20.771895359337133 46.6707
20.794530754161617 47.0663
20.817166969412938 47.1385
20.83998086114876 47.1008
20.86261872660049 46.6397
20.885257415405402 46.1908
20.90789692853701 45.5236
20.930714147864748 45.1961
20.953355319030678 45.0659
20.97599731745334 45.3018
20.99864014410749 45.1724
21.021460706796564 45.43600000000001
21.044105199328826 45.5855
21.06675052302631 45.6654
21.089396678865015 45.7678
21.112220600704806 45.5029
21.134868430275347 45.3177
21.15751709492456 44.9486
21.180166595629693 44.7446
21.202993892429635 44.7733
21.22564507473034 44.8162
21.24829709602816 44.975
21.27112693608965 45.1171
21.293780644891275 45.7808
21.316435195634053 46.1681
21.339090589297417 47.0305
21.361923832041875 47.8069
21.384580921090404 47.8163
21.407238856007325 47.4154
21.429897637773326 46.8271
21.45273429906592 46.1148
21.475394784108598 45.4222
21.498056118951983 45.2611
21.520718304578022 45.318000000000005
21.543558400304388 45.4312
21.566222297108816 45.2911
21.58888704765135 45.3443
21.61155265291521 45.7125
21.63439619898156 46.5625
21.657063523335786 47.3635
21.67973170537063 48.3406
21.7024007460706 49.0362
21.72524775840385 49.3768
21.747918526116475 49.2263
21.770590155457388 48.5032
21.79326264741238 47.9912
21.816113141960237 47.8089
21.838787368860547 47.7601
21.861462461341976 48.1913
21.884315579735777 48.7771
21.90699241312273 49.5795
21.92967011506078 50.3286
21.95234868653799 51.9925
21.9752053151131 54.3715
21.997885635446785 57.5622
22.020566828293532 60.6264
22.04324889464272 62.0111
22.066109049404666 60.7944
22.088792872571794 58.1476
22.111477572219204 54.9794
22.1341631493376 52.1505
22.157026846313123 50.641000000000005
22.179714188221507 50.6002
22.202402410582668 51.3588
22.22509151438863 52.3083
22.24795876962584 52.8507
22.270649646204486 52.9099
22.293341407213727 51.778999999999996
22.316034053646906 50.1385
22.338904883215342 48.3653
22.36159931041458 46.9791
22.38429462602756 46.0782
22.40699083104897 45.4635
22.429865251039757 45.3686
22.452563244831367 45.2256
22.47526213102522 45.2021
22.49813925616515 45.2327
22.520839937143307 45.0655
22.543541513520587 45.0244
22.56624398629403 45.0205
22.589124730075895 44.9762
22.611829005656723 45.2303
22.63453418063466 45.1163
22.657240256008077 45.3685
22.680124634582935 45.7997
22.70283252079775 46.5504
22.725541310413075 47.1697
22.74825100442868 47.7157
22.771139033969575 48.1336
22.79385054687155 48.0842
22.81656296718292 47.8117
22.83927629590484 47.3781
22.862167992606945 46.9966
22.88488314827121 46.6141
22.907599215359284 46.3276
22.93031619487366 46.2836
22.953211574954405 46.2504
22.975930389478226 46.531000000000006
22.998650119445763 47.3366
23.02137076586092 48.07
23.044269845560063 49.8017
23.06699233506288 52.1483
23.089715744034912 54.1882
23.112617610931565 55.2203
23.135342869061212 54.5797
23.158069049684816 52.6898
23.1807961538087 50.24100000000001
23.20370174880544 48.2703
23.226430710184808 46.905
23.249160598093425 46.1428
23.271891413539002 46.0771
23.294800752937697 46.4276
23.31753343374794 46.9764
23.340267045128353 47.3705
23.36300158808808 47.9398
23.38591468821339 48.3299
23.408651104658304 48.2298
23.431388455719986 47.9278
23.454126742409 47.4249
23.4770436196085 46.9491
23.499783787914662 46.6559
23.522524894889884 46.1356
23.54526694154616 45.7461
23.56818761219047 45.6132
23.59093154860734 45.7429
23.613676427751283 46.3738
23.636422250635754 47.358000000000004
23.659346731118656 49.089
23.68209445191868 51.5046
23.704843119509587 53.8042
23.72759273490623 54.9993
23.750521041644767 54.5623
23.77327256312355 52.5199
23.796025035462787 49.6356
23.818956224555475 46.9362
23.841710609113413 45.1164
23.86446594758979 43.8299
23.887222241002014 43.0784
23.910157285144578 42.6107
23.932915498962537 42.5919
23.955674670778713 42.2711
23.978434801611975 42.1252
24.001373717286125 41.9933
24.024135776723917 41.8839
24.046898798245582 41.882
24.06966278287146 41.7573
24.092605586582614 41.5669
24.115371508023642 41.1997
24.1381383956401 41.1627
24.16090625045381 41.0698
24.183852958731244 40.9801
24.206622758582608 40.8326
24.229393528706886 40.5713
24.252165270127392 40.5825
24.27511589952438 40.5879
24.297889594216997 40.3666
24.32066426328598 40.3858
24.34343990775613 40.3051
24.36639447485003 40.1475
24.38917208083877 40.202
24.41195066531332 40.108000000000004
24.43490819850244 39.998000000000005
24.457688750692377 39.8195
24.48047028445616 39.7466
24.503252800821233 39.7786
24.526214300784112 39.6556
24.548998793132213 39.7237
24.57178427117417 39.5723
24.59457073593893 39.5983
24.617536219319863 39.7905
24.64032466834748 40.0429
24.663114107195035 40.1152
24.685904536893013 40.1228
24.708874020360852 40.204
24.731666442613744 40.1242
24.754459858818787 39.939
24.777254270007962 39.6311
24.80022777025625 39.5579
24.82302418230472 39.4367
24.845821592443674 39.3874
24.86862000170663 39.3321
24.891597535453727 39.3354
24.914397953892728 39.5421
24.93719937456671 39.4946
24.96000179851076 39.4523
24.98298338249997 39.4605
25.00578782394922 39.5121
25.028593271784167 39.4193
25.05157790644186 39.7339
25.07438537804115 39.906
25.097193859145293 39.8134
25.120003350792075 39.9149
25.142992065061257 39.9902
25.165803588823465 39.873000000000005
25.18861612625217 39.8471
25.211429678386736 39.8372
25.234422489079968 40.1225
25.257238081693636 40.4115
25.280054692141732 40.8344
25.3028723214652 41.0597
25.325869245420463 41.0217
25.348688923599397 40.8259
25.371509623787006 40.4385
25.394331347025812 40.2463
25.41733240110666 40.4412
25.440156181590016 40.6592
25.46298098826268 41.3557
25.48580682216873 41.9497
25.50881202326435 42.1684
25.53163992281684 41.6653
25.55446885274561 40.8345
25.577298814096377 39.8848
25.600308179121807 39.1094
25.623140214533745 38.6355
25.64597328451537 38.3054
25.66898578564376 38.1223
25.691820936010206 37.9285
25.714657124097695 37.9577
25.737494350954734 37.908
25.760511045684957 37.7749
25.783350361364224 37.8333
25.806190718969255 38.0838
25.82903211955018 38.2854
25.852053024868923 38.1634
25.874896522722523 38.1787
25.897741066713106 37.9235
25.920586657892454 37.9352
25.943611790812668 37.9444
25.966459487728237 37.5703
25.989308234998564 37.3483
26.01215803367705 37.5339
26.03518741123814 37.512
26.05803932412957 37.4592
26.080892291600094 37.3368
26.10374631470478 37.3418
26.12677995397268 37.5645
26.14963609978026 37.6728
26.172493304397875 37.8697
26.19535156888223 38.381
26.218389486949604 38.8683
26.241249882640123 39.1237
26.26411134137826 39.18
26.28715248187403 39.0864
26.31001607820869 38.6549
26.3328807407756 38.1899
26.35574647063438 37.9859
26.37879191991473 37.8659
26.401659795896734 37.812
26.424528742360263 37.7479
26.447398760366614 37.6449
26.470448535598294 37.5692
26.49332070826805 37.4011
26.516193955675355 37.5521
26.53906827888316 37.4575
26.562122397260108 37.2697
26.584998883685063 37.41
26.607876449110325 37.4456
26.63075509460056 37.368
26.65381357334404 37.4711
26.67669439061878 37.5793
26.699576291163382 37.7248
26.722459276044212 38.1649
26.745522132402975 38.6228
26.768407297649354 39.1119
26.791293550442003 39.4255
26.814180891848974 39.4401
26.837248143099337 39.092
26.860137673466657 38.7948
26.88302829566349 38.3241
26.90592001075963 38.0496
26.92899167420566 38.035
26.951885586870763 37.8409
26.974780595655517 37.9439
26.99785558178161 37.7946
27.020752794605112 37.6536
27.043651106772522 37.2305
27.06655051935668 36.9639
27.089629948036183 36.4965
27.112531573292053 36.3618
27.135434302194138 36.3445
27.158338135817015 36.1215
27.181422024430987 36.1182
27.204328079372566 35.9233
27.22723524226965 36.0205
27.250143514198573 35.9614
27.273231880156334 36.0746
27.296142382065014 35.9102
27.319053996245536 35.7934
27.341966723775965 35.8339
27.365059584515222 35.7758
27.38797455070062 35.6609
27.410890633481237 35.5805
27.433807833936918 35.4985
27.456905206923906 35.5622
27.47982465472398 35.4426
27.502745223449743 35.6223
27.525666914182825 35.5876
27.548768816912457 35.489000000000004
27.571692763693633 35.5605
27.59461783573812 35.5077
27.617723149491244 35.4178
27.640650484125285 35.6981
27.66357894728264 35.9018
27.686508540048052 36.0424
27.709618414237887 36.0098
27.732550278321757 35.9352
27.755483275279115 35.8988
27.778417406196485 35.912
27.801531858397514 35.6285
27.824468269376716 35.4563
27.847405817586786 35.4455
27.870344504116094 35.4416
27.893463551932008 35.2939
27.916404527281053 35.3605
27.93934664422563 35.2379
27.962289903855886 35.0774
27.98541356491974 35.333
28.00835912214229 35.2693
28.03130582533231 35.2818
28.054253675581805 35.2678
28.077381967556104 35.2117
28.100332124185126 35.1896
28.123283431160893 35.3491
28.146235889577238 35.6398
28.169368830154156 35.9332
28.192323603752033 36.1918
28.215279532083304 36.2038
28.238415973016764 36.2039
28.261374223145094 36.0921
28.284333631303806 35.7593
28.307294198589954 35.5517
28.330435319167677 35.3474
28.353398217078915 35.2698
28.376362277420153 35.1036
28.39932750129032 35.0401
28.422473319286713 34.9041
28.44544088262495 34.8105
28.468409612800283 34.4717
28.491379510913497 34.0729
28.51453004413313 33.8848
28.53750229057244 33.7259
28.56047570826344 33.5208
28.583450298308804 33.6333
28.606605564586562 33.3711
28.629582511831156 33.4569
28.65256063474956 33.2786
28.675539934446338 33.3087
28.698699951647605 33.2405
28.72168161743193 33.0618
28.74466446331978 33.0112
28.767648490417624 32.8119
28.790813276438353 32.7321
28.813799678527303 32.7383
28.836787265157085 32.7073
28.859955641890075 32.6548
28.882945610203045 32.6434
28.905936766392035 32.5316
28.928929111566863 32.6322
28.952102288520145 32.6064
28.975097024308607 32.429
28.998092952423807 32.4847
29.021090073977508 32.5811
29.04426806913204 32.666
29.067267590245258 32.6977
29.090268308143695 32.6174
29.11327022394099 32.6011
29.13645305530891 32.4421
29.159457379627167 32.3071
29.18246290519685 32.0846
29.20546963313352 32.038000000000004
29.22865731875826 31.9067
29.25166646419296 31.7619
29.27467681535305 31.6174
29.29768837335608 31.7
29.320880931312562 31.5832
29.34389491580634 31.4696
29.366910110507334 31.4622
29.38992651653503 31.4147
29.41312396492981 31.4836
29.436142806456754 31.4873
29.45916286268059 31.3384
29.48236399319994 31.4672
29.50538649169417 31.3918
29.528410208259935 31.4881
29.55143514402014 31.56
29.574641196749695 31.576
29.597668583816574 31.513
29.6206971934585 31.357
29.64372702680042 31.3683
29.666938019934474 31.0374
29.689970313635285 30.864
29.713003834422636 30.7692
29.73603858342347 30.6705
29.759254535188578 30.5312
29.78229175361658 30.5462
29.80533020365064 30.5214
29.82836988641968 30.500999999999998
29.85159081507472 30.4418
29.874632976355343 30.326999999999998
29.89767637376955 30.4582
29.920721008448314 30.1873
29.9439469322847 30.2586
29.96699405457564 30.1965
29.9900424175358 30.212
30.013092022298157 30.1312
30.03632295963995 30.0984
30.059375061131373 30.1714
30.08242840783577 30.1101
30.105483000888153 30.1175
30.128718970092244 30.026999999999997
30.151776069006917 29.9948
30.17483441768648 29.8978
30.198074175317235 29.9008
30.221135036724256 29.9459
30.24419715131772 29.771
30.267260520236203 29.7221
30.290505341942243 29.7933
30.313571232750228 29.9097
30.336638381310948 29.9987
30.35970678876503 30.0296
30.38295669299435 29.9878
30.40602763151657 30.1195
30.429099832366074 30.05
30.452173296685572 29.9462
30.47542830191959 29.8536
30.498504306502497 29.7346
30.521581577995562 29.7178
30.544660117543582 29.7043
30.56792024229725 29.7292
30.59100133132069 29.5494
30.614083691845494 29.5062
30.637167325018545 29.5604
30.660432587840603 29.5213
30.683518779717886 29.3672
30.70660624769615 29.4892
30.729694992924372 29.4513
30.75296541239743 29.4482
30.77605672557558 29.5178
30.799149319462742 29.6361
30.8224236211637 29.7032
30.845518789950724 29.7264
30.868615242910597 29.9088
30.891712981195973 29.753
30.91499247215866 29.7562
30.938092794619365 29.7179
30.96119440587579 29.6063
30.984297307082752 29.4608
31.00758200598383 29.3519
31.030687500658694 29.2894
31.053794288760695 29.2209
31.076902371446767 29.0861
31.100192296997445 29.1459
31.12330298246119 29.154
31.14641496599209 28.9628
31.169528248749216 28.9776
31.19282341969534 28.8119
31.215939314557186 28.7891
31.239056512134788 28.8194
31.262175013589378 28.6879
31.28547544871168 28.6586
31.30859657161541 28.5746
31.331719001892175 28.4916
31.35484274070538 28.5126
31.378148458819545 28.4595
31.401274828443725 28.4307
31.424402510106933 28.4324
31.447712205419993 28.5909
31.470842524931633 28.3661
31.493974159989783 28.3523
31.51710711176168 28.3501
31.54042212308802 28.4186
31.563557722100917 28.5469
31.586694641341655 28.5078
31.609832881979628 28.4411
31.63315322823208 28.5656
31.656294125521327 28.5659
31.679436347728515 28.4601
31.70257989602529 28.4258
31.725905596152327 28.3075
31.74905181052835 28.1211
31.772199354521323 28.1468
31.79534822930507 28.065
31.818679302290967 27.9997
31.84183085259981 27.9346
31.864983737233473 27.8555
31.88813795736804 27.8132
31.911474422233013 27.6265
31.934631327356435 27.7144
31.9577895715215 27.7007
31.980949155906522 27.6456
32.004291031706956 27.6761
32.027453310562606 27.6452
32.05061693318573 27.5379
32.07396288236386 27.7402
32.09712920658542 27.7578
32.12029687812702 27.7794
32.14346589817093 27.6402
32.166817291729984 27.6673
32.18998902288583 27.6195
32.21316210610336 27.496
32.23633654256711 27.4589
32.259693399663725 27.4409
32.282870556771144 27.3178
32.30604907069099 27.3534
32.329228942610065 27.1989
32.35259128243769 27.046999999999997
32.375773884550505 26.9836
32.398957848235646 26.9142
32.422143174682176 26.8559
32.445511016471215 26.7856
32.468699082679954 26.7019
32.49188851523011 26.6438
32.51507931531304 26.5818
32.538452678331 26.6973
32.56164622776311 26.4644
32.58484114831493 26.3715
32.60803744118015 26.4004
32.631416344731896 26.3902
32.654615396551876 26.3916
32.67781582427913 26.3853
32.701198898634416 26.2896
32.72440209253756 26.2607
32.747606665947124 26.2137
32.77081262006088 26.1983
32.79420126883317 26.1617
32.81740999876112 26.1452
32.840620112999424 26.0531
32.86383161274818 25.9336
32.88722585534586 25.983
32.91044014056596 26.0998
32.933655814909734 25.9993
32.95687287957963 26.046999999999997
32.98027273544904 25.9411
33.00349259526636 25.925
33.026713849030116 25.8959
33.04993649794511 25.8351
33.073341986570746 25.7565
33.09656744032826 25.6732
33.11979429286444 25.6963
33.14302254538647 25.6447
33.166433686291185 25.553
33.18966475336992 25.496
33.212897224069096 25.4117
33.23613109959831 25.4108
33.259547912343415 25.3714
33.2827846121627 25.4987
33.306022720453775 25.4244
33.32926223842861 25.3213
33.352684742614166 25.4374
33.37592709463173 25.397
33.399170859982064 25.3955
33.422597648419426 25.4395
33.44584425514446 25.2816
33.46909227885668 25.3474
33.4923417207723 25.2223
33.51577423505344 25.296999999999997
33.539026528130385 25.1548
33.56228024307245 25.1113
33.585535381098246 25.0021
33.60897364093058 24.851
33.63223163992385 24.8592
33.6554910656699 24.7459
33.678751919389796 24.7665
33.702195944520106 24.5933
33.72545966903325 24.6563
33.74872482519663 24.5631
33.771991414233746 24.581
33.79544122444841 24.5011
33.81871069412428 24.4152
33.84198160035767 24.434
33.86525394437455 24.4486
33.88870955949969 24.3731
33.911984794020626 24.4067
33.93526147001624 24.3025
33.958539588715006 24.2562
33.98200102861669 24.2355
34.0052820477047 24.1466
34.02856451319451 24.1472
34.05203033759056 24.1014
34.07531571090147 24.1259
34.09860253431845 24.1282
34.121890809074316 24.0381
34.145362493118924 24.1181
34.16865368561615 24.0098
34.191946333164054 23.9442
34.21524043699793 23.8638
34.23871800066799 23.7925
34.26201503218366 23.7412
34.28531352370466 23.6611
34.30861347646881 23.5669
34.33209693978188 23.6004
34.3553998301885 23.5211
34.378704185565205 23.4912
34.402010007152356 23.4782
34.42549939016683 23.5074
34.44880815937748 23.3661
34.472118398533134 23.4529
34.49543010887669 23.4226
34.51892543169198 23.3903
34.54224009966052 23.4411
34.56555624255917 23.4343
34.58887386163339 23.3232
34.61237514439016 23.2066
34.6356957311114 23.0894
34.65901779775809 23.0845
34.68252356662995 23.0341
34.705848608458616 23.0328
34.72917513396849 22.9778
34.75250314440949 22.9794
34.77601490857862 22.9576
34.799345904259795 22.8267
34.82267838863559 22.8632
34.846012362958525 22.8131
34.869530142679984 22.8467
34.89286711232212 22.7805
34.91620557568269 22.7308
34.93954553401677 22.7377
34.9630693495876 22.6151
34.986412313340814 22.6366
35.00975677584668 22.6327
35.033102738362956 22.6086
35.05663261012228 22.6202
35.0799815881786 22.5527
35.10333207003229 22.5069
35.12668405694369 22.4748
35.150220005273056 22.5419
35.17357501786656 22.4643
35.19693153931268 22.3872
35.220289570874385 22.4523
35.24383161619786 22.4452
35.267192683604904 22.4416
35.290555264930376 22.2891
35.314101899412165 22.2682
35.33746752422433 22.241999999999997
35.36083466676374 22.2035
35.38420332829803 22.194000000000003
35.407756095629054 22.1454
35.43112781085063 22.173000000000002
35.45450104888391 22.1084
35.477875810999194 22.0562
35.50143473172161 21.9455
35.52481255774625 21.964000000000002
35.54819191167777 21.989
35.57157279478914 21.9779
35.595137889488406 22.0271
35.61852184675279 21.9149
35.641907337029984 21.8886
35.665294361595684 21.9967
35.68886565090076 21.8479
35.7122557598848 21.8933
35.73564740699838 21.8901
35.759040593519934 21.7928
35.78261809810353 21.7397
35.80601437933051 21.6576
35.829412203814705 21.6214
35.85281157283719 21.5044
35.876395313415884 21.5573
35.8997977874528 21.5133
35.92320180988546 21.4966
35.946790244133936 21.4132
35.97019737933222 21.4415
35.993606066789866 21.3855
36.01701630779276 21.3506
36.04061101440684 21.2743
36.06402437852291 21.2694
36.08743930005611 21.2675
36.1108557802951 21.1978
36.13445678011326 21.1349
36.15787639383515 21.13
36.18129757014299 21.0938
36.20472031032821 21.1046
36.22832762423364 21.058000000000003
36.25175350829375 21.0323
36.275180960119776 20.939
36.298609981005924 20.9642
36.32222362992669 20.9532
36.34565580510207 20.9036
36.36908955323448 20.9221
36.39252487562093 20.7825
36.416144880530226 20.7657
36.43958336764275 20.7575
36.463023432914625 20.7164
36.486465077645676 20.6335
36.51009145956204 20.7652
36.53353627947859 20.6881
36.55698268276811 20.6259
36.58043067073321 20.5893
36.60406345072071 20.4946
36.62751462435344 20.4907
36.65096738658405 20.5088
36.67460498210655 20.52
36.69806093788647 20.4515
36.72151848619297 20.4352
36.744977628333636 20.4272
36.76862165890998 20.3263
36.79208400512205 20.3856
36.81554794910557 20.4282
36.83901349217101 20.3183
36.862663978991606 20.3299
36.88613273667352 20.2661
36.90960309738324 20.1886
36.933075062434064 20.1347
36.95673202673572 20.2155
36.98020721697122 20.0812
37.003684015502365 20.0379
37.027162423645365 20.0351
37.050825886711465 19.9977
37.07430753063053 19.9662
37.09779078812467 19.9087
37.121275660513014 19.855999999999998
37.144945643673694 19.8751
37.16843376245278 19.8946
37.19192350009803 19.8352
37.215414857931435 19.7307
37.239091382563885 19.6705
37.262585997426164 19.6157
37.28608223645736 19.602999999999998
37.309763684451696 19.6559
37.33326318851098 19.5676
37.356764320726555 19.5662
37.380267082425526 19.5619
37.40395510942588 19.5433
37.42746114683234 19.4921
37.45096881771841 19.4446
37.474478123414166 19.438
37.49817275092816 19.4603
37.52168534303452 19.3532
37.54519957395567 19.2935
37.568715445024665 19.2909
37.592416694607714 19.2234
37.61593586281424 19.2227
37.63945667518264 19.276
37.66297913304891 19.233
37.68668702630454 19.1835
37.710212792059274 19.21
37.733740207334854 19.1185
37.757269273470364 19.0277
37.780983832050374 18.9649
37.80451621684926 19.0596
37.82805025654007 19.035
37.851585952464795 18.9929
37.8753071980695 18.9144
37.89884622345676 18.909000000000002
37.92238690911902 18.8719
37.94611318753442 18.8384
37.969657210779765 18.8028
37.99320289834801 18.7647
38.016750251586465 18.7612
38.04048325513017 18.7363
38.06403395679343 18.7085
38.087586328183946 18.6758
38.11114037065203 18.6618
38.13488012115898 18.6057
38.1584375229181 18.5707
38.181996599821 18.538
38.205557353221124 18.5188
38.229303872575656 18.3941
38.2528679961576 18.4304
38.27643380031219 18.4217
38.30000128639589 18.3266
38.32375459653193 18.3894
38.34732546371299 18.3003
38.37089801690786 18.2298
38.39447225747609 18.2412
38.418232380377425 18.2322
38.441810012983396 18.2628
38.46538933705673 18.2138
38.488970353960084 18.1052
38.51273731166058 18.16
38.536321731567014 18.1265
38.55990784840681 18.1092
38.58367995004091 18.045
38.60726947812959 17.9771
38.63086070726198 17.9878
38.654453638806274 17.980999999999998
38.678232613930824 17.8784
38.70182896773327 17.8296
38.72542702806741 17.8429
38.7490267963045 17.8527
38.77281266709232 17.7842
38.79641586862214 17.8152
38.8200207821842 17.7853
38.843627409152944 17.6921
38.86742019782782 17.6514
38.891030269149255 17.6935
38.914642058016156 17.5957
38.938255565806124 17.6152
38.96205529464307 17.5474
38.98567225787121 17.5568
39.00929094417078 17.5978
39.03291135492255 17.527
39.05671804624804 17.4907
39.080341923549106 17.4664
39.103967529460334 17.427
39.127594865365744 17.3901
39.15140854155791 17.3947
39.17503935514948 17.364
39.19867190290282 17.3056
39.22249083587951 17.2747
39.24612686969409 17.2288
39.269764641845306 17.2062
39.293404153722804 17.2051
39.317230110864074 17.1715
39.34087311998506 17.1731
39.36451787301696 17.0987
39.388164371352595 16.999000000000002
39.41199737518003 17.0248
39.43564738196752 17.0008
39.45929913825317 17.0223
39.48295264543308 16.9798
39.506792718520884 16.9152
39.530449745387216 16.9001
39.55410852735203 16.8928
39.57776906581474 16.9023
39.60161623079 16.868
39.625280300200025 16.8943
39.64894613032202 16.7925
39.67261372255866 16.7659
39.6964680021016 16.715
39.72013913657293 16.7308
39.74381203738292 16.7217
39.76748670593756 16.676
39.79134812278169 16.7036
39.81502634488497 16.6249
39.83870633896685 16.5648
39.862388106436654 16.5366
39.88625668336918 16.5178
39.90994201572829 16.5479
39.933629125719285 16.5071
39.957503091207826 16.3855
39.9811937746168 16.4699
40.00488623990914 16.4051
40.02858048850006 16.3481
40.05246165409549 16.3906
40.076159487492085 16.3583
40.099859108448875 16.3448
40.123560518384345 16.2658
40.1474489070226 16.2362
40.171153913178564 16.1758
40.194860712584955 16.1719
40.2185693066637 16.264
40.242464941335314 16.1222
40.26617714307655 16.0927
40.289891143772046 16.1009
40.3136069448471 16.0964
40.33750984859743 16.0687
40.3612292688043 16.0197
40.3849504936829 16.0008
40.40867352466194 16.0111
40.43258372059144 15.9275
40.45631038219906 15.9518
40.48003885420956 15.8913
40.503769138055105 15.8037
40.52768664931955 15.8604
40.55142057531802 15.8332
40.57515631746428 15.8199
40.599079334038514 15.775
40.62281872700477 15.7766
40.64655994043941 15.7193
40.67030297578061 15.6799
40.69423334835778 15.6591
40.71798004609188 15.681
40.74172857006355 15.6217
40.76547892171441 15.6471
40.7894166736039 15.574000000000002
40.813170699248566 15.5431
40.83692655691388 15.5136
40.86068424804498 15.5449
40.884629402612525 15.4993
40.908390779366385 15.4963
40.932153993938 15.4401
40.95591904777605 15.4168
40.979871628443995 15.4538
41.003640379561936 15.4185
41.02741097430883 15.31
41.05118341413683 15.2891
41.075143444384416 15.3114
41.098919593177826 15.3039
41.1226975914255 15.2556
41.14647744058318 15.2153
41.170444943946755 15.1382
41.19422851378379 15.2035
41.218013938914645 15.1356
41.24198706625173 15.1238
41.26577622087193 15.1066
41.289567235177785 15.052999999999999
41.31336011063129 15.0427
41.337340752422875 14.9891
41.361137369129835 14.9935
41.38493585138705 14.9766
41.40873620066004 14.9014
41.43272438060107 14.9373
41.45652848292052 14.9003
41.48033445666918 14.8201
41.50414230331616 14.7957
41.528138045159764 14.8265
41.551949656675205 14.7521
41.575763145513235 14.6734
41.59957851314666 14.6953
41.62358184070442 14.6596
41.64740098505737 14.6757
41.6712220126409 14.6677
41.69504492493139 14.6023
41.71905586207357 14.6095
41.74288256296395 14.6164
41.766711153007456 14.5496
41.79054163368412 14.5438
41.814560204340054 14.5773
41.838394485526365 14.5539
41.86223066180303 14.4687
41.88625497706819 14.431
41.910094962812 14.4265
41.93393684811168 14.4009
41.95778063445365 14.3444
41.981812625263366 14.356
42.00566023303407 14.3306
42.029509746323676 14.2716
42.05336116662236 14.2595
42.077400857069705 14.2394
42.10125611078846 14.2129
42.12511327600405 14.1554
42.14897235421036 14.1335
42.173019768448455 14.1099
42.19688269209613 14.109000000000002
42.22074753323349 14.1192
42.24461429335818 14.0921
42.268669455600495 14.0904
42.292540073217886 14.0479
42.31641261433284 14.0466
42.34028708044675 13.9534
42.36435001496739 13.9245
42.38822835065557 13.9305
42.41210861586426 13.9183
42.4359908120986 13.9156
42.46006154323262 13.8522
42.48394762115317 13.8126
42.507835634632315 13.8178
42.531912233047436 13.767000000000001
42.55580413732265 13.8018
42.579697981698 13.7648
42.60359376768525 13.7512
42.62767820545945 13.7238
42.65157789440821 13.6808
42.67547952952185 13.6629
42.699383112316 13.6459
42.72347541395347 13.6136
42.74738291190531 13.5804
42.771292362102166 13.5461
42.795203766063516 13.5613
42.819303956130405 13.5191
42.843219287476536 13.4969
42.86713657716324 13.4966
42.89105582671383 13.4658
42.91516392983864 13.4511
42.939087119032166 13.3875
42.963012272677304 13.3547
42.98693939230129 13.3881
43.01105543317513 13.3426
43.034986504731386 13.3036
43.05891954686589 13.2716
43.08285456110972 13.243
43.10697856448665 13.2575
43.130917542983475 13.227
43.15485849820081 13.1909
43.17880143167367 13.184000000000001
43.20293342237094 13.1242
43.226880332449 13.1132
43.25082922540554 13.1099
43.27496722682525 13.0839
43.29892010567796 13.0419
43.32287497204102 13.0413
43.34683182745632 12.9805
43.370977859791836 13.0097
43.39493871351105 12.994000000000002
43.41890156092628 12.9746
43.44286640358341 12.9241
43.46702049182749 12.8947
43.49098934522816 12.9228
43.51496019852649 12.8879
43.5389330532723 12.8486
43.56309522248204 12.7832
43.58707210044314 12.8171
43.61105098451946 12.7757
43.63503187626491 12.7594
43.659202151562134 12.7139
43.68318707902681 12.6807
43.70717401884041 12.7183
43.731162972560874 12.6626
43.75534137913236 12.6577
43.779334381108384 12.6447
43.803329401683186 12.6125
43.82732644241872 12.5597
43.8515130055166 12.5263
43.87551410707659 12.5607
43.89951723350145 12.5344
43.923709934595614 12.5263
43.94771713129917 12.4997
43.97172635758096 12.4333
43.99573761501002 12.4216
44.0199385169922 12.4175
44.04395385732619 12.3932
44.067971233533086 12.4297
44.09199064718605 12.3934
44.11619977548961 12.3424
44.14022328470671 12.299000000000001
44.16424883610785 12.3346
44.18827643127035 12.28
44.21249381139513 12.2535
44.236525514814076 12.2369
44.26055926674478 12.1921
44.28459506876863 12.1788
44.3088207262813 12.1447
44.33286064928722 12.1317
44.35690262714919 12.1241
44.38094666145278 12.0868
44.4051806219871 12.068
44.42922879003185 12.0468
44.45327901929361 12.0396
44.477331311362136 12.0142
44.501573600619416 11.939
44.525630039221795 11.9719
44.54968854541895 11.9645
44.573937102200176 11.897
44.5979997645541 11.8645
44.622064499300315 11.9114
44.64613130803592 11.875
44.67038823869318 11.868
44.69445921643748 11.780999999999999
44.718532272981385 11.7595
44.742607409926194 11.7699
44.76687274034801 11.7768
44.79095205918753 11.7513
44.81503346325094 11.7205
44.839116954143876 11.7018
44.86339071028742 11.6947
44.88747839599524 11.6851
44.91156817336837 11.6713
44.93566004401666 11.5847
44.959942251908146 11.625
44.984038330325966 11.5763
45.00813650686762 11.5672
45.03223678314731 11.5083
45.05652746888232 11.5263
45.08063196592069 11.4661
45.104738567558705 11.4766
45.128847275414856 11.4854
45.15314646515866 11.4333
45.17725940679741 11.4062
45.20137445952892 11.4294
45.22568004865265 11.4389
45.24979934496396 11.3176
45.27392075725247 11.3057
45.29804428714431 11.3177
45.322358426247604 11.2771
45.346486212804315 11.2873
45.370616121861914 11.2561
45.39474815505086 11.24
45.41907087049246 11.2263
45.4432071734666 11.1615
45.46734560548283 11.2234
45.49148616817604 11.1896
45.51581748638564 11.1746
45.5399623320197 11.1398
45.56410931325473 11.1331
45.58825843173002 11.1071
45.61259837920865 11.0396
45.636751793816 11.0259
45.66090735060093 11.0411
45.68506505120716 10.982999999999999
45.7094136545275 10.9475
45.73357566449271 10.9286
45.75773982322992 10.9387
45.78190613238733 10.9342
45.806263418194064 10.8954
45.83043404997326 10.8977
45.85460683713677 10.8936
45.87897065658495 10.8495
45.90314777634752 10.8438
45.92732705646868 10.8201
45.9515084986045 10.7976
45.97588104735473 10.7956
46.00006683541565 10.7638
46.02425479047904 10.7256
46.04844491420549 10.7418
46.0728262191024 10.7081
46.09702070211635 10.6541
46.12121735879483 10.6623
46.14541619080294 10.6164
46.169806278764455 10.6348
46.194009483459034 10.6706
46.21821486849841 10.5863
46.24242243555223 10.5506
46.266821333570014 10.5062
46.29103328674601 10.503
46.31524742696538 10.5419
46.33946375590237 10.4775
46.36387149104216 10.4705
46.38809221957392 10.4511
46.41231514186606 10.4259
46.436540259597464 10.4369
46.460956858999374 10.4127
46.48518638983522 10.4013
46.509418121166966 10.3833
46.533652054678114 10.3379
46.55807754555709 10.319
46.58231590571962 10.308
46.60655647313217 10.2726
46.630988654873654 10.258
46.655233659129024 10.2656
46.67948087571551 10.2349
46.70373030632484 10.2064
46.72817142736393 10.2323
46.752425308428684 10.181000000000001
46.77668140861147 10.1421
46.80093972960865 10.0932
46.82538981736788 10.1171
46.849652602470904 10.0792
46.87391761349769 10.0588
46.8981848521493 10.0403
46.9226439341274 10.017000000000001
46.946915650573224 10.0302
46.97118959976749 9.979519999999999
46.99546578341598 9.88829
47.019933887188216 9.92088
47.04421456235744 9.92235
47.06849747711879 9.90673
47.09278263318286 9.88909
47.11725978640143 9.87577
47.14154944775105 9.85835
47.165841355555656 9.8264
47.1901355115306 9.82709
47.214621741924994 9.78244
47.23892041698887 9.774410000000001
47.26322134538975 9.77944
47.28771440635075 9.734919999999999
47.31201986422527 9.74976
47.33632758061436 9.72381
47.360637557241866 9.7132
47.38513974410611 9.68551
47.40945426407847 9.64718
47.43377104948137 9.6276
47.45809010204344 9.63311
47.48260144275502 9.56906
47.506925052572285 9.60923
47.53125093475548 9.560830000000001
47.55557909103813 9.59596
47.58009961361992 9.5237
47.60443234110732 9.51266
47.62876734791564 9.48051
47.65310463578333 9.49285
47.6776343683373 9.48136
47.7019762413987 9.44351
47.72632040075572 9.44712
47.75066684815169 9.42353
47.77520581885936 9.36662
47.799556865477655 9.39091
47.823910205386 9.34724
47.84826584033272 9.3748
47.87281407745551 9.30405
47.89717432569297 9.346630000000001
47.92153687423484 9.32262
47.94609208429692 9.3016
47.97045925671401 9.32282
47.99482873471275 9.266689999999999
48.01920052005013 9.24032
48.04376504619224 9.23028
48.068141469543484 9.23312
48.09252020552573 9.19825
48.11690125590099 9.167689999999999
48.1414751266064 9.1533
48.16586082917454 9.13542
48.19024885144316 9.130360000000001
48.2146391951793 9.088569999999999
48.239222439012764 9.10617
48.26361744916137 9.09196
48.28801478610016 9.07697
48.31241445160131 9.046669999999999
48.337007097209366 9.05855
48.36141144338331 9.03313
48.38581812345755 8.97661
48.41022713920929 9.02022
48.434829215320704 8.9711
48.45924292604658 8.947280000000001
48.48365897780325 8.98886
48.50807737237308 8.90052
48.532688907799276 8.87301
48.55711201168574 8.90629
48.581537463754074 8.84978
48.60615611725119 8.88476
48.63058628942721 8.87111
48.65501881516546 8.83116
48.6794536962573 8.81374
48.70408185970339 8.80972
48.72852147531801 8.76559
48.75296345168211 8.7358
48.77740779059232 8.736839999999999
48.80204549302823 8.73772
48.82649458091802 8.74945
48.85094603676547 8.69978
48.87539986237231 8.68217
48.90004713292306 8.63832
48.92450572200832 8.6305
48.94896668628025 8.61943
48.97343002754588 8.61058
48.99808689542115 8.62105
49.02255501470614 8.60556
49.04702551642794 8.54453
49.0714984023988 8.5434
49.096164896893235 8.536589999999999
49.120642575466796 8.50836
49.145122643748394 8.50804
49.16960510355558 8.48898
49.19428125404938 8.47685
49.2187685210852 8.45445
49.243258185121555 8.448839999999999
49.26794160167084 8.41831
49.2924360839405 8.38209
49.31693296869764 8.3741
49.34143225776915 8.387080000000001
49.36612538195438 8.36304
49.39062950396021 8.31339
49.41513603578346 8.34781
49.4396449792564 8.323269999999999
49.46434784069503 8.33148
49.488861631846454 8.28984
49.513377840166804 8.28872
49.537896467493745 8.25869
49.56260909589029 8.21488
49.587132585683285 8.22697
49.611658500018365 8.209810000000001
49.636186840738596 8.21063
49.66090926588511 8.17901
49.685442483902584 8.1622
49.70997813385706 8.13497
49.734516217597076 8.10105
49.75924846937352 8.13521
49.7837914452858 8.10666
49.80833686055187 8.104339999999999
49.83288471702571 8.06058
49.85762682540054 8.05658
49.882179588965734 8.03853
49.9067347993235 7.98488
49.93129245833333 8.00632
49.95604445336378 8.02086
49.98060703442832 7.973730000000001
50.005172069746266 7.956180000000001
50.02993150438364 7.96307
50.05450147301533 7.9484699999999995
50.07907390151433 7.92345
50.10364879174981 7.9326300000000005
50.12841816587289 7.87528
50.1529980044635 7.861460000000001
50.17758031042124 7.86371
50.20216508562089 7.86229
50.22694442953363 7.831060000000001
50.25153416817468 7.837960000000001
50.27612638170508 7.789960000000001
50.300721072005196 7.781689999999999
50.325510416102105 7.752260000000001
50.350110084975064 7.73298
50.37471223628208 7.71702
50.39931687190919 7.72215
50.424116246675766 7.70135
50.44872587605249 7.7009300000000005
50.47333799543065 7.6851899999999995
50.49795260670191 7.67179
50.52276204271512 7.663889999999999
50.54738166295838 7.64124
50.57200378079314 7.58765
50.596628398116835 7.54263
50.62144792604559 7.58276
50.646077567609396 7.569389999999999
50.670709714377715 7.600169999999999
50.69553683636198 7.55965
50.72017401885922 7.5525899999999995
50.7448137122895 7.53547
50.76945591856022 7.53978
50.79429318636823 7.4945699999999995
50.818940443716784 7.487889999999999
50.84359021965163 7.4998
50.868242516085964 7.44256
50.893089960641895 7.4355
50.917747323549435 7.415839999999999
50.94240721271973 7.38697
50.96706963007175 7.38979
50.99192728239342 7.37427
51.01659478166073 7.3949300000000004
51.04126481489051 7.3333
51.06593738400761 7.36568
51.090805275207074 7.3113600000000005
51.11548294172845 7.312539999999999
51.14016314993547 7.30386
51.164845901758845 7.30053
51.18972406304274 7.25581
51.21441192780656 7.20915
51.23910234200271 7.20985
51.2637953075678 7.202789999999999
51.288683770237945 7.21128
51.31338186432707 7.201039999999999
51.33808251561888 7.19008
51.362978729967345 7.173760000000001
51.387684521509755 7.14433
51.41239287610203 7.14458
51.437103795691165 7.07867
51.46201036644977 7.06917
51.486726441956634 7.08339
51.51144508832545 7.09692
51.536166307509156 7.06301
51.56108326624387 7.0552399999999995
51.58580965706056 7.0461800000000006
51.61053862657523 6.995489999999999
51.635270176746864 7.007810000000001
51.66019755512065 6.985460000000001
51.68493429268881 6.96183
51.70967361681515 6.95212
51.73441552946465 6.96575
51.759353359237934 6.93659
51.7841004750961 6.954330000000001
51.80885018539685 6.8972
51.833602492111254 6.847360000000001
51.8585508051424 6.869389999999999
51.883308330926425 6.8292399999999995
51.90806845906181 6.8133300000000006
51.932831191525715 6.84362
51.95779001977161 6.8099300000000005
51.98255798721516 6.79095
52.00732856494335 6.75248
52.03229530577543 6.792269999999999
52.057071130455945 6.72107
52.081849571391054 6.7123800000000005
52.106630630568695 6.72555
52.13160794279417 6.68986
52.15639426492067 6.7065
52.18118321127822 6.675269999999999
52.205974783860896 6.659739999999999
52.23096269971011 6.65097
52.255759551287994 6.63405
52.280559035098186 6.6206
52.30536115314103 6.60085
52.33035970494467 6.612539999999999
52.35516711807904 6.60802
52.37997717147198 6.5433
52.40478986713005 6.560460000000001
52.42979908731974 6.544
52.454617094216 6.53541
52.47943774942214 6.54105
52.50426105495102 6.51454
52.529280976059844 6.48108
52.554109609024096 6.47422
52.57894089837482 6.47966
52.60377484613117 6.43267
52.62880550079408 6.407
52.65364479223379 6.43079
52.67848674816189 6.40995
52.70352547971946 6.42846
52.72837279155837 6.3796800000000005
52.753222773982785 6.33556
52.778075429022984 6.35216
52.80312495150885 6.33836
52.827982978797436 6.327380000000001
52.85284368481815 6.29216
52.87770707160767 6.26879
52.90276741793998 6.28426
52.92763619336701 6.2861400000000005
52.952507655698504 6.23029
52.977381806977576 6.2411
53.00245301017842 6.24289
53.02733256653592 6.2409099999999995
53.052214817996074 6.21534
53.077099766608484 6.21028
53.102181859804446 6.20273
53.127072229988265 6.2076199999999995
53.15196530349892 6.18715
53.17686108239249 6.14473
53.20195409881522 6.10096
53.22685531582556 6.11903
53.25175924441303 6.12964
53.27666588664027 6.09866
53.30176985962693 6.10671
53.3266819565689 6.07263
53.35159677336455 6.0606800000000005
53.376514312083096 6.0574900000000005
53.40162927507703 6.0301599999999995
53.42655228516116 6.00015
53.45147802340193 5.98307
53.47660125628886 5.98142
53.50153247842639 6.0019599999999995
53.52646643496923 5.9374400000000005
53.55140312799818 5.9037
53.576537409691696 5.91412
53.60147960336152 5.90465
53.626424539786164 5.862769999999999
53.65137222105307 5.88842
53.67651758529126 5.89569
53.70147078399681 5.85378
53.72642673383343 5.86719
53.75138543689533 5.842280000000001
53.776541917524526 5.860869999999999
53.801506154876755 5.819780000000001
53.826473151763246 5.79216
53.851442910284916 5.80352
53.87661054126026 5.74372
53.9015858509782 5.761909999999999
53.92656392866066 5.74621
53.95154477641532 5.70137
53.976723591801296 5.71681
54.00171000771266 5.70221
54.02669920004598 5.70373
54.051691170915745 5.64917
54.076881204886796 5.66675
54.101878760928514 5.61379
54.12687910187696 5.60855
54.152077577768296 5.55464
54.1770835166946 5.55853
54.20209224691339 5.59034
54.22710377055121 5.5755300000000005
54.25231352511594 5.56339
54.27733066384342 5.51485
54.30235060239643 5.48344
54.32737334290836 5.50705
54.35259441062629 5.44988
54.377622783395324 5.41025
54.40265396455061 5.45783
54.42768795623251 5.40511
54.45292037169559 5.36207
54.477960012857906 5.3876
54.50300247099511 5.35215
54.52804774825457 5.34157
54.55329154616743 5.33325
54.57834249018678 5.31353
54.6033962597977 5.25842
54.6284528571545 5.22024
54.653708072335164 5.213019999999999
54.67877035378786 5.18297
54.70383546947698 5.17957
54.72890342156389 5.14736
54.7541700889442 5.10971
54.77924374251975 5.1334800000000005
54.8043202390049 5.10235
54.82959552413022 5.03314
54.8546777351945 5.0687
54.87976279569621 5.0376900000000004
54.90485070780914 5.0238
54.930137506558005 4.96443
54.95523115074295 4.98639
54.98032765308844 4.9291
55.005427015775496 4.9175
55.03072536339621 4.9309199999999995
55.05583047570572 4.89885
55.080938454927676 4.88908
55.10604930325027 4.8785099999999995
55.131359235107396 4.8238900000000005
55.15647585066083 4.75591
55.181595341907496 4.80684
55.20671771104285 4.78102
55.232039262617704 4.75056
55.25716741665048 4.73135
55.28229845518636 4.7400400000000005
55.30743238042802 4.67619
55.33276558731939 4.63809
55.357905315183636 4.64752
55.383047936390035 4.57624
55.40819345314859 4.59836
55.433538351073295 4.56928
55.458689688238415 4.59138
55.483843927614096 4.56836
55.509197623043605 4.51236
55.53435769621134 4.46526
55.55952067826466 4.42759
55.5846865714265 4.482069999999999
55.61005202069737 4.4484
55.63522376553902 4.44727
55.66039842818645 4.41236
55.68557601087004 4.448580000000001
55.7109532500271 4.38312
55.73613670233794 4.4413599999999995
