TT I
1.2716486653135266 7.26495
1.2939594142134223 6.98769
1.3162702121660406 6.702789999999999
1.3385810600174564 6.45071
1.3608919586137629 6.45017
1.383202908801069 6.05411
1.405513911425503 5.68604
1.4278249673332093 6.22319
1.4501343378461518 6.26074
1.4724455028545926 6.07147
1.4947567236847858 6.1788099999999995
1.517068001182951 5.75033
1.5393793361953272 6.23629
1.5616907295681737 5.72778
1.5840021821477681 4.66059
1.60631369478041 5.037780000000001
1.6286252683124185 5.0325
1.6509369035901333 5.29335
1.6732468618895553 5.24605
1.695558623192809 4.68613
1.7178704487808514 5.05424
1.7401823395001077 4.764819999999999
1.7625012545597203 4.74189
1.7848028405262486 5.083419999999999
1.8071218901122095 5.4171
1.8294236121921872 4.1789
1.8517427996910911 5.05764
1.8740620574440425 4.57335
1.8963639900671978 4.652909999999999
1.9186833908139995 4.704359999999999
1.9409854680117449 4.8688400000000005
1.9633050151394713 4.93635
1.9856246367570705 4.45589
2.0079269371922672 4.36916
2.03024671027244 5.08169
2.0525491637446027 4.908919999999999
2.074869091674931 4.8708
2.097171701569106 5.045380000000001
2.1194917877373847 4.60199
2.141811954326636 5.12524
2.164114805233074 4.605119999999999
2.186435135143035 4.73528
2.208738150935709 8.98766
2.231058647554722 16.1004
2.2533792288321184 12.3824
2.275682498336085 6.965260000000001
2.298003251406138 5.5826199999999995
2.3203066942619714 5.2944
2.3426276225136022 5.333559999999999
2.3649486396617507 5.5896
2.387252348930071 5.7016
2.4095735463442893 5.71329
2.4318774374315884 5.66613
2.4541988185014043 6.0271
2.476502894794693 7.183910000000001
2.498824462909887 7.59583
2.521146125856138 7.08395
2.5434504863470337 7.210369999999999
2.5657723414244717 7.424910000000001
2.588076895590662 8.09919
2.610398946189713 7.87765
2.6327210958598384 8.24404
2.6550259469304716 7.810989999999999
2.6773482972090137 8.02561
2.6996533504259 7.686
2.7219759047039602 8.08274
2.744298562293959 8.16569
2.7666039251246595 8.26704
2.7889267918020164 8.44016
2.8112323652516555 8.63365
2.833555444408179 8.42182
2.8558786311183852 8.82737
2.8781845268938557 8.88832
2.9005079311721484 9.29589
2.9228140460410397 9.16593
2.9451376712799635 9.71795
2.967444008632326 9.94347
2.9897678582247247 9.606160000000001
3.0120918213106695 10.3137
3.0343984987899373 10.6843
3.0567226913198637 11.3678
3.079029599759726 11.5981
3.101354025127254 11.9089
3.123678568232338 12.6256
3.145985829517914 12.853
3.16831061055229 13.857000000000001
3.1906181112775593 14.6604
3.212943133635653 14.9323
3.2352682779763207 15.2346
3.2575761442691227 15.1707
3.2799015350264273 15.5577
3.302209649240067 16.1376
3.3245352898092655 16.3517
3.3468436553365257 17.3171
3.369169549113219 17.8312
3.3914955708171384 18.2621
3.413804319727358 18.7303
3.4361305997334863 18.7897
3.4584396084414553 19.3274
3.4807661501462652 20.0259
3.503092824025881 20.4573
3.5254022288463154 20.9255
3.5477291695206588 21.7478
3.5700388426251948 22.2358
3.5923660534916446 23.4719
3.6146934007816114 30.2322
3.637003482731501 52.8719
3.6593311053109985 56.5134
3.681641464033634 37.7206
3.7039693653009733 27.0261
3.726297407241705 25.3485
3.7486081875460804 25.4956
3.7709365132734978 26.0719
3.793247578841633 26.053
3.8155761917550093 26.3244
3.8378875459837216 26.8614
3.8602164494827234 27.401999999999997
3.882545499606844 28.0216
3.9048572932539183 28.8589
3.9271866390645718 28.7616
3.9494987298666713 29.7931
3.971828374764527 30.2694
3.9941581705403255 30.7191
4.016470713506008 31.465999999999998
4.038800813471445 31.6772
4.061113662089144 32.0089
4.0834440696459176 32.8795
4.105774632334751 33.4733
4.128087945865126 34.2416
4.150418821249301 34.8919
4.172732448931298 36.0285
4.195063640413578 37.1145
4.2173775856475215 38.885999999999996
4.239709096631102 53.9394
4.262040768704612 126.664
4.284355196706267 159.783
4.306687193387355 111.594
4.329001947444346 58.1195
4.35133427213731 44.143
4.373666762177566 43.5179
4.395982011761091 43.458999999999996
4.418314834921175 44.5993
4.44063041906622 48.9613
4.4629635787515625 53.7234
4.4852969080429785 54.303999999999995
4.5076130004776225 52.6033
4.529946671403969 55.2645
4.552263106909177 58.6914
4.574597122877047 56.2267
4.596931312711224 53.5552
4.619248269273446 53.6789
4.6415828092605835 54.5122
4.663900117405352 55.2048
4.686235010953232 56.6443
4.708552674085913 58.0558
4.730887924602802 59.522
4.753223354952695 61.6622
4.775541557023902 64.9842
4.797877349456786 67.5914
4.820195915032126 68.3264
4.842532072957498 68.372
4.864868414979744 70.7011
4.88718753227192 74.556
4.909524244902505 76.0313
4.931843734218147 76.4784
4.954180820867835 78.3079
4.976518095879839 81.2719
4.998838149695359 84.1064
5.021175803844231 87.6492
5.043496238205739 91.1057
5.065834274903528 95.2587
5.088172504230693 100.87799999999999
5.1104935158799565 107.719
5.132832132875765 127.15799999999999
5.155153533596801 158.349
5.1774925416746225 205.27700000000002
5.199814334878411 434.73199999999997
5.2221537374521505 1122.37
5.244493338631803 3052.07
5.266815727034316 7880.88
5.289155727832427 12719.9
5.311478517248165 8574.16
5.333818921080011 2651.94
5.356159527788849 520.436
5.3784829252032536 195.30200000000002
5.400823940070432 152.626
5.423147747031976 131.336
5.445489173474152 120.417
5.467830807066149 119.068
5.490155234831516 117.92399999999999
5.512497285125229 111.49
5.534822130975162 105.956
5.557164601388673 102.396
5.579489868738879 99.4273
5.601832762690846 98.4919
5.6241758697774475 97.5019
5.646501775867269 96.3183
5.668845311622074 95.2634
5.691171647754637 94.8318
5.713515615597765 93.2965
5.735859800852677 92.8328
5.758186788542988 94.3069
5.780531411018185 97.3302
5.802858837297399 97.1721
5.825203900414495 96.9057
5.8475491852224 99.2604
5.869877275883075 99.4801
5.892223006467101 96.8295
5.914551544266608 96.3985
5.936897724049891 98.4602
5.959244129804903 106.023
5.981573344815301 137.196
6.0039202049061 255.222
6.026249875609095 507.639
6.04859719346037 1044.13
6.070927323278297 2278.48
6.093275102315365 4605.15
6.115623113320588 5153.65
6.137953938319995 3116.4
6.160302415650845 938.681
6.182633708324452 221.696
6.2049826554078376 109.78200000000001
6.227331838745022 91.0085
6.249663839443684 84.0718
6.27201349767565 80.9407
6.294345974611799 82.1447
6.316696111167083 85.8658
6.339046488263839 82.2753
6.361379686074702 74.9185
6.383730546639482 71.1759
6.406064229255215 69.8687
6.428415576718203 70.3264
6.450749747566656 69.1912
6.47310158535871 66.9496
6.495453669698332 65.4586
6.517788579421056 64.6135
6.540141159237969 63.3963
6.562476565766648 62.836000000000006
6.5848296444934045 62.7777
6.607182974060425 62.7165
6.6295191323281015 62.3403
6.651872965955752 63.5229
6.6742096296068985 74.8106
6.6965639707294615 94.4112
6.71891856698715 94.0061
6.741255995248479 74.6847
6.763611104154477 62.3131
6.785949046381137 59.2544
6.808304671371482 59.1739
6.8306605557940046 60.2903
6.852999275508618 59.2632
6.875355681171544 58.0089
6.897694923437771 56.5497
6.92005185377892 56.6384
6.9423916220322655 56.1039
6.964749080490181 55.2977
6.987106804399774 55.4512
7.009447368180821 55.4864
7.031805625367033 55.5077
7.054146723727803 55.2971
7.076505517631004 54.9618
7.098864581288365 54.9447
7.121206488070854 54.9929
7.143566093607822 54.8956
7.165908543567245 55.5154
7.188268694426048 55.6717
7.2106291193438095 55.5852
7.232972390625943 55.105
7.255333366030969 60.7427
7.277677189091925 84.5462
7.300038718428332 104.399
7.322400526130865 92.1611
7.344745183422596 68.7482
7.367107550224791 57.2547
7.389452767901992 54.88399999999999
7.411815697249891 54.1051
7.434161478756298 53.5867
7.456524974096713 53.9792
7.478888753837185 54.073
7.501235387657368 54.2778
7.523599738562711 54.1739
7.545946944825532 54.45
7.568311870344528 54.8968
7.5906770845765665 54.6573
7.613025156078678 55.5178
7.635390950099687 56.3285
7.657739602662809 56.2843
7.680105979923558 56.1862
7.702472650212829 56.4775
7.724822180948224 56.5395
7.747189439655568 56.3563
7.769539560075357 55.8341
7.791907410653562 56.5971
7.81425812420825 56.2473
7.836626570110925 56.5438
7.858995315087906 57.1175
7.881346924933401 57.4254
7.903716270417482 58.6453
7.926068482028405 58.809
7.948438431475253 59.2309
7.9708086843180235 59.6144
7.993161805171116 60.3535
8.015532667162402 61.0304
8.037886398416653 61.9435
8.060257873014221 62.7433
8.082629655331942 63.5031
8.104984308787587 64.1212
8.127356708900503 66.3431
8.149711981398308 70.7402
8.172085002766314 72.5676
8.194458336181368 70.4917
8.216814543847752 68.7671
8.23918850371002 69.4492
8.26154533906492 70.1037
8.283919928836452 71.8267
8.306277395339652 72.8065
8.328652618483376 74.3061
8.351028159736202 76.2495
8.373386579575245 78.6403
8.395762759396959 80.4943
8.418121819038275 84.3164
8.440498640894003 92.1049
8.462875785192262 104.84
8.485235811156207 132.233
8.507613602688501 188.58
8.529974277114228 273.198
8.552352719347912 411.523
8.574731488360351 691.255
8.59709314210385 1248.09
8.619472567021075 1903.96
8.64183487789147 2198.15
8.664214962183097 1733.97
8.686577933647762 852.8910000000001
8.708958680784317 331.051
8.731339760774953 149.75799999999998
8.753703729764451 107.571
8.77608547780821 97.9454
8.798450116065078 94.7634
8.820832535634787 92.4916
8.843215292401656 92.3311
8.865580941199045 91.7163
8.887964374703538 91.1219
8.910330701447199 91.64
8.932714815164482 91.8913
8.955099270424924 89.9431
8.977466620733543 86.8116
8.999851761421976 85.4705
9.022219798361645 84.3641
9.04460562795561 83.9759
9.066991803441677 83.8023
9.089360876979615 84.1991
9.111747746589993 83.5271
9.13411751544971 82.4889
9.156505082664324 82.3446
9.178875550323522 82.0645
9.20126381862328 82.1037
9.223652438908596 82.5129
9.246023961427412 82.3738
9.26841328802173 82.0313
9.290785518039224 82.4833
9.313175554425882 84.4765
9.335565947154315 85.7832
9.357939245086508 86.3419
9.380330352834827 85.6545
9.40270436697103 85.6274
9.425096193225055 85.2956
9.447488380180165 85.3897
9.469863475295412 84.9684
9.492256385987508 85.212
9.514632206018318 85.8613
9.537025843935714 86.009
9.559402392368193 86.9306
9.581796761000229 89.0176
9.604191496441521 91.0974
9.626569144158516 93.9638
9.648964615551032 95.7629
9.671343000390081 95.7085
9.693739211225699 94.182
9.716135793237463 92.9459
9.738515290448102 93.706
9.760912617143402 95.1531
9.783292860202891 96.97
9.805690935076182 98.8535
9.828089385495742 99.8859
9.850470754023561 101.37
9.872869957865444 105.335
9.89525208097539 112.681
9.917652041736662 120.963
9.940052382417589 130.309
9.962435644102392 156.226
9.984836746950979 200.303
10.007220771957746 259.512
10.029622640473708 366.267
10.052007432299963 551.997
10.074410069984072 855.1610000000001
10.096813093716005 1304.55
10.119199042482517 1797.67
10.141602840636468 1963.27
10.163989564971628 1542.34
10.186394141051062 832.382
10.208799107559706 356.274
10.231187001965623 171.699
10.253592751657669 122.02600000000001
10.275981430388155 111.845
10.298387966769793 109.78
10.320794897965431 110.15
10.343184759907361 108.649
10.36559248305461 105.899
10.387983138083852 106.071
10.410391656691655 113.152
10.432800574501677 124.76299999999999
10.455192425893369 140.724
10.47760214443012 166.196
10.499994797678786 214.791
10.522405320453982 293.981
10.54479877906917 412.968
10.567210109595656 518.33
10.5896218454736 575.927
10.612016518879773 495.423
10.634429067781074 331.409
10.656824555333241 193.854
10.679237920773568 119.165
10.701651695961992 94.6508
10.724048411481384 88.9619
10.746463008485165 86.2503
10.768860546937125 84.8969
10.791275969274796 82.8878
10.81369180576079 81.6686
10.836090585366925 80.8113
10.858507252467449 79.6149
10.88090686379991 78.8472
10.903324365036394 78.2413
10.925724811614439 77.6492
10.948143150509463 78.2173
10.970561909719066 77.8306
10.992963615930844 76.7567
11.015383218085756 74.7936
11.037785768347074 73.5894
11.06020621697282 72.6674
11.082627090322113 71.8811
11.105030913430326 71.4316
11.12745263854165 71.392
11.149857314510728 72.2786
11.172279894912576 74.8825
11.194702904450653 74.808
11.217108866490921 72.4938
11.239532736615194 70.2579
11.26193956033512 69.34100000000001
11.284364294577085 68.4921
11.306789462371718 67.6912
11.329197585398376 66.8157
11.351623622610898 66.6904
11.37403261614354 65.6898
11.396459526308487 66.0662
11.418869393879497 65.407
11.441297180532617 65.0117
11.463725406927658 64.5527
11.486136592353875 64.5502
11.508565700543707 64.7594
11.530977768845315 65.3792
11.553407762368774 65.226
11.575838200059769 65.24600000000001
11.598251599479612 64.0322
11.620682927815501 63.7009
11.64309721895548 63.3643
11.665529441478206 63.0201
11.687962112597958 62.8501
11.710377748130886 63.1046
11.732811318753434 62.4603
11.755227854859067 62.6141
11.777662328529495 62.7469
11.800079768750786 62.6987
11.822515149015453 62.5026
11.844950984084935 62.7604
11.867369787303163 62.4723
11.889806534289491 62.3687
11.912226250487029 62.7049
11.934663912939751 62.7693
11.9571020346363 63.1908
11.979523127133968 63.1234
12.001962169624331 64.39
12.024384183972964 66.193
12.046824150809913 69.5907
12.069264581333726 73.9716
12.091687985297767 79.6987
12.11412934550045 89.3953
12.136553680195208 105.91
12.158995973632788 128.873
12.181438735204349 155.81
12.20386447284199 183.835
12.226308172985636 204.97099999999998
12.24873485024193 195.65
12.271179492516982 156.108
12.293607112949127 117.792
12.316052700916226 87.2757
12.338498763250042 72.8902
12.360927805303868 66.9559
12.383374818673879 64.9757
12.405804812803074 64.0517
12.428252780773262 63.9527
12.45070122756722 64.1554
12.473132656675375 64.1448
12.49558206341869 64.7463
12.518014453510101 64.6538
12.540464823770117 64.9009
12.562915677315177 64.6355
12.58534951575545 65.0788
12.607801338171472 65.8093
12.630236146511358 68.4092
12.652688941369085 70.6553
12.675124723177234 71.1584
12.697578494048786 69.999
12.720032754458185 68.0663
12.742470003354093 67.545
12.764925245138771 67.6937
12.787363476431278 67.8843
12.809819703166806 68.2838
12.83227642391173 69.2131
12.854716135692716 69.672
12.877173846755147 70.7559
12.899614549869717 71.3249
12.9220732548287 72.4433
12.94453245827299 73.1184
12.966974655289818 74.06
12.989434858002571 74.5748
13.011878055298721 75.4435
13.034339260862497 76.5185
13.056800969391883 77.7743
13.079245674017244 80.3691
13.101708390774869 85.0927
13.12415410463411 93.9107
13.146617833206086 103.682
13.169064559883248 114.182
13.191529303857127 129.295
13.213994557076367 153.36700000000002
13.236442809902437 193.635
13.258909083908291 249.865
13.28135835851934 316.118
13.30382565690295 381.605
13.326293469022952 425.471
13.348744283242008 415.69199999999995
13.371213125129904 337.45300000000003
13.39366497011003 249.00799999999998
13.416134845360597 163.86700000000002
13.438605238843131 120.455
13.46105863690397 108.035
13.483530069144786 108.71600000000001
13.505984506951902 113.26299999999999
13.528456981549432 123.23700000000001
13.550929978879088 139.227
13.573385983253365 165.55200000000002
13.595860028340867 204.838
13.618317081455832 258.98900000000003
13.64079217790333 314.955
13.663250283359057 358.699
13.685726434770173 373.282
13.708203115221277 328.648
13.730662806148091 250.96200000000002
13.75314054697177 173.46400000000003
13.775601299246777 120.39399999999999
13.798080104050406 93.885
13.820559442405358 84.5726
13.843021793671388 81.2106
13.865502201420897 79.9257
13.887965623051947 79.7912
13.910447103807167 78.4378
13.932929122629764 77.1472
13.955394156785959 76.7469
13.977877254034569 75.6649
14.000343367582113 74.9584
14.022827546871707 74.4661
14.045294743423524 73.666
14.06778000837062 72.9451
14.090265817715476 72.6263
14.112734645763819 72.2387
14.13522154619454 72.219
14.157691466286913 72.1227
14.180179461423874 71.9112
14.202668005486178 71.1983
14.22513957064374 70.6939
14.247629214846473 70.4143
14.270101881097517 69.9855
14.29259262906496 70.0047
14.315083930490205 70.3704
14.337558255389705 70.2489
14.360050666019726 70.4939
14.382526101071944 69.7063
14.405019624534942 69.2328
14.427513705993134 68.9689
14.449990813291825 68.9814
14.47248601302899 68.6739
14.49496423954951 68.8906
14.517460561197822 69.068
14.539939910570322 68.9911
14.562437357763558 69.0897
14.58493536931253 69.7689
14.607416409993311 69.8864
14.62991555254159 70.3402
14.652397725157423 70.3453
14.674898002342799 70.5262
14.697398848433282 70.8752
14.719882725991326 72.2114
14.74238471217934 74.3271
14.764869730765593 77.7578
14.787372860692983 80.8095
14.809876564079925 84.7531
14.83236330125751 90.8453
14.854868153850365 100.038
14.877356041159485 114.633
14.899862046604186 134.035
14.922351087688757 159.858
14.944858249632887 188.56599999999997
14.967365991421232 212.75900000000001
14.989856770231246 226.56400000000002
15.012365673994204 215.61700000000002
15.03485761569738 180.959
15.05736768508665 139.602
15.07987833888692 108.60600000000001
15.102372032001655 86.579
15.124883856909658 75.3603
15.14737872204565 71.9409
15.169891721717274 70.34100000000001
15.192405310371893 70.0396
15.214901940621196 69.9746
15.237416709527137 69.6703
15.259914520936249 69.471
15.282430473753607 68.9503
15.304947020131227 67.9908
15.327446610371178 67.426
15.349964346154254 66.9424
15.372465126703139 66.7599
15.394984055556009 66.5815
15.417486030076159 66.3861
15.44000615566487 65.9452
15.462526881230803 65.6947
15.485030653812652 65.8884
15.507552581617434 65.7371
15.530057557334603 65.8336
15.55258069104857 66.1231
15.575104429329837 65.8934
15.597611216864632 65.8494
15.620136166564563 66.5563
15.6426441664095 68.5695
15.665170331202765 71.0839
15.687697105158826 73.9823
15.710206930593545 76.9551
15.732734925158933 81.0807
15.755245972089478 87.7412
15.77777519094324 97.4177
15.800287463046663 111.01100000000001
15.822817909869592 130.41899999999998
15.84534897229804 151.928
15.867863089299354 175.38400000000001
15.890395385222186 192.101
15.912910736597423 195.226
15.935444269699861 176.907
15.957978423016485 148.773
15.980495633101265 115.76799999999999
16.003031029129367 91.2553
16.02554948280019 74.0146
16.048086125229432 66.3813
16.070623392487107 64.05
16.09314371869582 63.1451
16.11568223789321 62.3388
16.13820381691126 61.5407
16.160743591742527 60.8159
16.183283996022084 60.0217
16.205807461423195 59.3431
16.228349126881973 58.8248
16.25087385432698 58.5537
16.27341678466365 58.1007
16.29594277784926 57.7647
16.31848697676433 57.856
16.341031811604868 57.5827
16.36355971058487 57.5962
16.3861058195587 57.7332
16.40863499352978 56.9116
16.431182380342005 56.3653
16.453730407713202 55.8897
16.476261501364792 55.5966
16.498810812136167 55.1854
16.52134319004079 55.3799
16.54389378792203 55.1906
16.566445031001553 55.1473
16.588979342490088 55.053999999999995
16.61153187824822 54.8114
16.634067483263312 54.7353
16.656621315414416 54.7382
16.679175797408888 54.496
16.701713349928728 54.4239
16.72426913389191 54.7555
16.74680798922351 54.6288
16.76936507887444 54.5978
16.791905240734874 54.824
16.814463639794468 54.7234
16.837022695210294 54.5964
16.859564824093756 54.8932
16.882125194503903 55.2437
16.904668639217885 55.6808
16.927230328348003 55.6446
16.949792678493612 55.838
16.972338104193863 55.5472
16.994901778652235 55.4168
17.017448529496576 55.4859
17.040013531998152 56.1101
17.06257920018044 56.4742
17.0851279459922 57.3696
17.107694947817667 58.1466
17.130245028099072 58.8986
17.15281336730298 60.1236
17.17536478578733 61.8645
17.19793446610687 64.3002
17.220504818648422 67.3629
17.243058251703697 70.6981
17.265629950971032 75.0754
17.288184731571736 79.6331
17.310757781306908 83.125
17.33333150794385 84.6106
17.355888317140174 81.4279
17.37846339986244 75.6549
17.401021565958885 69.7529
17.42359800851343 64.357
17.44617513265564 61.4707
17.468735341390783 59.9532
17.491261035594565 59.2296
17.51396340099364 58.8524
17.536490463869136 59.0482
17.559018209820174 59.1748
17.58154663977963 59.0519
17.604251766089718 59.3705
17.626781572227713 59.7575
17.64931206518155 60.1032
17.671843245885103 60.3687
17.69455114821572 60.398
17.717083712612634 60.6329
17.739616967569667 61.1007
17.762150914021706 61.5451
17.78486160749854 61.6234
17.807396945166804 62.6479
17.829932977143503 63.9616
17.85246970436452 65.7143
17.875183204129467 67.3702
17.897721330097664 69.0036
17.920260154126645 71.2227
17.942799677153296 74.3584
17.9655159983646 78.5297
17.988056927677544 84.1331
18.010598558807683 92.2164
18.033140892692916 102.941
18.05586005052525 113.684
18.07840379824407 125.60600000000001
18.10094825154059 136.076
18.12366954819864 141.97
18.146215420998306 139.67
18.16876200220057 130.398
18.191309292745153 114.86200000000001
18.214033452627167 101.01799999999999
18.236582170236648 90.0618
18.259131600016456 86.1998
18.281681742907335 87.0421
18.304408781233683 91.5968
18.32696035875955 96.6275
18.349512652227624 101.208
18.372065662579683 105.70100000000001
18.394795594587553 105.76899999999999
18.41735004715306 101.324
18.43990521943684 93.8532
18.46246111238171 84.0829
18.485193953325208 75.0174
18.507751296070428 68.6588
18.530309362314178 65.0963
18.552868153000343 63.06399999999999
18.57560391815056 61.9548
18.59816416623245 61.5147
18.620725141597372 61.07
18.643286845190268 60.5152
18.666025549835414 60.1935
18.688588718427933 59.4839
18.711152618092243 59.3827
18.73389353884365 59.1115
18.75645890921984 58.8041
18.77902501351406 58.4849
18.801591852673102 58.5894
18.824335739722738 58.0821
18.846904057212626 57.9508
18.8694731124168 57.6514
18.89204290628315 57.6487
18.914789774966803 57.605
18.937361054791623 57.3499
18.959933076131318 57.1185
18.982505839934877 56.8041
19.00525570560582 56.8968
19.027829963004184 56.555
19.05040496572238 57.0114
19.072980714710468 57.2151
19.095733592739563 57.2596
19.11831084296757 57.3665
19.140888842324735 57.5743
19.16346759176222 57.9275
19.18622349753803 58.3947
19.208803755869358 59.2669
19.231384767143577 60.7074
19.253966532312948 62.5471
19.276725481241822 64.7167
19.29930876296784 67.2281
19.3218928014549 70.3178
19.34465404436217 73.3173
19.36723960516257 75.5059
19.389825925592426 75.9867
19.412413006605938 74.6383
19.43517731967805 70.9674
19.457765930683355 66.5232
19.48035530514408 61.9873
19.50294544401556 58.4416
19.525712842708348 55.9384
19.54830451925909 54.8148
19.570896963095727 53.8094
19.593490175174704 53.6534
19.616260674962184 53.8627
19.638855432416964 53.5219
19.661450960992624 53.6842
19.68404726164677 53.4727
19.706820878021247 53.181000000000004
19.729418731756834 53.4854
19.752017360452857 53.2133
19.77461676506804 53.5977
19.797393513540218 53.7976
19.819994478951667 53.9551
19.84259622316767 54.2623
19.8651987471481 54.6626
19.887978643247177 54.9799
19.91058273574792 55.4997
19.933187610901943 56.3946
19.955969879466828 57.5285
19.97857632894404 59.113
20.00118356396599 60.978
20.023791585494575 63.0811
20.046577028914875 65.6231
20.069186632506966 67.717
20.091797025500632 69.235
20.114408208858933 69.5886
20.137196842715273 69.19800000000001
20.159809615886765 67.6519
20.18242318232135 65.2426
20.20503754298326 63.1154
20.227829382875154 62.1293
20.250445341109344 62.1882
20.27306209647285 63.0367
20.29567964993108 64.1192
20.31847471147704 65.0272
20.34109387027612 65.5441
20.363713830075454 64.8789
20.386334591841646 63.4365
20.409132890679302 60.4362
20.431755265564437 57.5579
20.454378445325528 54.7983
20.477002430930366 52.7842
20.499803982716553 51.8325
20.522429589228004 51.0572
20.54505600449589 50.6395
20.567683229489194 50.5861
20.590488049900088 50.3438
20.61311690359731 50.1293
20.63574656993626 49.8477
20.658553853717297 49.5182
20.681185154618298 49.59
20.703817271080066 49.345
20.72645020407368 49.0388
20.749260783967177 48.9726
20.771895359337133 48.9473
20.794530754161617 48.6174
20.817166969412938 48.9192
20.83998086114876 48.8991
20.86261872660049 48.6915
20.885257415405402 48.6066
20.90789692853701 48.61
20.930714147864748 48.7628
20.953355319030678 48.6762
20.97599731745334 48.7812
20.99864014410749 48.6034
21.021460706796564 48.4948
21.044105199328826 48.5951
21.06675052302631 48.7495
21.089396678865015 49.1551
21.112220600704806 49.4909
21.134868430275347 49.9108
21.15751709492456 50.1636
21.180166595629693 50.4747
21.202993892429635 50.9433
21.22564507473034 51.1204
21.24829709602816 51.3943
21.27112693608965 51.4739
21.293780644891275 51.3913
21.316435195634053 50.4704
21.339090589297417 49.7746
21.361923832041875 49.3119
21.384580921090404 48.7556
21.407238856007325 48.4148
21.429897637773326 48.2508
21.45273429906592 48.356
21.475394784108598 48.3869
21.498056118951983 48.3793
21.520718304578022 48.6486
21.543558400304388 48.64
21.566222297108816 49.1344
21.58888704765135 49.2058
21.61155265291521 49.4437
21.63439619898156 49.9331
21.657063523335786 50.0857
21.67973170537063 50.4537
21.7024007460706 50.9182
21.72524775840385 51.8656
21.747918526116475 53.1153
21.770590155457388 54.3414
21.79326264741238 56.0488
21.816113141960237 57.821000000000005
21.838787368860547 59.4157
21.861462461341976 61.3017
21.884315579735777 62.9183
21.90699241312273 64.1649
21.92967011506078 64.9756
21.95234868653799 64.2578
21.9752053151131 62.8174
21.997885635446785 60.6374
22.020566828293532 58.9266
22.04324889464272 57.2796
22.066109049404666 56.2216
22.088792872571794 55.8266
22.111477572219204 56.0109
22.1341631493376 56.3078
22.157026846313123 55.8627
22.179714188221507 54.9824
22.202402410582668 53.9412
22.22509151438863 52.4039
22.24795876962584 51.0563
22.270649646204486 50.2194
22.293341407213727 49.556999999999995
22.316034053646906 49.2127
22.338904883215342 48.8656
22.36159931041458 48.8864
22.38429462602756 49.0164
22.40699083104897 48.5849
22.429865251039757 48.5529
22.452563244831367 48.7351
22.47526213102522 48.6079
22.49813925616515 48.5554
22.520839937143307 48.4669
22.543541513520587 48.4282
22.56624398629403 48.3364
22.589124730075895 48.3953
22.611829005656723 48.7565
22.63453418063466 48.7733
22.657240256008077 48.9718
22.680124634582935 49.0081
22.70283252079775 49.3247
22.725541310413075 49.6109
22.74825100442868 49.684
22.771139033969575 50.2085
22.79385054687155 50.5222
22.81656296718292 51.1688
22.83927629590484 52.0054
22.862167992606945 53.3623
22.88488314827121 54.4359
22.907599215359284 55.2559
22.93031619487366 56.4255
22.953211574954405 57.2883
22.975930389478226 57.9077
22.998650119445763 57.9562
23.02137076586092 56.955
23.044269845560063 55.5516
23.06699233506288 53.858999999999995
23.089715744034912 52.2497
23.112617610931565 50.6356
23.135342869061212 49.5781
23.158069049684816 48.9893
23.1807961538087 48.6704
23.20370174880544 48.7594
23.226430710184808 49.0278
23.249160598093425 48.9705
23.271891413539002 48.9429
23.294800752937697 48.7834
23.31753343374794 49.0935
23.340267045128353 49.0021
23.36300158808808 49.6418
23.38591468821339 49.7877
23.408651104658304 50.2967
23.431388455719986 51.0074
23.454126742409 51.8168
23.4770436196085 53.049
23.499783787914662 54.3528
23.522524894889884 55.2335
23.54526694154616 55.9824
23.56818761219047 57.4108
23.59093154860734 57.7726
23.613676427751283 57.7743
23.636422250635754 56.7423
23.659346731118656 54.9192
23.68209445191868 53.0659
23.704843119509587 50.9972
23.72759273490623 49.1876
23.750521041644767 47.9605
23.77327256312355 47.0493
23.796025035462787 46.3613
23.818956224555475 45.9727
23.841710609113413 45.93600000000001
23.86446594758979 45.688
23.887222241002014 45.3902
23.910157285144578 45.1068
23.932915498962537 45.0533
23.955674670778713 45.091
23.978434801611975 44.856
24.001373717286125 44.73
24.024135776723917 44.5084
24.046898798245582 44.443999999999996
24.06966278287146 44.3921
24.092605586582614 44.07899999999999
24.115371508023642 43.9874
24.1381383956401 43.8613
24.16090625045381 43.8894
24.183852958731244 43.9055
24.206622758582608 43.7655
24.229393528706886 43.4444
24.252165270127392 43.5586
24.27511589952438 43.5733
24.297889594216997 43.3604
24.32066426328598 43.0729
24.34343990775613 43.2871
24.36639447485003 43.0947
24.38917208083877 42.9401
24.41195066531332 43.0724
24.43490819850244 43.1162
24.457688750692377 42.8158
24.48047028445616 42.8933
24.503252800821233 42.9239
24.526214300784112 43.1065
24.548998793132213 43.0788
24.57178427117417 42.9244
24.59457073593893 42.8586
24.617536219319863 42.8688
24.64032466834748 42.9178
24.663114107195035 42.7119
24.685904536893013 42.5063
24.708874020360852 42.2588
24.731666442613744 42.2745
24.754459858818787 42.3171
24.777254270007962 42.1787
24.80022777025625 42.0801
24.82302418230472 42.1664
24.845821592443674 42.1546
24.86862000170663 42.1277
24.891597535453727 41.9895
24.914397953892728 42.2124
24.93719937456671 42.1725
24.96000179851076 42.3722
24.98298338249997 42.5482
25.00578782394922 42.888000000000005
25.028593271784167 42.9317
25.05157790644186 43.216
25.07438537804115 43.346000000000004
25.097193859145293 43.6397
25.120003350792075 43.6603
25.142992065061257 44.1983
25.165803588823465 44.4702
25.18861612625217 44.7207
25.211429678386736 44.6776
25.234422489079968 44.6952
25.257238081693636 44.7453
25.280054692141732 44.7987
25.3028723214652 44.7234
25.325869245420463 44.7632
25.348688923599397 44.7048
25.371509623787006 44.9288
25.394331347025812 44.5003
25.41733240110666 43.9644
25.440156181590016 43.3305
25.46298098826268 42.6593
25.48580682216873 42.1468
25.50881202326435 41.696000000000005
25.53163992281684 41.3494
25.55446885274561 41.108000000000004
25.577298814096377 40.7746
25.600308179121807 40.7538
25.623140214533745 40.8051
25.64597328451537 40.6906
25.66898578564376 40.4717
25.691820936010206 40.4756
25.714657124097695 40.3743
25.737494350954734 40.4492
25.760511045684957 40.3649
25.783350361364224 40.3967
25.806190718969255 40.2835
25.82903211955018 40.413000000000004
25.852053024868923 40.4934
25.874896522722523 40.5688
25.897741066713106 40.5332
25.920586657892454 40.6047
25.943611790812668 40.7408
25.966459487728237 40.9347
25.989308234998564 40.9721
26.01215803367705 41.3222
26.03518741123814 41.4049
26.05803932412957 41.5519
26.080892291600094 41.6507
26.10374631470478 41.6326
26.12677995397268 41.6272
26.14963609978026 41.6803
26.172493304397875 41.3313
26.19535156888223 41.1716
26.218389486949604 40.556
26.241249882640123 40.4062
26.26411134137826 40.2554
26.28715248187403 40.103
26.31001607820869 39.9794
26.3328807407756 39.8228
26.35574647063438 40.0742
26.37879191991473 39.9351
26.401659795896734 40.0797
26.424528742360263 40.3255
26.447398760366614 40.4154
26.470448535598294 40.611
26.49332070826805 40.7116
26.516193955675355 41.0636
26.53906827888316 41.2709
26.562122397260108 41.5411
26.584998883685063 41.7675
26.607876449110325 41.9802
26.63075509460056 42.0576
26.65381357334404 42.2884
26.67669439061878 42.1351
26.699576291163382 42.0909
26.722459276044212 41.8045
26.745522132402975 41.4876
26.768407297649354 41.3056
26.791293550442003 40.9631
26.814180891848974 40.7554
26.837248143099337 40.4046
26.860137673466657 40.356
26.88302829566349 40.1496
26.90592001075963 39.954
26.92899167420566 39.8353
26.951885586870763 39.3917
26.974780595655517 39.1663
26.99785558178161 39.0362
27.020752794605112 38.9809
27.043651106772522 38.8413
27.06655051935668 38.7816
27.089629948036183 38.6044
27.112531573292053 38.6811
27.135434302194138 38.6245
27.158338135817015 38.4483
27.181422024430987 38.5577
27.204328079372566 38.4641
27.22723524226965 38.5501
27.250143514198573 38.4982
27.273231880156334 38.3665
27.296142382065014 38.3061
27.319053996245536 38.4114
27.341966723775965 38.4495
27.365059584515222 38.407
27.38797455070062 38.5033
27.410890633481237 38.3637
27.433807833936918 38.3319
27.456905206923906 38.3901
27.47982465472398 38.4802
27.502745223449743 38.4977
27.525666914182825 38.6273
27.548768816912457 38.5439
27.571692763693633 38.4868
27.59461783573812 38.2714
27.617723149491244 38.1358
27.640650484125285 38.1376
27.66357894728264 38.1153
27.686508540048052 38.0887
27.709618414237887 37.9742
27.732550278321757 37.7778
27.755483275279115 37.7726
27.778417406196485 37.777
27.801531858397514 37.8035
27.824468269376716 37.6748
27.847405817586786 37.7552
27.870344504116094 37.9839
27.893463551932008 38.1078
27.916404527281053 38.2442
27.93934664422563 38.384
27.962289903855886 38.4869
27.98541356491974 38.5791
28.00835912214229 38.6781
28.03130582533231 38.8722
28.054253675581805 39.0946
28.077381967556104 39.1173
28.100332124185126 38.7986
28.123283431160893 38.7822
28.146235889577238 38.7712
28.169368830154156 38.6332
28.192323603752033 38.3316
28.215279532083304 37.997
28.238415973016764 37.7885
28.261374223145094 37.6863
28.284333631303806 37.4536
28.307294198589954 37.4228
28.330435319167677 37.0208
28.353398217078915 36.7365
28.376362277420153 36.4904
28.39932750129032 36.5328
28.422473319286713 36.4121
28.44544088262495 36.3312
28.468409612800283 36.1758
28.491379510913497 35.9514
28.51453004413313 35.905
28.53750229057244 35.8032
28.56047570826344 35.8092
28.583450298308804 35.8341
28.606605564586562 35.603
28.629582511831156 35.6434
28.65256063474956 35.5837
28.675539934446338 35.5981
28.698699951647605 35.7404
28.72168161743193 35.4738
28.74466446331978 35.5152
28.767648490417624 35.4798
28.790813276438353 35.3924
28.813799678527303 35.3871
28.836787265157085 35.4296
28.859955641890075 35.3792
28.882945610203045 35.3516
28.905936766392035 35.2792
28.928929111566863 35.2439
28.952102288520145 35.1455
28.975097024308607 35.049
28.998092952423807 34.8705
29.021090073977508 34.9104
29.04426806913204 34.7274
29.067267590245258 34.6699
29.090268308143695 34.5738
29.11327022394099 34.513000000000005
29.13645305530891 34.4005
29.159457379627167 34.3592
29.18246290519685 34.3561
29.20546963313352 34.277
29.22865731875826 34.2987
29.25166646419296 34.3173
29.27467681535305 34.0618
29.29768837335608 34.2084
29.320880931312562 34.266999999999996
29.34389491580634 34.2891
29.366910110507334 34.2185
29.38992651653503 34.2394
29.41312396492981 34.1907
29.436142806456754 34.0779
29.45916286268059 34.0237
29.48236399319994 33.9006
29.50538649169417 33.702
29.528410208259935 33.6052
29.55143514402014 33.4007
29.574641196749695 33.3331
29.597668583816574 33.2317
29.6206971934585 33.0617
29.64372702680042 33.0562
29.666938019934474 32.9822
29.689970313635285 32.8721
29.713003834422636 32.9429
29.73603858342347 32.96
29.759254535188578 32.8259
29.78229175361658 32.7282
29.80533020365064 32.7779
29.82836988641968 32.7432
29.85159081507472 32.6957
29.874632976355343 32.6646
29.89767637376955 32.6813
29.920721008448314 32.6047
29.9439469322847 32.4993
29.96699405457564 32.48
29.9900424175358 32.437
30.013092022298157 32.4161
30.03632295963995 32.3812
30.059375061131373 32.4545
30.08242840783577 32.3688
30.105483000888153 32.4405
30.128718970092244 32.3767
30.151776069006917 32.4095
30.17483441768648 32.4657
30.198074175317235 32.3676
30.221135036724256 32.3419
30.24419715131772 32.2463
30.267260520236203 32.2818
30.290505341942243 32.1788
30.313571232750228 32.2856
30.336638381310948 32.1616
30.35970678876503 32.1922
30.38295669299435 32.0935
30.40602763151657 32.0934
30.429099832366074 32.0514
30.452173296685572 32.0239
30.47542830191959 32.0039
30.498504306502497 31.9967
30.521581577995562 32.1027
30.544660117543582 32.1866
30.56792024229725 32.1692
30.59100133132069 32.1256
30.614083691845494 32.0821
30.637167325018545 32.0968
30.660432587840603 32.183
30.683518779717886 32.1378
30.70660624769615 32.2023
30.729694992924372 32.1426
30.75296541239743 32.1734
30.77605672557558 32.0793
30.799149319462742 32.0208
30.8224236211637 31.9698
30.845518789950724 31.8212
30.868615242910597 31.784000000000002
30.891712981195973 31.565
30.91499247215866 31.5948
30.938092794619365 31.55
30.96119440587579 31.4722
30.984297307082752 31.285999999999998
31.00758200598383 31.243000000000002
31.030687500658694 31.1806
31.053794288760695 31.0948
31.076902371446767 30.9747
31.100192296997445 31.049
31.12330298246119 31.0359
31.14641496599209 30.8695
31.169528248749216 30.9554
31.19282341969534 30.9165
31.215939314557186 30.9696
31.239056512134788 31.0078
31.262175013589378 31.025
31.28547544871168 30.8899
31.30859657161541 30.7392
31.331719001892175 30.8878
31.35484274070538 30.8708
31.378148458819545 30.9095
31.401274828443725 30.752
31.424402510106933 30.9044
31.447712205419993 30.9071
31.470842524931633 30.8126
31.493974159989783 30.7386
31.51710711176168 30.766
31.54042212308802 30.7574
31.563557722100917 30.7254
31.586694641341655 30.4428
31.609832881979628 30.4367
31.63315322823208 30.3955
31.656294125521327 30.2037
31.679436347728515 30.2873
31.70257989602529 30.1751
31.725905596152327 30.1646
31.74905181052835 30.0699
31.772199354521323 30.155
31.79534822930507 30.1582
31.818679302290967 30.1853
31.84183085259981 30.1647
31.864983737233473 30.1042
31.88813795736804 30.0832
31.911474422233013 30.0883
31.934631327356435 30.0325
31.9577895715215 29.9341
31.980949155906522 29.9114
32.004291031706956 30.0214
32.027453310562606 29.8325
32.05061693318573 29.7333
32.07396288236386 29.7868
32.09712920658542 29.6617
32.12029687812702 29.6428
32.14346589817093 29.5602
32.166817291729984 29.5267
32.18998902288583 29.3614
32.21316210610336 29.2798
32.23633654256711 29.2226
32.259693399663725 29.2192
32.282870556771144 29.0611
32.30604907069099 29.0956
32.329228942610065 29.0491
32.35259128243769 28.8388
32.375773884550505 28.918000000000003
32.398957848235646 28.8823
32.422143174682176 28.816
32.445511016471215 28.7825
32.468699082679954 28.6976
32.49188851523011 28.6727
32.51507931531304 28.4643
32.538452678331 28.6007
32.56164622776311 28.523000000000003
32.58484114831493 28.4533
32.60803744118015 28.5648
32.631416344731896 28.389
32.654615396551876 28.3683
32.67781582427913 28.3315
32.701198898634416 28.3018
32.72440209253756 28.2329
32.747606665947124 28.2061
32.77081262006088 28.0458
32.79420126883317 28.1788
32.81740999876112 28.1745
32.840620112999424 27.9911
32.86383161274818 27.9896
32.88722585534586 27.9932
32.91044014056596 28.0244
32.933655814909734 27.9443
32.95687287957963 27.9889
32.98027273544904 27.8914
33.00349259526636 27.7552
33.026713849030116 27.9077
33.04993649794511 27.771
33.073341986570746 27.7261
33.09656744032826 27.7519
33.11979429286444 27.7343
33.14302254538647 27.7643
33.166433686291185 27.6727
33.18966475336992 27.6625
33.212897224069096 27.6191
33.23613109959831 27.5979
33.259547912343415 27.4754
33.2827846121627 27.5071
33.306022720453775 27.4403
33.32926223842861 27.3264
33.352684742614166 27.366999999999997
33.37592709463173 27.3424
33.399170859982064 27.2551
33.422597648419426 27.1904
33.44584425514446 27.0169
33.46909227885668 27.0078
33.4923417207723 26.9234
33.51577423505344 26.9714
33.539026528130385 26.9008
33.56228024307245 26.8883
33.585535381098246 26.6741
33.60897364093058 26.6967
33.63223163992385 26.7222
33.6554910656699 26.6415
33.678751919389796 26.6302
33.702195944520106 26.5627
33.72545966903325 26.5764
33.74872482519663 26.4753
33.771991414233746 26.4493
33.79544122444841 26.4748
33.81871069412428 26.3645
33.84198160035767 26.2947
33.86525394437455 26.3378
33.88870955949969 26.2531
33.911984794020626 26.2368
33.93526147001624 26.1766
33.958539588715006 26.1828
33.98200102861669 26.1484
34.0052820477047 26.0089
34.02856451319451 26.0344
34.05203033759056 25.918000000000003
34.07531571090147 25.9601
34.09860253431845 25.8856
34.121890809074316 25.8804
34.145362493118924 25.8297
34.16865368561615 25.7971
34.191946333164054 25.7964
34.21524043699793 25.741
34.23871800066799 25.7278
34.26201503218366 25.5797
34.28531352370466 25.5714
34.30861347646881 25.4451
34.33209693978188 25.5735
34.3553998301885 25.4775
34.378704185565205 25.476999999999997
34.402010007152356 25.3771
34.42549939016683 25.2901
34.44880815937748 25.2175
34.472118398533134 25.1629
34.49543010887669 25.149
34.51892543169198 25.1173
34.54224009966052 25.1261
34.56555624255917 25.1695
34.58887386163339 24.9855
34.61237514439016 24.8848
34.6356957311114 24.8877
34.65901779775809 24.8761
34.68252356662995 24.8104
34.705848608458616 24.8291
34.72917513396849 24.8032
34.75250314440949 24.7659
34.77601490857862 24.6572
34.799345904259795 24.6186
34.82267838863559 24.7086
34.846012362958525 24.6552
34.869530142679984 24.5242
34.89286711232212 24.5391
34.91620557568269 24.5372
34.93954553401677 24.4942
34.9630693495876 24.3562
34.986412313340814 24.4374
35.00975677584668 24.4971
35.033102738362956 24.4347
35.05663261012228 24.2762
35.0799815881786 24.3346
35.10333207003229 24.2071
35.12668405694369 24.1867
35.150220005273056 24.2481
35.17357501786656 24.2201
35.19693153931268 24.1722
35.220289570874385 24.1384
35.24383161619786 24.1462
35.267192683604904 24.0982
35.290555264930376 24.011999999999997
35.314101899412165 24.0626
35.33746752422433 23.9906
35.36083466676374 24.0312
35.38420332829803 23.921999999999997
35.407756095629054 23.9287
35.43112781085063 23.9591
35.45450104888391 23.8601
35.477875810999194 23.9374
35.50143473172161 23.886999999999997
35.52481255774625 23.8263
35.54819191167777 23.8152
35.57157279478914 23.7361
35.595137889488406 23.6143
35.61852184675279 23.6673
35.641907337029984 23.603
35.665294361595684 23.5428
35.68886565090076 23.5128
35.7122557598848 23.4983
35.73564740699838 23.5166
35.759040593519934 23.5036
35.78261809810353 23.4367
35.80601437933051 23.3445
35.829412203814705 23.2396
35.85281157283719 23.2079
35.876395313415884 23.2557
35.8997977874528 23.1361
35.92320180988546 23.1547
35.946790244133936 23.1181
35.97019737933222 23.085
35.993606066789866 22.9986
36.01701630779276 23.0186
36.04061101440684 22.9569
36.06402437852291 22.9617
36.08743930005611 22.9033
36.1108557802951 22.8497
36.13445678011326 22.9079
36.15787639383515 22.7769
36.18129757014299 22.6809
36.20472031032821 22.6898
36.22832762423364 22.662
36.25175350829375 22.6633
36.275180960119776 22.5668
36.298609981005924 22.6519
36.32222362992669 22.6501
36.34565580510207 22.5979
36.36908955323448 22.5094
36.39252487562093 22.424
36.416144880530226 22.3773
36.43958336764275 22.4069
36.463023432914625 22.3454
36.486465077645676 22.3011
36.51009145956204 22.3625
36.53353627947859 22.4051
36.55698268276811 22.3605
36.58043067073321 22.2128
36.60406345072071 22.178
36.62751462435344 22.1577
36.65096738658405 22.1497
36.67460498210655 22.0934
36.69806093788647 22.1036
36.72151848619297 21.9718
36.744977628333636 21.9819
36.76862165890998 21.9311
36.79208400512205 21.9791
36.81554794910557 21.9331
36.83901349217101 21.8104
36.862663978991606 21.815
36.88613273667352 21.6927
36.90960309738324 21.7623
36.933075062434064 21.6819
36.95673202673572 21.6181
36.98020721697122 21.6391
37.003684015502365 21.5569
37.027162423645365 21.5142
37.050825886711465 21.5688
37.07430753063053 21.4304
37.09779078812467 21.3662
37.121275660513014 21.3947
37.144945643673694 21.3446
37.16843376245278 21.3602
37.19192350009803 21.3398
37.215414857931435 21.320999999999998
37.239091382563885 21.2111
37.262585997426164 21.1537
37.28608223645736 21.1587
37.309763684451696 21.1817
37.33326318851098 21.1184
37.356764320726555 21.129
37.380267082425526 21.136999999999997
37.40395510942588 21.0451
37.42746114683234 21.0225
37.45096881771841 20.9298
37.474478123414166 20.9574
37.49817275092816 20.8684
37.52168534303452 20.8787
37.54519957395567 20.8121
37.568715445024665 20.7717
37.592416694607714 20.7913
37.61593586281424 20.7361
37.63945667518264 20.8273
37.66297913304891 20.7125
37.68668702630454 20.6499
37.710212792059274 20.5349
37.733740207334854 20.5062
37.757269273470364 20.4723
37.780983832050374 20.4398
37.80451621684926 20.4537
37.82805025654007 20.3993
37.851585952464795 20.3609
37.8753071980695 20.3504
37.89884622345676 20.3183
37.92238690911902 20.303
37.94611318753442 20.1926
37.969657210779765 20.2924
37.99320289834801 20.2664
38.016750251586465 20.2085
38.04048325513017 20.104
38.06403395679343 20.1334
38.087586328183946 20.0186
38.11114037065203 20.028
38.13488012115898 20.0382
38.1584375229181 19.963
38.181996599821 19.934
38.205557353221124 19.9695
38.229303872575656 19.88
38.2528679961576 19.9396
38.27643380031219 19.8503
38.30000128639589 19.7309
38.32375459653193 19.761
38.34732546371299 19.7628
38.37089801690786 19.66
38.39447225747609 19.615
38.418232380377425 19.6175
38.441810012983396 19.577
38.46538933705673 19.5561
38.488970353960084 19.5985
38.51273731166058 19.5696
38.536321731567014 19.4856
38.55990784840681 19.4882
38.58367995004091 19.4104
38.60726947812959 19.3343
38.63086070726198 19.3649
38.654453638806274 19.3921
38.678232613930824 19.2592
38.70182896773327 19.1991
38.72542702806741 19.2023
38.7490267963045 19.2048
38.77281266709232 19.1837
38.79641586862214 19.101
38.8200207821842 19.1325
38.843627409152944 19.0425
38.86742019782782 19.0294
38.891030269149255 18.9656
38.914642058016156 19.0656
38.938255565806124 18.969
38.96205529464307 18.9316
38.98567225787121 18.9066
39.00929094417078 18.8859
39.03291135492255 18.8328
39.05671804624804 18.7823
39.080341923549106 18.7525
39.103967529460334 18.7385
39.127594865365744 18.6956
39.15140854155791 18.6656
39.17503935514948 18.6662
39.19867190290282 18.632
39.22249083587951 18.5457
39.24612686969409 18.5668
39.269764641845306 18.5122
39.293404153722804 18.5297
39.317230110864074 18.4414
39.34087311998506 18.4482
39.36451787301696 18.4325
39.388164371352595 18.4107
39.41199737518003 18.3202
39.43564738196752 18.3506
39.45929913825317 18.2872
39.48295264543308 18.276
39.506792718520884 18.2097
39.530449745387216 18.1677
39.55410852735203 18.1477
39.57776906581474 18.187
39.60161623079 18.1376
39.625280300200025 18.1129
39.64894613032202 18.0649
39.67261372255866 18.058
39.6964680021016 18.0413
39.72013913657293 18.0054
39.74381203738292 17.9681
39.76748670593756 17.9375
39.79134812278169 17.9113
39.81502634488497 17.9616
39.83870633896685 17.9405
39.862388106436654 17.834
39.88625668336918 17.7713
39.90994201572829 17.7666
39.933629125719285 17.7935
39.957503091207826 17.6667
39.9811937746168 17.7027
40.00488623990914 17.7279
40.02858048850006 17.6865
40.05246165409549 17.6485
40.076159487492085 17.5101
40.099859108448875 17.5534
40.123560518384345 17.5093
40.1474489070226 17.4843
40.171153913178564 17.4543
40.194860712584955 17.3926
40.2185693066637 17.4306
40.242464941335314 17.3699
40.26617714307655 17.2979
40.289891143772046 17.3419
40.3136069448471 17.2846
40.33750984859743 17.2375
40.3612292688043 17.2001
40.3849504936829 17.2519
40.40867352466194 17.1911
40.43258372059144 17.1501
40.45631038219906 17.0819
40.48003885420956 17.1156
40.503769138055105 17.0908
40.52768664931955 17.0641
40.55142057531802 17.045
40.57515631746428 16.9783
40.599079334038514 16.9581
40.62281872700477 16.9471
40.64655994043941 16.9132
40.67030297578061 16.8656
40.69423334835778 16.8862
40.71798004609188 16.8122
40.74172857006355 16.788
40.76547892171441 16.8181
40.7894166736039 16.778
40.813170699248566 16.7705
40.83692655691388 16.6684
40.86068424804498 16.7112
40.884629402612525 16.6285
40.908390779366385 16.6462
40.932153993938 16.6365
40.95591904777605 16.5725
40.979871628443995 16.6125
41.003640379561936 16.547
41.02741097430883 16.4902
41.05118341413683 16.4907
41.075143444384416 16.4792
41.098919593177826 16.4143
41.1226975914255 16.3621
41.14647744058318 16.3354
41.170444943946755 16.2594
41.19422851378379 16.3024
41.218013938914645 16.2645
41.24198706625173 16.2304
41.26577622087193 16.182000000000002
41.289567235177785 16.1366
41.31336011063129 16.1566
41.337340752422875 16.1198
41.361137369129835 16.1044
41.38493585138705 16.0351
41.40873620066004 15.9918
41.43272438060107 16.0019
41.45652848292052 15.964
41.48033445666918 15.9137
41.50414230331616 15.8717
41.528138045159764 15.932
41.551949656675205 15.8964
41.575763145513235 15.8666
41.59957851314666 15.8565
41.62358184070442 15.794
41.64740098505737 15.7991
41.6712220126409 15.7043
41.69504492493139 15.7168
41.71905586207357 15.6554
41.74288256296395 15.6891
41.766711153007456 15.6443
41.79054163368412 15.6287
41.814560204340054 15.6394
41.838394485526365 15.5772
41.86223066180303 15.5905
41.88625497706819 15.5139
41.910094962812 15.4871
41.93393684811168 15.452
41.95778063445365 15.402000000000001
41.981812625263366 15.3902
42.00566023303407 15.3531
42.029509746323676 15.3674
42.05336116662236 15.3438
42.077400857069705 15.3056
42.10125611078846 15.2683
42.12511327600405 15.2929
42.14897235421036 15.2857
42.173019768448455 15.2708
42.19688269209613 15.1897
42.22074753323349 15.1625
42.24461429335818 15.1446
42.268669455600495 15.1288
42.292540073217886 15.0641
42.31641261433284 15.0526
42.34028708044675 15.0439
42.36435001496739 14.9884
42.38822835065557 15.0022
42.41210861586426 14.9112
42.4359908120986 15.0099
42.46006154323262 14.9174
42.48394762115317 14.8565
42.507835634632315 14.8788
42.531912233047436 14.8853
42.55580413732265 14.8533
42.579697981698 14.8185
42.60359376768525 14.762
42.62767820545945 14.7168
42.65157789440821 14.7387
42.67547952952185 14.635
42.699383112316 14.6806
42.72347541395347 14.6457
42.74738291190531 14.5841
42.771292362102166 14.6015
42.795203766063516 14.5034
42.819303956130405 14.5095
42.843219287476536 14.5059
42.86713657716324 14.4893
42.89105582671383 14.4732
42.91516392983864 14.4697
42.939087119032166 14.397
42.963012272677304 14.4052
42.98693939230129 14.3487
43.01105543317513 14.2855
43.034986504731386 14.3888
43.05891954686589 14.2978
43.08285456110972 14.2491
43.10697856448665 14.2264
43.130917542983475 14.2165
43.15485849820081 14.2076
43.17880143167367 14.1367
43.20293342237094 14.1402
43.226880332449 14.0898
43.25082922540554 14.0899
43.27496722682525 14.0705
43.29892010567796 14.0273
43.32287497204102 14.0371
43.34683182745632 13.9894
43.370977859791836 13.9523
43.39493871351105 13.905
43.41890156092628 13.9564
43.44286640358341 13.9254
43.46702049182749 13.9179
43.49098934522816 13.8175
43.51496019852649 13.8533
43.5389330532723 13.8095
43.56309522248204 13.7605
43.58707210044314 13.7542
43.61105098451946 13.6772
43.63503187626491 13.6467
43.659202151562134 13.6747
43.68318707902681 13.6755
43.70717401884041 13.6336
43.731162972560874 13.5907
43.75534137913236 13.5351
43.779334381108384 13.5788
43.803329401683186 13.5209
43.82732644241872 13.5135
43.8515130055166 13.484000000000002
43.87551410707659 13.4808
43.89951723350145 13.4478
43.923709934595614 13.4231
43.94771713129917 13.394
43.97172635758096 13.3718
43.99573761501002 13.3176
44.0199385169922 13.3316
44.04395385732619 13.295
44.067971233533086 13.267000000000001
44.09199064718605 13.2824
44.11619977548961 13.2228
44.14022328470671 13.2202
44.16424883610785 13.1774
44.18827643127035 13.187000000000001
44.21249381139513 13.1481
44.236525514814076 13.1424
44.26055926674478 13.1074
44.28459506876863 13.1064
44.3088207262813 13.0576
44.33286064928722 13.0403
44.35690262714919 13.0128
44.38094666145278 13.0043
44.4051806219871 12.9893
44.42922879003185 12.9131
44.45327901929361 12.9119
44.477331311362136 12.9138
44.501573600619416 12.878
44.525630039221795 12.82
44.54968854541895 12.8445
44.573937102200176 12.8309
44.5979997645541 12.8176
44.622064499300315 12.7733
44.64613130803592 12.7601
44.67038823869318 12.6815
44.69445921643748 12.6776
44.718532272981385 12.6351
44.742607409926194 12.6666
44.76687274034801 12.6752
44.79095205918753 12.5754
44.81503346325094 12.5779
44.839116954143876 12.6039
44.86339071028742 12.5622
44.88747839599524 12.5341
44.91156817336837 12.498
44.93566004401666 12.514000000000001
44.959942251908146 12.4762
44.984038330325966 12.4308
45.00813650686762 12.3675
45.03223678314731 12.3823
45.05652746888232 12.3726
45.08063196592069 12.3394
45.104738567558705 12.3189
45.128847275414856 12.2947
45.15314646515866 12.2678
45.17725940679741 12.2447
45.20137445952892 12.2322
45.22568004865265 12.2375
45.24979934496396 12.1782
45.27392075725247 12.1822
45.29804428714431 12.1453
45.322358426247604 12.1162
45.346486212804315 12.0884
45.370616121861914 12.1169
45.39474815505086 12.0454
45.41907087049246 12.0275
45.4432071734666 12.0167
45.46734560548283 11.9837
45.49148616817604 11.9832
45.51581748638564 11.9457
45.5399623320197 11.9219
45.56410931325473 11.9071
45.58825843173002 11.9466
45.61259837920865 11.9077
45.636751793816 11.8751
45.66090735060093 11.857000000000001
45.68506505120716 11.7677
45.7094136545275 11.7438
45.73357566449271 11.7698
45.75773982322992 11.7877
45.78190613238733 11.7108
45.806263418194064 11.6773
45.83043404997326 11.6735
45.85460683713677 11.6434
45.87897065658495 11.6393
45.90314777634752 11.6011
45.92732705646868 11.5843
45.9515084986045 11.5754
45.97588104735473 11.5378
46.00006683541565 11.5519
46.02425479047904 11.494000000000002
46.04844491420549 11.5174
46.0728262191024 11.5063
46.09702070211635 11.4672
46.12121735879483 11.4323
46.14541619080294 11.4335
46.169806278764455 11.4127
46.194009483459034 11.4175
46.21821486849841 11.3774
46.24242243555223 11.3416
46.266821333570014 11.3391
46.29103328674601 11.2992
46.31524742696538 11.2793
46.33946375590237 11.2265
46.36387149104216 11.2336
46.38809221957392 11.1689
46.41231514186606 11.1797
46.436540259597464 11.2404
46.460956858999374 11.1749
46.48518638983522 11.1333
46.509418121166966 11.0777
46.533652054678114 11.0949
46.55807754555709 11.0921
46.58231590571962 11.084000000000001
46.60655647313217 11.0412
46.630988654873654 11.0328
46.655233659129024 10.9646
46.67948087571551 10.9866
46.70373030632484 10.9284
46.72817142736393 10.9311
46.752425308428684 10.9743
46.77668140861147 10.8876
46.80093972960865 10.828
46.82538981736788 10.8078
46.849652602470904 10.8089
46.87391761349769 10.8187
46.8981848521493 10.7705
46.9226439341274 10.7515
46.946915650573224 10.6844
46.97118959976749 10.7244
46.99546578341598 10.7115
47.019933887188216 10.7062
47.04421456235744 10.7013
47.06849747711879 10.6772
47.09278263318286 10.6155
47.11725978640143 10.5876
47.14154944775105 10.5696
47.165841355555656 10.5545
47.1901355115306 10.5553
47.214621741924994 10.5607
47.23892041698887 10.5143
47.26322134538975 10.4926
47.28771440635075 10.4601
47.31201986422527 10.4311
47.33632758061436 10.4171
47.360637557241866 10.4137
47.38513974410611 10.3997
47.40945426407847 10.3673
47.43377104948137 10.3379
47.45809010204344 10.3535
47.48260144275502 10.3068
47.506925052572285 10.3595
47.53125093475548 10.3025
47.55557909103813 10.2579
47.58009961361992 10.2195
47.60443234110732 10.2428
47.62876734791564 10.2045
47.65310463578333 10.1598
47.6776343683373 10.1559
47.7019762413987 10.107999999999999
47.72632040075572 10.0732
47.75066684815169 10.1047
47.77520581885936 10.0673
47.799556865477655 10.0874
47.823910205386 10.0523
47.84826584033272 9.99516
47.87281407745551 9.986130000000001
47.89717432569297 10.0042
47.92153687423484 9.99261
47.94609208429692 9.99865
47.97045925671401 9.95021
47.99482873471275 9.901539999999999
48.01920052005013 9.919410000000001
48.04376504619224 9.87128
48.068141469543484 9.90675
48.09252020552573 9.87095
48.11690125590099 9.8312
48.1414751266064 9.814589999999999
48.16586082917454 9.82496
48.19024885144316 9.81386
48.2146391951793 9.7688
48.239222439012764 9.77111
48.26361744916137 9.75228
48.28801478610016 9.714160000000001
48.31241445160131 9.70616
48.337007097209366 9.664489999999999
48.36141144338331 9.640419999999999
48.38581812345755 9.63137
48.41022713920929 9.62627
48.434829215320704 9.64398
48.45924292604658 9.60984
48.48365897780325 9.58672
48.50807737237308 9.574910000000001
48.532688907799276 9.54438
48.55711201168574 9.506789999999999
48.581537463754074 9.48686
48.60615611725119 9.5047
48.63058628942721 9.491710000000001
48.65501881516546 9.45531
48.6794536962573 9.4561
48.70408185970339 9.40398
48.72852147531801 9.39914
48.75296345168211 9.361189999999999
48.77740779059232 9.384789999999999
48.80204549302823 9.4013
48.82649458091802 9.30967
48.85094603676547 9.31966
48.87539986237231 9.2762
48.90004713292306 9.21839
48.92450572200832 9.24505
48.94896668628025 9.22463
48.97343002754588 9.22917
48.99808689542115 9.2722
49.02255501470614 9.206339999999999
49.04702551642794 9.187610000000001
49.0714984023988 9.15058
49.096164896893235 9.119
49.120642575466796 9.1582
49.145122643748394 9.10633
49.16960510355558 9.08683
49.19428125404938 9.07421
49.2187685210852 9.05942
49.243258185121555 9.06712
49.26794160167084 9.01401
49.2924360839405 9.05176
49.31693296869764 9.002460000000001
49.34143225776915 8.94236
49.36612538195438 8.93019
49.39062950396021 8.92335
49.41513603578346 8.92366
49.4396449792564 8.90723
49.46434784069503 8.915239999999999
49.488861631846454 8.88417
49.513377840166804 8.84835
49.537896467493745 8.79213
49.56260909589029 8.78015
49.587132585683285 8.79894
49.611658500018365 8.750060000000001
49.636186840738596 8.75204
49.66090926588511 8.74808
49.685442483902584 8.72604
49.70997813385706 8.68319
49.734516217597076 8.6951
49.75924846937352 8.66697
49.7837914452858 8.65703
49.80833686055187 8.62652
49.83288471702571 8.6282
49.85762682540054 8.61457
49.882179588965734 8.627939999999999
49.9067347993235 8.558539999999999
49.93129245833333 8.55588
49.95604445336378 8.52899
49.98060703442832 8.5475
50.005172069746266 8.50695
50.02993150438364 8.51078
50.05450147301533 8.50114
50.07907390151433 8.44025
50.10364879174981 8.41429
50.12841816587289 8.436119999999999
50.1529980044635 8.40857
50.17758031042124 8.38808
50.20216508562089 8.38
50.22694442953363 8.36331
50.25153416817468 8.3752
50.27612638170508 8.326830000000001
50.300721072005196 8.26243
50.325510416102105 8.3085
50.350110084975064 8.27642
50.37471223628208 8.276639999999999
50.39931687190919 8.229410000000001
50.424116246675766 8.20825
50.44872587605249 8.21382
50.47333799543065 8.19764
50.49795260670191 8.17405
50.52276204271512 8.17662
50.54738166295838 8.138810000000001
50.57200378079314 8.14332
50.596628398116835 8.10569
50.62144792604559 8.12299
50.646077567609396 8.099910000000001
50.670709714377715 8.08052
50.69553683636198 8.06509
50.72017401885922 8.03036
50.7448137122895 8.02854
50.76945591856022 8.03015
50.79429318636823 8.03383
50.818940443716784 8.024189999999999
50.84359021965163 7.965439999999999
50.868242516085964 7.9459800000000005
50.893089960641895 7.96045
50.917747323549435 7.93332
50.94240721271973 7.94447
50.96706963007175 7.918089999999999
50.99192728239342 7.876519999999999
51.01659478166073 7.8801
51.04126481489051 7.83776
51.06593738400761 7.798719999999999
51.090805275207074 7.80852
51.11548294172845 7.80258
51.14016314993547 7.81257
51.164845901758845 7.750839999999999
51.18972406304274 7.7244600000000005
51.21441192780656 7.7424
51.23910234200271 7.72757
51.2637953075678 7.720269999999999
51.288683770237945 7.715739999999999
51.31338186432707 7.641830000000001
51.33808251561888 7.648219999999999
51.362978729967345 7.62873
51.387684521509755 7.63445
51.41239287610203 7.6292800000000005
51.437103795691165 7.59249
51.46201036644977 7.568810000000001
51.486726441956634 7.5573
51.51144508832545 7.54873
51.536166307509156 7.51768
51.56108326624387 7.5072
51.58580965706056 7.4813600000000005
51.61053862657523 7.46785
51.635270176746864 7.453180000000001
51.66019755512065 7.40544
51.68493429268881 7.4238100000000005
51.70967361681515 7.40195
51.73441552946465 7.427989999999999
51.759353359237934 7.39895
51.7841004750961 7.38651
51.80885018539685 7.366169999999999
51.833602492111254 7.308510000000001
51.8585508051424 7.29622
51.883308330926425 7.30812
51.90806845906181 7.283739999999999
51.932831191525715 7.266610000000001
51.95779001977161 7.2744
51.98255798721516 7.24786
52.00732856494335 7.22472
52.03229530577543 7.24937
52.057071130455945 7.203930000000001
52.081849571391054 7.22222
52.106630630568695 7.17203
52.13160794279417 7.160080000000001
52.15639426492067 7.15522
52.18118321127822 7.12414
52.205974783860896 7.090910000000001
52.23096269971011 7.09341
52.255759551287994 7.07723
52.280559035098186 7.06895
52.30536115314103 7.04087
52.33035970494467 7.0583100000000005
52.35516711807904 7.059819999999999
52.37997717147198 7.01353
52.40478986713005 6.99711
52.42979908731974 6.99632
52.454617094216 7.00243
52.47943774942214 6.943060000000001
52.50426105495102 6.9450199999999995
52.529280976059844 6.932919999999999
52.554109609024096 6.89337
52.57894089837482 6.868939999999999
52.60377484613117 6.89809
52.62880550079408 6.879460000000001
52.65364479223379 6.83931
52.67848674816189 6.82198
52.70352547971946 6.847
52.72837279155837 6.846019999999999
52.753222773982785 6.79742
52.778075429022984 6.8336
52.80312495150885 6.8004
52.827982978797436 6.7657
52.85284368481815 6.736739999999999
52.87770707160767 6.742539999999999
52.90276741793998 6.732
52.92763619336701 6.738230000000001
52.952507655698504 6.689660000000001
52.977381806977576 6.6763
53.00245301017842 6.64014
53.02733256653592 6.68623
53.052214817996074 6.60968
53.077099766608484 6.62355
53.102181859804446 6.5892100000000005
53.127072229988265 6.580310000000001
53.15196530349892 6.5591800000000005
53.17686108239249 6.57149
53.20195409881522 6.53945
53.22685531582556 6.52851
53.25175924441303 6.48661
53.27666588664027 6.509469999999999
53.30176985962693 6.52238
53.3266819565689 6.49024
53.35159677336455 6.45523
53.376514312083096 6.42836
53.40162927507703 6.46149
53.42655228516116 6.43617
53.45147802340193 6.41635
53.47660125628886 6.44114
53.50153247842639 6.386369999999999
53.52646643496923 6.35942
53.55140312799818 6.34952
53.576537409691696 6.37448
53.60147960336152 6.33725
53.626424539786164 6.31873
53.65137222105307 6.3021199999999995
53.67651758529126 6.31807
53.70147078399681 6.24824
53.72642673383343 6.25517
53.75138543689533 6.26396
53.776541917524526 6.24728
53.801506154876755 6.21737
53.826473151763246 6.19002
53.851442910284916 6.19729
53.87661054126026 6.21704
53.9015858509782 6.14416
53.92656392866066 6.12328
53.95154477641532 6.0964599999999995
53.976723591801296 6.09325
54.00171000771266 6.12574
54.02669920004598 6.13189
54.051691170915745 6.08985
54.076881204886796 6.05014
54.101878760928514 6.051830000000001
54.12687910187696 6.05387
54.152077577768296 6.03149
54.1770835166946 5.99404
54.20209224691339 5.99357
54.22710377055121 5.98634
54.25231352511594 5.9530199999999995
54.27733066384342 5.9317
54.30235060239643 5.92232
54.32737334290836 5.93956
54.35259441062629 5.8489
54.377622783395324 5.87234
54.40265396455061 5.907769999999999
54.42768795623251 5.874709999999999
54.45292037169559 5.80241
54.477960012857906 5.81802
54.50300247099511 5.78405
54.52804774825457 5.7835
54.55329154616743 5.76211
54.57834249018678 5.77801
54.6033962597977 5.72238
54.6284528571545 5.70672
54.653708072335164 5.62669
54.67877035378786 5.63518
54.70383546947698 5.63566
54.72890342156389 5.60329
54.7541700889442 5.6143
54.77924374251975 5.56654
54.8043202390049 5.6112400000000004
54.82959552413022 5.54145
54.8546777351945 5.58734
54.87976279569621 5.5243
54.90485070780914 5.52303
54.930137506558005 5.48752
54.95523115074295 5.45006
54.98032765308844 5.473380000000001
55.005427015775496 5.41361
55.03072536339621 5.41102
55.05583047570572 5.4055
55.080938454927676 5.3773
55.10604930325027 5.364
55.131359235107396 5.3787199999999995
55.15647585066083 5.31447
55.181595341907496 5.2980599999999995
55.20671771104285 5.24177
55.232039262617704 5.24756
55.25716741665048 5.224559999999999
55.28229845518636 5.26543
55.30743238042802 5.1476
55.33276558731939 5.12081
55.357905315183636 5.12702
55.383047936390035 5.104430000000001
55.40819345314859 5.03156
55.433538351073295 5.04758
55.458689688238415 5.01096
55.483843927614096 5.00075
55.509197623043605 4.9919400000000005
55.53435769621134 4.95132
55.55952067826466 4.8846099999999995
55.5846865714265 4.94073
55.61005202069737 4.89851
55.63522376553902 4.87502
55.66039842818645 4.85841
55.68557601087004 4.82039
55.7109532500271 4.7819
55.73613670233794 4.80466
