TT I
1.2716486653135266 7.21974
1.2939594142134223 7.0757699999999994
1.3162702121660406 6.83785
1.3385810600174564 6.45683
1.3608919586137629 6.744160000000001
1.383202908801069 5.85824
1.405513911425503 5.97034
1.4278249673332093 5.85099
1.4501343378461518 5.7805800000000005
1.4724455028545926 5.94375
1.4947567236847858 5.22467
1.517068001182951 5.1032
1.5393793361953272 5.33868
1.5616907295681737 5.884580000000001
1.5840021821477681 5.77339
1.60631369478041 4.9828
1.6286252683124185 5.08869
1.6509369035901333 4.73928
1.6732468618895553 5.28441
1.695558623192809 5.3117
1.7178704487808514 5.0647
1.7401823395001077 4.87183
1.7625012545597203 4.68478
1.7848028405262486 4.99249
1.8071218901122095 4.4535599999999995
1.8294236121921872 5.032019999999999
1.8517427996910911 4.2308900000000005
1.8740620574440425 4.82085
1.8963639900671978 5.10808
1.9186833908139995 4.706930000000001
1.9409854680117449 4.13802
1.9633050151394713 5.03881
1.9856246367570705 4.21124
2.0079269371922672 4.9714
2.03024671027244 4.42473
2.0525491637446027 4.78786
2.074869091674931 4.68466
2.097171701569106 4.7062800000000005
2.1194917877373847 4.74051
2.141811954326636 4.53179
2.164114805233074 4.63813
2.186435135143035 5.38174
2.208738150935709 7.603689999999999
2.231058647554722 12.3381
2.2533792288321184 9.98891
2.275682498336085 6.07723
2.298003251406138 5.32181
2.3203066942619714 5.63644
2.3426276225136022 5.12747
2.3649486396617507 5.22569
2.387252348930071 6.47636
2.4095735463442893 6.0033900000000004
2.4318774374315884 6.24615
2.4541988185014043 6.628939999999999
2.476502894794693 6.41739
2.498824462909887 7.480389999999999
2.521146125856138 7.53637
2.5434504863470337 8.13884
2.5657723414244717 8.31935
2.588076895590662 8.7094
2.610398946189713 8.752889999999999
2.6327210958598384 8.59966
2.6550259469304716 8.51492
2.6773482972090137 9.05408
2.6996533504259 8.5611
2.7219759047039602 8.78079
2.744298562293959 8.29068
2.7666039251246595 8.06744
2.7889267918020164 7.90884
2.8112323652516555 8.981869999999999
2.833555444408179 8.464780000000001
2.8558786311183852 8.66735
2.8781845268938557 9.341330000000001
2.9005079311721484 9.510710000000001
2.9228140460410397 9.12331
2.9451376712799635 9.37951
2.967444008632326 9.2996
2.9897678582247247 10.1763
3.0120918213106695 10.4184
3.0343984987899373 10.4443
3.0567226913198637 11.2248
3.079029599759726 11.749
3.101354025127254 12.3564
3.123678568232338 13.0409
3.145985829517914 12.9143
3.16831061055229 13.4714
3.1906181112775593 14.103
3.212943133635653 15.0775
3.2352682779763207 15.0918
3.2575761442691227 15.333
3.2799015350264273 15.7305
3.302209649240067 15.6596
3.3245352898092655 16.7536
3.3468436553365257 17.3866
3.369169549113219 17.6158
3.3914955708171384 18.553
3.413804319727358 18.5521
3.4361305997334863 18.7403
3.4584396084414553 19.4403
3.4807661501462652 19.9583
3.503092824025881 20.4283
3.5254022288463154 20.5756
3.5477291695206588 21.3047
3.5700388426251948 22.075
3.5923660534916446 22.9574
3.6146934007816114 28.5523
3.637003482731501 43.1616
3.6593311053109985 46.5107
3.681641464033634 33.9625
3.7039693653009733 26.1368
3.726297407241705 24.6792
3.7486081875460804 24.662
3.7709365132734978 25.3433
3.793247578841633 25.7597
3.8155761917550093 26.1366
3.8378875459837216 26.4897
3.8602164494827234 27.0242
3.882545499606844 27.6354
3.9048572932539183 28.3675
3.9271866390645718 28.8545
3.9494987298666713 29.09
3.971828374764527 29.9243
3.9941581705403255 30.3305
4.016470713506008 30.8382
4.038800813471445 31.4543
4.061113662089144 31.6719
4.0834440696459176 32.5466
4.105774632334751 33.0321
4.128087945865126 33.6533
4.150418821249301 34.1475
4.172732448931298 35.7067
4.195063640413578 36.4117
4.2173775856475215 37.8004
4.239709096631102 49.6831
4.262040768704612 102.884
4.284355196706267 124.943
4.306687193387355 90.3183
4.329001947444346 53.216
4.35133427213731 43.6819
4.373666762177566 42.6045
4.395982011761091 43.1332
4.418314834921175 43.6712
4.44063041906622 47.2891
4.4629635787515625 51.3031
4.4852969080429785 52.2567
4.5076130004776225 52.478
4.529946671403969 59.1717
4.552263106909177 63.8699
4.574597122877047 59.2331
4.596931312711224 54.2809
4.619248269273446 53.2661
4.6415828092605835 53.8666
4.663900117405352 55.2586
4.686235010953232 55.9743
4.708552674085913 57.2574
4.730887924602802 58.9778
4.753223354952695 61.2666
4.775541557023902 65.4903
4.797877349456786 68.9145
4.820195915032126 68.8357
4.842532072957498 67.9411
4.864868414979744 70.6549
4.88718753227192 75.6445
4.909524244902505 77.2103
4.931843734218147 76.3605
4.954180820867835 77.4515
4.976518095879839 79.867
4.998838149695359 82.5861
5.021175803844231 86.0771
5.043496238205739 89.0164
5.065834274903528 92.8301
5.088172504230693 97.8442
5.1104935158799565 104.35600000000001
5.132832132875765 123.456
5.155153533596801 153.292
5.1774925416746225 190.546
5.199814334878411 370.00800000000004
5.2221537374521505 950.9789999999999
5.244493338631803 2773.05
5.266815727034316 8065.1
5.289155727832427 13487.1
5.311478517248165 8821.06
5.333818921080011 2692.1
5.356159527788849 505.744
5.3784829252032536 196.074
5.400823940070432 154.908
5.423147747031976 130.17700000000002
5.445489173474152 119.18
5.467830807066149 120.36399999999999
5.490155234831516 121.572
5.512497285125229 113.584
5.534822130975162 104.896
5.557164601388673 100.87799999999999
5.579489868738879 97.941
5.601832762690846 96.5332
5.6241758697774475 95.2569
5.646501775867269 94.7737
5.668845311622074 93.8897
5.691171647754637 93.1903
5.713515615597765 92.2671
5.735859800852677 92.1709
5.758186788542988 94.5508
5.780531411018185 99.4543
5.802858837297399 99.6438
5.825203900414495 99.3904
5.8475491852224 103.98299999999999
5.869877275883075 102.63799999999999
5.892223006467101 96.8081
5.914551544266608 94.2144
5.936897724049891 95.5127
5.959244129804903 102.17200000000001
5.981573344815301 128.061
6.0039202049061 227.77599999999998
6.026249875609095 443.656
6.04859719346037 906.3989999999999
6.070927323278297 2215.22
6.093275102315365 4642.8
6.115623113320588 5197.99
6.137953938319995 2997.13
6.160302415650845 812.962
6.182633708324452 191.02700000000002
6.2049826554078376 104.15299999999999
6.227331838745022 88.02
6.249663839443684 81.5156
6.27201349767565 78.4137
6.294345974611799 78.8019
6.316696111167083 80.6276
6.339046488263839 78.475
6.361379686074702 72.8179
6.383730546639482 69.6663
6.406064229255215 69.6314
6.428415576718203 71.0778
6.450749747566656 69.7918
6.47310158535871 66.6251
6.495453669698332 64.0999
6.517788579421056 63.5981
6.540141159237969 62.57
6.562476565766648 61.9531
6.5848296444934045 62.1709
6.607182974060425 62.4144
6.6295191323281015 62.383
6.651872965955752 62.4475
6.6742096296068985 69.7653
6.6965639707294615 83.8518
6.71891856698715 82.3287
6.741255995248479 68.5865
6.763611104154477 60.824
6.785949046381137 58.2738
6.808304671371482 58.998999999999995
6.8306605557940046 61.2773
6.852999275508618 60.3505
6.875355681171544 57.534
6.897694923437771 56.0183
6.92005185377892 55.3823
6.9423916220322655 55.2628
6.964749080490181 54.7301
6.987106804399774 54.9292
7.009447368180821 55.5011
7.031805625367033 55.4042
7.054146723727803 54.9158
7.076505517631004 54.294
7.098864581288365 54.0548
7.121206488070854 53.8588
7.143566093607822 54.5017
7.165908543567245 55.7546
7.188268694426048 56.2791
7.2106291193438095 54.9588
7.232972390625943 54.3423
7.255333366030969 58.7411
7.277677189091925 75.208
7.300038718428332 88.7975
7.322400526130865 80.5803
7.344745183422596 64.2113
7.367107550224791 55.6713
7.389452767901992 54.3605
7.411815697249891 53.6365
7.434161478756298 52.8445
7.456524974096713 53.0834
7.478888753837185 53.0188
7.501235387657368 53.5808
7.523599738562711 53.4399
7.545946944825532 53.6829
7.568311870344528 54.2896
7.5906770845765665 54.1265
7.613025156078678 54.5059
7.635390950099687 55.3301
7.657739602662809 54.9439
7.680105979923558 55.4064
7.702472650212829 56.611000000000004
7.724822180948224 56.25899999999999
7.747189439655568 55.6809
7.769539560075357 55.3011
7.791907410653562 55.5344
7.81425812420825 55.5145
7.836626570110925 55.4585
7.858995315087906 56.614
7.881346924933401 56.7712
7.903716270417482 57.1388
7.926068482028405 57.736999999999995
7.948438431475253 58.1752
7.9708086843180235 58.861000000000004
7.993161805171116 59.5908
8.015532667162402 60.1115
8.037886398416653 60.9529
8.060257873014221 61.7012
8.082629655331942 62.49
8.104984308787587 63.5884
8.127356708900503 65.7558
8.149711981398308 70.376
8.172085002766314 72.5754
8.194458336181368 70.5262
8.216814543847752 68.6523
8.23918850371002 68.4759
8.26154533906492 68.899
8.283919928836452 70.5448
8.306277395339652 71.5446
8.328652618483376 72.9608
8.351028159736202 74.8753
8.373386579575245 77.1274
8.395762759396959 78.891
8.418121819038275 82.1805
8.440498640894003 88.7716
8.462875785192262 99.2121
8.485235811156207 123.09299999999999
8.507613602688501 170.74099999999999
8.529974277114228 243.937
8.552352719347912 364.01
8.574731488360351 620.03
8.59709314210385 1203.91
8.619472567021075 1942.61
8.64183487789147 2209.54
8.664214962183097 1696.11
8.686577933647762 832.727
8.708958680784317 296.627
8.731339760774953 139.856
8.753703729764451 103.693
8.77608547780821 95.7857
8.798450116065078 93.0088
8.820832535634787 90.9996
8.843215292401656 91.6387
8.865580941199045 91.8719
8.887964374703538 91.9805
8.910330701447199 92.45700000000001
8.932714815164482 91.8753
8.955099270424924 88.9699
8.977466620733543 85.6187
8.999851761421976 84.2688
9.022219798361645 83.1209
9.04460562795561 83.1078
9.066991803441677 83.1785
9.089360876979615 83.6162
9.111747746589993 83.4241
9.13411751544971 81.9617
9.156505082664324 81.1007
9.178875550323522 81.1228
9.20126381862328 81.0433
9.223652438908596 80.9504
9.246023961427412 81.1869
9.26841328802173 80.9974
9.290785518039224 81.5817
9.313175554425882 84.4047
9.335565947154315 86.6855
9.357939245086508 86.9192
9.380330352834827 85.9466
9.40270436697103 85.6867
9.425096193225055 84.9948
9.447488380180165 84.6311
9.469863475295412 83.3309
9.492256385987508 83.9796
9.514632206018318 84.4782
9.537025843935714 84.713
9.559402392368193 86.0312
9.581796761000229 88.9509
9.604191496441521 91.9707
9.626569144158516 94.5025
9.648964615551032 95.7957
9.671343000390081 94.5629
9.693739211225699 92.4292
9.716135793237463 91.8177
9.738515290448102 92.4458
9.760912617143402 93.9599
9.783292860202891 96.8172
9.805690935076182 98.9435
9.828089385495742 100.022
9.850470754023561 100.711
9.872869957865444 103.405
9.89525208097539 109.22
9.917652041736662 115.478
9.940052382417589 123.464
9.962435644102392 147.101
9.984836746950979 184.28400000000002
10.007220771957746 238.38400000000001
10.029622640473708 328.795
10.052007432299963 507.44199999999995
10.074410069984072 826.5169999999999
10.096813093716005 1303.36
10.119199042482517 1845.78
10.141602840636468 1980.74
10.163989564971628 1459.73
10.186394141051062 761.5269999999999
10.208799107559706 325.341
10.231187001965623 162.07299999999998
10.253592751657669 118.581
10.275981430388155 108.944
10.298387966769793 107.083
10.320794897965431 107.09299999999999
10.343184759907361 105.51100000000001
10.36559248305461 103.179
10.387983138083852 103.42
10.410391656691655 109.34200000000001
10.432800574501677 119.48200000000001
10.455192425893369 132.797
10.47760214443012 157.849
10.499994797678786 203.82299999999998
10.522405320453982 288.466
10.54479877906917 411.694
10.567210109595656 544.717
10.5896218454736 593.7040000000001
10.612016518879773 483.99300000000005
10.634429067781074 311.58799999999997
10.656824555333241 177.808
10.679237920773568 112.039
10.701651695961992 91.8156
10.724048411481384 87.4056
10.746463008485165 84.7736
10.768860546937125 83.5351
10.791275969274796 81.7043
10.81369180576079 80.8343
10.836090585366925 79.7298
10.858507252467449 78.6896
10.88090686379991 77.6875
10.903324365036394 77.3924
10.925724811614439 76.975
10.948143150509463 77.487
10.970561909719066 77.1607
10.992963615930844 76.602
11.015383218085756 74.7354
11.037785768347074 72.888
11.06020621697282 71.9463
11.082627090322113 71.1425
11.105030913430326 70.3345
11.12745263854165 69.9027
11.149857314510728 70.5456
11.172279894912576 72.2343
11.194702904450653 71.85300000000001
11.217108866490921 70.0907
11.239532736615194 68.6214
11.26193956033512 67.9939
11.284364294577085 67.1285
11.306789462371718 66.0979
11.329197585398376 65.6793
11.351623622610898 65.8992
11.37403261614354 65.1588
11.396459526308487 64.9664
11.418869393879497 64.3461
11.441297180532617 64.0441
11.463725406927658 63.6559
11.486136592353875 63.2998
11.508565700543707 63.5355
11.530977768845315 64.2958
11.553407762368774 64.22399999999999
11.575838200059769 63.8864
11.598251599479612 63.0501
11.620682927815501 62.4968
11.64309721895548 62.1811
11.665529441478206 62.1633
11.687962112597958 62.0246
11.710377748130886 61.8575
11.732811318753434 61.8533
11.755227854859067 61.9166
11.777662328529495 61.6567
11.800079768750786 61.803000000000004
11.822515149015453 61.8956
11.844950984084935 61.8546
11.867369787303163 61.6837
11.889806534289491 61.5387
11.912226250487029 61.4397
11.934663912939751 61.8919
11.9571020346363 62.2968
11.979523127133968 62.4215
12.001962169624331 63.3575
12.024384183972964 64.831
12.046824150809913 67.5212
12.069264581333726 71.336
12.091687985297767 76.9816
12.11412934550045 85.9561
12.136553680195208 101.802
12.158995973632788 126.39200000000001
12.181438735204349 159.625
12.20386447284199 188.89700000000002
12.226308172985636 209.273
12.24873485024193 202.423
12.271179492516982 154.376
12.293607112949127 113.15899999999999
12.316052700916226 85.9261
12.338498763250042 70.8986
12.360927805303868 65.2279
12.383374818673879 63.8414
12.405804812803074 62.9772
12.428252780773262 62.9698
12.45070122756722 63.1309
12.473132656675375 63.1718
12.49558206341869 63.9654
12.518014453510101 63.9915
12.540464823770117 64.0815
12.562915677315177 63.646
12.58534951575545 64.2101
12.607801338171472 64.6502
12.630236146511358 66.5352
12.652688941369085 68.2548
12.675124723177234 68.7798
12.697578494048786 67.9731
12.720032754458185 66.764
12.742470003354093 66.2619
12.764925245138771 66.7432
12.787363476431278 67.1108
12.809819703166806 67.4743
12.83227642391173 68.1977
12.854716135692716 68.854
12.877173846755147 70.3223
12.899614549869717 70.7182
12.9220732548287 71.50399999999999
12.94453245827299 72.1662
12.966974655289818 73.0809
12.989434858002571 73.7364
13.011878055298721 74.3138
13.034339260862497 74.9852
13.056800969391883 77.3828
13.079245674017244 79.5075
13.101708390774869 83.2987
13.12415410463411 90.8859
13.146617833206086 99.5288
13.169064559883248 108.911
13.191529303857127 122.788
13.213994557076367 145.458
13.236442809902437 184.858
13.258909083908291 246.108
13.28135835851934 317.025
13.30382565690295 391.059
13.326293469022952 445.722
13.348744283242008 419.228
13.371213125129904 333.18199999999996
13.39366497011003 227.824
13.416134845360597 151.22899999999998
13.438605238843131 114.229
13.46105863690397 103.10700000000001
13.483530069144786 103.936
13.505984506951902 108.417
13.528456981549432 117.603
13.550929978879088 132.416
13.573385983253365 157.79
13.595860028340867 200.6
13.618317081455832 258.824
13.64079217790333 322.481
13.663250283359057 369.064
13.685726434770173 379.80199999999996
13.708203115221277 322.656
13.730662806148091 240.36599999999999
13.75314054697177 165.801
13.775601299246777 115.09299999999999
13.798080104050406 91.973
13.820559442405358 83.0746
13.843021793671388 80.0049
13.865502201420897 79.0138
13.887965623051947 78.4015
13.910447103807167 77.4003
13.932929122629764 76.0017
13.955394156785959 75.5661
13.977877254034569 74.5938
14.000343367582113 73.7494
14.022827546871707 72.9586
14.045294743423524 72.4865
14.06778000837062 71.7841
14.090265817715476 71.8178
14.112734645763819 71.3611
14.13522154619454 70.7374
14.157691466286913 70.7092
14.180179461423874 70.5209
14.202668005486178 69.9618
14.22513957064374 69.6268
14.247629214846473 69.4058
14.270101881097517 69.013
14.29259262906496 68.7698
14.315083930490205 69.1502
14.337558255389705 68.9498
14.360050666019726 69.0892
14.382526101071944 68.5457
14.405019624534942 68.2756
14.427513705993134 67.8724
14.449990813291825 67.84
14.47248601302899 67.6656
14.49496423954951 67.7171
14.517460561197822 67.7924
14.539939910570322 67.5233
14.562437357763558 67.7629
14.58493536931253 68.477
14.607416409993311 68.5587
14.62991555254159 68.9717
14.652397725157423 69.007
14.674898002342799 69.1514
14.697398848433282 69.4851
14.719882725991326 70.9439
14.74238471217934 72.6764
14.764869730765593 75.7737
14.787372860692983 78.0338
14.809876564079925 81.9041
14.83236330125751 87.2749
14.854868153850365 96.1552
14.877356041159485 111.164
14.899862046604186 131.333
14.922351087688757 159.145
14.944858249632887 192.62
14.967365991421232 219.671
14.989856770231246 229.22299999999998
15.012365673994204 213.872
15.03485761569738 177.928
15.05736768508665 136.32399999999998
15.07987833888692 103.116
15.102372032001655 83.9032
15.124883856909658 73.9697
15.14737872204565 70.5415
15.169891721717274 69.5658
15.192405310371893 69.2115
15.214901940621196 68.5903
15.237416709527137 68.169
15.259914520936249 68.1449
15.282430473753607 67.3673
15.304947020131227 66.5944
15.327446610371178 65.9894
15.349964346154254 66.1368
15.372465126703139 65.729
15.394984055556009 65.3656
15.417486030076159 65.3267
15.44000615566487 64.9726
15.462526881230803 64.8391
15.485030653812652 64.5865
15.507552581617434 64.7033
15.530057557334603 64.7054
15.55258069104857 64.6356
15.575104429329837 64.8698
15.597611216864632 64.8679
15.620136166564563 65.4781
15.6426441664095 66.8051
15.665170331202765 69.111
15.687697105158826 71.4145
15.710206930593545 74.4743
15.732734925158933 78.291
15.755245972089478 84.5565
15.77777519094324 94.0607
15.800287463046663 107.586
15.822817909869592 128.096
15.84534897229804 152.571
15.867863089299354 177.899
15.890395385222186 196.19400000000002
15.912910736597423 195.433
15.935444269699861 177.89
15.957978423016485 144.982
15.980495633101265 111.706
16.003031029129367 87.0319
16.02554948280019 71.4146
16.048086125229432 64.7294
16.070623392487107 62.6885
16.09314371869582 61.8985
16.11568223789321 60.8813
16.13820381691126 60.1454
16.160743591742527 59.5909
16.183283996022084 59.0657
16.205807461423195 58.1896
16.228349126881973 57.853
16.25087385432698 57.6846
16.27341678466365 57.1677
16.29594277784926 56.8558
16.31848697676433 56.6682
16.341031811604868 56.5984
16.36355971058487 56.5003
16.3861058195587 56.2224
16.40863499352978 55.4973
16.431182380342005 55.1287
16.453730407713202 54.9397
16.476261501364792 54.7898
16.498810812136167 54.5245
16.52134319004079 54.5334
16.54389378792203 54.3416
16.566445031001553 54.2178
16.588979342490088 54.0937
16.61153187824822 53.7922
16.634067483263312 53.7075
16.656621315414416 53.6992
16.679175797408888 53.4342
16.701713349928728 53.5818
16.72426913389191 53.8371
16.74680798922351 53.8275
16.76936507887444 53.7423
16.791905240734874 53.9349
16.814463639794468 53.6324
16.837022695210294 53.7792
16.859564824093756 53.8352
16.882125194503903 54.2044
16.904668639217885 54.4392
16.927230328348003 54.4611
16.949792678493612 54.6479
16.972338104193863 54.3478
16.994901778652235 54.4472
17.017448529496576 54.6173
17.040013531998152 55.0657
17.06257920018044 55.6125
17.0851279459922 56.2239
17.107694947817667 56.7488
17.130245028099072 57.6084
17.15281336730298 58.7967
17.17536478578733 60.5049
17.19793446610687 62.905
17.220504818648422 66.2478
17.243058251703697 70.0382
17.265629950971032 74.6601
17.288184731571736 79.8307
17.310757781306908 82.9481
17.33333150794385 83.4601
17.355888317140174 80.35
17.37846339986244 74.1938
17.401021565958885 67.5507
17.42359800851343 62.9263
17.44617513265564 60.1667
17.468735341390783 58.9499
17.491261035594565 58.2615
17.51396340099364 57.8146
17.536490463869136 58.1146
17.559018209820174 58.1104
17.58154663977963 58.2399
17.604251766089718 58.4292
17.626781572227713 58.5475
17.64931206518155 58.8152
17.671843245885103 59.1999
17.69455114821572 59.2381
17.717083712612634 59.6119
17.739616967569667 60.0438
17.762150914021706 60.2646
17.78486160749854 60.6349
17.807396945166804 61.5289
17.829932977143503 62.5274
17.85246970436452 63.8641
17.875183204129467 65.3111
17.897721330097664 67.1834
17.920260154126645 69.1981
17.942799677153296 72.3562
17.9655159983646 76.1612
17.988056927677544 81.85600000000001
18.010598558807683 90.3153
18.033140892692916 100.91799999999999
18.05586005052525 113.609
18.07840379824407 126.43299999999999
18.10094825154059 136.355
18.12366954819864 140.98
18.146215420998306 136.561
18.16876200220057 125.73700000000001
18.191309292745153 110.508
18.214033452627167 96.9716
18.236582170236648 86.7846
18.259131600016456 83.7652
18.281681742907335 85.4028
18.304408781233683 90.4279
18.32696035875955 96.5549
18.349512652227624 101.488
18.372065662579683 105.992
18.394795594587553 104.76700000000001
18.41735004715306 98.7247
18.43990521943684 90.4641
18.46246111238171 81.131
18.485193953325208 72.7658
18.507751296070428 66.8298
18.530309362314178 63.5025
18.552868153000343 61.924
18.57560391815056 60.9676
18.59816416623245 60.5419
18.620725141597372 60.0615
18.643286845190268 59.6296
18.666025549835414 59.2649
18.688588718427933 58.7363
18.711152618092243 58.7017
18.73389353884365 58.3771
18.75645890921984 57.8948
18.77902501351406 57.6913
18.801591852673102 57.793
18.824335739722738 57.0596
18.846904057212626 57.0685
18.8694731124168 56.7521
18.89204290628315 56.7072
18.914789774966803 56.5144
18.937361054791623 56.2958
18.959933076131318 55.9823
18.982505839934877 56.0934
19.00525570560582 55.9801
19.027829963004184 55.5393
19.05040496572238 55.9045
19.072980714710468 56.0994
19.095733592739563 56.0618
19.11831084296757 56.0342
19.140888842324735 56.4671
19.16346759176222 56.6863
19.18622349753803 57.1239
19.208803755869358 58.1584
19.231384767143577 59.3297
19.253966532312948 61.3187
19.276725481241822 63.4835
19.29930876296784 66.0908
19.3218928014549 69.2891
19.34465404436217 72.259
19.36723960516257 74.7479
19.389825925592426 75.0584
19.412413006605938 73.1564
19.43517731967805 69.1231
19.457765930683355 64.3909
19.48035530514408 60.2287
19.50294544401556 56.9509
19.525712842708348 54.806999999999995
19.54830451925909 53.788000000000004
19.570896963095727 53.1305
19.593490175174704 52.9009
19.616260674962184 52.7607
19.638855432416964 52.431000000000004
19.661450960992624 52.7091
19.68404726164677 52.7424
19.706820878021247 52.3549
19.729418731756834 52.5056
19.752017360452857 52.2787
19.77461676506804 52.662
19.797393513540218 52.7516
19.819994478951667 52.9689
19.84259622316767 53.3427
19.8651987471481 53.6765
19.887978643247177 53.8582
19.91058273574792 54.3962
19.933187610901943 55.1208
19.955969879466828 56.5485
19.97857632894404 58.0787
20.00118356396599 59.9804
20.023791585494575 62.3219
20.046577028914875 65.2902
20.069186632506966 67.5009
20.091797025500632 69.0859
20.114408208858933 69.5343
20.137196842715273 68.19800000000001
20.159809615886765 66.3465
20.18242318232135 63.5831
20.20503754298326 61.5838
20.227829382875154 60.8388
20.250445341109344 61.4464
20.27306209647285 62.6561
20.29567964993108 64.2269
20.31847471147704 65.2644
20.34109387027612 65.2278
20.363713830075454 64.4082
20.386334591841646 62.2358
20.409132890679302 59.3068
20.431755265564437 56.0364
20.454378445325528 53.3622
20.477002430930366 51.6733
20.499803982716553 50.7404
20.522429589228004 50.1175
20.54505600449589 49.6225
20.567683229489194 49.6603
20.590488049900088 49.4156
20.61311690359731 49.235
20.63574656993626 49.1577
20.658553853717297 48.9043
20.681185154618298 48.5785
20.703817271080066 48.6656
20.72645020407368 48.0939
20.749260783967177 48.1245
20.771895359337133 48.0874
20.794530754161617 48.0441
20.817166969412938 48.0167
20.83998086114876 47.9462
20.86261872660049 47.7846
20.885257415405402 47.8567
20.90789692853701 47.8081
20.930714147864748 47.615
20.953355319030678 47.8454
20.97599731745334 47.9011
20.99864014410749 47.6945
21.021460706796564 47.6504
21.044105199328826 48.0138
21.06675052302631 48.0911
21.089396678865015 48.2902
21.112220600704806 48.5834
21.134868430275347 48.9354
21.15751709492456 49.481
21.180166595629693 49.7245
21.202993892429635 50.0341
21.22564507473034 50.5008
21.24829709602816 50.6303
21.27112693608965 50.6988
21.293780644891275 50.4125
21.316435195634053 49.8395
21.339090589297417 48.985
21.361923832041875 48.4714
21.384580921090404 47.9321
21.407238856007325 47.5726
21.429897637773326 47.5913
21.45273429906592 47.772
21.475394784108598 47.6805
21.498056118951983 47.6716
21.520718304578022 47.7996
21.543558400304388 48.0154
21.566222297108816 48.3918
21.58888704765135 48.4616
21.61155265291521 48.553000000000004
21.63439619898156 49.0079
21.657063523335786 49.0332
21.67973170537063 49.5699
21.7024007460706 49.9486
21.72524775840385 50.7074
21.747918526116475 51.8654
21.770590155457388 53.1778
21.79326264741238 54.8906
21.816113141960237 56.9105
21.838787368860547 58.9275
21.861462461341976 61.1614
21.884315579735777 62.9939
21.90699241312273 64.0472
21.92967011506078 64.1917
21.95234868653799 63.0544
21.9752053151131 61.1503
21.997885635446785 59.0221
22.020566828293532 57.316
22.04324889464272 56.0688
22.066109049404666 55.4844
22.088792872571794 55.4889
22.111477572219204 55.6296
22.1341631493376 55.5159
22.157026846313123 55.0343
22.179714188221507 54.2053
22.202402410582668 52.7278
22.22509151438863 51.2682
22.24795876962584 49.9562
22.270649646204486 49.36600000000001
22.293341407213727 48.7526
22.316034053646906 48.2911
22.338904883215342 48.0561
22.36159931041458 48.0794
22.38429462602756 48.0297
22.40699083104897 47.6656
22.429865251039757 48.0008
22.452563244831367 47.9068
22.47526213102522 47.7328
22.49813925616515 47.6219
22.520839937143307 47.5922
22.543541513520587 47.7849
22.56624398629403 47.6068
22.589124730075895 47.6878
22.611829005656723 48.0551
22.63453418063466 48.0057
22.657240256008077 48.2747
22.680124634582935 48.2612
22.70283252079775 48.3584
22.725541310413075 48.7131
22.74825100442868 48.8995
22.771139033969575 49.2821
22.79385054687155 49.5524
22.81656296718292 50.2848
22.83927629590484 51.2136
22.862167992606945 52.4024
22.88488314827121 53.5512
22.907599215359284 54.8198
22.93031619487366 55.9317
22.953211574954405 56.8113
22.975930389478226 57.3186
22.998650119445763 57.44
23.02137076586092 55.9786
23.044269845560063 54.4286
23.06699233506288 52.7615
23.089715744034912 50.9273
23.112617610931565 49.5655
23.135342869061212 48.8029
23.158069049684816 48.273
23.1807961538087 47.891000000000005
23.20370174880544 47.8742
23.226430710184808 48.0165
23.249160598093425 48.0318
23.271891413539002 48.1612
23.294800752937697 48.0991
23.31753343374794 48.2558
23.340267045128353 48.4263
23.36300158808808 48.8756
23.38591468821339 48.9508
23.408651104658304 49.4769
23.431388455719986 49.9696
23.454126742409 51.0971
23.4770436196085 52.0238
23.499783787914662 53.4779
23.522524894889884 54.7106
23.54526694154616 55.9801
23.56818761219047 57.0925
23.59093154860734 57.3823
23.613676427751283 57.2731
23.636422250635754 56.058
23.659346731118656 53.9678
23.68209445191868 51.9476
23.704843119509587 49.8031
23.72759273490623 48.1258
23.750521041644767 46.9098
23.77327256312355 46.1431
23.796025035462787 45.6274
23.818956224555475 45.2778
23.841710609113413 45.2537
23.86446594758979 45.0047
23.887222241002014 44.7901
23.910157285144578 44.4113
23.932915498962537 44.4324
23.955674670778713 44.3383
23.978434801611975 43.933
24.001373717286125 43.8673
24.024135776723917 43.7755
24.046898798245582 43.7925
24.06966278287146 43.6448
24.092605586582614 43.4449
24.115371508023642 43.2411
24.1381383956401 43.1748
24.16090625045381 43.0675
24.183852958731244 43.1937
24.206622758582608 43.0054
24.229393528706886 42.6577
24.252165270127392 42.9418
24.27511589952438 42.8968
24.297889594216997 42.6658
24.32066426328598 42.6256
24.34343990775613 42.6606
24.36639447485003 42.4421
24.38917208083877 42.4103
24.41195066531332 42.2778
24.43490819850244 42.269
24.457688750692377 42.2305
24.48047028445616 42.2452
24.503252800821233 42.3395
24.526214300784112 42.3813
24.548998793132213 42.4172
24.57178427117417 42.3157
24.59457073593893 42.2923
24.617536219319863 42.2124
24.64032466834748 42.3177
24.663114107195035 42.0453
24.685904536893013 41.883
24.708874020360852 41.7954
24.731666442613744 41.6213
24.754459858818787 41.5049
24.777254270007962 41.5529
24.80022777025625 41.5044
24.82302418230472 41.5106
24.845821592443674 41.5938
24.86862000170663 41.5958
24.891597535453727 41.4082
24.914397953892728 41.5066
24.93719937456671 41.4706
24.96000179851076 41.4671
24.98298338249997 41.7657
25.00578782394922 42.0565
25.028593271784167 42.2513
25.05157790644186 42.4769
25.07438537804115 42.6665
25.097193859145293 42.9738
25.120003350792075 43.2434
25.142992065061257 43.4915
25.165803588823465 43.8626
25.18861612625217 43.9864
25.211429678386736 43.9849
25.234422489079968 43.9243
25.257238081693636 44.0018
25.280054692141732 44.2885
25.3028723214652 44.3829
25.325869245420463 44.5242
25.348688923599397 44.3986
25.371509623787006 44.211000000000006
25.394331347025812 43.8601
25.41733240110666 43.1366
25.440156181590016 42.4113
25.46298098826268 41.9702
25.48580682216873 41.434
25.50881202326435 40.9033
25.53163992281684 40.6322
25.55446885274561 40.4578
25.577298814096377 40.1728
25.600308179121807 40.0779
25.623140214533745 40.2606
25.64597328451537 39.9785
25.66898578564376 39.7835
25.691820936010206 39.8446
25.714657124097695 39.7024
25.737494350954734 39.7366
25.760511045684957 39.6126
25.783350361364224 39.6629
25.806190718969255 39.7204
25.82903211955018 39.8237
25.852053024868923 39.8387
25.874896522722523 39.8943
25.897741066713106 39.9533
25.920586657892454 40.0513
25.943611790812668 40.172
25.966459487728237 40.3266
25.989308234998564 40.2868
26.01215803367705 40.8497
26.03518741123814 40.9597
26.05803932412957 41.0857
26.080892291600094 41.1237
26.10374631470478 41.0596
26.12677995397268 41.0606
26.14963609978026 40.9511
26.172493304397875 40.5585
26.19535156888223 40.3867
26.218389486949604 40.0928
26.241249882640123 39.8067
26.26411134137826 39.4972
26.28715248187403 39.4982
26.31001607820869 39.4436
26.3328807407756 39.1805
26.35574647063438 39.5158
26.37879191991473 39.3261
26.401659795896734 39.4098
26.424528742360263 39.5779
26.447398760366614 39.819
26.470448535598294 39.7346
26.49332070826805 39.9473
26.516193955675355 40.4271
26.53906827888316 40.7102
26.562122397260108 40.7732
26.584998883685063 41.034
26.607876449110325 41.4403
26.63075509460056 41.5714
26.65381357334404 41.6361
26.67669439061878 41.4285
26.699576291163382 41.318000000000005
26.722459276044212 41.041000000000004
26.745522132402975 40.8258
26.768407297649354 40.6764
26.791293550442003 40.3246
26.814180891848974 40.1244
26.837248143099337 39.9213
26.860137673466657 39.7482
26.88302829566349 39.5139
26.90592001075963 39.2385
26.92899167420566 39.1308
26.951885586870763 38.6862
26.974780595655517 38.6276
26.99785558178161 38.5165
27.020752794605112 38.4217
27.043651106772522 38.2724
27.06655051935668 38.166
27.089629948036183 38.1242
27.112531573292053 38.1633
27.135434302194138 38.0657
27.158338135817015 37.8901
27.181422024430987 37.9773
27.204328079372566 37.6775
27.22723524226965 37.8506
27.250143514198573 37.9583
27.273231880156334 37.7827
27.296142382065014 37.789
27.319053996245536 37.7051
27.341966723775965 37.7978
27.365059584515222 37.8289
27.38797455070062 37.7894
27.410890633481237 37.7742
27.433807833936918 37.7839
27.456905206923906 37.8306
27.47982465472398 37.8701
27.502745223449743 37.9883
27.525666914182825 38.0546
27.548768816912457 37.9971
27.571692763693633 37.7892
27.59461783573812 37.6996
27.617723149491244 37.6175
27.640650484125285 37.5522
27.66357894728264 37.4291
27.686508540048052 37.4466
27.709618414237887 37.3838
27.732550278321757 37.1832
27.755483275279115 37.1926
27.778417406196485 37.2226
27.801531858397514 37.2754
27.824468269376716 37.1661
27.847405817586786 37.1584
27.870344504116094 37.2768
27.893463551932008 37.4777
27.916404527281053 37.6756
27.93934664422563 37.8443
27.962289903855886 37.8248
27.98541356491974 37.9733
28.00835912214229 38.1581
28.03130582533231 38.4599
28.054253675581805 38.7087
28.077381967556104 38.461999999999996
28.100332124185126 38.326
28.123283431160893 38.3543
28.146235889577238 38.1997
28.169368830154156 37.9528
28.192323603752033 37.7396
28.215279532083304 37.3556
28.238415973016764 37.1333
28.261374223145094 37.2014
28.284333631303806 37.0613
28.307294198589954 36.8017
28.330435319167677 36.4281
28.353398217078915 36.1916
28.376362277420153 35.9857
28.39932750129032 35.9786
28.422473319286713 35.7969
28.44544088262495 35.677
28.468409612800283 35.6356
28.491379510913497 35.3655
28.51453004413313 35.3748
28.53750229057244 35.3083
28.56047570826344 35.2546
28.583450298308804 35.3045
28.606605564586562 35.0202
28.629582511831156 35.1575
28.65256063474956 35.0167
28.675539934446338 34.9975
28.698699951647605 35.0966
28.72168161743193 34.9733
28.74466446331978 34.8411
28.767648490417624 34.758
28.790813276438353 34.8285
28.813799678527303 34.8401
28.836787265157085 34.815
28.859955641890075 34.8054
28.882945610203045 34.7979
28.905936766392035 34.7449
28.928929111566863 34.8362
28.952102288520145 34.6761
28.975097024308607 34.4717
28.998092952423807 34.3715
29.021090073977508 34.31
29.04426806913204 34.2046
29.067267590245258 34.0112
29.090268308143695 33.9956
29.11327022394099 33.9719
29.13645305530891 33.8884
29.159457379627167 33.9001
29.18246290519685 33.7417
29.20546963313352 33.7378
29.22865731875826 33.7479
29.25166646419296 33.7946
29.27467681535305 33.6432
29.29768837335608 33.8033
29.320880931312562 33.7414
29.34389491580634 33.7172
29.366910110507334 33.6602
29.38992651653503 33.7033
29.41312396492981 33.6653
29.436142806456754 33.4891
29.45916286268059 33.4587
29.48236399319994 33.3394
29.50538649169417 33.1921
29.528410208259935 33.1813
29.55143514402014 32.9273
29.574641196749695 32.81
29.597668583816574 32.6433
29.6206971934585 32.5692
29.64372702680042 32.6872
29.666938019934474 32.5462
29.689970313635285 32.3818
29.713003834422636 32.3899
29.73603858342347 32.3508
29.759254535188578 32.2742
29.78229175361658 32.2816
29.80533020365064 32.2969
29.82836988641968 32.3311
29.85159081507472 32.2472
29.874632976355343 32.1639
29.89767637376955 32.2634
29.920721008448314 32.032
29.9439469322847 32.0501
29.96699405457564 32.0148
29.9900424175358 32.0683
30.013092022298157 32.0284
30.03632295963995 31.9284
30.059375061131373 31.9719
30.08242840783577 32.0023
30.105483000888153 31.9286
30.128718970092244 31.8936
30.151776069006917 31.8543
30.17483441768648 31.8992
30.198074175317235 31.7736
30.221135036724256 31.912
30.24419715131772 31.8025
30.267260520236203 31.7498
30.290505341942243 31.7316
30.313571232750228 31.7633
30.336638381310948 31.7317
30.35970678876503 31.6149
30.38295669299435 31.6846
30.40602763151657 31.6066
30.429099832366074 31.6302
30.452173296685572 31.5585
30.47542830191959 31.5339
30.498504306502497 31.4725
30.521581577995562 31.6651
30.544660117543582 31.6762
30.56792024229725 31.6583
30.59100133132069 31.7312
30.614083691845494 31.6287
30.637167325018545 31.6593
30.660432587840603 31.7586
30.683518779717886 31.7083
30.70660624769615 31.7265
30.729694992924372 31.6189
30.75296541239743 31.6493
30.77605672557558 31.736
30.799149319462742 31.6165
30.8224236211637 31.439
30.845518789950724 31.2946
30.868615242910597 31.2806
30.891712981195973 31.1098
30.91499247215866 31.0137
30.938092794619365 30.9842
30.96119440587579 30.8804
30.984297307082752 30.8651
31.00758200598383 30.8335
31.030687500658694 30.728
31.053794288760695 30.7514
31.076902371446767 30.5911
31.100192296997445 30.6221
31.12330298246119 30.6216
31.14641496599209 30.4607
31.169528248749216 30.4302
31.19282341969534 30.3655
31.215939314557186 30.3372
31.239056512134788 30.4541
31.262175013589378 30.2952
31.28547544871168 30.2909
31.30859657161541 30.3143
31.331719001892175 30.3323
31.35484274070538 30.4611
31.378148458819545 30.3326
31.401274828443725 30.4141
31.424402510106933 30.3616
31.447712205419993 30.4872
31.470842524931633 30.4017
31.493974159989783 30.3032
31.51710711176168 30.2185
31.54042212308802 30.1946
31.563557722100917 30.2384
31.586694641341655 30.0438
31.609832881979628 30.0499
31.63315322823208 29.9769
31.656294125521327 29.8207
31.679436347728515 29.6905
31.70257989602529 29.7231
31.725905596152327 29.6552
31.74905181052835 29.6797
31.772199354521323 29.7452
31.79534822930507 29.719
31.818679302290967 29.6739
31.84183085259981 29.5584
31.864983737233473 29.684
31.88813795736804 29.6872
31.911474422233013 29.5497
31.934631327356435 29.5629
31.9577895715215 29.4887
31.980949155906522 29.625999999999998
32.004291031706956 29.478
32.027453310562606 29.4207
32.05061693318573 29.3347
32.07396288236386 29.3193
32.09712920658542 29.2029
32.12029687812702 29.0748
32.14346589817093 28.9876
32.166817291729984 28.9312
32.18998902288583 28.9416
32.21316210610336 28.8382
32.23633654256711 28.6831
32.259693399663725 28.7007
32.282870556771144 28.6224
32.30604907069099 28.6379
32.329228942610065 28.5513
32.35259128243769 28.4569
32.375773884550505 28.3206
32.398957848235646 28.4237
32.422143174682176 28.3636
32.445511016471215 28.2951
32.468699082679954 28.2447
32.49188851523011 28.2764
32.51507931531304 28.1761
32.538452678331 28.0563
32.56164622776311 28.0286
32.58484114831493 27.9817
32.60803744118015 27.9454
32.631416344731896 28.0651
32.654615396551876 27.9543
32.67781582427913 27.962
32.701198898634416 27.8959
32.72440209253756 27.7654
32.747606665947124 27.7188
32.77081262006088 27.6244
32.79420126883317 27.6746
32.81740999876112 27.6806
32.840620112999424 27.5898
32.86383161274818 27.5497
32.88722585534586 27.5451
32.91044014056596 27.6066
32.933655814909734 27.5079
32.95687287957963 27.4685
32.98027273544904 27.397
33.00349259526636 27.3953
33.026713849030116 27.4041
33.04993649794511 27.4563
33.073341986570746 27.2424
33.09656744032826 27.2883
33.11979429286444 27.2964
33.14302254538647 27.3035
33.166433686291185 27.3071
33.18966475336992 27.2733
33.212897224069096 27.1467
33.23613109959831 27.1714
33.259547912343415 27.0121
33.2827846121627 27.0291
33.306022720453775 27.0915
33.32926223842861 26.9256
33.352684742614166 26.9951
33.37592709463173 26.9121
33.399170859982064 26.8546
33.422597648419426 26.7255
33.44584425514446 26.6219
33.46909227885668 26.6804
33.4923417207723 26.5141
33.51577423505344 26.4896
33.539026528130385 26.4162
33.56228024307245 26.4546
33.585535381098246 26.337
33.60897364093058 26.3101
33.63223163992385 26.3606
33.6554910656699 26.2525
33.678751919389796 26.2256
33.702195944520106 26.0471
33.72545966903325 26.1606
33.74872482519663 26.0958
33.771991414233746 26.1265
33.79544122444841 26.0514
33.81871069412428 25.8224
33.84198160035767 25.8551
33.86525394437455 25.9165
33.88870955949969 25.8084
33.911984794020626 25.7558
33.93526147001624 25.7898
33.958539588715006 25.8015
33.98200102861669 25.7296
34.0052820477047 25.6732
34.02856451319451 25.5892
34.05203033759056 25.5254
34.07531571090147 25.4941
34.09860253431845 25.429000000000002
34.121890809074316 25.5348
34.145362493118924 25.4661
34.16865368561615 25.4098
34.191946333164054 25.3277
34.21524043699793 25.2757
34.23871800066799 25.3103
34.26201503218366 25.2214
34.28531352370466 25.2245
34.30861347646881 25.1526
34.33209693978188 25.0896
34.3553998301885 25.0712
34.378704185565205 24.978
34.402010007152356 24.866
34.42549939016683 24.8369
34.44880815937748 24.8616
34.472118398533134 24.7501
34.49543010887669 24.714000000000002
34.51892543169198 24.5939
34.54224009966052 24.71
34.56555624255917 24.6785
34.58887386163339 24.6158
34.61237514439016 24.4887
34.6356957311114 24.5075
34.65901779775809 24.5149
34.68252356662995 24.4916
34.705848608458616 24.5022
34.72917513396849 24.355
34.75250314440949 24.3162
34.77601490857862 24.3343
34.799345904259795 24.2069
34.82267838863559 24.3653
34.846012362958525 24.2073
34.869530142679984 24.1609
34.89286711232212 24.1577
34.91620557568269 24.1722
34.93954553401677 24.1701
34.9630693495876 24.0902
34.986412313340814 24.1062
35.00975677584668 24.0765
35.033102738362956 24.0026
35.05663261012228 23.9376
35.0799815881786 23.9061
35.10333207003229 23.9113
35.12668405694369 23.9368
35.150220005273056 23.8147
35.17357501786656 23.7438
35.19693153931268 23.7609
35.220289570874385 23.7454
35.24383161619786 23.7372
35.267192683604904 23.7871
35.290555264930376 23.7102
35.314101899412165 23.7205
35.33746752422433 23.7529
35.36083466676374 23.5857
35.38420332829803 23.579
35.407756095629054 23.6079
35.43112781085063 23.6072
35.45450104888391 23.4583
35.477875810999194 23.531999999999996
35.50143473172161 23.463
35.52481255774625 23.4647
35.54819191167777 23.3845
35.57157279478914 23.4147
35.595137889488406 23.3449
35.61852184675279 23.3168
35.641907337029984 23.2954
35.665294361595684 23.1282
35.68886565090076 23.1724
35.7122557598848 23.153000000000002
35.73564740699838 23.0773
35.759040593519934 23.1073
35.78261809810353 23.1024
35.80601437933051 22.9163
35.829412203814705 22.9681
35.85281157283719 22.7964
35.876395313415884 22.881999999999998
35.8997977874528 22.7927
35.92320180988546 22.8189
35.946790244133936 22.7384
35.97019737933222 22.7805
35.993606066789866 22.7257
36.01701630779276 22.6726
36.04061101440684 22.5327
36.06402437852291 22.5758
36.08743930005611 22.6864
36.1108557802951 22.4848
36.13445678011326 22.4208
36.15787639383515 22.4819
36.18129757014299 22.4642
36.20472031032821 22.3923
36.22832762423364 22.2739
36.25175350829375 22.2541
36.275180960119776 22.2233
36.298609981005924 22.3206
36.32222362992669 22.2467
36.34565580510207 22.1639
36.36908955323448 22.1804
36.39252487562093 22.1
36.416144880530226 22.0315
36.43958336764275 21.9684
36.463023432914625 22.1019
36.486465077645676 22.0191
36.51009145956204 21.9921
36.53353627947859 22.0264
36.55698268276811 21.9882
36.58043067073321 22.0219
36.60406345072071 21.8246
36.62751462435344 21.807
36.65096738658405 21.7735
36.67460498210655 21.7142
36.69806093788647 21.7413
36.72151848619297 21.5911
36.744977628333636 21.6388
36.76862165890998 21.5582
36.79208400512205 21.5607
36.81554794910557 21.5117
36.83901349217101 21.4697
36.862663978991606 21.4824
36.88613273667352 21.4115
36.90960309738324 21.3979
36.933075062434064 21.3726
36.95673202673572 21.3588
36.98020721697122 21.3416
37.003684015502365 21.2027
37.027162423645365 21.1468
37.050825886711465 21.1721
37.07430753063053 21.1163
37.09779078812467 21.0463
37.121275660513014 21.0703
37.144945643673694 21.0259
37.16843376245278 21.0392
37.19192350009803 20.9352
37.215414857931435 20.9534
37.239091382563885 20.8721
37.262585997426164 20.8889
37.28608223645736 20.7955
37.309763684451696 20.8031
37.33326318851098 20.7877
37.356764320726555 20.741999999999997
37.380267082425526 20.7963
37.40395510942588 20.7222
37.42746114683234 20.6517
37.45096881771841 20.5825
37.474478123414166 20.5784
37.49817275092816 20.6153
37.52168534303452 20.5517
37.54519957395567 20.4991
37.568715445024665 20.4799
37.592416694607714 20.4575
37.61593586281424 20.3878
37.63945667518264 20.4329
37.66297913304891 20.3995
37.68668702630454 20.3697
37.710212792059274 20.2646
37.733740207334854 20.2795
37.757269273470364 20.2193
37.780983832050374 20.1565
37.80451621684926 20.1103
37.82805025654007 20.1007
37.851585952464795 20.0414
37.8753071980695 19.9757
37.89884622345676 19.9848
37.92238690911902 19.9496
37.94611318753442 19.8901
37.969657210779765 19.8818
37.99320289834801 19.8403
38.016750251586465 19.8209
38.04048325513017 19.8368
38.06403395679343 19.7666
38.087586328183946 19.6899
38.11114037065203 19.7977
38.13488012115898 19.7612
38.1584375229181 19.6619
38.181996599821 19.6535
38.205557353221124 19.6594
38.229303872575656 19.6026
38.2528679961576 19.519000000000002
38.27643380031219 19.5173
38.30000128639589 19.4909
38.32375459653193 19.4549
38.34732546371299 19.4434
38.37089801690786 19.3406
38.39447225747609 19.3501
38.418232380377425 19.3694
38.441810012983396 19.2732
38.46538933705673 19.2805
38.488970353960084 19.2166
38.51273731166058 19.2058
38.536321731567014 19.1874
38.55990784840681 19.1149
38.58367995004091 19.0491
38.60726947812959 19.0297
38.63086070726198 19.0739
38.654453638806274 19.1027
38.678232613930824 18.9588
38.70182896773327 18.9142
38.72542702806741 18.9424
38.7490267963045 18.9113
38.77281266709232 18.8403
38.79641586862214 18.8283
38.8200207821842 18.701
38.843627409152944 18.8013
38.86742019782782 18.7185
38.891030269149255 18.6489
38.914642058016156 18.6985
38.938255565806124 18.6663
38.96205529464307 18.6277
38.98567225787121 18.5749
39.00929094417078 18.5363
39.03291135492255 18.5673
39.05671804624804 18.4977
39.080341923549106 18.549
39.103967529460334 18.4997
39.127594865365744 18.3502
39.15140854155791 18.437
39.17503935514948 18.3822
39.19867190290282 18.3746
39.22249083587951 18.3259
39.24612686969409 18.3211
39.269764641845306 18.3297
39.293404153722804 18.3001
39.317230110864074 18.1738
39.34087311998506 18.1605
39.36451787301696 18.1555
39.388164371352595 18.055
39.41199737518003 17.9993
39.43564738196752 18.0816
39.45929913825317 17.9502
39.48295264543308 17.9881
39.506792718520884 17.972
39.530449745387216 17.8931
39.55410852735203 17.8888
39.57776906581474 17.901
39.60161623079 17.9255
39.625280300200025 17.8211
39.64894613032202 17.7344
39.67261372255866 17.7891
39.6964680021016 17.7791
39.72013913657293 17.7539
39.74381203738292 17.6909
39.76748670593756 17.6721
39.79134812278169 17.6506
39.81502634488497 17.6019
39.83870633896685 17.5444
39.862388106436654 17.5094
39.88625668336918 17.4973
39.90994201572829 17.5508
39.933629125719285 17.5196
39.957503091207826 17.4868
39.9811937746168 17.4859
40.00488623990914 17.4327
40.02858048850006 17.3491
40.05246165409549 17.3162
40.076159487492085 17.2746
40.099859108448875 17.2421
40.123560518384345 17.2328
40.1474489070226 17.2055
40.171153913178564 17.0812
40.194860712584955 17.1394
40.2185693066637 17.1384
40.242464941335314 17.0956
40.26617714307655 17.0908
40.289891143772046 17.0338
40.3136069448471 16.9941
40.33750984859743 16.9804
40.3612292688043 16.9793
40.3849504936829 16.8991
40.40867352466194 16.9454
40.43258372059144 16.906
40.45631038219906 16.8241
40.48003885420956 16.7976
40.503769138055105 16.7182
40.52768664931955 16.7809
40.55142057531802 16.7749
40.57515631746428 16.7419
40.599079334038514 16.7512
40.62281872700477 16.6086
40.64655994043941 16.6134
40.67030297578061 16.6278
40.69423334835778 16.6039
40.71798004609188 16.5573
40.74172857006355 16.5064
40.76547892171441 16.5313
40.7894166736039 16.4705
40.813170699248566 16.448
40.83692655691388 16.3894
40.86068424804498 16.4092
40.884629402612525 16.4084
40.908390779366385 16.3583
40.932153993938 16.336
40.95591904777605 16.2495
40.979871628443995 16.3377
41.003640379561936 16.2928
41.02741097430883 16.2556
41.05118341413683 16.2338
41.075143444384416 16.1639
41.098919593177826 16.1373
41.1226975914255 16.1641
41.14647744058318 16.1287
41.170444943946755 16.033
41.19422851378379 16.0491
41.218013938914645 15.9978
41.24198706625173 15.9461
41.26577622087193 15.9573
41.289567235177785 15.8791
41.31336011063129 15.8586
41.337340752422875 15.9183
41.361137369129835 15.8365
41.38493585138705 15.8231
41.40873620066004 15.8142
41.43272438060107 15.7337
41.45652848292052 15.7437
41.48033445666918 15.6768
41.50414230331616 15.7479
41.528138045159764 15.6466
41.551949656675205 15.6079
41.575763145513235 15.6082
41.59957851314666 15.5707
41.62358184070442 15.5614
41.64740098505737 15.5522
41.6712220126409 15.4541
41.69504492493139 15.4734
41.71905586207357 15.4197
41.74288256296395 15.443
41.766711153007456 15.418
41.79054163368412 15.3713
41.814560204340054 15.3471
41.838394485526365 15.3613
41.86223066180303 15.3149
41.88625497706819 15.2058
41.910094962812 15.2461
41.93393684811168 15.2144
41.95778063445365 15.1491
41.981812625263366 15.1465
42.00566023303407 15.1286
42.029509746323676 15.1219
42.05336116662236 15.1215
42.077400857069705 15.0876
42.10125611078846 15.0682
42.12511327600405 15.0345
42.14897235421036 14.9836
42.173019768448455 15.0066
42.19688269209613 14.898
42.22074753323349 14.92
42.24461429335818 14.9424
42.268669455600495 14.8492
42.292540073217886 14.8212
42.31641261433284 14.8644
42.34028708044675 14.8245
42.36435001496739 14.7939
42.38822835065557 14.7996
42.41210861586426 14.7099
42.4359908120986 14.7269
42.46006154323262 14.694
42.48394762115317 14.657
42.507835634632315 14.6433
42.531912233047436 14.6527
42.55580413732265 14.6342
42.579697981698 14.5874
42.60359376768525 14.5327
42.62767820545945 14.4419
42.65157789440821 14.5069
42.67547952952185 14.4242
42.699383112316 14.4647
42.72347541395347 14.4142
42.74738291190531 14.3374
42.771292362102166 14.3401
42.795203766063516 14.3499
42.819303956130405 14.3332
42.843219287476536 14.2563
42.86713657716324 14.2571
42.89105582671383 14.2327
42.91516392983864 14.2033
42.939087119032166 14.218
42.963012272677304 14.1352
42.98693939230129 14.1377
43.01105543317513 14.1271
43.034986504731386 14.1131
43.05891954686589 14.1121
43.08285456110972 14.1308
43.10697856448665 14.0132
43.130917542983475 13.9996
43.15485849820081 13.9571
43.17880143167367 13.8832
43.20293342237094 13.9459
43.226880332449 13.8441
43.25082922540554 13.8892
43.27496722682525 13.8527
43.29892010567796 13.8211
43.32287497204102 13.7734
43.34683182745632 13.706
43.370977859791836 13.7516
43.39493871351105 13.743
43.41890156092628 13.6903
43.44286640358341 13.6653
43.46702049182749 13.6321
43.49098934522816 13.595999999999998
43.51496019852649 13.5836
43.5389330532723 13.5937
43.56309522248204 13.5515
43.58707210044314 13.5313
43.61105098451946 13.4842
43.63503187626491 13.4485
43.659202151562134 13.4654
43.68318707902681 13.4918
43.70717401884041 13.4125
43.731162972560874 13.4139
43.75534137913236 13.3933
43.779334381108384 13.3216
43.803329401683186 13.3445
43.82732644241872 13.3335
43.8515130055166 13.315999999999999
43.87551410707659 13.2234
43.89951723350145 13.2078
43.923709934595614 13.2176
43.94771713129917 13.1964
43.97172635758096 13.1544
43.99573761501002 13.1268
44.0199385169922 13.1262
44.04395385732619 13.0729
44.067971233533086 13.0632
44.09199064718605 13.0399
44.11619977548961 13.0406
44.14022328470671 12.9946
44.16424883610785 13.0083
44.18827643127035 12.9825
44.21249381139513 12.9329
44.236525514814076 12.9395
44.26055926674478 12.9581
44.28459506876863 12.9346
44.3088207262813 12.8417
44.33286064928722 12.8124
44.35690262714919 12.7826
44.38094666145278 12.77
44.4051806219871 12.7328
44.42922879003185 12.7353
44.45327901929361 12.6877
44.477331311362136 12.6748
44.501573600619416 12.6679
44.525630039221795 12.6319
44.54968854541895 12.6056
44.573937102200176 12.6194
44.5979997645541 12.6105
44.622064499300315 12.5451
44.64613130803592 12.5758
44.67038823869318 12.5759
44.69445921643748 12.4647
44.718532272981385 12.4896
44.742607409926194 12.4405
44.76687274034801 12.4215
44.79095205918753 12.4179
44.81503346325094 12.363
44.839116954143876 12.3344
44.86339071028742 12.3745
44.88747839599524 12.3293
44.91156817336837 12.2727
44.93566004401666 12.3082
44.959942251908146 12.2573
44.984038330325966 12.2641
45.00813650686762 12.1737
45.03223678314731 12.2721
45.05652746888232 12.224
45.08063196592069 12.1329
45.104738567558705 12.116
45.128847275414856 12.0967
45.15314646515866 12.0813
45.17725940679741 12.0488
45.20137445952892 12.034
45.22568004865265 12.0496
45.24979934496396 11.989
45.27392075725247 12.0027
45.29804428714431 11.9673
45.322358426247604 11.914000000000001
45.346486212804315 11.9246
45.370616121861914 11.9248
45.39474815505086 11.8639
45.41907087049246 11.8336
45.4432071734666 11.8252
45.46734560548283 11.8177
45.49148616817604 11.8178
45.51581748638564 11.7463
45.5399623320197 11.7236
45.56410931325473 11.6895
45.58825843173002 11.7012
45.61259837920865 11.7093
45.636751793816 11.6828
45.66090735060093 11.633
45.68506505120716 11.6292
45.7094136545275 11.6129
45.73357566449271 11.5568
45.75773982322992 11.5689
45.78190613238733 11.5713
45.806263418194064 11.4817
45.83043404997326 11.5029
45.85460683713677 11.5018
45.87897065658495 11.503
45.90314777634752 11.4514
45.92732705646868 11.4427
45.9515084986045 11.4303
45.97588104735473 11.3726
46.00006683541565 11.3628
46.02425479047904 11.359000000000002
46.04844491420549 11.3048
46.0728262191024 11.3158
46.09702070211635 11.3032
46.12121735879483 11.2587
46.14541619080294 11.2065
46.169806278764455 11.2287
46.194009483459034 11.2218
46.21821486849841 11.1967
46.24242243555223 11.1695
46.266821333570014 11.1248
46.29103328674601 11.1048
46.31524742696538 11.1035
46.33946375590237 11.0838
46.36387149104216 11.0655
46.38809221957392 11.0353
46.41231514186606 11.0373
46.436540259597464 11.0756
46.460956858999374 11.0115
46.48518638983522 10.9614
46.509418121166966 10.9597
46.533652054678114 10.9409
46.55807754555709 10.8632
46.58231590571962 10.8667
46.60655647313217 10.8607
46.630988654873654 10.8244
46.655233659129024 10.7981
46.67948087571551 10.7806
46.70373030632484 10.7529
46.72817142736393 10.7707
46.752425308428684 10.7396
46.77668140861147 10.7373
46.80093972960865 10.6854
46.82538981736788 10.6584
46.849652602470904 10.6571
46.87391761349769 10.6664
46.8981848521493 10.6413
46.9226439341274 10.5783
46.946915650573224 10.550999999999998
46.97118959976749 10.5486
46.99546578341598 10.5375
47.019933887188216 10.5517
47.04421456235744 10.5051
47.06849747711879 10.4586
47.09278263318286 10.4367
47.11725978640143 10.442
47.14154944775105 10.4171
47.165841355555656 10.4298
47.1901355115306 10.402999999999999
47.214621741924994 10.3757
47.23892041698887 10.3426
47.26322134538975 10.3226
47.28771440635075 10.3159
47.31201986422527 10.2937
47.33632758061436 10.2683
47.360637557241866 10.2587
47.38513974410611 10.2609
47.40945426407847 10.1999
47.43377104948137 10.2041
47.45809010204344 10.1665
47.48260144275502 10.1552
47.506925052572285 10.1499
47.53125093475548 10.125
47.55557909103813 10.1083
47.58009961361992 10.083
47.60443234110732 10.0285
47.62876734791564 10.0306
47.65310463578333 9.99308
47.6776343683373 10.0018
47.7019762413987 9.960339999999999
47.72632040075572 9.94541
47.75066684815169 9.93983
47.77520581885936 9.897789999999999
47.799556865477655 9.89862
47.823910205386 9.9131
47.84826584033272 9.88594
47.87281407745551 9.85993
47.89717432569297 9.821069999999999
47.92153687423484 9.840860000000001
47.94609208429692 9.824489999999999
47.97045925671401 9.77861
47.99482873471275 9.69758
48.01920052005013 9.734169999999999
48.04376504619224 9.710939999999999
48.068141469543484 9.723180000000001
48.09252020552573 9.66607
48.11690125590099 9.68212
48.1414751266064 9.70529
48.16586082917454 9.642430000000001
48.19024885144316 9.612969999999999
48.2146391951793 9.6204
48.239222439012764 9.63588
48.26361744916137 9.60496
48.28801478610016 9.59982
48.31241445160131 9.5633
48.337007097209366 9.5282
48.36141144338331 9.51113
48.38581812345755 9.472430000000001
48.41022713920929 9.47809
48.434829215320704 9.463510000000001
48.45924292604658 9.468739999999999
48.48365897780325 9.42854
48.50807737237308 9.3826
48.532688907799276 9.39955
48.55711201168574 9.367180000000001
48.581537463754074 9.362589999999999
48.60615611725119 9.393130000000001
48.63058628942721 9.33338
48.65501881516546 9.34447
48.6794536962573 9.30697
48.70408185970339 9.293660000000001
48.72852147531801 9.25202
48.75296345168211 9.214080000000001
48.77740779059232 9.23426
48.80204549302823 9.22745
48.82649458091802 9.22229
48.85094603676547 9.15555
48.87539986237231 9.11995
48.90004713292306 9.103639999999999
48.92450572200832 9.11968
48.94896668628025 9.07278
48.97343002754588 9.10613
48.99808689542115 9.05596
49.02255501470614 9.0609
49.04702551642794 9.012080000000001
49.0714984023988 9.007060000000001
49.096164896893235 8.95744
49.120642575466796 9.0114
49.145122643748394 8.997110000000001
49.16960510355558 8.9675
49.19428125404938 8.93183
49.2187685210852 8.92117
49.243258185121555 8.88194
49.26794160167084 8.870239999999999
49.2924360839405 8.85558
49.31693296869764 8.86362
49.34143225776915 8.81987
49.36612538195438 8.79317
49.39062950396021 8.79625
49.41513603578346 8.776660000000001
49.4396449792564 8.75169
49.46434784069503 8.75372
49.488861631846454 8.74622
49.513377840166804 8.726189999999999
49.537896467493745 8.67812
49.56260909589029 8.6812
49.587132585683285 8.657580000000001
49.611658500018365 8.63265
49.636186840738596 8.61876
49.66090926588511 8.61175
49.685442483902584 8.58103
49.70997813385706 8.56103
49.734516217597076 8.53829
49.75924846937352 8.53353
49.7837914452858 8.51192
49.80833686055187 8.489989999999999
49.83288471702571 8.4841
49.85762682540054 8.49342
49.882179588965734 8.47381
49.9067347993235 8.44203
49.93129245833333 8.4108
49.95604445336378 8.41775
49.98060703442832 8.40665
50.005172069746266 8.38101
50.02993150438364 8.38038
50.05450147301533 8.373330000000001
50.07907390151433 8.34147
50.10364879174981 8.2949
50.12841816587289 8.28478
50.1529980044635 8.26661
50.17758031042124 8.24142
50.20216508562089 8.28482
50.22694442953363 8.22903
50.25153416817468 8.191460000000001
50.27612638170508 8.176160000000001
50.300721072005196 8.14857
50.325510416102105 8.15956
50.350110084975064 8.15278
50.37471223628208 8.17415
50.39931687190919 8.10089
50.424116246675766 8.09271
50.44872587605249 8.05546
50.47333799543065 8.05988
50.49795260670191 8.052589999999999
50.52276204271512 8.06157
50.54738166295838 8.05374
50.57200378079314 8.058010000000001
50.596628398116835 8.012260000000001
50.62144792604559 8.001619999999999
50.646077567609396 7.984839999999999
50.670709714377715 7.9483
50.69553683636198 7.94123
50.72017401885922 7.91288
50.7448137122895 7.8994800000000005
50.76945591856022 7.9054
50.79429318636823 7.89202
50.818940443716784 7.8348
50.84359021965163 7.8421
50.868242516085964 7.81505
50.893089960641895 7.809239999999999
50.917747323549435 7.80397
50.94240721271973 7.79692
50.96706963007175 7.77186
50.99192728239342 7.7599100000000005
51.01659478166073 7.750030000000001
51.04126481489051 7.7412399999999995
51.06593738400761 7.701339999999999
51.090805275207074 7.669110000000001
51.11548294172845 7.68662
51.14016314993547 7.68693
51.164845901758845 7.66293
51.18972406304274 7.628660000000001
51.21441192780656 7.61777
51.23910234200271 7.5881300000000005
51.2637953075678 7.556760000000001
51.288683770237945 7.561260000000001
51.31338186432707 7.526389999999999
51.33808251561888 7.56146
51.362978729967345 7.52614
51.387684521509755 7.521560000000001
51.41239287610203 7.48999
51.437103795691165 7.48428
51.46201036644977 7.46311
51.486726441956634 7.41552
51.51144508832545 7.41372
51.536166307509156 7.4425300000000005
51.56108326624387 7.41783
51.58580965706056 7.36574
51.61053862657523 7.35913
51.635270176746864 7.32706
51.66019755512065 7.34664
51.68493429268881 7.33355
51.70967361681515 7.3310699999999995
51.73441552946465 7.28632
51.759353359237934 7.29558
51.7841004750961 7.286739999999999
51.80885018539685 7.268689999999999
51.833602492111254 7.24525
51.8585508051424 7.2332
51.883308330926425 7.220110000000001
51.90806845906181 7.20259
51.932831191525715 7.179460000000001
51.95779001977161 7.14646
51.98255798721516 7.156060000000001
52.00732856494335 7.1226899999999995
52.03229530577543 7.11515
52.057071130455945 7.11839
52.081849571391054 7.10209
52.106630630568695 7.08518
52.13160794279417 7.034439999999999
52.15639426492067 7.0418199999999995
52.18118321127822 7.0810699999999995
52.205974783860896 7.04505
52.23096269971011 6.9795300000000005
52.255759551287994 6.98232
52.280559035098186 6.961639999999999
52.30536115314103 6.94985
52.33035970494467 6.973610000000001
52.35516711807904 6.91798
52.37997717147198 6.8914800000000005
52.40478986713005 6.94988
52.42979908731974 6.90552
52.454617094216 6.869610000000001
52.47943774942214 6.85288
52.50426105495102 6.8502600000000005
52.529280976059844 6.80743
52.554109609024096 6.823360000000001
52.57894089837482 6.77595
52.60377484613117 6.80099
52.62880550079408 6.7542
52.65364479223379 6.747489999999999
52.67848674816189 6.766560000000001
52.70352547971946 6.75166
52.72837279155837 6.728389999999999
52.753222773982785 6.657839999999999
52.778075429022984 6.7007
52.80312495150885 6.6764600000000005
52.827982978797436 6.646039999999999
52.85284368481815 6.63745
52.87770707160767 6.60951
52.90276741793998 6.61684
52.92763619336701 6.60533
52.952507655698504 6.57914
52.977381806977576 6.5889999999999995
53.00245301017842 6.58315
53.02733256653592 6.56772
53.052214817996074 6.577380000000001
53.077099766608484 6.5243
53.102181859804446 6.47609
53.127072229988265 6.48773
53.15196530349892 6.499
53.17686108239249 6.48147
53.20195409881522 6.48488
53.22685531582556 6.44351
53.25175924441303 6.43164
53.27666588664027 6.4027
53.30176985962693 6.429819999999999
53.3266819565689 6.40827
53.35159677336455 6.3615699999999995
53.376514312083096 6.36762
53.40162927507703 6.35714
53.42655228516116 6.35041
53.45147802340193 6.2880199999999995
53.47660125628886 6.320790000000001
53.50153247842639 6.30333
53.52646643496923 6.23463
53.55140312799818 6.2278
53.576537409691696 6.230919999999999
53.60147960336152 6.21164
53.626424539786164 6.21591
53.65137222105307 6.20493
53.67651758529126 6.2175400000000005
53.70147078399681 6.15876
53.72642673383343 6.17455
53.75138543689533 6.15074
53.776541917524526 6.14694
53.801506154876755 6.1378699999999995
53.826473151763246 6.111669999999999
53.851442910284916 6.10096
53.87661054126026 6.09645
53.9015858509782 6.05561
53.92656392866066 6.09025
53.95154477641532 6.08085
53.976723591801296 6.0403199999999995
54.00171000771266 6.0375
54.02669920004598 6.05187
54.051691170915745 6.00141
54.076881204886796 5.97768
54.101878760928514 5.9882
54.12687910187696 5.9442
54.152077577768296 5.98952
54.1770835166946 5.96246
54.20209224691339 5.92046
54.22710377055121 5.89354
54.25231352511594 5.851459999999999
54.27733066384342 5.84023
54.30235060239643 5.87014
54.32737334290836 5.78364
54.35259441062629 5.7606
54.377622783395324 5.79298
54.40265396455061 5.81891
54.42768795623251 5.8025
54.45292037169559 5.7434199999999995
54.477960012857906 5.74346
54.50300247099511 5.76171
54.52804774825457 5.70406
54.55329154616743 5.642440000000001
54.57834249018678 5.64127
54.6033962597977 5.6226400000000005
54.6284528571545 5.62028
54.653708072335164 5.61394
54.67877035378786 5.56292
54.70383546947698 5.58226
54.72890342156389 5.56338
54.7541700889442 5.50507
54.77924374251975 5.53836
54.8043202390049 5.52784
54.82959552413022 5.45836
54.8546777351945 5.44189
54.87976279569621 5.39984
54.90485070780914 5.379980000000001
54.930137506558005 5.38269
54.95523115074295 5.3874
54.98032765308844 5.37287
55.005427015775496 5.3273
55.03072536339621 5.36735
55.05583047570572 5.2943
55.080938454927676 5.30593
55.10604930325027 5.28265
55.131359235107396 5.2975
55.15647585066083 5.2001
55.181595341907496 5.20479
55.20671771104285 5.17274
55.232039262617704 5.15831
55.25716741665048 5.12036
55.28229845518636 5.12021
55.30743238042802 5.04471
55.33276558731939 5.039280000000001
55.357905315183636 5.05513
55.383047936390035 5.003
55.40819345314859 4.97495
55.433538351073295 4.95026
55.458689688238415 4.96633
55.483843927614096 4.89961
55.509197623043605 4.89931
55.53435769621134 4.89156
55.55952067826466 4.8247800000000005
55.5846865714265 4.85986
55.61005202069737 4.81769
55.63522376553902 4.79287
55.66039842818645 4.75122
55.68557601087004 4.77801
55.7109532500271 4.74908
55.73613670233794 4.75745
