TT I
1.2716486653135266 7.71984
1.2939594142134223 6.87955
1.3162702121660406 6.3683
1.3385810600174564 6.25671
1.3608919586137629 6.87982
1.383202908801069 6.52262
1.405513911425503 6.6894
1.4278249673332093 6.630730000000001
1.4501343378461518 6.56089
1.4724455028545926 5.551069999999999
1.4947567236847858 5.792619999999999
1.517068001182951 5.89741
1.5393793361953272 6.30469
1.5616907295681737 5.7243699999999995
1.5840021821477681 5.56133
1.60631369478041 5.05039
1.6286252683124185 5.53627
1.6509369035901333 5.216019999999999
1.6732468618895553 5.45285
1.695558623192809 5.10478
1.7178704487808514 5.17756
1.7401823395001077 5.33903
1.7625012545597203 4.92866
1.7848028405262486 4.9752
1.8071218901122095 5.0153
1.8294236121921872 5.23302
1.8517427996910911 4.833069999999999
1.8740620574440425 4.72931
1.8963639900671978 4.69501
1.9186833908139995 4.66752
1.9409854680117449 4.5544400000000005
1.9633050151394713 5.6891300000000005
1.9856246367570705 4.88224
2.0079269371922672 4.52935
2.03024671027244 4.9892
2.0525491637446027 4.20081
2.074869091674931 4.77589
2.097171701569106 4.25128
2.1194917877373847 4.32586
2.141811954326636 4.60035
2.164114805233074 4.80225
2.186435135143035 5.4806099999999995
2.208738150935709 9.47922
2.231058647554722 16.7571
2.2533792288321184 13.550999999999998
2.275682498336085 7.611039999999999
2.298003251406138 5.64164
2.3203066942619714 5.40409
2.3426276225136022 5.39393
2.3649486396617507 5.7221
2.387252348930071 6.01849
2.4095735463442893 5.65883
2.4318774374315884 5.72041
2.4541988185014043 5.77482
2.476502894794693 6.88828
2.498824462909887 7.17546
2.521146125856138 6.225280000000001
2.5434504863470337 6.777639999999999
2.5657723414244717 7.52157
2.588076895590662 7.999410000000001
2.610398946189713 8.224160000000001
2.6327210958598384 7.791180000000001
2.6550259469304716 7.93399
2.6773482972090137 8.13475
2.6996533504259 8.46527
2.7219759047039602 7.983569999999999
2.744298562293959 7.755560000000001
2.7666039251246595 7.645639999999999
2.7889267918020164 8.00038
2.8112323652516555 8.17112
2.833555444408179 9.12669
2.8558786311183852 8.49307
2.8781845268938557 8.5264
2.9005079311721484 9.4088
2.9228140460410397 8.7332
2.9451376712799635 8.80805
2.967444008632326 9.54906
2.9897678582247247 9.897969999999999
3.0120918213106695 10.2304
3.0343984987899373 10.5942
3.0567226913198637 11.315999999999999
3.079029599759726 11.6406
3.101354025127254 11.9351
3.123678568232338 12.5211
3.145985829517914 12.9172
3.16831061055229 13.7509
3.1906181112775593 14.5284
3.212943133635653 14.7575
3.2352682779763207 15.0532
3.2575761442691227 15.5604
3.2799015350264273 15.6041
3.302209649240067 16.4491
3.3245352898092655 16.8795
3.3468436553365257 17.333
3.369169549113219 17.5768
3.3914955708171384 18.4666
3.413804319727358 18.7535
3.4361305997334863 18.9619
3.4584396084414553 19.7018
3.4807661501462652 20.2389
3.503092824025881 21.138
3.5254022288463154 21.1236
3.5477291695206588 21.4608
3.5700388426251948 22.3258
3.5923660534916446 23.651999999999997
3.6146934007816114 31.7867
3.637003482731501 56.4571
3.6593311053109985 60.9232
3.681641464033634 40.3361
3.7039693653009733 27.7492
3.726297407241705 25.4806
3.7486081875460804 25.381999999999998
3.7709365132734978 26.396
3.793247578841633 26.7015
3.8155761917550093 26.8078
3.8378875459837216 27.0842
3.8602164494827234 27.4751
3.882545499606844 27.9426
3.9048572932539183 28.7656
3.9271866390645718 28.9938
3.9494987298666713 29.6741
3.971828374764527 30.2192
3.9941581705403255 30.8253
4.016470713506008 31.1979
4.038800813471445 31.9936
4.061113662089144 32.619
4.0834440696459176 33.5242
4.105774632334751 33.5988
4.128087945865126 34.467
4.150418821249301 35.3223
4.172732448931298 36.6566
4.195063640413578 37.2628
4.2173775856475215 40.1919
4.239709096631102 57.3625
4.262040768704612 141.89
4.284355196706267 183.583
4.306687193387355 123.613
4.329001947444346 61.2801
4.35133427213731 45.485
4.373666762177566 43.808
4.395982011761091 43.5552
4.418314834921175 45.1791
4.44063041906622 49.8031
4.4629635787515625 56.0154
4.4852969080429785 56.7527
4.5076130004776225 52.3665
4.529946671403969 53.3488
4.552263106909177 54.6786
4.574597122877047 54.4531
4.596931312711224 53.9686
4.619248269273446 53.9171
4.6415828092605835 55.0615
4.663900117405352 56.0562
4.686235010953232 57.3796
4.708552674085913 58.5672
4.730887924602802 60.1705
4.753223354952695 61.7899
4.775541557023902 64.1873
4.797877349456786 66.9744
4.820195915032126 67.8813
4.842532072957498 68.5504
4.864868414979744 70.6861
4.88718753227192 73.8229
4.909524244902505 75.6665
4.931843734218147 76.5504
4.954180820867835 79.3334
4.976518095879839 82.4669
4.998838149695359 85.2539
5.021175803844231 88.7804
5.043496238205739 92.2746
5.065834274903528 96.7973
5.088172504230693 102.61
5.1104935158799565 109.115
5.132832132875765 129.30700000000002
5.155153533596801 163.3
5.1774925416746225 214.365
5.199814334878411 471.969
5.2221537374521505 1262.23
5.244493338631803 3232.06
5.266815727034316 7821.26
5.289155727832427 12273.6
5.311478517248165 8289.0
5.333818921080011 2783.01
5.356159527788849 577.284
5.3784829252032536 198.667
5.400823940070432 152.866
5.423147747031976 132.22
5.445489173474152 121.057
5.467830807066149 117.625
5.490155234831516 115.419
5.512497285125229 110.428
5.534822130975162 106.44200000000001
5.557164601388673 103.209
5.579489868738879 100.51700000000001
5.601832762690846 99.1333
5.6241758697774475 98.1754
5.646501775867269 96.9641
5.668845311622074 96.2805
5.691171647754637 95.81700000000001
5.713515615597765 94.602
5.735859800852677 94.2749
5.758186788542988 94.0054
5.780531411018185 96.4555
5.802858837297399 95.9218
5.825203900414495 95.4578
5.8475491852224 97.5934
5.869877275883075 97.2444
5.892223006467101 96.7456
5.914551544266608 97.4036
5.936897724049891 101.03200000000001
5.959244129804903 108.745
5.981573344815301 141.16899999999998
6.0039202049061 270.235
6.026249875609095 554.9490000000001
6.04859719346037 1107.17
6.070927323278297 2362.71
6.093275102315365 4426.73
6.115623113320588 5436.21
6.137953938319995 3304.14
6.160302415650845 1017.08
6.182633708324452 242.386
6.2049826554078376 114.96700000000001
6.227331838745022 93.5595
6.249663839443684 85.6211
6.27201349767565 82.2432
6.294345974611799 83.9396
6.316696111167083 88.5371
6.339046488263839 85.1925
6.361379686074702 75.926
6.383730546639482 71.4581
6.406064229255215 69.9085
6.428415576718203 70.0822
6.450749747566656 68.7639
6.47310158535871 66.5096
6.495453669698332 65.6994
6.517788579421056 64.7871
6.540141159237969 64.3621
6.562476565766648 63.4627
6.5848296444934045 63.0403
6.607182974060425 63.0085
6.6295191323281015 62.3945
6.651872965955752 63.8144
6.6742096296068985 77.5075
6.6965639707294615 101.574
6.71891856698715 101.087
6.741255995248479 77.582
6.763611104154477 63.8946
6.785949046381137 59.4953
6.808304671371482 59.0178
6.8306605557940046 59.5883
6.852999275508618 58.5647
6.875355681171544 57.6977
6.897694923437771 56.7927
6.92005185377892 56.992
6.9423916220322655 56.9138
6.964749080490181 55.8291
6.987106804399774 55.9853
7.009447368180821 55.8327
7.031805625367033 56.0111
7.054146723727803 55.7414
7.076505517631004 55.4101
7.098864581288365 55.5392
7.121206488070854 55.0314
7.143566093607822 55.1364
7.165908543567245 55.5367
7.188268694426048 55.7248
7.2106291193438095 55.3906
7.232972390625943 55.8309
7.255333366030969 62.8225
7.277677189091925 90.3039
7.300038718428332 114.85700000000001
7.322400526130865 99.8852
7.344745183422596 72.3715
7.367107550224791 58.1403
7.389452767901992 55.5311
7.411815697249891 55.0745
7.434161478756298 54.4353
7.456524974096713 54.23
7.478888753837185 54.2543
7.501235387657368 54.6633
7.523599738562711 54.6929
7.545946944825532 54.8671
7.568311870344528 55.4896
7.5906770845765665 55.5088
7.613025156078678 56.4387
7.635390950099687 57.0907
7.657739602662809 56.3709
7.680105979923558 55.9715
7.702472650212829 56.7355
7.724822180948224 56.6374
7.747189439655568 56.4308
7.769539560075357 56.6073
7.791907410653562 56.6302
7.81425812420825 56.9462
7.836626570110925 57.1596
7.858995315087906 58.1621
7.881346924933401 58.3767
7.903716270417482 58.7842
7.926068482028405 59.1667
7.948438431475253 59.7323
7.9708086843180235 60.2723
7.993161805171116 60.7648
8.015532667162402 61.3509
8.037886398416653 62.106
8.060257873014221 62.5383
8.082629655331942 63.4992
8.104984308787587 64.3917
8.127356708900503 66.9332
8.149711981398308 71.2398
8.172085002766314 72.8355
8.194458336181368 70.7036
8.216814543847752 69.382
8.23918850371002 70.0587
8.26154533906492 70.7522
8.283919928836452 72.5911
8.306277395339652 73.4902
8.328652618483376 75.1055
8.351028159736202 77.2132
8.373386579575245 79.4395
8.395762759396959 81.3091
8.418121819038275 85.4193
8.440498640894003 94.7246
8.462875785192262 107.75200000000001
8.485235811156207 135.74
8.507613602688501 196.72099999999998
8.529974277114228 293.31
8.552352719347912 438.77
8.574731488360351 718.414
8.59709314210385 1234.59
8.619472567021075 1883.59
8.64183487789147 2203.07
8.664214962183097 1726.91
8.686577933647762 929.19
8.708958680784317 367.536
8.731339760774953 159.876
8.753703729764451 110.835
8.77608547780821 100.164
8.798450116065078 96.4157
8.820832535634787 93.5522
8.843215292401656 92.5176
8.865580941199045 91.9826
8.887964374703538 91.1903
8.910330701447199 91.1309
8.932714815164482 91.5074
8.955099270424924 89.5248
8.977466620733543 87.6176
8.999851761421976 85.8643
9.022219798361645 84.7035
9.04460562795561 84.1003
9.066991803441677 84.1604
9.089360876979615 84.0972
9.111747746589993 83.9267
9.13411751544971 83.2563
9.156505082664324 82.4581
9.178875550323522 82.7875
9.20126381862328 82.993
9.223652438908596 83.5336
9.246023961427412 83.2521
9.26841328802173 82.7638
9.290785518039224 83.0854
9.313175554425882 84.2911
9.335565947154315 84.8367
9.357939245086508 85.4062
9.380330352834827 85.2472
9.40270436697103 85.2174
9.425096193225055 84.8915
9.447488380180165 85.4835
9.469863475295412 84.8858
9.492256385987508 85.4578
9.514632206018318 86.184
9.537025843935714 86.7192
9.559402392368193 87.3241
9.581796761000229 89.1739
9.604191496441521 90.6925
9.626569144158516 93.0262
9.648964615551032 94.853
9.671343000390081 96.1418
9.693739211225699 94.9347
9.716135793237463 93.5932
9.738515290448102 94.3194
9.760912617143402 95.6164
9.783292860202891 97.3569
9.805690935076182 99.0317
9.828089385495742 99.8032
9.850470754023561 101.65100000000001
9.872869957865444 106.46799999999999
9.89525208097539 115.786
9.917652041736662 124.676
9.940052382417589 132.597
9.962435644102392 159.43
9.984836746950979 208.748
10.007220771957746 274.349
10.029622640473708 381.69800000000004
10.052007432299963 574.0269999999999
10.074410069984072 864.69
10.096813093716005 1282.92
10.119199042482517 1716.16
10.141602840636468 1893.29
10.163989564971628 1521.94
10.186394141051062 844.55
10.208799107559706 368.467
10.231187001965623 178.53799999999998
10.253592751657669 124.887
10.275981430388155 113.40799999999999
10.298387966769793 111.47399999999999
10.320794897965431 111.755
10.343184759907361 110.344
10.36559248305461 107.31200000000001
10.387983138083852 106.633
10.410391656691655 114.28
10.432800574501677 127.486
10.455192425893369 144.394
10.47760214443012 171.75
10.499994797678786 218.328
10.522405320453982 300.303
10.54479877906917 413.522
10.567210109595656 522.0419999999999
10.5896218454736 567.033
10.612016518879773 493.11699999999996
10.634429067781074 329.13
10.656824555333241 191.69
10.679237920773568 119.789
10.701651695961992 95.8781
10.724048411481384 89.5714
10.746463008485165 86.7281
10.768860546937125 85.369
10.791275969274796 83.6072
10.81369180576079 82.6677
10.836090585366925 81.5145
10.858507252467449 80.3048
10.88090686379991 79.305
10.903324365036394 78.954
10.925724811614439 78.4206
10.948143150509463 79.3262
10.970561909719066 78.6047
10.992963615930844 77.1028
11.015383218085756 75.1529
11.037785768347074 73.8941
11.06020621697282 73.2282
11.082627090322113 72.4574
11.105030913430326 71.8157
11.12745263854165 72.1084
11.149857314510728 73.7393
11.172279894912576 76.9075
11.194702904450653 76.563
11.217108866490921 74.0338
11.239532736615194 71.5657
11.26193956033512 70.6568
11.284364294577085 69.4602
11.306789462371718 68.1673
11.329197585398376 67.4208
11.351623622610898 67.3949
11.37403261614354 66.4919
11.396459526308487 66.4567
11.418869393879497 65.7675
11.441297180532617 65.457
11.463725406927658 65.1653
11.486136592353875 64.8187
11.508565700543707 65.3885
11.530977768845315 66.3782
11.553407762368774 66.3211
11.575838200059769 65.964
11.598251599479612 64.875
11.620682927815501 64.0704
11.64309721895548 64.0035
11.665529441478206 63.7201
11.687962112597958 63.1992
11.710377748130886 63.2174
11.732811318753434 63.3789
11.755227854859067 63.3399
11.777662328529495 63.2417
11.800079768750786 63.1262
11.822515149015453 63.015
11.844950984084935 63.3257
11.867369787303163 62.9698
11.889806534289491 62.9162
11.912226250487029 63.1275
11.934663912939751 63.258
11.9571020346363 63.59
11.979523127133968 63.7342
12.001962169624331 65.0814
12.024384183972964 67.1524
12.046824150809913 70.7914
12.069264581333726 75.4665
12.091687985297767 82.1074
12.11412934550045 91.3316
12.136553680195208 106.78299999999999
12.158995973632788 130.44799999999998
12.181438735204349 156.65
12.20386447284199 184.429
12.226308172985636 201.43599999999998
12.24873485024193 195.229
12.271179492516982 160.335
12.293607112949127 119.272
12.316052700916226 89.1527
12.338498763250042 74.3769
12.360927805303868 67.9384
12.383374818673879 65.7541
12.405804812803074 64.8239
12.428252780773262 64.5451
12.45070122756722 64.5053
12.473132656675375 64.612
12.49558206341869 64.9501
12.518014453510101 65.1233
12.540464823770117 65.1197
12.562915677315177 65.1576
12.58534951575545 65.5106
12.607801338171472 66.6324
12.630236146511358 69.4752
12.652688941369085 71.9963
12.675124723177234 72.7604
12.697578494048786 71.1199
12.720032754458185 68.6482
12.742470003354093 67.9917
12.764925245138771 68.2288
12.787363476431278 68.645
12.809819703166806 68.9497
12.83227642391173 69.758
12.854716135692716 70.0259
12.877173846755147 71.3858
12.899614549869717 71.5058
12.9220732548287 72.9311
12.94453245827299 73.5067
12.966974655289818 74.2566
12.989434858002571 75.1292
13.011878055298721 76.2067
13.034339260862497 77.0338
13.056800969391883 78.3775
13.079245674017244 81.1723
13.101708390774869 85.4045
13.12415410463411 95.1418
13.146617833206086 106.431
13.169064559883248 117.60799999999999
13.191529303857127 133.495
13.213994557076367 158.418
13.236442809902437 198.11900000000003
13.258909083908291 252.17
13.28135835851934 310.56
13.30382565690295 373.82300000000004
13.326293469022952 423.721
13.348744283242008 421.36
13.371213125129904 341.87
13.39366497011003 248.547
13.416134845360597 164.74400000000003
13.438605238843131 121.685
13.46105863690397 109.084
13.483530069144786 110.837
13.505984506951902 116.36200000000001
13.528456981549432 126.792
13.550929978879088 143.006
13.573385983253365 168.41099999999997
13.595860028340867 207.688
13.618317081455832 256.965
13.64079217790333 309.487
13.663250283359057 351.86699999999996
13.685726434770173 365.721
13.708203115221277 331.661
13.730662806148091 251.055
13.75314054697177 179.988
13.775601299246777 125.12700000000001
13.798080104050406 96.5981
13.820559442405358 85.3072
13.843021793671388 82.0838
13.865502201420897 80.9047
13.887965623051947 80.3516
13.910447103807167 79.119
13.932929122629764 77.6513
13.955394156785959 77.4708
13.977877254034569 76.4554
14.000343367582113 75.2143
14.022827546871707 74.9607
14.045294743423524 74.3793
14.06778000837062 73.5387
14.090265817715476 73.4712
14.112734645763819 73.0117
14.13522154619454 72.6689
14.157691466286913 72.7966
14.180179461423874 72.3719
14.202668005486178 71.9529
14.22513957064374 71.4698
14.247629214846473 70.8363
14.270101881097517 70.6218
14.29259262906496 71.1085
14.315083930490205 71.1302
14.337558255389705 71.0023
14.360050666019726 70.8821
14.382526101071944 70.2994
14.405019624534942 69.9883
14.427513705993134 69.4708
14.449990813291825 69.5456
14.47248601302899 69.2579
14.49496423954951 69.3347
14.517460561197822 69.3494
14.539939910570322 69.2704
14.562437357763558 69.6665
14.58493536931253 70.4968
14.607416409993311 70.9
14.62991555254159 71.3271
14.652397725157423 71.4414
14.674898002342799 71.1624
14.697398848433282 71.3414
14.719882725991326 72.4456
14.74238471217934 74.8766
14.764869730765593 79.0133
14.787372860692983 82.3255
14.809876564079925 86.7294
14.83236330125751 92.7813
14.854868153850365 102.016
14.877356041159485 116.57600000000001
14.899862046604186 135.504
14.922351087688757 158.901
14.944858249632887 186.141
14.967365991421232 211.113
14.989856770231246 223.275
15.012365673994204 216.313
15.03485761569738 184.861
15.05736768508665 144.833
15.07987833888692 110.98100000000001
15.102372032001655 88.7767
15.124883856909658 76.6233
15.14737872204565 72.7389
15.169891721717274 71.0714
15.192405310371893 70.7691
15.214901940621196 70.8163
15.237416709527137 70.5397
15.259914520936249 70.5401
15.282430473753607 69.3898
15.304947020131227 68.7064
15.327446610371178 68.0646
15.349964346154254 67.5837
15.372465126703139 67.32300000000001
15.394984055556009 67.0639
15.417486030076159 66.9581
15.44000615566487 66.6295
15.462526881230803 66.3824
15.485030653812652 66.5792
15.507552581617434 66.4207
15.530057557334603 66.5972
15.55258069104857 66.5973
15.575104429329837 66.6905
15.597611216864632 66.5874
15.620136166564563 67.1307
15.6426441664095 69.2031
15.665170331202765 71.9808
15.687697105158826 75.0019
15.710206930593545 78.4956
15.732734925158933 82.7226
15.755245972089478 89.6092
15.77777519094324 99.3614
15.800287463046663 112.977
15.822817909869592 131.369
15.84534897229804 150.9
15.867863089299354 172.87
15.890395385222186 189.5
15.912910736597423 193.396
15.935444269699861 179.39700000000002
15.957978423016485 149.371
15.980495633101265 118.664
16.003031029129367 93.1391
16.02554948280019 75.1786
16.048086125229432 67.2775
16.070623392487107 64.7053
16.09314371869582 63.8641
16.11568223789321 62.7799
16.13820381691126 62.168
16.160743591742527 61.5693
16.183283996022084 60.6884
16.205807461423195 59.6925
16.228349126881973 59.2712
16.25087385432698 59.3023
16.27341678466365 58.5687
16.29594277784926 58.5211
16.31848697676433 58.4771
16.341031811604868 58.2782
16.36355971058487 58.6397
16.3861058195587 58.3543
16.40863499352978 57.4988
16.431182380342005 56.8859
16.453730407713202 56.461999999999996
16.476261501364792 56.0661
16.498810812136167 55.7258
16.52134319004079 55.7996
16.54389378792203 55.8874
16.566445031001553 55.7656
16.588979342490088 55.5469
16.61153187824822 55.3342
16.634067483263312 55.2411
16.656621315414416 55.2044
16.679175797408888 54.8693
16.701713349928728 54.8586
16.72426913389191 55.3003
16.74680798922351 55.1456
16.76936507887444 55.1513
16.791905240734874 55.1705
16.814463639794468 54.9738
16.837022695210294 55.32
16.859564824093756 55.4033
16.882125194503903 55.8582
16.904668639217885 56.2896
16.927230328348003 56.1866
16.949792678493612 56.5001
16.972338104193863 56.1978
16.994901778652235 55.8873
17.017448529496576 56.1138
17.040013531998152 56.6731
17.06257920018044 57.1048
17.0851279459922 58.0643
17.107694947817667 58.836000000000006
17.130245028099072 59.705
17.15281336730298 60.9094
17.17536478578733 62.6802
17.19793446610687 64.9472
17.220504818648422 68.0308
17.243058251703697 71.2877
17.265629950971032 75.3149
17.288184731571736 79.3302
17.310757781306908 82.6669
17.33333150794385 83.7596
17.355888317140174 81.7403
17.37846339986244 77.197
17.401021565958885 70.6278
17.42359800851343 65.6114
17.44617513265564 62.0558
17.468735341390783 60.5443
17.491261035594565 59.7604
17.51396340099364 59.5551
17.536490463869136 59.6343
17.559018209820174 59.6836
17.58154663977963 59.876000000000005
17.604251766089718 59.8636
17.626781572227713 60.185
17.64931206518155 60.3428
17.671843245885103 60.6923
17.69455114821572 60.9227
17.717083712612634 61.0837
17.739616967569667 61.549
17.762150914021706 61.8655
17.78486160749854 62.0379
17.807396945166804 62.9159
17.829932977143503 64.2887
17.85246970436452 66.2377
17.875183204129467 68.1442
17.897721330097664 69.9484
17.920260154126645 72.4877
17.942799677153296 75.7063
17.9655159983646 79.7209
17.988056927677544 85.4386
18.010598558807683 93.4381
18.033140892692916 103.01700000000001
18.05586005052525 113.228
18.07840379824407 123.959
18.10094825154059 134.88299999999998
18.12366954819864 141.535
18.146215420998306 141.174
18.16876200220057 132.22299999999998
18.191309292745153 117.054
18.214033452627167 102.85700000000001
18.236582170236648 91.8177
18.259131600016456 87.3571
18.281681742907335 87.8757
18.304408781233683 92.1456
18.32696035875955 97.0835
18.349512652227624 101.31
18.372065662579683 105.35700000000001
18.394795594587553 105.958
18.41735004715306 101.946
18.43990521943684 94.9105
18.46246111238171 86.12700000000001
18.485193953325208 76.3721
18.507751296070428 69.5049
18.530309362314178 65.7381
18.552868153000343 63.6835
18.57560391815056 62.6187
18.59816416623245 62.1851
18.620725141597372 61.8356
18.643286845190268 61.1894
18.666025549835414 60.6501
18.688588718427933 60.2417
18.711152618092243 59.9914
18.73389353884365 59.824
18.75645890921984 59.3459
18.77902501351406 59.1039
18.801591852673102 59.0108
18.824335739722738 58.629
18.846904057212626 58.6253
18.8694731124168 58.2374
18.89204290628315 58.2571
18.914789774966803 57.7575
18.937361054791623 57.6648
18.959933076131318 57.5506
18.982505839934877 57.4912
19.00525570560582 57.4132
19.027829963004184 57.2327
19.05040496572238 57.2384
19.072980714710468 57.6013
19.095733592739563 57.7887
19.11831084296757 58.0332
19.140888842324735 58.3976
19.16346759176222 58.7098
19.18622349753803 59.1746
19.208803755869358 60.1028
19.231384767143577 61.5459
19.253966532312948 63.1287
19.276725481241822 65.133
19.29930876296784 67.4775
19.3218928014549 70.22
19.34465404436217 72.9547
19.36723960516257 75.1723
19.389825925592426 76.0006
19.412413006605938 75.1939
19.43517731967805 71.9744
19.457765930683355 67.2734
19.48035530514408 62.8012
19.50294544401556 59.0953
19.525712842708348 56.8491
19.54830451925909 55.4157
19.570896963095727 54.5025
19.593490175174704 54.2021
19.616260674962184 54.301
19.638855432416964 53.9607
19.661450960992624 54.0568
19.68404726164677 53.8745
19.706820878021247 53.8122
19.729418731756834 54.1271
19.752017360452857 53.74
19.77461676506804 53.927
19.797393513540218 54.1813
19.819994478951667 54.4981
19.84259622316767 55.0079
19.8651987471481 55.2903
19.887978643247177 55.6195
19.91058273574792 56.0654
19.933187610901943 56.9053
19.955969879466828 58.1324
19.97857632894404 59.6982
20.00118356396599 61.5877
20.023791585494575 63.6378
20.046577028914875 66.1095
20.069186632506966 68.2
20.091797025500632 69.6716
20.114408208858933 70.1971
20.137196842715273 69.7499
20.159809615886765 68.208
20.18242318232135 65.8965
20.20503754298326 63.8977
20.227829382875154 62.6868
20.250445341109344 62.5702
20.27306209647285 63.1359
20.29567964993108 64.0551
20.31847471147704 65.2376
20.34109387027612 65.7489
20.363713830075454 65.3858
20.386334591841646 64.1847
20.409132890679302 61.4224
20.431755265564437 57.9997
20.454378445325528 55.4237
20.477002430930366 53.6813
20.499803982716553 52.4839
20.522429589228004 51.6796
20.54505600449589 51.2572
20.567683229489194 51.2133
20.590488049900088 50.9504
20.61311690359731 50.376999999999995
20.63574656993626 50.4438
20.658553853717297 49.9969
20.681185154618298 49.9327
20.703817271080066 49.8255
20.72645020407368 49.4338
20.749260783967177 49.3315
20.771895359337133 49.3998
20.794530754161617 49.3367
20.817166969412938 49.1653
20.83998086114876 49.2731
20.86261872660049 48.9928
20.885257415405402 49.1771
20.90789692853701 49.0323
20.930714147864748 48.8432
20.953355319030678 49.0224
20.97599731745334 49.1318
20.99864014410749 48.9663
21.021460706796564 49.1136
21.044105199328826 49.2931
21.06675052302631 49.3744
21.089396678865015 49.7035
21.112220600704806 49.9946
21.134868430275347 50.4123
21.15751709492456 50.5254
21.180166595629693 50.8171
21.202993892429635 51.2101
21.22564507473034 51.5534
21.24829709602816 51.8487
21.27112693608965 51.6346
21.293780644891275 51.7543
21.316435195634053 50.9294
21.339090589297417 50.3815
21.361923832041875 49.8941
21.384580921090404 49.1837
21.407238856007325 48.7217
21.429897637773326 48.9759
21.45273429906592 48.7623
21.475394784108598 48.7811
21.498056118951983 48.7429
21.520718304578022 49.1824
21.543558400304388 49.1761
21.566222297108816 49.4837
21.58888704765135 49.6627
21.61155265291521 49.9468
21.63439619898156 50.2829
21.657063523335786 50.568999999999996
21.67973170537063 51.0467
21.7024007460706 51.5076
21.72524775840385 52.2753
21.747918526116475 53.4149
21.770590155457388 54.831
21.79326264741238 56.2737
21.816113141960237 58.1073
21.838787368860547 59.8253
21.861462461341976 61.6165
21.884315579735777 63.3786
21.90699241312273 64.5368
21.92967011506078 65.2403
21.95234868653799 64.7908
21.9752053151131 63.2763
21.997885635446785 61.2978
22.020566828293532 59.5922
22.04324889464272 57.9008
22.066109049404666 56.7348
22.088792872571794 56.313
22.111477572219204 56.2898
22.1341631493376 56.5431
22.157026846313123 56.1779
22.179714188221507 55.5187
22.202402410582668 54.5522
22.22509151438863 52.9339
22.24795876962584 51.7088
22.270649646204486 50.7167
22.293341407213727 50.0779
22.316034053646906 49.6456
22.338904883215342 49.2703
22.36159931041458 49.2789
22.38429462602756 49.2689
22.40699083104897 49.0563
22.429865251039757 49.1141
22.452563244831367 49.0934
22.47526213102522 49.0802
22.49813925616515 49.0724
22.520839937143307 48.7362
22.543541513520587 49.0125
22.56624398629403 48.8569
22.589124730075895 48.8646
22.611829005656723 49.0217
22.63453418063466 49.166000000000004
22.657240256008077 49.3997
22.680124634582935 49.4738
22.70283252079775 49.7146
22.725541310413075 50.093999999999994
22.74825100442868 50.2167
22.771139033969575 50.6528
22.79385054687155 50.9933
22.81656296718292 51.7554
22.83927629590484 52.8056
22.862167992606945 53.6477
22.88488314827121 54.5982
22.907599215359284 55.6388
22.93031619487366 56.5562
22.953211574954405 57.3954
22.975930389478226 58.1942
22.998650119445763 58.2487
23.02137076586092 57.3493
23.044269845560063 56.2332
23.06699233506288 54.2949
23.089715744034912 52.6622
23.112617610931565 51.2397
23.135342869061212 50.1335
23.158069049684816 49.4302
23.1807961538087 49.3502
23.20370174880544 49.3196
23.226430710184808 49.1659
23.249160598093425 49.2464
23.271891413539002 49.4425
23.294800752937697 49.3506
23.31753343374794 49.4755
23.340267045128353 49.5308
23.36300158808808 50.0335
23.38591468821339 50.3683
23.408651104658304 50.917
23.431388455719986 51.5128
23.454126742409 52.1987
23.4770436196085 53.3639
23.499783787914662 54.6276
23.522524894889884 55.2813
23.54526694154616 56.2428
23.56818761219047 57.2636
23.59093154860734 57.6195
23.613676427751283 58.0388
23.636422250635754 57.0936
23.659346731118656 55.536
23.68209445191868 53.6025
23.704843119509587 51.4776
23.72759273490623 49.7377
23.750521041644767 48.4338
23.77327256312355 47.3307
23.796025035462787 46.8182
23.818956224555475 46.4812
23.841710609113413 46.367
23.86446594758979 46.1093
23.887222241002014 45.805
23.910157285144578 45.5263
23.932915498962537 45.675
23.955674670778713 45.3537
23.978434801611975 45.1522
24.001373717286125 45.0209
24.024135776723917 44.917
24.046898798245582 44.9517
24.06966278287146 44.86600000000001
24.092605586582614 44.5886
24.115371508023642 44.4914
24.1381383956401 44.2558
24.16090625045381 44.2437
24.183852958731244 44.1803
24.206622758582608 43.8901
24.229393528706886 43.8007
24.252165270127392 44.0864
24.27511589952438 44.0712
24.297889594216997 43.5933
24.32066426328598 43.6309
24.34343990775613 43.589
24.36639447485003 43.5245
24.38917208083877 43.4554
24.41195066531332 43.2529
24.43490819850244 43.4408
24.457688750692377 43.2963
24.48047028445616 43.2366
24.503252800821233 43.3959
24.526214300784112 43.4171
24.548998793132213 43.4395
24.57178427117417 43.2169
24.59457073593893 43.2648
24.617536219319863 43.2709
24.64032466834748 43.1586
24.663114107195035 43.0529
24.685904536893013 42.7979
24.708874020360852 42.8081
24.731666442613744 42.6839
24.754459858818787 42.722
24.777254270007962 42.6948
24.80022777025625 42.5419
24.82302418230472 42.4981
24.845821592443674 42.5995
24.86862000170663 42.568999999999996
24.891597535453727 42.4326
24.914397953892728 42.6953
24.93719937456671 42.543
24.96000179851076 42.7389
24.98298338249997 42.9592
25.00578782394922 43.2829
25.028593271784167 43.2725
25.05157790644186 43.6477
25.07438537804115 43.7683
25.097193859145293 43.9513
25.120003350792075 44.1353
25.142992065061257 44.4827
25.165803588823465 44.7458
25.18861612625217 44.9583
25.211429678386736 44.993
25.234422489079968 45.0597
25.257238081693636 45.1252
25.280054692141732 45.214
25.3028723214652 45.0733
25.325869245420463 45.1332
25.348688923599397 45.1323
25.371509623787006 45.0147
25.394331347025812 44.8328
25.41733240110666 44.2477
25.440156181590016 43.5028
25.46298098826268 43.0471
25.48580682216873 42.537
25.50881202326435 42.0046
25.53163992281684 41.6673
25.55446885274561 41.38399999999999
25.577298814096377 41.1761
25.600308179121807 41.2129
25.623140214533745 41.177
25.64597328451537 41.1395
25.66898578564376 40.9167
25.691820936010206 40.9055
25.714657124097695 40.73
25.737494350954734 40.7944
25.760511045684957 40.8129
25.783350361364224 40.8753
25.806190718969255 40.782
25.82903211955018 40.8471
25.852053024868923 40.9058
25.874896522722523 41.0372
25.897741066713106 40.9172
25.920586657892454 40.9998
25.943611790812668 41.1864
25.966459487728237 41.2665
25.989308234998564 41.3478
26.01215803367705 41.773
26.03518741123814 41.8863
26.05803932412957 41.7772
26.080892291600094 41.8978
26.10374631470478 41.8887
26.12677995397268 41.9909
26.14963609978026 41.9763
26.172493304397875 41.5886
26.19535156888223 41.5147
26.218389486949604 41.0643
26.241249882640123 40.8038
26.26411134137826 40.6043
26.28715248187403 40.5355
26.31001607820869 40.4032
26.3328807407756 40.2292
26.35574647063438 40.4638
26.37879191991473 40.4561
26.401659795896734 40.4925
26.424528742360263 40.6001
26.447398760366614 40.7715
26.470448535598294 40.9677
26.49332070826805 41.2737
26.516193955675355 41.5593
26.53906827888316 41.6162
26.562122397260108 41.6644
26.584998883685063 41.9777
26.607876449110325 42.2058
26.63075509460056 42.3641
26.65381357334404 42.4837
26.67669439061878 42.448
26.699576291163382 42.3046
26.722459276044212 42.225
26.745522132402975 41.9097
26.768407297649354 41.7647
26.791293550442003 41.4447
26.814180891848974 41.1252
26.837248143099337 40.7276
26.860137673466657 40.6444
26.88302829566349 40.3807
26.90592001075963 40.4145
26.92899167420566 40.1794
26.951885586870763 39.8241
26.974780595655517 39.5296
26.99785558178161 39.336
27.020752794605112 39.2718
27.043651106772522 39.2524
27.06655051935668 39.1016
27.089629948036183 39.0501
27.112531573292053 38.9992
27.135434302194138 39.0895
27.158338135817015 38.7653
27.181422024430987 38.8789
27.204328079372566 38.7589
27.22723524226965 38.8277
27.250143514198573 39.0154
27.273231880156334 38.8839
27.296142382065014 38.6719
27.319053996245536 38.5018
27.341966723775965 38.7231
27.365059584515222 38.8874
27.38797455070062 38.8456
27.410890633481237 38.7194
27.433807833936918 38.8849
27.456905206923906 38.8651
27.47982465472398 38.8565
27.502745223449743 38.8869
27.525666914182825 38.816
27.548768816912457 38.8041
27.571692763693633 38.7006
27.59461783573812 38.4201
27.617723149491244 38.4664
27.640650484125285 38.4312
27.66357894728264 38.304
27.686508540048052 38.4499
27.709618414237887 38.2994
27.732550278321757 38.2862
27.755483275279115 38.2137
27.778417406196485 38.2405
27.801531858397514 38.1443
27.824468269376716 38.1516
27.847405817586786 38.0449
27.870344504116094 38.4296
27.893463551932008 38.4495
27.916404527281053 38.6726
27.93934664422563 38.6533
27.962289903855886 38.788000000000004
27.98541356491974 38.9306
28.00835912214229 38.9562
28.03130582533231 39.284
28.054253675581805 39.5431
28.077381967556104 39.4208
28.100332124185126 39.3075
28.123283431160893 39.1609
28.146235889577238 38.9947
28.169368830154156 38.7862
28.192323603752033 38.644
28.215279532083304 38.3624
28.238415973016764 38.2528
28.261374223145094 38.0487
28.284333631303806 37.7987
28.307294198589954 37.7286
28.330435319167677 37.4602
28.353398217078915 37.2054
28.376362277420153 36.9561
28.39932750129032 36.7578
28.422473319286713 36.6266
28.44544088262495 36.6751
28.468409612800283 36.5541
28.491379510913497 36.2968
28.51453004413313 36.1953
28.53750229057244 36.2212
28.56047570826344 36.2137
28.583450298308804 36.2075
28.606605564586562 35.95
28.629582511831156 36.0376
28.65256063474956 35.8435
28.675539934446338 35.8891
28.698699951647605 35.8476
28.72168161743193 35.6304
28.74466446331978 35.728
28.767648490417624 35.7179
28.790813276438353 35.7065
28.813799678527303 35.6912
28.836787265157085 35.7048
28.859955641890075 35.6489
28.882945610203045 35.6907
28.905936766392035 35.5567
28.928929111566863 35.5337
28.952102288520145 35.4966
28.975097024308607 35.3701
28.998092952423807 35.2394
29.021090073977508 35.1861
29.04426806913204 35.1192
29.067267590245258 34.9527
29.090268308143695 34.9234
29.11327022394099 34.8638
29.13645305530891 34.7253
29.159457379627167 34.6311
29.18246290519685 34.6336
29.20546963313352 34.5303
29.22865731875826 34.6167
29.25166646419296 34.5905
29.27467681535305 34.4424
29.29768837335608 34.5631
29.320880931312562 34.5779
29.34389491580634 34.5428
29.366910110507334 34.59
29.38992651653503 34.5826
29.41312396492981 34.4067
29.436142806456754 34.3804
29.45916286268059 34.3414
29.48236399319994 34.193000000000005
29.50538649169417 33.9826
29.528410208259935 33.8984
29.55143514402014 33.7145
29.574641196749695 33.5767
29.597668583816574 33.5473
29.6206971934585 33.434
29.64372702680042 33.4062
29.666938019934474 33.2808
29.689970313635285 33.2123
29.713003834422636 33.1446
29.73603858342347 33.083
29.759254535188578 33.0835
29.78229175361658 32.9771
29.80533020365064 33.1809
29.82836988641968 33.0795
29.85159081507472 33.0173
29.874632976355343 33.0402
29.89767637376955 33.0177
29.920721008448314 32.8873
29.9439469322847 32.9018
29.96699405457564 32.8988
29.9900424175358 32.8205
30.013092022298157 32.7181
30.03632295963995 32.7402
30.059375061131373 32.719
30.08242840783577 32.6961
30.105483000888153 32.789
30.128718970092244 32.7232
30.151776069006917 32.713
30.17483441768648 32.7347
30.198074175317235 32.6386
30.221135036724256 32.6184
30.24419715131772 32.5791
30.267260520236203 32.4731
30.290505341942243 32.5512
30.313571232750228 32.5008
30.336638381310948 32.4568
30.35970678876503 32.4824
30.38295669299435 32.5338
30.40602763151657 32.4223
30.429099832366074 32.388000000000005
30.452173296685572 32.2759
30.47542830191959 32.342
30.498504306502497 32.2248
30.521581577995562 32.3283
30.544660117543582 32.4393
30.56792024229725 32.4034
30.59100133132069 32.3966
30.614083691845494 32.3309
30.637167325018545 32.3057
30.660432587840603 32.4206
30.683518779717886 32.4053
30.70660624769615 32.4613
30.729694992924372 32.4761
30.75296541239743 32.4411
30.77605672557558 32.2672
30.799149319462742 32.2772
30.8224236211637 32.0892
30.845518789950724 32.0686
30.868615242910597 32.07
30.891712981195973 31.8746
30.91499247215866 31.9071
30.938092794619365 31.7639
30.96119440587579 31.7287
30.984297307082752 31.7768
31.00758200598383 31.5584
31.030687500658694 31.4975
31.053794288760695 31.3645
31.076902371446767 31.1778
31.100192296997445 31.3111
31.12330298246119 31.2817
31.14641496599209 31.1367
31.169528248749216 31.1625
31.19282341969534 31.1486
31.215939314557186 31.1253
31.239056512134788 31.1996
31.262175013589378 31.2378
31.28547544871168 31.1585
31.30859657161541 31.1145
31.331719001892175 31.1457
31.35484274070538 31.2223
31.378148458819545 31.1768
31.401274828443725 31.125999999999998
31.424402510106933 31.0367
31.447712205419993 31.1529
31.470842524931633 31.0481
31.493974159989783 31.0451
31.51710711176168 31.0062
31.54042212308802 31.0328
31.563557722100917 30.9783
31.586694641341655 30.7779
31.609832881979628 30.7519
31.63315322823208 30.6378
31.656294125521327 30.563000000000002
31.679436347728515 30.5943
31.70257989602529 30.4784
31.725905596152327 30.4455
31.74905181052835 30.3121
31.772199354521323 30.4691
31.79534822930507 30.3236
31.818679302290967 30.3417
31.84183085259981 30.3444
31.864983737233473 30.3613
31.88813795736804 30.4197
31.911474422233013 30.2428
31.934631327356435 30.3475
31.9577895715215 30.1813
31.980949155906522 30.2099
32.004291031706956 30.236
32.027453310562606 30.1608
32.05061693318573 29.9782
32.07396288236386 29.9147
32.09712920658542 29.8508
32.12029687812702 29.7959
32.14346589817093 29.7789
32.166817291729984 29.7385
32.18998902288583 29.6896
32.21316210610336 29.5763
32.23633654256711 29.5396
32.259693399663725 29.4655
32.282870556771144 29.3755
32.30604907069099 29.4095
32.329228942610065 29.3095
32.35259128243769 29.1292
32.375773884550505 29.1644
32.398957848235646 29.1446
32.422143174682176 29.0504
32.445511016471215 28.9675
32.468699082679954 28.9367
32.49188851523011 28.8997
32.51507931531304 28.851
32.538452678331 28.8396
32.56164622776311 28.7633
32.58484114831493 28.6978
32.60803744118015 28.7445
32.631416344731896 28.7361
32.654615396551876 28.6207
32.67781582427913 28.6779
32.701198898634416 28.6098
32.72440209253756 28.514
32.747606665947124 28.4646
32.77081262006088 28.2942
32.79420126883317 28.3085
32.81740999876112 28.4238
32.840620112999424 28.2457
32.86383161274818 28.1872
32.88722585534586 28.2077
32.91044014056596 28.2003
32.933655814909734 28.2594
32.95687287957963 28.2353
32.98027273544904 28.1743
33.00349259526636 28.1616
33.026713849030116 28.1157
33.04993649794511 28.0445
33.073341986570746 28.0144
33.09656744032826 27.9757
33.11979429286444 27.989
33.14302254538647 28.0036
33.166433686291185 27.9429
33.18966475336992 27.8458
33.212897224069096 27.8291
33.23613109959831 27.7808
33.259547912343415 27.7459
33.2827846121627 27.7773
33.306022720453775 27.7362
33.32926223842861 27.6225
33.352684742614166 27.6037
33.37592709463173 27.5815
33.399170859982064 27.4302
33.422597648419426 27.497
33.44584425514446 27.3691
33.46909227885668 27.2948
33.4923417207723 27.2168
33.51577423505344 27.1831
33.539026528130385 27.1411
33.56228024307245 27.1192
33.585535381098246 26.9719
33.60897364093058 26.8744
33.63223163992385 26.9089
33.6554910656699 26.9289
33.678751919389796 26.8654
33.702195944520106 26.7797
33.72545966903325 26.776999999999997
33.74872482519663 26.7085
33.771991414233746 26.642
33.79544122444841 26.6212
33.81871069412428 26.5618
33.84198160035767 26.5374
33.86525394437455 26.5654
33.88870955949969 26.505
33.911984794020626 26.5242
33.93526147001624 26.4114
33.958539588715006 26.5043
33.98200102861669 26.3687
34.0052820477047 26.281999999999996
34.02856451319451 26.2457
34.05203033759056 26.1814
34.07531571090147 26.1891
34.09860253431845 26.1784
34.121890809074316 26.1121
34.145362493118924 26.1082
34.16865368561615 26.0463
34.191946333164054 25.9366
34.21524043699793 25.8864
34.23871800066799 25.9666
34.26201503218366 25.908
34.28531352370466 25.8679
34.30861347646881 25.6953
34.33209693978188 25.6824
34.3553998301885 25.6649
34.378704185565205 25.5914
34.402010007152356 25.6242
34.42549939016683 25.5592
34.44880815937748 25.538
34.472118398533134 25.4587
34.49543010887669 25.4452
34.51892543169198 25.2964
34.54224009966052 25.3298
34.56555624255917 25.2649
34.58887386163339 25.2476
34.61237514439016 25.2332
34.6356957311114 25.1856
34.65901779775809 25.1073
34.68252356662995 25.0518
34.705848608458616 25.0675
34.72917513396849 25.0365
34.75250314440949 24.9927
34.77601490857862 24.9034
34.799345904259795 24.9038
34.82267838863559 24.9293
34.846012362958525 24.8333
34.869530142679984 24.8054
34.89286711232212 24.7875
34.91620557568269 24.7991
34.93954553401677 24.7512
34.9630693495876 24.6506
34.986412313340814 24.6448
35.00975677584668 24.6242
35.033102738362956 24.5984
35.05663261012228 24.5284
35.0799815881786 24.514
35.10333207003229 24.4405
35.12668405694369 24.5064
35.150220005273056 24.4052
35.17357501786656 24.3703
35.19693153931268 24.3818
35.220289570874385 24.4408
35.24383161619786 24.3129
35.267192683604904 24.1959
35.290555264930376 24.2822
35.314101899412165 24.2425
35.33746752422433 24.2299
35.36083466676374 24.1733
35.38420332829803 24.0899
35.407756095629054 24.1858
35.43112781085063 24.131
35.45450104888391 24.1303
35.477875810999194 24.1656
35.50143473172161 24.0785
35.52481255774625 24.0224
35.54819191167777 23.909000000000002
35.57157279478914 24.0429
35.595137889488406 23.9489
35.61852184675279 23.9302
35.641907337029984 23.8367
35.665294361595684 23.7574
35.68886565090076 23.728
35.7122557598848 23.6565
35.73564740699838 23.6359
35.759040593519934 23.5845
35.78261809810353 23.5781
35.80601437933051 23.5035
35.829412203814705 23.4653
35.85281157283719 23.3739
35.876395313415884 23.398000000000003
35.8997977874528 23.3625
35.92320180988546 23.3551
35.946790244133936 23.2325
35.97019737933222 23.2833
35.993606066789866 23.229
36.01701630779276 23.2818
36.04061101440684 23.1319
36.06402437852291 23.1852
36.08743930005611 23.1115
36.1108557802951 23.0408
36.13445678011326 23.0376
36.15787639383515 23.0224
36.18129757014299 22.932
36.20472031032821 22.9287
36.22832762423364 22.92
36.25175350829375 22.8796
36.275180960119776 22.7668
36.298609981005924 22.8094
36.32222362992669 22.7545
36.34565580510207 22.7257
36.36908955323448 22.6873
36.39252487562093 22.5788
36.416144880530226 22.6409
36.43958336764275 22.5923
36.463023432914625 22.6506
36.486465077645676 22.5347
36.51009145956204 22.5173
36.53353627947859 22.4534
36.55698268276811 22.5043
36.58043067073321 22.4708
36.60406345072071 22.3598
36.62751462435344 22.3419
36.65096738658405 22.3319
36.67460498210655 22.2341
36.69806093788647 22.1868
36.72151848619297 22.0718
36.744977628333636 22.2052
36.76862165890998 22.0649
36.79208400512205 22.0754
36.81554794910557 22.1155
36.83901349217101 22.0256
36.862663978991606 21.9505
36.88613273667352 21.9254
36.90960309738324 21.9896
36.933075062434064 21.9124
36.95673202673572 21.8559
36.98020721697122 21.8563
37.003684015502365 21.6913
37.027162423645365 21.7208
37.050825886711465 21.704
37.07430753063053 21.6681
37.09779078812467 21.63
37.121275660513014 21.6551
37.144945643673694 21.4943
37.16843376245278 21.5813
37.19192350009803 21.5253
37.215414857931435 21.46
37.239091382563885 21.3838
37.262585997426164 21.375999999999998
37.28608223645736 21.4532
37.309763684451696 21.2972
37.33326318851098 21.247
37.356764320726555 21.3346
37.380267082425526 21.2534
37.40395510942588 21.2191
37.42746114683234 21.1068
37.45096881771841 21.1233
37.474478123414166 21.2021
37.49817275092816 21.089000000000002
37.52168534303452 21.103
37.54519957395567 21.0624
37.568715445024665 20.9958
37.592416694607714 20.8939
37.61593586281424 20.9096
37.63945667518264 20.9622
37.66297913304891 20.9258
37.68668702630454 20.8637
37.710212792059274 20.8047
37.733740207334854 20.7767
37.757269273470364 20.7613
37.780983832050374 20.6719
37.80451621684926 20.7384
37.82805025654007 20.6358
37.851585952464795 20.5815
37.8753071980695 20.5025
37.89884622345676 20.4661
37.92238690911902 20.4532
37.94611318753442 20.4561
37.969657210779765 20.3601
37.99320289834801 20.407
38.016750251586465 20.331
38.04048325513017 20.2508
38.06403395679343 20.2653
38.087586328183946 20.1621
38.11114037065203 20.2478
38.13488012115898 20.2385
38.1584375229181 20.1203
38.181996599821 20.156
38.205557353221124 20.1081
38.229303872575656 20.0708
38.2528679961576 20.0373
38.27643380031219 19.9837
38.30000128639589 19.9691
38.32375459653193 19.9728
38.34732546371299 19.9225
38.37089801690786 19.8465
38.39447225747609 19.8694
38.418232380377425 19.7931
38.441810012983396 19.7636
38.46538933705673 19.774
38.488970353960084 19.7466
38.51273731166058 19.6088
38.536321731567014 19.5964
38.55990784840681 19.6111
38.58367995004091 19.5612
38.60726947812959 19.5449
38.63086070726198 19.5252
38.654453638806274 19.4972
38.678232613930824 19.4158
38.70182896773327 19.3801
38.72542702806741 19.4151
38.7490267963045 19.3808
38.77281266709232 19.33
38.79641586862214 19.3026
38.8200207821842 19.1985
38.843627409152944 19.2901
38.86742019782782 19.2308
38.891030269149255 19.2018
38.914642058016156 19.1573
38.938255565806124 19.1655
38.96205529464307 19.1564
38.98567225787121 19.0999
39.00929094417078 19.0619
39.03291135492255 19.0328
39.05671804624804 18.9256
39.080341923549106 18.9746
39.103967529460334 18.9449
39.127594865365744 18.8741
39.15140854155791 18.8648
39.17503935514948 18.8571
39.19867190290282 18.7874
39.22249083587951 18.801
39.24612686969409 18.7241
39.269764641845306 18.7109
39.293404153722804 18.6744
39.317230110864074 18.6131
39.34087311998506 18.5303
39.36451787301696 18.5846
39.388164371352595 18.4796
39.41199737518003 18.4767
39.43564738196752 18.4273
39.45929913825317 18.4509
39.48295264543308 18.5034
39.506792718520884 18.3842
39.530449745387216 18.3327
39.55410852735203 18.329
39.57776906581474 18.3238
39.60161623079 18.2828
39.625280300200025 18.3079
39.64894613032202 18.2068
39.67261372255866 18.239
39.6964680021016 18.1823
39.72013913657293 18.1506
39.74381203738292 18.1513
39.76748670593756 18.1199
39.79134812278169 18.0846
39.81502634488497 18.045
39.83870633896685 18.0269
39.862388106436654 17.9493
39.88625668336918 17.9682
39.90994201572829 17.9465
39.933629125719285 17.8587
39.957503091207826 17.8691
39.9811937746168 17.873
40.00488623990914 17.802
40.02858048850006 17.8188
40.05246165409549 17.7699
40.076159487492085 17.7237
40.099859108448875 17.6923
40.123560518384345 17.6427
40.1474489070226 17.6039
40.171153913178564 17.5998
40.194860712584955 17.5465
40.2185693066637 17.5674
40.242464941335314 17.5008
40.26617714307655 17.4359
40.289891143772046 17.4357
40.3136069448471 17.3884
40.33750984859743 17.4245
40.3612292688043 17.4289
40.3849504936829 17.3749
40.40867352466194 17.3609
40.43258372059144 17.3274
40.45631038219906 17.2766
40.48003885420956 17.1971
40.503769138055105 17.2495
40.52768664931955 17.2127
40.55142057531802 17.2032
40.57515631746428 17.201
40.599079334038514 17.1099
40.62281872700477 17.0384
40.64655994043941 17.0085
40.67030297578061 16.9805
40.69423334835778 16.9409
40.71798004609188 16.9656
40.74172857006355 16.9421
40.76547892171441 16.8956
40.7894166736039 16.9237
40.813170699248566 16.8451
40.83692655691388 16.8101
40.86068424804498 16.8634
40.884629402612525 16.7968
40.908390779366385 16.7322
40.932153993938 16.691
40.95591904777605 16.701
40.979871628443995 16.734
41.003640379561936 16.7047
41.02741097430883 16.6307
41.05118341413683 16.6116
41.075143444384416 16.5605
41.098919593177826 16.581
41.1226975914255 16.5315
41.14647744058318 16.4732
41.170444943946755 16.4373
41.19422851378379 16.4135
41.218013938914645 16.4439
41.24198706625173 16.363
41.26577622087193 16.277
41.289567235177785 16.2889
41.31336011063129 16.2832
41.337340752422875 16.2463
41.361137369129835 16.2493
41.38493585138705 16.2556
41.40873620066004 16.1853
41.43272438060107 16.1345
41.45652848292052 16.0605
41.48033445666918 16.0508
41.50414230331616 16.0487
41.528138045159764 16.0768
41.551949656675205 16.0007
41.575763145513235 16.0259
41.59957851314666 16.0228
41.62358184070442 15.9615
41.64740098505737 15.9013
41.6712220126409 15.8454
41.69504492493139 15.8458
41.71905586207357 15.822000000000001
41.74288256296395 15.8578
41.766711153007456 15.8282
41.79054163368412 15.7866
41.814560204340054 15.7618
41.838394485526365 15.7295
41.86223066180303 15.6406
41.88625497706819 15.6309
41.910094962812 15.5981
41.93393684811168 15.5555
41.95778063445365 15.5622
41.981812625263366 15.5382
42.00566023303407 15.4836
42.029509746323676 15.4675
42.05336116662236 15.4558
42.077400857069705 15.4694
42.10125611078846 15.4561
42.12511327600405 15.3837
42.14897235421036 15.3424
42.173019768448455 15.3655
42.19688269209613 15.3319
42.22074753323349 15.2815
42.24461429335818 15.2574
42.268669455600495 15.2624
42.292540073217886 15.2014
42.31641261433284 15.1697
42.34028708044675 15.16
42.36435001496739 15.1602
42.38822835065557 15.1144
42.41210861586426 15.0388
42.4359908120986 15.0783
42.46006154323262 15.0041
42.48394762115317 14.9463
42.507835634632315 14.9023
42.531912233047436 14.9928
42.55580413732265 14.9692
42.579697981698 14.8974
42.60359376768525 14.883
42.62767820545945 14.8342
42.65157789440821 14.8183
42.67547952952185 14.8024
42.699383112316 14.7871
42.72347541395347 14.7359
42.74738291190531 14.6734
42.771292362102166 14.7099
42.795203766063516 14.6864
42.819303956130405 14.6221
42.843219287476536 14.5714
42.86713657716324 14.5793
42.89105582671383 14.5404
42.91516392983864 14.4917
42.939087119032166 14.4924
42.963012272677304 14.4938
42.98693939230129 14.4812
43.01105543317513 14.4547
43.034986504731386 14.4756
43.05891954686589 14.4447
43.08285456110972 14.3518
43.10697856448665 14.3253
43.130917542983475 14.3229
43.15485849820081 14.321
43.17880143167367 14.3425
43.20293342237094 14.2723
43.226880332449 14.2485
43.25082922540554 14.2475
43.27496722682525 14.1973
43.29892010567796 14.1104
43.32287497204102 14.1382
43.34683182745632 14.0823
43.370977859791836 14.0877
43.39493871351105 14.1363
43.41890156092628 14.0696
43.44286640358341 14.0036
43.46702049182749 13.9467
43.49098934522816 13.9294
43.51496019852649 13.9332
43.5389330532723 13.9379
43.56309522248204 13.8827
43.58707210044314 13.882
43.61105098451946 13.8081
43.63503187626491 13.8082
43.659202151562134 13.7962
43.68318707902681 13.7584
43.70717401884041 13.7831
43.731162972560874 13.7198
43.75534137913236 13.6613
43.779334381108384 13.6545
43.803329401683186 13.6374
43.82732644241872 13.6345
43.8515130055166 13.6675
43.87551410707659 13.5454
43.89951723350145 13.5915
43.923709934595614 13.5443
43.94771713129917 13.5192
43.97172635758096 13.5377
43.99573761501002 13.485999999999999
44.0199385169922 13.4613
44.04395385732619 13.4623
44.067971233533086 13.4315
44.09199064718605 13.3726
44.11619977548961 13.3493
44.14022328470671 13.3192
44.16424883610785 13.3334
44.18827643127035 13.3236
44.21249381139513 13.2677
44.236525514814076 13.2301
44.26055926674478 13.1942
44.28459506876863 13.2036
44.3088207262813 13.1631
44.33286064928722 13.1689
44.35690262714919 13.1876
44.38094666145278 13.0932
44.4051806219871 13.0846
44.42922879003185 12.9975
44.45327901929361 13.0074
44.477331311362136 12.9728
44.501573600619416 12.9709
44.525630039221795 12.981
44.54968854541895 13.0035
44.573937102200176 12.9459
44.5979997645541 12.9117
44.622064499300315 12.8718
44.64613130803592 12.8406
44.67038823869318 12.8334
44.69445921643748 12.8001
44.718532272981385 12.769
44.742607409926194 12.7084
44.76687274034801 12.7107
44.79095205918753 12.6587
44.81503346325094 12.6499
44.839116954143876 12.6451
44.86339071028742 12.6029
44.88747839599524 12.6139
44.91156817336837 12.6098
44.93566004401666 12.5882
44.959942251908146 12.5861
44.984038330325966 12.5226
45.00813650686762 12.4934
45.03223678314731 12.5383
45.05652746888232 12.469000000000001
45.08063196592069 12.4416
45.104738567558705 12.3765
45.128847275414856 12.3785
45.15314646515866 12.360999999999999
45.17725940679741 12.3307
45.20137445952892 12.3233
45.22568004865265 12.325999999999999
45.24979934496396 12.3497
45.27392075725247 12.3051
45.29804428714431 12.2886
45.322358426247604 12.1876
45.346486212804315 12.2052
45.370616121861914 12.2155
45.39474815505086 12.1722
45.41907087049246 12.1342
45.4432071734666 12.0901
45.46734560548283 12.0774
45.49148616817604 12.073
45.51581748638564 12.0397
45.5399623320197 11.9621
45.56410931325473 11.9818
45.58825843173002 11.9974
45.61259837920865 11.9466
45.636751793816 11.9896
45.66090735060093 11.9413
45.68506505120716 11.8957
45.7094136545275 11.8972
45.73357566449271 11.865
45.75773982322992 11.8457
45.78190613238733 11.8168
45.806263418194064 11.8055
45.83043404997326 11.7943
45.85460683713677 11.7633
45.87897065658495 11.7447
45.90314777634752 11.7191
45.92732705646868 11.7305
45.9515084986045 11.6621
45.97588104735473 11.6517
46.00006683541565 11.6056
46.02425479047904 11.6148
46.04844491420549 11.6064
46.0728262191024 11.5935
46.09702070211635 11.5299
46.12121735879483 11.5631
46.14541619080294 11.4647
46.169806278764455 11.4995
46.194009483459034 11.4964
46.21821486849841 11.3818
46.24242243555223 11.4325
46.266821333570014 11.4164
46.29103328674601 11.3648
46.31524742696538 11.395999999999999
46.33946375590237 11.3311
46.36387149104216 11.3073
46.38809221957392 11.2974
46.41231514186606 11.3117
46.436540259597464 11.288
46.460956858999374 11.2737
46.48518638983522 11.2688
46.509418121166966 11.2072
46.533652054678114 11.1378
46.55807754555709 11.109000000000002
46.58231590571962 11.1414
46.60655647313217 11.0899
46.630988654873654 11.0837
46.655233659129024 11.0585
46.67948087571551 11.0609
46.70373030632484 11.0216
46.72817142736393 11.0241
46.752425308428684 10.958
46.77668140861147 10.9858
46.80093972960865 10.9083
46.82538981736788 10.9255
46.849652602470904 10.9073
46.87391761349769 10.9032
46.8981848521493 10.9135
46.9226439341274 10.8586
46.946915650573224 10.8321
46.97118959976749 10.8218
46.99546578341598 10.7468
47.019933887188216 10.7656
47.04421456235744 10.7468
47.06849747711879 10.7594
47.09278263318286 10.7128
47.11725978640143 10.6855
47.14154944775105 10.6737
47.165841355555656 10.6713
47.1901355115306 10.6452
47.214621741924994 10.624
47.23892041698887 10.6245
47.26322134538975 10.5474
47.28771440635075 10.5454
47.31201986422527 10.5323
47.33632758061436 10.5351
47.360637557241866 10.4846
47.38513974410611 10.4692
47.40945426407847 10.4599
47.43377104948137 10.41
47.45809010204344 10.4405
47.48260144275502 10.4367
47.506925052572285 10.3779
47.53125093475548 10.3395
47.55557909103813 10.3294
47.58009961361992 10.2964
47.60443234110732 10.2587
47.62876734791564 10.2851
47.65310463578333 10.2703
47.6776343683373 10.2528
47.7019762413987 10.1909
47.72632040075572 10.1783
47.75066684815169 10.1823
47.77520581885936 10.1173
47.799556865477655 10.0963
47.823910205386 10.1249
47.84826584033272 10.125
47.87281407745551 10.103
47.89717432569297 10.0862
47.92153687423484 10.0717
47.94609208429692 10.035
47.97045925671401 10.0342
47.99482873471275 9.95856
48.01920052005013 9.94475
48.04376504619224 9.9686
48.068141469543484 9.98888
48.09252020552573 9.97056
48.11690125590099 9.95278
48.1414751266064 9.869019999999999
48.16586082917454 9.86947
48.19024885144316 9.853810000000001
48.2146391951793 9.82502
48.239222439012764 9.85479
48.26361744916137 9.83765
48.28801478610016 9.797260000000001
48.31241445160131 9.80275
48.337007097209366 9.78942
48.36141144338331 9.74055
48.38581812345755 9.72735
48.41022713920929 9.71508
48.434829215320704 9.678410000000001
48.45924292604658 9.67815
48.48365897780325 9.6373
48.50807737237308 9.64376
48.532688907799276 9.618030000000001
48.55711201168574 9.58196
48.581537463754074 9.57877
48.60615611725119 9.55495
48.63058628942721 9.50573
48.65501881516546 9.548739999999999
48.6794536962573 9.54906
48.70408185970339 9.49425
48.72852147531801 9.4871
48.75296345168211 9.43295
48.77740779059232 9.47177
48.80204549302823 9.45096
48.82649458091802 9.42735
48.85094603676547 9.40017
48.87539986237231 9.38392
48.90004713292306 9.34959
48.92450572200832 9.34431
48.94896668628025 9.31298
48.97343002754588 9.28922
48.99808689542115 9.30043
49.02255501470614 9.2459
49.04702551642794 9.23121
49.0714984023988 9.19965
49.096164896893235 9.21183
49.120642575466796 9.19332
49.145122643748394 9.19507
49.16960510355558 9.14136
49.19428125404938 9.14349
49.2187685210852 9.12981
49.243258185121555 9.10571
49.26794160167084 9.085519999999999
49.2924360839405 9.083730000000001
49.31693296869764 9.0524
49.34143225776915 9.0394
49.36612538195438 9.03178
49.39062950396021 9.035219999999999
49.41513603578346 9.01591
49.4396449792564 8.96902
49.46434784069503 8.93816
49.488861631846454 8.9196
49.513377840166804 8.90361
49.537896467493745 8.87693
49.56260909589029 8.85929
49.587132585683285 8.861989999999999
49.611658500018365 8.89064
49.636186840738596 8.83378
49.66090926588511 8.81683
49.685442483902584 8.77427
49.70997813385706 8.77233
49.734516217597076 8.77586
49.75924846937352 8.73322
49.7837914452858 8.74902
49.80833686055187 8.68892
49.83288471702571 8.67302
49.85762682540054 8.67126
49.882179588965734 8.668989999999999
49.9067347993235 8.62688
49.93129245833333 8.620389999999999
49.95604445336378 8.64359
49.98060703442832 8.61939
50.005172069746266 8.6132
50.02993150438364 8.5748
50.05450147301533 8.58002
50.07907390151433 8.51808
50.10364879174981 8.512210000000001
50.12841816587289 8.51121
50.1529980044635 8.49175
50.17758031042124 8.47275
50.20216508562089 8.46289
50.22694442953363 8.44645
50.25153416817468 8.42716
50.27612638170508 8.41052
50.300721072005196 8.36182
50.325510416102105 8.36298
50.350110084975064 8.323319999999999
50.37471223628208 8.34297
50.39931687190919 8.32437
50.424116246675766 8.30135
50.44872587605249 8.27716
50.47333799543065 8.26608
50.49795260670191 8.26853
50.52276204271512 8.23274
50.54738166295838 8.23702
50.57200378079314 8.206380000000001
50.596628398116835 8.19153
50.62144792604559 8.18868
50.646077567609396 8.13638
50.670709714377715 8.13969
50.69553683636198 8.136610000000001
50.72017401885922 8.139330000000001
50.7448137122895 8.09329
50.76945591856022 8.04632
50.79429318636823 8.07666
50.818940443716784 8.06816
50.84359021965163 8.00146
50.868242516085964 8.0076
50.893089960641895 8.009310000000001
50.917747323549435 7.97691
50.94240721271973 7.98186
50.96706963007175 7.96715
50.99192728239342 7.950889999999999
51.01659478166073 7.9610199999999995
51.04126481489051 7.92346
51.06593738400761 7.91223
51.090805275207074 7.88617
51.11548294172845 7.86809
51.14016314993547 7.83287
51.164845901758845 7.836010000000001
51.18972406304274 7.79585
51.21441192780656 7.82908
51.23910234200271 7.80369
51.2637953075678 7.807110000000001
51.288683770237945 7.76593
51.31338186432707 7.7225399999999995
51.33808251561888 7.68872
51.362978729967345 7.662730000000001
51.387684521509755 7.686039999999999
51.41239287610203 7.671810000000001
51.437103795691165 7.66403
51.46201036644977 7.611210000000001
51.486726441956634 7.61866
51.51144508832545 7.616810000000001
51.536166307509156 7.584219999999999
51.56108326624387 7.59558
51.58580965706056 7.571210000000001
51.61053862657523 7.531560000000001
51.635270176746864 7.48424
51.66019755512065 7.4885399999999995
51.68493429268881 7.45286
51.70967361681515 7.49547
51.73441552946465 7.49057
51.759353359237934 7.4603
51.7841004750961 7.434060000000001
51.80885018539685 7.41564
51.833602492111254 7.408919999999999
51.8585508051424 7.364210000000001
51.883308330926425 7.3988
51.90806845906181 7.387010000000001
51.932831191525715 7.3040199999999995
51.95779001977161 7.322439999999999
51.98255798721516 7.2988
52.00732856494335 7.28556
52.03229530577543 7.271389999999999
52.057071130455945 7.253660000000001
52.081849571391054 7.24595
52.106630630568695 7.2392
52.13160794279417 7.195760000000001
52.15639426492067 7.1959800000000005
52.18118321127822 7.2102699999999995
52.205974783860896 7.191610000000001
52.23096269971011 7.17223
52.255759551287994 7.1535899999999994
52.280559035098186 7.142989999999999
52.30536115314103 7.1046
52.33035970494467 7.128019999999999
52.35516711807904 7.10147
52.37997717147198 7.078710000000001
52.40478986713005 7.064189999999999
52.42979908731974 7.00657
52.454617094216 7.02575
52.47943774942214 6.99067
52.50426105495102 6.99793
52.529280976059844 6.973960000000001
52.554109609024096 6.93443
52.57894089837482 6.911860000000001
52.60377484613117 6.931660000000001
52.62880550079408 6.919160000000001
52.65364479223379 6.88823
52.67848674816189 6.892339999999999
52.70352547971946 6.86574
52.72837279155837 6.856380000000001
52.753222773982785 6.83847
52.778075429022984 6.86183
52.80312495150885 6.83012
52.827982978797436 6.80813
52.85284368481815 6.80576
52.87770707160767 6.767410000000001
52.90276741793998 6.7183
52.92763619336701 6.71905
52.952507655698504 6.720039999999999
52.977381806977576 6.72543
53.00245301017842 6.72035
53.02733256653592 6.6997100000000005
53.052214817996074 6.673189999999999
53.077099766608484 6.6730100000000006
53.102181859804446 6.655010000000001
53.127072229988265 6.645810000000001
53.15196530349892 6.648219999999999
53.17686108239249 6.6628300000000005
53.20195409881522 6.6331
53.22685531582556 6.587460000000001
53.25175924441303 6.556260000000001
53.27666588664027 6.54097
53.30176985962693 6.54965
53.3266819565689 6.53366
53.35159677336455 6.4991900000000005
53.376514312083096 6.48674
53.40162927507703 6.49625
53.42655228516116 6.48845
53.45147802340193 6.4623099999999996
53.47660125628886 6.41866
53.50153247842639 6.41079
53.52646643496923 6.42317
53.55140312799818 6.44473
53.576537409691696 6.4036599999999995
53.60147960336152 6.36225
53.626424539786164 6.3871400000000005
53.65137222105307 6.34195
53.67651758529126 6.34896
53.70147078399681 6.270919999999999
53.72642673383343 6.29779
53.75138543689533 6.2868
53.776541917524526 6.29033
53.801506154876755 6.27091
53.826473151763246 6.26452
53.851442910284916 6.21476
53.87661054126026 6.1893199999999995
53.9015858509782 6.2341
53.92656392866066 6.18313
53.95154477641532 6.20897
53.976723591801296 6.19066
54.00171000771266 6.19457
54.02669920004598 6.13655
54.051691170915745 6.10675
54.076881204886796 6.12164
54.101878760928514 6.1195
54.12687910187696 6.09082
54.152077577768296 6.05739
54.1770835166946 6.03717
54.20209224691339 6.07683
54.22710377055121 6.06147
54.25231352511594 6.06815
54.27733066384342 5.9586
54.30235060239643 5.97392
54.32737334290836 5.9709699999999994
54.35259441062629 5.97045
54.377622783395324 5.950480000000001
54.40265396455061 5.93703
54.42768795623251 5.896669999999999
54.45292037169559 5.84963
54.477960012857906 5.87132
54.50300247099511 5.8688199999999995
54.52804774825457 5.8737900000000005
54.55329154616743 5.88037
54.57834249018678 5.80523
54.6033962597977 5.77267
54.6284528571545 5.70622
54.653708072335164 5.69649
54.67877035378786 5.7342699999999995
54.70383546947698 5.69942
54.72890342156389 5.69767
54.7541700889442 5.62666
54.77924374251975 5.64029
54.8043202390049 5.59535
54.82959552413022 5.54962
54.8546777351945 5.59446
54.87976279569621 5.52604
54.90485070780914 5.55304
54.930137506558005 5.501930000000001
54.95523115074295 5.51788
54.98032765308844 5.48201
55.005427015775496 5.47676
55.03072536339621 5.47576
55.05583047570572 5.40336
55.080938454927676 5.39002
55.10604930325027 5.32587
55.131359235107396 5.372330000000001
55.15647585066083 5.30872
55.181595341907496 5.30702
55.20671771104285 5.25195
55.232039262617704 5.2718300000000005
55.25716741665048 5.27538
55.28229845518636 5.2678
55.30743238042802 5.19754
55.33276558731939 5.20328
55.357905315183636 5.1874
55.383047936390035 5.16988
55.40819345314859 5.12404
55.433538351073295 5.04288
55.458689688238415 5.06651
55.483843927614096 5.02769
55.509197623043605 4.98284
55.53435769621134 4.97621
55.55952067826466 4.91715
55.5846865714265 4.94709
55.61005202069737 4.91145
55.63522376553902 4.89803
55.66039842818645 4.899830000000001
55.68557601087004 4.852519999999999
55.7109532500271 4.803059999999999
55.73613670233794 4.82325
