TT I
1.2716486653135266 7.17829
1.2939594142134223 6.69305
1.3162702121660406 6.3964
1.3385810600174564 6.6224
1.3608919586137629 6.45336
1.383202908801069 6.30284
1.405513911425503 6.23095
1.4278249673332093 6.09919
1.4501343378461518 6.1026
1.4724455028545926 5.54558
1.4947567236847858 5.93187
1.517068001182951 5.99678
1.5393793361953272 5.820130000000001
1.5616907295681737 5.50441
1.5840021821477681 5.34849
1.60631369478041 5.1948
1.6286252683124185 5.3388599999999995
1.6509369035901333 5.22481
1.6732468618895553 5.15284
1.695558623192809 4.49653
1.7178704487808514 5.25035
1.7401823395001077 5.20376
1.7625012545597203 4.81755
1.7848028405262486 5.03651
1.8071218901122095 4.79097
1.8294236121921872 5.03723
1.8517427996910911 4.90367
1.8740620574440425 5.1066199999999995
1.8963639900671978 4.28195
1.9186833908139995 4.35952
1.9409854680117449 4.6711599999999995
1.9633050151394713 4.35774
1.9856246367570705 4.14205
2.0079269371922672 4.77583
2.03024671027244 5.1549
2.0525491637446027 4.757709999999999
2.074869091674931 4.44003
2.097171701569106 4.30393
2.1194917877373847 4.9473
2.141811954326636 5.70613
2.164114805233074 4.81813
2.186435135143035 6.14335
2.208738150935709 15.4137
2.231058647554722 32.9797
2.2533792288321184 25.2975
2.275682498336085 10.9984
2.298003251406138 6.134869999999999
2.3203066942619714 6.1306
2.3426276225136022 6.37694
2.3649486396617507 5.90076
2.387252348930071 6.19383
2.4095735463442893 6.16415
2.4318774374315884 6.18047
2.4541988185014043 6.45116
2.476502894794693 7.16339
2.498824462909887 7.7886
2.521146125856138 7.069310000000001
2.5434504863470337 7.030289999999999
2.5657723414244717 8.107380000000001
2.588076895590662 8.59646
2.610398946189713 9.13035
2.6327210958598384 8.2104
2.6550259469304716 7.98698
2.6773482972090137 8.68012
2.6996533504259 8.6962
2.7219759047039602 8.27995
2.744298562293959 8.8527
2.7666039251246595 7.967169999999999
2.7889267918020164 8.33198
2.8112323652516555 8.28394
2.833555444408179 8.596219999999999
2.8558786311183852 8.36835
2.8781845268938557 8.61283
2.9005079311721484 9.098239999999999
2.9228140460410397 9.293339999999999
2.9451376712799635 9.46757
2.967444008632326 9.53152
2.9897678582247247 10.2416
3.0120918213106695 10.4754
3.0343984987899373 11.1669
3.0567226913198637 11.6228
3.079029599759726 12.4355
3.101354025127254 12.6695
3.123678568232338 13.3029
3.145985829517914 13.0292
3.16831061055229 13.7442
3.1906181112775593 14.169
3.212943133635653 15.0143
3.2352682779763207 14.9646
3.2575761442691227 15.453
3.2799015350264273 15.9027
3.302209649240067 16.3264
3.3245352898092655 16.9145
3.3468436553365257 17.3119
3.369169549113219 17.826
3.3914955708171384 18.6176
3.413804319727358 18.9349
3.4361305997334863 19.1802
3.4584396084414553 19.9065
3.4807661501462652 20.0651
3.503092824025881 20.87
3.5254022288463154 21.4409
3.5477291695206588 21.5169
3.5700388426251948 22.3335
3.5923660534916446 24.3455
3.6146934007816114 40.8357
3.637003482731501 99.9239
3.6593311053109985 112.59899999999999
3.681641464033634 62.7934
3.7039693653009733 31.9584
3.726297407241705 26.5051
3.7486081875460804 25.7634
3.7709365132734978 26.578000000000003
3.793247578841633 26.4084
3.8155761917550093 26.3265
3.8378875459837216 27.2708
3.8602164494827234 27.6279
3.882545499606844 28.2538
3.9048572932539183 29.0227
3.9271866390645718 29.6376
3.9494987298666713 29.7871
3.971828374764527 30.3564
3.9941581705403255 30.7715
4.016470713506008 31.1594
4.038800813471445 32.1256
4.061113662089144 32.7594
4.0834440696459176 33.3646
4.105774632334751 34.2053
4.128087945865126 35.1667
4.150418821249301 35.5651
4.172732448931298 36.8412
4.195063640413578 39.0953
4.2173775856475215 43.4787
4.239709096631102 79.5042
4.262040768704612 268.611
4.284355196706267 371.80300000000005
4.306687193387355 240.321
4.329001947444346 89.0114
4.35133427213731 49.213
4.373666762177566 44.8214
4.395982011761091 44.5306
4.418314834921175 45.6665
4.44063041906622 54.1445
4.4629635787515625 67.4369
4.4852969080429785 67.2021
4.5076130004776225 55.0203
4.529946671403969 49.8674
4.552263106909177 48.943999999999996
4.574597122877047 50.5466
4.596931312711224 51.7973
4.619248269273446 52.638999999999996
4.6415828092605835 53.8846
4.663900117405352 54.8908
4.686235010953232 56.7309
4.708552674085913 57.7183
4.730887924602802 58.7313
4.753223354952695 59.856
4.775541557023902 61.4403
4.797877349456786 62.6237
4.820195915032126 64.733
4.842532072957498 66.0985
4.864868414979744 68.1547
4.88718753227192 70.0884
4.909524244902505 72.1061
4.931843734218147 73.6325
4.954180820867835 75.937
4.976518095879839 78.9047
4.998838149695359 81.75399999999999
5.021175803844231 84.976
5.043496238205739 87.9748
5.065834274903528 91.8296
5.088172504230693 96.2377
5.1104935158799565 101.899
5.132832132875765 124.11200000000001
5.155153533596801 170.28
5.1774925416746225 202.142
5.199814334878411 292.124
5.2221537374521505 773.405
5.244493338631803 2408.94
5.266815727034316 7364.84
5.289155727832427 12578.0
5.311478517248165 9239.62
5.333818921080011 2851.58
5.356159527788849 520.302
5.3784829252032536 177.28400000000002
5.400823940070432 139.847
5.423147747031976 124.85
5.445489173474152 116.169
5.467830807066149 110.992
5.490155234831516 107.094
5.512497285125229 104.374
5.534822130975162 102.544
5.557164601388673 100.39200000000001
5.579489868738879 97.6046
5.601832762690846 96.5869
5.6241758697774475 95.8547
5.646501775867269 95.08200000000001
5.668845311622074 93.3954
5.691171647754637 92.2958
5.713515615597765 91.4946
5.735859800852677 90.7043
5.758186788542988 89.6197
5.780531411018185 89.8015
5.802858837297399 89.3848
5.825203900414495 88.9844
5.8475491852224 89.2648
5.869877275883075 89.5357
5.892223006467101 90.146
5.914551544266608 91.1495
5.936897724049891 93.1822
5.959244129804903 97.0483
5.981573344815301 108.889
6.0039202049061 172.158
6.026249875609095 367.82800000000003
6.04859719346037 808.936
6.070927323278297 2038.65
6.093275102315365 4327.55
6.115623113320588 5266.3
6.137953938319995 3222.59
6.160302415650845 928.35
6.182633708324452 223.99099999999999
6.2049826554078376 111.64200000000001
6.227331838745022 90.4514
6.249663839443684 84.0455
6.27201349767565 81.3822
6.294345974611799 89.5505
6.316696111167083 103.815
6.339046488263839 97.6536
6.361379686074702 80.8405
6.383730546639482 71.569
6.406064229255215 68.2485
6.428415576718203 67.6764
6.450749747566656 66.2808
6.47310158535871 65.4574
6.495453669698332 64.8555
6.517788579421056 64.1989
6.540141159237969 63.3468
6.562476565766648 62.8017
6.5848296444934045 62.4137
6.607182974060425 62.1978
6.6295191323281015 62.5274
6.651872965955752 66.3113
6.6742096296068985 96.3304
6.6965639707294615 150.191
6.71891856698715 152.597
6.741255995248479 101.259
6.763611104154477 69.6391
6.785949046381137 60.1588
6.808304671371482 57.879
6.8306605557940046 57.7148
6.852999275508618 56.7458
6.875355681171544 56.5126
6.897694923437771 56.1501
6.92005185377892 56.419
6.9423916220322655 55.9622
6.964749080490181 55.5009
6.987106804399774 55.3463
7.009447368180821 55.3294
7.031805625367033 55.0675
7.054146723727803 54.5788
7.076505517631004 54.8043
7.098864581288365 55.21
7.121206488070854 54.9459
7.143566093607822 54.6363
7.165908543567245 55.1006
7.188268694426048 55.1002
7.2106291193438095 54.792
7.232972390625943 56.8784
7.255333366030969 71.6693
7.277677189091925 133.69
7.300038718428332 189.489
7.322400526130865 160.539
7.344745183422596 95.6005
7.367107550224791 62.9766
7.389452767901992 56.2477
7.411815697249891 55.2137
7.434161478756298 54.5309
7.456524974096713 54.0233
7.478888753837185 54.131
7.501235387657368 54.1855
7.523599738562711 54.4136
7.545946944825532 54.6746
7.568311870344528 55.1506
7.5906770845765665 54.99100000000001
7.613025156078678 56.7816
7.635390950099687 58.0454
7.657739602662809 57.2421
7.680105979923558 55.5595
7.702472650212829 55.7337
7.724822180948224 55.4672
7.747189439655568 55.3513
7.769539560075357 55.5343
7.791907410653562 56.0925
7.81425812420825 56.0325
7.836626570110925 56.2206
7.858995315087906 57.0386
7.881346924933401 57.3093
7.903716270417482 57.7163
7.926068482028405 58.085
7.948438431475253 58.5356
7.9708086843180235 58.8067
7.993161805171116 59.6718
8.015532667162402 60.0763
8.037886398416653 60.9879
8.060257873014221 61.4518
8.082629655331942 62.0606
8.104984308787587 63.0775
8.127356708900503 66.4126
8.149711981398308 73.1013
8.172085002766314 75.9593
8.194458336181368 72.1499
8.216814543847752 69.0102
8.23918850371002 68.21600000000001
8.26154533906492 69.1138
8.283919928836452 70.7021
8.306277395339652 71.563
8.328652618483376 72.8064
8.351028159736202 74.6522
8.373386579575245 76.7737
8.395762759396959 78.4306
8.418121819038275 83.495
8.440498640894003 97.8815
8.462875785192262 113.40899999999999
8.485235811156207 120.51
8.507613602688501 144.786
8.529974277114228 214.968
8.552352719347912 333.181
8.574731488360351 581.936
8.59709314210385 1124.63
8.619472567021075 1838.13
8.64183487789147 2288.67
8.664214962183097 1879.19
8.686577933647762 970.4069999999999
8.708958680784317 368.675
8.731339760774953 166.205
8.753703729764451 110.15799999999999
8.77608547780821 97.4892
8.798450116065078 94.1132
8.820832535634787 91.1874
8.843215292401656 89.8948
8.865580941199045 88.3028
8.887964374703538 87.4571
8.910330701447199 88.8198
8.932714815164482 92.2279
8.955099270424924 91.4591
8.977466620733543 87.9366
8.999851761421976 84.4095
9.022219798361645 82.4113
9.04460562795561 81.8977
9.066991803441677 81.6824
9.089360876979615 81.8411
9.111747746589993 81.2884
9.13411751544971 80.953
9.156505082664324 80.4578
9.178875550323522 80.6749
9.20126381862328 81.3313
9.223652438908596 81.7052
9.246023961427412 81.208
9.26841328802173 80.7343
9.290785518039224 80.8003
9.313175554425882 81.4512
9.335565947154315 81.2662
9.357939245086508 81.426
9.380330352834827 81.3964
9.40270436697103 81.7378
9.425096193225055 81.6052
9.447488380180165 82.8482
9.469863475295412 83.2923
9.492256385987508 83.2962
9.514632206018318 83.9124
9.537025843935714 84.4353
9.559402392368193 84.7409
9.581796761000229 85.7202
9.604191496441521 86.72
9.626569144158516 90.8742
9.648964615551032 96.1804
9.671343000390081 97.9255
9.693739211225699 95.4879
9.716135793237463 92.2614
9.738515290448102 91.5451
9.760912617143402 92.4377
9.783292860202891 93.5888
9.805690935076182 94.8202
9.828089385495742 95.7692
9.850470754023561 97.8631
9.872869957865444 106.35799999999999
9.89525208097539 123.889
9.917652041736662 138.019
9.940052382417589 135.499
9.962435644102392 133.835
9.984836746950979 156.59799999999998
10.007220771957746 209.799
10.029622640473708 300.562
10.052007432299963 464.44
10.074410069984072 750.435
10.096813093716005 1218.39
10.119199042482517 1750.58
10.141602840636468 1965.76
10.163989564971628 1592.19
10.186394141051062 919.309
10.208799107559706 402.00199999999995
10.231187001965623 185.418
10.253592751657669 124.318
10.275981430388155 111.694
10.298387966769793 112.089
10.320794897965431 115.18
10.343184759907361 113.90799999999999
10.36559248305461 107.87299999999999
10.387983138083852 102.721
10.410391656691655 103.445
10.432800574501677 111.71700000000001
10.455192425893369 125.193
10.47760214443012 147.207
10.499994797678786 187.78599999999997
10.522405320453982 265.466
10.54479877906917 390.60900000000004
10.567210109595656 517.8480000000001
10.5896218454736 575.698
10.612016518879773 504.06800000000004
10.634429067781074 347.075
10.656824555333241 203.012
10.679237920773568 123.68299999999999
10.701651695961992 95.7439
10.724048411481384 88.3566
10.746463008485165 85.3559
10.768860546937125 83.7563
10.791275969274796 82.0042
10.81369180576079 80.9891
10.836090585366925 80.1819
10.858507252467449 78.8721
10.88090686379991 78.0461
10.903324365036394 77.3934
10.925724811614439 77.4435
10.948143150509463 79.0256
10.970561909719066 78.4465
10.992963615930844 76.2875
11.015383218085756 74.1315
11.037785768347074 72.5988
11.06020621697282 71.8028
11.082627090322113 71.2644
11.105030913430326 70.8805
11.12745263854165 71.711
11.149857314510728 75.7334
11.172279894912576 83.26100000000001
11.194702904450653 84.1297
11.217108866490921 79.4684
11.239532736615194 74.3384
11.26193956033512 71.8384
11.284364294577085 70.1221
11.306789462371718 67.8162
11.329197585398376 66.5037
11.351623622610898 66.061
11.37403261614354 65.067
11.396459526308487 64.9609
11.418869393879497 64.7865
11.441297180532617 64.4396
11.463725406927658 64.1728
11.486136592353875 64.0404
11.508565700543707 64.7811
11.530977768845315 66.8301
11.553407762368774 67.85
11.575838200059769 67.0773
11.598251599479612 64.8487
11.620682927815501 63.1929
11.64309721895548 62.8277
11.665529441478206 62.406000000000006
11.687962112597958 62.2218
11.710377748130886 62.0965
11.732811318753434 62.0574
11.755227854859067 62.2263
11.777662328529495 61.9428
11.800079768750786 61.8037
11.822515149015453 61.6939
11.844950984084935 61.8261
11.867369787303163 61.5454
11.889806534289491 61.6819
11.912226250487029 61.9716
11.934663912939751 61.9472
11.9571020346363 62.0827
11.979523127133968 62.1809
12.001962169624331 62.5758
12.024384183972964 62.9799
12.046824150809913 65.3397
12.069264581333726 69.8593
12.091687985297767 75.3243
12.11412934550045 83.5069
12.136553680195208 98.0724
12.158995973632788 121.155
12.181438735204349 149.792
12.20386447284199 188.11
12.226308172985636 207.64700000000002
12.24873485024193 202.102
12.271179492516982 169.515
12.293607112949127 127.815
12.316052700916226 97.3435
12.338498763250042 79.3065
12.360927805303868 70.2863
12.383374818673879 66.2109
12.405804812803074 64.2207
12.428252780773262 63.4814
12.45070122756722 63.5388
12.473132656675375 63.4053
12.49558206341869 63.6824
12.518014453510101 63.3535
12.540464823770117 63.5542
12.562915677315177 63.9579
12.58534951575545 64.4552
12.607801338171472 66.9962
12.630236146511358 73.0616
12.652688941369085 78.6195
12.675124723177234 79.1586
12.697578494048786 74.8861
12.720032754458185 69.6811
12.742470003354093 67.3753
12.764925245138771 67.0807
12.787363476431278 67.1358
12.809819703166806 67.3012
12.83227642391173 67.944
12.854716135692716 68.7679
12.877173846755147 69.5014
12.899614549869717 69.8092
12.9220732548287 70.6139
12.94453245827299 70.9389
12.966974655289818 72.1443
12.989434858002571 73.0617
13.011878055298721 73.4374
13.034339260862497 74.3012
13.056800969391883 75.5736
13.079245674017244 77.4916
13.101708390774869 78.8611
13.12415410463411 84.0451
13.146617833206086 93.9723
13.169064559883248 104.62899999999999
13.191529303857127 117.917
13.213994557076367 138.435
13.236442809902437 172.81599999999997
13.258909083908291 228.472
13.28135835851934 294.6
13.30382565690295 371.06800000000004
13.326293469022952 425.583
13.348744283242008 426.605
13.371213125129904 357.764
13.39366497011003 262.427
13.416134845360597 171.16400000000002
13.438605238843131 122.87200000000001
13.46105863690397 102.42200000000001
13.483530069144786 100.794
13.505984506951902 104.743
13.528456981549432 113.095
13.550929978879088 126.725
13.573385983253365 149.643
13.595860028340867 188.08900000000003
13.618317081455832 243.097
13.64079217790333 305.954
13.663250283359057 353.21
13.685726434770173 377.57
13.708203115221277 341.796
13.730662806148091 261.059
13.75314054697177 183.762
13.775601299246777 126.715
13.798080104050406 95.7493
13.820559442405358 83.8186
13.843021793671388 80.6632
13.865502201420897 79.0886
13.887965623051947 78.2903
13.910447103807167 77.0685
13.932929122629764 75.9307
13.955394156785959 75.1045
13.977877254034569 74.346
14.000343367582113 73.7278
14.022827546871707 73.0755
14.045294743423524 72.2385
14.06778000837062 71.8033
14.090265817715476 71.6672
14.112734645763819 71.4975
14.13522154619454 71.3037
14.157691466286913 71.2666
14.180179461423874 71.1746
14.202668005486178 70.4984
14.22513957064374 69.8032
14.247629214846473 69.2338
14.270101881097517 69.1206
14.29259262906496 69.6265
14.315083930490205 70.6479
14.337558255389705 70.8217
14.360050666019726 70.4953
14.382526101071944 69.5789
14.405019624534942 68.7106
14.427513705993134 67.867
14.449990813291825 67.5237
14.47248601302899 67.5731
14.49496423954951 67.6843
14.517460561197822 67.876
14.539939910570322 67.5493
14.562437357763558 68.1283
14.58493536931253 69.2307
14.607416409993311 70.4805
14.62991555254159 71.2191
14.652397725157423 70.7683
14.674898002342799 70.0863
14.697398848433282 69.1961
14.719882725991326 69.5124
14.74238471217934 70.0779
14.764869730765593 72.5171
14.787372860692983 75.3106
14.809876564079925 79.4891
14.83236330125751 84.397
14.854868153850365 92.1452
14.877356041159485 105.34100000000001
14.899862046604186 123.42200000000001
14.922351087688757 149.806
14.944858249632887 182.28099999999998
14.967365991421232 210.199
14.989856770231246 224.862
15.012365673994204 217.355
15.03485761569738 186.47799999999998
15.05736768508665 146.203
15.07987833888692 111.98299999999999
15.102372032001655 89.3481
15.124883856909658 76.2954
15.14737872204565 71.267
15.169891721717274 69.4438
15.192405310371893 69.3731
15.214901940621196 70.1974
15.237416709527137 70.3076
15.259914520936249 70.5653
15.282430473753607 69.5776
15.304947020131227 68.359
15.327446610371178 67.4476
15.349964346154254 66.3775
15.372465126703139 65.9045
15.394984055556009 65.77600000000001
15.417486030076159 65.5134
15.44000615566487 65.1727
15.462526881230803 65.0134
15.485030653812652 65.2119
15.507552581617434 65.0907
15.530057557334603 65.2962
15.55258069104857 65.3068
15.575104429329837 65.0903
15.597611216864632 64.6228
15.620136166564563 64.5562
15.6426441664095 65.3054
15.665170331202765 66.6389
15.687697105158826 69.5688
15.710206930593545 72.3307
15.732734925158933 75.9097
15.755245972089478 81.7267
15.77777519094324 90.1407
15.800287463046663 102.664
15.822817909869592 122.133
15.84534897229804 145.053
15.867863089299354 170.37400000000002
15.890395385222186 190.65200000000002
15.912910736597423 195.74900000000002
15.935444269699861 182.297
15.957978423016485 155.621
15.980495633101265 120.976
16.003031029129367 93.9545
16.02554948280019 75.5497
16.048086125229432 66.9913
16.070623392487107 64.6732
16.09314371869582 63.8831
16.11568223789321 63.2558
16.13820381691126 62.1816
16.160743591742527 61.019
16.183283996022084 59.7977
16.205807461423195 58.7429
16.228349126881973 57.9718
16.25087385432698 58.0561
16.27341678466365 57.54600000000001
16.29594277784926 57.7103
16.31848697676433 57.9509
16.341031811604868 58.3957
16.36355971058487 58.9107
16.3861058195587 58.6196
16.40863499352978 57.1456
16.431182380342005 56.1773
16.453730407713202 55.4083
16.476261501364792 55.1769
16.498810812136167 54.8537
16.52134319004079 55.0258
16.54389378792203 54.6282
16.566445031001553 54.451
16.588979342490088 54.2264
16.61153187824822 54.3523
16.634067483263312 54.1116
16.656621315414416 54.2079
16.679175797408888 53.8485
16.701713349928728 53.8226
16.72426913389191 54.1718
16.74680798922351 54.2998
16.76936507887444 54.247
16.791905240734874 54.3012
16.814463639794468 54.0064
16.837022695210294 54.0566
16.859564824093756 54.5781
16.882125194503903 55.3006
16.904668639217885 56.213
16.927230328348003 56.5548
16.949792678493612 56.4047
16.972338104193863 55.6853
16.994901778652235 54.9336
17.017448529496576 54.8149
17.040013531998152 54.8559
17.06257920018044 55.24100000000001
17.0851279459922 55.6118
17.107694947817667 56.47
17.130245028099072 57.3105
17.15281336730298 58.6369
17.17536478578733 60.3538
17.19793446610687 62.4085
17.220504818648422 65.1718
17.243058251703697 68.6114
17.265629950971032 73.4608
17.288184731571736 78.2433
17.310757781306908 82.7526
17.33333150794385 83.0188
17.355888317140174 81.676
17.37846339986244 76.461
17.401021565958885 69.99600000000001
17.42359800851343 64.4338
17.44617513265564 61.0482
17.468735341390783 59.2277
17.491261035594565 58.3108
17.51396340099364 57.9336
17.536490463869136 58.2604
17.559018209820174 58.2963
17.58154663977963 58.108000000000004
17.604251766089718 58.3078
17.626781572227713 58.7416
17.64931206518155 58.9357
17.671843245885103 59.4936
17.69455114821572 59.7678
17.717083712612634 59.9779
17.739616967569667 60.1579
17.762150914021706 60.2303
17.78486160749854 60.1154
17.807396945166804 60.721000000000004
17.829932977143503 61.1065
17.85246970436452 62.3943
17.875183204129467 64.221
17.897721330097664 65.9128
17.920260154126645 68.0432
17.942799677153296 70.9872
17.9655159983646 74.37100000000001
17.988056927677544 79.4322
18.010598558807683 87.0494
18.033140892692916 97.3175
18.05586005052525 109.10700000000001
18.07840379824407 121.448
18.10094825154059 130.68
18.12366954819864 138.917
18.146215420998306 137.183
18.16876200220057 128.446
18.191309292745153 114.11
18.214033452627167 100.764
18.236582170236648 89.6613
18.259131600016456 84.4645
18.281681742907335 84.5352
18.304408781233683 89.0988
18.32696035875955 94.7381
18.349512652227624 99.9409
18.372065662579683 104.11
18.394795594587553 105.417
18.41735004715306 102.10700000000001
18.43990521943684 95.1092
18.46246111238171 85.6804
18.485193953325208 76.6955
18.507751296070428 69.0744
18.530309362314178 64.9335
18.552868153000343 62.5908
18.57560391815056 61.3116
18.59816416623245 60.8938
18.620725141597372 60.4979
18.643286845190268 60.0258
18.666025549835414 59.5519
18.688588718427933 58.8706
18.711152618092243 58.8474
18.73389353884365 58.6146
18.75645890921984 58.1871
18.77902501351406 57.8607
18.801591852673102 57.6531
18.824335739722738 57.0956
18.846904057212626 57.1049
18.8694731124168 56.7851
18.89204290628315 56.7104
18.914789774966803 56.6027
18.937361054791623 56.4739
18.959933076131318 56.2634
18.982505839934877 56.303000000000004
19.00525570560582 56.4022
19.027829963004184 56.2789
19.05040496572238 56.0887
19.072980714710468 55.9208
19.095733592739563 56.1713
19.11831084296757 56.6165
19.140888842324735 56.9378
19.16346759176222 57.1039
19.18622349753803 57.5624
19.208803755869358 58.2182
19.231384767143577 59.1614
19.253966532312948 60.589
19.276725481241822 62.6736
19.29930876296784 65.4933
19.3218928014549 68.8532
19.34465404436217 72.1341
19.36723960516257 75.1703
19.389825925592426 76.0541
19.412413006605938 74.8767
19.43517731967805 71.2875
19.457765930683355 66.931
19.48035530514408 62.4346
19.50294544401556 58.6865
19.525712842708348 56.1067
19.54830451925909 54.5354
19.570896963095727 53.508
19.593490175174704 53.3086
19.616260674962184 53.1432
19.638855432416964 52.8524
19.661450960992624 53.053000000000004
19.68404726164677 52.8463
19.706820878021247 52.5303
19.729418731756834 52.8131
19.752017360452857 52.5517
19.77461676506804 52.6321
19.797393513540218 52.5958
19.819994478951667 52.9531
19.84259622316767 53.5731
19.8651987471481 53.6731
19.887978643247177 53.9895
19.91058273574792 54.4989
19.933187610901943 55.2006
19.955969879466828 56.3009
19.97857632894404 57.7565
20.00118356396599 59.0672
20.023791585494575 61.2338
20.046577028914875 64.1268
20.069186632506966 66.5123
20.091797025500632 68.3291
20.114408208858933 69.0753
20.137196842715273 68.6584
20.159809615886765 67.0844
20.18242318232135 64.3941
20.20503754298326 62.25899999999999
20.227829382875154 61.2974
20.250445341109344 61.4366
20.27306209647285 62.0737
20.29567964993108 63.4113
20.31847471147704 64.6738
20.34109387027612 65.2901
20.363713830075454 64.8105
20.386334591841646 63.688
20.409132890679302 61.0555
20.431755265564437 57.8139
20.454378445325528 54.7936
20.477002430930366 52.9661
20.499803982716553 51.81
20.522429589228004 51.0716
20.54505600449589 50.6302
20.567683229489194 50.4749
20.590488049900088 49.9154
20.61311690359731 49.6278
20.63574656993626 49.2875
20.658553853717297 49.0418
20.681185154618298 49.1444
20.703817271080066 48.7937
20.72645020407368 48.4984
20.749260783967177 48.3938
20.771895359337133 48.4456
20.794530754161617 48.3526
20.817166969412938 48.211000000000006
20.83998086114876 48.165
20.86261872660049 48.1125
20.885257415405402 47.9623
20.90789692853701 47.9745
20.930714147864748 47.8777
20.953355319030678 47.8168
20.97599731745334 47.9022
20.99864014410749 47.8707
21.021460706796564 47.9985
21.044105199328826 48.1258
21.06675052302631 48.3102
21.089396678865015 48.375
21.112220600704806 48.6725
21.134868430275347 49.2983
21.15751709492456 49.3902
21.180166595629693 49.7214
21.202993892429635 50.2758
21.22564507473034 50.5302
21.24829709602816 50.7413
21.27112693608965 50.983999999999995
21.293780644891275 50.7986
21.316435195634053 49.9851
21.339090589297417 49.2186
21.361923832041875 48.871
21.384580921090404 48.2897
21.407238856007325 48.0185
21.429897637773326 47.9043
21.45273429906592 47.8504
21.475394784108598 47.6149
21.498056118951983 47.5981
21.520718304578022 47.8285
21.543558400304388 47.743
21.566222297108816 48.0356
21.58888704765135 47.9752
21.61155265291521 48.1208
21.63439619898156 48.7228
21.657063523335786 48.8895
21.67973170537063 49.3966
21.7024007460706 49.9024
21.72524775840385 50.7056
21.747918526116475 51.7103
21.770590155457388 52.9223
21.79326264741238 54.3929
21.816113141960237 56.1576
21.838787368860547 58.1736
21.861462461341976 60.1267
21.884315579735777 62.0231
21.90699241312273 63.4653
21.92967011506078 63.9618
21.95234868653799 63.4567
21.9752053151131 62.3251
21.997885635446785 60.6161
22.020566828293532 58.6021
22.04324889464272 57.1247
22.066109049404666 56.0154
22.088792872571794 55.4963
22.111477572219204 55.5754
22.1341631493376 55.5001
22.157026846313123 55.2861
22.179714188221507 54.5015
22.202402410582668 53.4978
22.22509151438863 51.9768
22.24795876962584 50.7606
22.270649646204486 49.8421
22.293341407213727 49.1092
22.316034053646906 48.6866
22.338904883215342 48.3636
22.36159931041458 48.3944
22.38429462602756 48.3644
22.40699083104897 48.156000000000006
22.429865251039757 48.2672
22.452563244831367 48.2531
22.47526213102522 48.1203
22.49813925616515 48.1165
22.520839937143307 48.0489
22.543541513520587 48.025
22.56624398629403 47.6733
22.589124730075895 47.7465
22.611829005656723 47.8057
22.63453418063466 47.9436
22.657240256008077 48.0439
22.680124634582935 48.0438
22.70283252079775 48.2933
22.725541310413075 48.5954
22.74825100442868 48.8002
22.771139033969575 49.3479
22.79385054687155 49.3647
22.81656296718292 50.158
22.83927629590484 50.8796
22.862167992606945 52.0697
22.88488314827121 53.2238
22.907599215359284 54.3588
22.93031619487366 55.5857
22.953211574954405 56.3962
22.975930389478226 57.3955
22.998650119445763 57.5115
23.02137076586092 56.7232
23.044269845560063 55.4698
23.06699233506288 53.788999999999994
23.089715744034912 52.1321
23.112617610931565 50.5357
23.135342869061212 49.2097
23.158069049684816 48.5667
23.1807961538087 48.1699
23.20370174880544 48.1488
23.226430710184808 48.0814
23.249160598093425 48.0215
23.271891413539002 48.1889
23.294800752937697 48.0831
23.31753343374794 48.2305
23.340267045128353 48.2596
23.36300158808808 48.5844
23.38591468821339 48.9225
23.408651104658304 49.2463
23.431388455719986 49.803000000000004
23.454126742409 50.5981
23.4770436196085 51.6125
23.499783787914662 53.1575
23.522524894889884 54.1586
23.54526694154616 55.2567
23.56818761219047 56.5431
23.59093154860734 57.0026
23.613676427751283 57.2844
23.636422250635754 56.6926
23.659346731118656 54.9585
23.68209445191868 53.2115
23.704843119509587 50.8995
23.72759273490623 48.8916
23.750521041644767 47.7781
23.77327256312355 46.6286
23.796025035462787 45.9967
23.818956224555475 45.5006
23.841710609113413 45.4299
23.86446594758979 45.2176
23.887222241002014 44.9359
23.910157285144578 44.7295
23.932915498962537 44.6876
23.955674670778713 44.4936
23.978434801611975 44.2815
24.001373717286125 44.1573
24.024135776723917 44.0213
24.046898798245582 43.9205
24.06966278287146 43.8844
24.092605586582614 43.6172
24.115371508023642 43.6325
24.1381383956401 43.5449
24.16090625045381 43.483999999999995
24.183852958731244 43.3044
24.206622758582608 43.3436
24.229393528706886 42.9468
24.252165270127392 43.0737
24.27511589952438 43.0602
24.297889594216997 42.8517
24.32066426328598 42.6736
24.34343990775613 42.7797
24.36639447485003 42.5601
24.38917208083877 42.5277
24.41195066531332 42.5039
24.43490819850244 42.5213
24.457688750692377 42.2905
24.48047028445616 42.3308
24.503252800821233 42.4518
24.526214300784112 42.6437
24.548998793132213 42.4876
24.57178427117417 42.373999999999995
24.59457073593893 42.446000000000005
24.617536219319863 42.2468
24.64032466834748 42.2977
24.663114107195035 42.1321
24.685904536893013 42.1318
24.708874020360852 41.9863
24.731666442613744 41.8901
24.754459858818787 41.8431
24.777254270007962 41.8824
24.80022777025625 41.7461
24.82302418230472 41.7924
24.845821592443674 41.6774
24.86862000170663 41.4889
24.891597535453727 41.5783
24.914397953892728 41.8506
24.93719937456671 41.7024
24.96000179851076 41.743
24.98298338249997 41.8348
25.00578782394922 42.1669
25.028593271784167 42.1506
25.05157790644186 42.4211
25.07438537804115 42.6606
25.097193859145293 42.8589
25.120003350792075 43.2013
25.142992065061257 43.5078
25.165803588823465 43.7577
25.18861612625217 44.0608
25.211429678386736 44.0925
25.234422489079968 44.0905
25.257238081693636 44.2273
25.280054692141732 44.4137
25.3028723214652 44.4809
25.325869245420463 44.5235
25.348688923599397 44.4161
25.371509623787006 44.4501
25.394331347025812 44.1496
25.41733240110666 43.7616
25.440156181590016 42.9888
25.46298098826268 42.5326
25.48580682216873 41.8385
25.50881202326435 41.3867
25.53163992281684 40.955
25.55446885274561 40.6438
25.577298814096377 40.4855
25.600308179121807 40.4441
25.623140214533745 40.5024
25.64597328451537 40.2678
25.66898578564376 40.0205
25.691820936010206 40.0349
25.714657124097695 40.0245
25.737494350954734 40.0411
25.760511045684957 39.9728
25.783350361364224 39.8643
25.806190718969255 40.0551
25.82903211955018 40.0107
25.852053024868923 40.0989
25.874896522722523 40.1021
25.897741066713106 39.9502
25.920586657892454 40.1341
25.943611790812668 40.2759
25.966459487728237 40.4025
25.989308234998564 40.3754
26.01215803367705 40.8482
26.03518741123814 40.9084
26.05803932412957 41.0062
26.080892291600094 41.0721
26.10374631470478 41.1873
26.12677995397268 41.2481
26.14963609978026 41.1932
26.172493304397875 40.8212
26.19535156888223 40.5135
26.218389486949604 40.2186
26.241249882640123 40.0692
26.26411134137826 39.7133
26.28715248187403 39.6444
26.31001607820869 39.5155
26.3328807407756 39.4313
26.35574647063438 39.576
26.37879191991473 39.4925
26.401659795896734 39.5221
26.424528742360263 39.716
26.447398760366614 39.8292
26.470448535598294 39.792
26.49332070826805 39.9734
26.516193955675355 40.4972
26.53906827888316 40.7392
26.562122397260108 40.8684
26.584998883685063 41.1312
26.607876449110325 41.3839
26.63075509460056 41.5135
26.65381357334404 41.6869
26.67669439061878 41.5708
26.699576291163382 41.446000000000005
26.722459276044212 41.3824
26.745522132402975 41.076
26.768407297649354 40.8824
26.791293550442003 40.5399
26.814180891848974 40.2978
26.837248143099337 40.0724
26.860137673466657 39.9523
26.88302829566349 39.6684
26.90592001075963 39.4814
26.92899167420566 39.4433
26.951885586870763 38.9986
26.974780595655517 38.7195
26.99785558178161 38.6125
27.020752794605112 38.4448
27.043651106772522 38.3076
27.06655051935668 38.3129
27.089629948036183 38.1978
27.112531573292053 38.1576
27.135434302194138 38.219
27.158338135817015 38.0197
27.181422024430987 38.0846
27.204328079372566 38.0256
27.22723524226965 38.0498
27.250143514198573 38.0386
27.273231880156334 38.0469
27.296142382065014 37.8913
27.319053996245536 37.8832
27.341966723775965 37.8701
27.365059584515222 37.9945
27.38797455070062 37.9261
27.410890633481237 37.8359
27.433807833936918 37.9505
27.456905206923906 37.9314
27.47982465472398 37.8641
27.502745223449743 37.9795
27.525666914182825 38.0854
27.548768816912457 38.1338
27.571692763693633 37.9874
27.59461783573812 37.8443
27.617723149491244 37.5926
27.640650484125285 37.6768
27.66357894728264 37.6225
27.686508540048052 37.6063
27.709618414237887 37.5111
27.732550278321757 37.3064
27.755483275279115 37.3179
27.778417406196485 37.3701
27.801531858397514 37.3343
27.824468269376716 37.3394
27.847405817586786 37.3553
27.870344504116094 37.5333
27.893463551932008 37.6505
27.916404527281053 37.7964
27.93934664422563 37.8201
27.962289903855886 37.8649
27.98541356491974 38.0488
28.00835912214229 38.1227
28.03130582533231 38.5059
28.054253675581805 38.6544
28.077381967556104 38.6134
28.100332124185126 38.5446
28.123283431160893 38.4796
28.146235889577238 38.3574
28.169368830154156 38.1757
28.192323603752033 38.0848
28.215279532083304 37.7017
28.238415973016764 37.5855
28.261374223145094 37.3878
28.284333631303806 37.1923
28.307294198589954 36.9629
28.330435319167677 36.7565
28.353398217078915 36.4862
28.376362277420153 36.2521
28.39932750129032 36.1426
28.422473319286713 36.0599
28.44544088262495 36.071
28.468409612800283 35.818000000000005
28.491379510913497 35.7058
28.51453004413313 35.6307
28.53750229057244 35.4485
28.56047570826344 35.3872
28.583450298308804 35.4595
28.606605564586562 35.2048
28.629582511831156 35.255
28.65256063474956 35.2475
28.675539934446338 35.2097
28.698699951647605 35.1505
28.72168161743193 34.9864
28.74466446331978 34.9279
28.767648490417624 35.0089
28.790813276438353 35.0279
28.813799678527303 34.9674
28.836787265157085 35.0424
28.859955641890075 35.0537
28.882945610203045 34.9853
28.905936766392035 34.8668
28.928929111566863 35.0447
28.952102288520145 34.7746
28.975097024308607 34.7253
28.998092952423807 34.6047
29.021090073977508 34.5369
29.04426806913204 34.3409
29.067267590245258 34.2082
29.090268308143695 34.1568
29.11327022394099 34.0858
29.13645305530891 33.9727
29.159457379627167 33.9481
29.18246290519685 33.9248
29.20546963313352 33.8332
29.22865731875826 33.9714
29.25166646419296 33.8237
29.27467681535305 33.8188
29.29768837335608 33.8234
29.320880931312562 33.9537
29.34389491580634 33.9317
29.366910110507334 33.8599
29.38992651653503 33.8758
29.41312396492981 33.8239
29.436142806456754 33.7557
29.45916286268059 33.6745
29.48236399319994 33.5414
29.50538649169417 33.4082
29.528410208259935 33.3177
29.55143514402014 33.0313
29.574641196749695 32.9465
29.597668583816574 32.8611
29.6206971934585 32.7429
29.64372702680042 32.7295
29.666938019934474 32.7345
29.689970313635285 32.6566
29.713003834422636 32.5064
29.73603858342347 32.5495
29.759254535188578 32.5383
29.78229175361658 32.4495
29.80533020365064 32.4
29.82836988641968 32.5106
29.85159081507472 32.4408
29.874632976355343 32.3735
29.89767637376955 32.2976
29.920721008448314 32.2081
29.9439469322847 32.1525
29.96699405457564 32.1583
29.9900424175358 32.1357
30.013092022298157 32.0857
30.03632295963995 31.9782
30.059375061131373 31.9094
30.08242840783577 32.1271
30.105483000888153 32.0749
30.128718970092244 32.0387
30.151776069006917 32.1065
30.17483441768648 32.150999999999996
30.198074175317235 32.0717
30.221135036724256 32.0625
30.24419715131772 31.9887
30.267260520236203 31.9457
30.290505341942243 31.8573
30.313571232750228 31.939
30.336638381310948 31.8256
30.35970678876503 31.7334
30.38295669299435 31.6902
30.40602763151657 31.6769
30.429099832366074 31.7329
30.452173296685572 31.6637
30.47542830191959 31.6227
30.498504306502497 31.6245
30.521581577995562 31.6804
30.544660117543582 31.7111
30.56792024229725 31.7063
30.59100133132069 31.7331
30.614083691845494 31.7175
30.637167325018545 31.8472
30.660432587840603 31.8281
30.683518779717886 31.8014
30.70660624769615 31.8577
30.729694992924372 31.8608
30.75296541239743 31.7755
30.77605672557558 31.8591
30.799149319462742 31.8043
30.8224236211637 31.6425
30.845518789950724 31.476
30.868615242910597 31.3883
30.891712981195973 31.2555
30.91499247215866 31.1953
30.938092794619365 31.2428
30.96119440587579 31.1078
30.984297307082752 31.0094
31.00758200598383 30.9232
31.030687500658694 30.8437
31.053794288760695 30.7351
31.076902371446767 30.7062
31.100192296997445 30.7247
31.12330298246119 30.6646
31.14641496599209 30.5638
31.169528248749216 30.5389
31.19282341969534 30.4661
31.215939314557186 30.5824
31.239056512134788 30.5159
31.262175013589378 30.455
31.28547544871168 30.5477
31.30859657161541 30.458000000000002
31.331719001892175 30.5298
31.35484274070538 30.5649
31.378148458819545 30.4834
31.401274828443725 30.4914
31.424402510106933 30.4895
31.447712205419993 30.5817
31.470842524931633 30.4332
31.493974159989783 30.4194
31.51710711176168 30.4306
31.54042212308802 30.4529
31.563557722100917 30.342
31.586694641341655 30.1931
31.609832881979628 30.0961
31.63315322823208 29.9977
31.656294125521327 29.906
31.679436347728515 29.7964
31.70257989602529 29.8067
31.725905596152327 29.82
31.74905181052835 29.6878
31.772199354521323 29.7896
31.79534822930507 29.7984
31.818679302290967 29.7542
31.84183085259981 29.7316
31.864983737233473 29.7406
31.88813795736804 29.6806
31.911474422233013 29.6712
31.934631327356435 29.7285
31.9577895715215 29.6336
31.980949155906522 29.6245
32.004291031706956 29.6636
32.027453310562606 29.5558
32.05061693318573 29.3826
32.07396288236386 29.4918
32.09712920658542 29.3964
32.12029687812702 29.2676
32.14346589817093 29.1967
32.166817291729984 29.1588
32.18998902288583 29.1089
32.21316210610336 29.0231
32.23633654256711 28.9468
32.259693399663725 28.8304
32.282870556771144 28.8502
32.30604907069099 28.7928
32.329228942610065 28.7572
32.35259128243769 28.6442
32.375773884550505 28.535
32.398957848235646 28.5148
32.422143174682176 28.5264
32.445511016471215 28.4002
32.468699082679954 28.3805
32.49188851523011 28.2972
32.51507931531304 28.1967
32.538452678331 28.3771
32.56164622776311 28.252
32.58484114831493 28.175
32.60803744118015 28.0805
32.631416344731896 28.0719
32.654615396551876 28.0338
32.67781582427913 28.07
32.701198898634416 27.9735
32.72440209253756 27.9378
32.747606665947124 28.0083
32.77081262006088 27.893
32.79420126883317 27.7935
32.81740999876112 27.7991
32.840620112999424 27.7054
32.86383161274818 27.6151
32.88722585534586 27.7238
32.91044014056596 27.6835
32.933655814909734 27.6229
32.95687287957963 27.6143
32.98027273544904 27.5459
33.00349259526636 27.5763
33.026713849030116 27.522
33.04993649794511 27.500999999999998
33.073341986570746 27.4059
33.09656744032826 27.4987
33.11979429286444 27.4338
33.14302254538647 27.4111
33.166433686291185 27.3975
33.18966475336992 27.3815
33.212897224069096 27.2457
33.23613109959831 27.3684
33.259547912343415 27.2181
33.2827846121627 27.2696
33.306022720453775 27.1398
33.32926223842861 27.0128
33.352684742614166 27.0525
33.37592709463173 27.0722
33.399170859982064 26.9681
33.422597648419426 26.8831
33.44584425514446 26.7931
33.46909227885668 26.8079
33.4923417207723 26.7678
33.51577423505344 26.7226
33.539026528130385 26.6327
33.56228024307245 26.5746
33.585535381098246 26.4236
33.60897364093058 26.3626
33.63223163992385 26.3864
33.6554910656699 26.3431
33.678751919389796 26.3951
33.702195944520106 26.195999999999998
33.72545966903325 26.2167
33.74872482519663 26.1362
33.771991414233746 26.2253
33.79544122444841 26.1408
33.81871069412428 26.0875
33.84198160035767 25.9889
33.86525394437455 26.0679
33.88870955949969 26.0809
33.911984794020626 26.006999999999998
33.93526147001624 25.9283
33.958539588715006 25.9006
33.98200102861669 25.8382
34.0052820477047 25.7032
34.02856451319451 25.7277
34.05203033759056 25.6352
34.07531571090147 25.6202
34.09860253431845 25.586
34.121890809074316 25.5632
34.145362493118924 25.5683
34.16865368561615 25.518
34.191946333164054 25.4397
34.21524043699793 25.4916
34.23871800066799 25.4314
34.26201503218366 25.357
34.28531352370466 25.289
34.30861347646881 25.2585
34.33209693978188 25.2907
34.3553998301885 25.301
34.378704185565205 25.0819
34.402010007152356 24.9661
34.42549939016683 25.0301
34.44880815937748 25.0051
34.472118398533134 24.9397
34.49543010887669 24.9011
34.51892543169198 24.8292
34.54224009966052 24.8535
34.56555624255917 24.8793
34.58887386163339 24.7057
34.61237514439016 24.7125
34.6356957311114 24.6539
34.65901779775809 24.5637
34.68252356662995 24.6338
34.705848608458616 24.5982
34.72917513396849 24.531999999999996
34.75250314440949 24.482
34.77601490857862 24.451999999999998
34.799345904259795 24.3947
34.82267838863559 24.3989
34.846012362958525 24.4103
34.869530142679984 24.4106
34.89286711232212 24.3414
34.91620557568269 24.2227
34.93954553401677 24.1903
34.9630693495876 24.1459
34.986412313340814 24.254
35.00975677584668 24.1777
35.033102738362956 24.116999999999997
35.05663261012228 24.0802
35.0799815881786 24.0204
35.10333207003229 23.9799
35.12668405694369 24.0172
35.150220005273056 24.0
35.17357501786656 23.9634
35.19693153931268 23.9422
35.220289570874385 23.9771
35.24383161619786 23.8115
35.267192683604904 23.8377
35.290555264930376 23.791999999999998
35.314101899412165 23.7443
35.33746752422433 23.7221
35.36083466676374 23.8016
35.38420332829803 23.8059
35.407756095629054 23.7741
35.43112781085063 23.7373
35.45450104888391 23.6532
35.477875810999194 23.6232
35.50143473172161 23.499000000000002
35.52481255774625 23.5373
35.54819191167777 23.5245
35.57157279478914 23.4559
35.595137889488406 23.3539
35.61852184675279 23.4507
35.641907337029984 23.3772
35.665294361595684 23.3645
35.68886565090076 23.298000000000002
35.7122557598848 23.2277
35.73564740699838 23.2521
35.759040593519934 23.1674
35.78261809810353 23.1909
35.80601437933051 23.0648
35.829412203814705 23.0463
35.85281157283719 22.9429
35.876395313415884 23.0179
35.8997977874528 22.8892
35.92320180988546 22.8509
35.946790244133936 22.9128
35.97019737933222 22.875
35.993606066789866 22.7622
36.01701630779276 22.8136
36.04061101440684 22.726999999999997
36.06402437852291 22.7208
36.08743930005611 22.7157
36.1108557802951 22.5645
36.13445678011326 22.5978
36.15787639383515 22.5581
36.18129757014299 22.5068
36.20472031032821 22.4536
36.22832762423364 22.3694
36.25175350829375 22.4248
36.275180960119776 22.3876
36.298609981005924 22.3628
36.32222362992669 22.3696
36.34565580510207 22.3029
36.36908955323448 22.3411
36.39252487562093 22.184
36.416144880530226 22.075
36.43958336764275 22.151999999999997
36.463023432914625 22.1744
36.486465077645676 22.1245
36.51009145956204 22.173000000000002
36.53353627947859 22.099
36.55698268276811 21.9939
36.58043067073321 21.9983
36.60406345072071 21.9249
36.62751462435344 21.9108
36.65096738658405 21.8981
36.67460498210655 21.8268
36.69806093788647 21.8983
36.72151848619297 21.7756
36.744977628333636 21.761
36.76862165890998 21.7111
36.79208400512205 21.6807
36.81554794910557 21.6759
36.83901349217101 21.6164
36.862663978991606 21.5609
36.88613273667352 21.5761
36.90960309738324 21.5465
36.933075062434064 21.4113
36.95673202673572 21.3699
36.98020721697122 21.3496
37.003684015502365 21.3815
37.027162423645365 21.3098
37.050825886711465 21.323
37.07430753063053 21.2482
37.09779078812467 21.2171
37.121275660513014 21.1907
37.144945643673694 21.2407
37.16843376245278 21.1688
37.19192350009803 21.1479
37.215414857931435 21.1402
37.239091382563885 21.0186
37.262585997426164 21.0596
37.28608223645736 21.0155
37.309763684451696 20.9541
37.33326318851098 20.8981
37.356764320726555 20.9059
37.380267082425526 20.933000000000003
37.40395510942588 20.8285
37.42746114683234 20.75
37.45096881771841 20.7174
37.474478123414166 20.7031
37.49817275092816 20.6453
37.52168534303452 20.6738
37.54519957395567 20.6333
37.568715445024665 20.5268
37.592416694607714 20.5047
37.61593586281424 20.5757
37.63945667518264 20.5631
37.66297913304891 20.4712
37.68668702630454 20.4923
37.710212792059274 20.4047
37.733740207334854 20.3637
37.757269273470364 20.3532
37.780983832050374 20.2528
37.80451621684926 20.2136
37.82805025654007 20.2325
37.851585952464795 20.1478
37.8753071980695 20.0626
37.89884622345676 20.0712
37.92238690911902 20.0749
37.94611318753442 20.0108
37.969657210779765 20.0217
37.99320289834801 19.9855
38.016750251586465 19.9433
38.04048325513017 19.8869
38.06403395679343 19.8459
38.087586328183946 19.8268
38.11114037065203 19.8345
38.13488012115898 19.8456
38.1584375229181 19.7571
38.181996599821 19.7093
38.205557353221124 19.7072
38.229303872575656 19.6641
38.2528679961576 19.7204
38.27643380031219 19.6646
38.30000128639589 19.5747
38.32375459653193 19.5845
38.34732546371299 19.5712
38.37089801690786 19.4844
38.39447225747609 19.4578
38.418232380377425 19.4646
38.441810012983396 19.3568
38.46538933705673 19.3838
38.488970353960084 19.4004
38.51273731166058 19.2963
38.536321731567014 19.229
38.55990784840681 19.2683
38.58367995004091 19.2421
38.60726947812959 19.1297
38.63086070726198 19.1978
38.654453638806274 19.1627
38.678232613930824 19.1678
38.70182896773327 19.1018
38.72542702806741 19.041
38.7490267963045 18.9758
38.77281266709232 19.0317
38.79641586862214 18.9007
38.8200207821842 18.89
38.843627409152944 18.8796
38.86742019782782 18.9302
38.891030269149255 18.834
38.914642058016156 18.8295
38.938255565806124 18.7649
38.96205529464307 18.7847
38.98567225787121 18.7409
39.00929094417078 18.7322
39.03291135492255 18.7048
39.05671804624804 18.6308
39.080341923549106 18.5915
39.103967529460334 18.5834
39.127594865365744 18.5144
39.15140854155791 18.4692
39.17503935514948 18.4697
39.19867190290282 18.4622
39.22249083587951 18.3954
39.24612686969409 18.3714
39.269764641845306 18.3327
39.293404153722804 18.3364
39.317230110864074 18.2826
39.34087311998506 18.3084
39.36451787301696 18.2885
39.388164371352595 18.1781
39.41199737518003 18.1657
39.43564738196752 18.1154
39.45929913825317 18.0956
39.48295264543308 18.0762
39.506792718520884 18.0953
39.530449745387216 18.0424
39.55410852735203 18.0301
39.57776906581474 18.0121
39.60161623079 17.9759
39.625280300200025 17.9774
39.64894613032202 17.848
39.67261372255866 17.8426
39.6964680021016 17.8281
39.72013913657293 17.8337
39.74381203738292 17.7601
39.76748670593756 17.8067
39.79134812278169 17.7465
39.81502634488497 17.7196
39.83870633896685 17.6537
39.862388106436654 17.6414
39.88625668336918 17.6584
39.90994201572829 17.6319
39.933629125719285 17.604
39.957503091207826 17.5931
39.9811937746168 17.5835
40.00488623990914 17.5045
40.02858048850006 17.3867
40.05246165409549 17.381
40.076159487492085 17.3298
40.099859108448875 17.4199
40.123560518384345 17.3717
40.1474489070226 17.3683
40.171153913178564 17.2243
40.194860712584955 17.1941
40.2185693066637 17.2523
40.242464941335314 17.1941
40.26617714307655 17.1789
40.289891143772046 17.1896
40.3136069448471 17.1072
40.33750984859743 17.0156
40.3612292688043 17.1004
40.3849504936829 17.0193
40.40867352466194 17.0645
40.43258372059144 17.0352
40.45631038219906 17.0035
40.48003885420956 16.8873
40.503769138055105 16.923
40.52768664931955 16.9236
40.55142057531802 16.8965
40.57515631746428 16.8489
40.599079334038514 16.8049
40.62281872700477 16.7071
40.64655994043941 16.7704
40.67030297578061 16.7691
40.69423334835778 16.7262
40.71798004609188 16.634
40.74172857006355 16.6678
40.76547892171441 16.6223
40.7894166736039 16.5556
40.813170699248566 16.4727
40.83692655691388 16.5411
40.86068424804498 16.5391
40.884629402612525 16.4169
40.908390779366385 16.5022
40.932153993938 16.3959
40.95591904777605 16.3872
40.979871628443995 16.4145
41.003640379561936 16.3919
41.02741097430883 16.3048
41.05118341413683 16.4263
41.075143444384416 16.3316
41.098919593177826 16.2625
41.1226975914255 16.2025
41.14647744058318 16.2079
41.170444943946755 16.1222
41.19422851378379 16.136
41.218013938914645 16.0809
41.24198706625173 16.0112
41.26577622087193 16.0246
41.289567235177785 16.0203
41.31336011063129 16.0165
41.337340752422875 15.9466
41.361137369129835 15.9408
41.38493585138705 15.9421
41.40873620066004 15.8973
41.43272438060107 15.8373
41.45652848292052 15.7901
41.48033445666918 15.8228
41.50414230331616 15.8132
41.528138045159764 15.7717
41.551949656675205 15.7291
41.575763145513235 15.6859
41.59957851314666 15.6855
41.62358184070442 15.6526
41.64740098505737 15.65
41.6712220126409 15.5999
41.69504492493139 15.5068
41.71905586207357 15.5585
41.74288256296395 15.5129
41.766711153007456 15.4843
41.79054163368412 15.5011
41.814560204340054 15.4468
41.838394485526365 15.4744
41.86223066180303 15.3584
41.88625497706819 15.4075
41.910094962812 15.3819
41.93393684811168 15.3187
41.95778063445365 15.2891
41.981812625263366 15.2595
42.00566023303407 15.2321
42.029509746323676 15.2655
42.05336116662236 15.2173
42.077400857069705 15.1819
42.10125611078846 15.1222
42.12511327600405 15.1141
42.14897235421036 15.0667
42.173019768448455 15.154000000000002
42.19688269209613 15.0438
42.22074753323349 14.987
42.24461429335818 14.9226
42.268669455600495 14.9455
42.292540073217886 14.9373
42.31641261433284 14.9083
42.34028708044675 14.877
42.36435001496739 14.8786
42.38822835065557 14.8753
42.41210861586426 14.8015
42.4359908120986 14.8484
42.46006154323262 14.828
42.48394762115317 14.7691
42.507835634632315 14.7121
42.531912233047436 14.6651
42.55580413732265 14.6504
42.579697981698 14.6508
42.60359376768525 14.5817
42.62767820545945 14.568
42.65157789440821 14.6191
42.67547952952185 14.5026
42.699383112316 14.557
42.72347541395347 14.5104
42.74738291190531 14.5148
42.771292362102166 14.4448
42.795203766063516 14.3888
42.819303956130405 14.414000000000001
42.843219287476536 14.3749
42.86713657716324 14.3578
42.89105582671383 14.332
42.91516392983864 14.2989
42.939087119032166 14.3157
42.963012272677304 14.2451
42.98693939230129 14.1851
43.01105543317513 14.1871
43.034986504731386 14.2248
43.05891954686589 14.1757
43.08285456110972 14.1479
43.10697856448665 14.1068
43.130917542983475 14.0758
43.15485849820081 14.046
43.17880143167367 14.030999999999999
43.20293342237094 13.9939
43.226880332449 13.9848
43.25082922540554 13.9414
43.27496722682525 13.902999999999999
43.29892010567796 13.8827
43.32287497204102 13.9429
43.34683182745632 13.8374
43.370977859791836 13.8531
43.39493871351105 13.8642
43.41890156092628 13.7646
43.44286640358341 13.7607
43.46702049182749 13.7273
43.49098934522816 13.7071
43.51496019852649 13.6893
43.5389330532723 13.6567
43.56309522248204 13.6936
43.58707210044314 13.6647
43.61105098451946 13.5621
43.63503187626491 13.5658
43.659202151562134 13.5372
43.68318707902681 13.5167
43.70717401884041 13.5457
43.731162972560874 13.4559
43.75534137913236 13.4605
43.779334381108384 13.4764
43.803329401683186 13.4444
43.82732644241872 13.3841
43.8515130055166 13.3756
43.87551410707659 13.3254
43.89951723350145 13.300999999999998
43.923709934595614 13.314
43.94771713129917 13.2752
43.97172635758096 13.294
43.99573761501002 13.2888
44.0199385169922 13.2035
44.04395385732619 13.1911
44.067971233533086 13.2055
44.09199064718605 13.1334
44.11619977548961 13.0831
44.14022328470671 13.0454
44.16424883610785 13.0382
44.18827643127035 13.0367
44.21249381139513 13.0398
44.236525514814076 13.0106
44.26055926674478 13.0023
44.28459506876863 13.0052
44.3088207262813 12.933
44.33286064928722 12.8682
44.35690262714919 12.8827
44.38094666145278 12.8452
44.4051806219871 12.83
44.42922879003185 12.81
44.45327901929361 12.7334
44.477331311362136 12.790999999999999
44.501573600619416 12.7563
44.525630039221795 12.7313
44.54968854541895 12.7291
44.573937102200176 12.6798
44.5979997645541 12.648
44.622064499300315 12.6227
44.64613130803592 12.6236
44.67038823869318 12.594000000000001
44.69445921643748 12.5676
44.718532272981385 12.5797
44.742607409926194 12.5195
44.76687274034801 12.5596
44.79095205918753 12.5238
44.81503346325094 12.4705
44.839116954143876 12.4771
44.86339071028742 12.4256
44.88747839599524 12.4336
44.91156817336837 12.3701
44.93566004401666 12.3667
44.959942251908146 12.354000000000001
44.984038330325966 12.3316
45.00813650686762 12.2516
45.03223678314731 12.2616
45.05652746888232 12.2206
45.08063196592069 12.242
45.104738567558705 12.1768
45.128847275414856 12.1884
45.15314646515866 12.1269
45.17725940679741 12.1543
45.20137445952892 12.0716
45.22568004865265 12.087
45.24979934496396 12.0945
45.27392075725247 12.091
45.29804428714431 12.0757
45.322358426247604 12.0368
45.346486212804315 11.9695
45.370616121861914 12.0263
45.39474815505086 11.9817
45.41907087049246 11.9588
45.4432071734666 11.9208
45.46734560548283 11.9035
45.49148616817604 11.9257
45.51581748638564 11.8362
45.5399623320197 11.8546
45.56410931325473 11.837
45.58825843173002 11.8266
45.61259837920865 11.7657
45.636751793816 11.7376
45.66090735060093 11.7131
45.68506505120716 11.6763
45.7094136545275 11.6747
45.73357566449271 11.6007
45.75773982322992 11.6275
45.78190613238733 11.6096
45.806263418194064 11.5743
45.83043404997326 11.5859
45.85460683713677 11.5473
45.87897065658495 11.5503
45.90314777634752 11.5161
45.92732705646868 11.4803
45.9515084986045 11.4102
45.97588104735473 11.479000000000001
46.00006683541565 11.395999999999999
46.02425479047904 11.3751
46.04844491420549 11.4016
46.0728262191024 11.386
46.09702070211635 11.3665
46.12121735879483 11.2944
46.14541619080294 11.3348
46.169806278764455 11.3228
46.194009483459034 11.3091
46.21821486849841 11.245
46.24242243555223 11.2338
46.266821333570014 11.1775
46.29103328674601 11.1989
46.31524742696538 11.1693
46.33946375590237 11.0998
46.36387149104216 11.1409
46.38809221957392 11.0921
46.41231514186606 11.0537
46.436540259597464 11.0554
46.460956858999374 11.0772
46.48518638983522 11.009
46.509418121166966 11.0151
46.533652054678114 10.9738
46.55807754555709 10.9863
46.58231590571962 10.9711
46.60655647313217 10.936
46.630988654873654 10.9089
46.655233659129024 10.8795
46.67948087571551 10.8821
46.70373030632484 10.857999999999999
46.72817142736393 10.8406
46.752425308428684 10.8218
46.77668140861147 10.7881
46.80093972960865 10.7163
46.82538981736788 10.7533
46.849652602470904 10.7511
46.87391761349769 10.7142
46.8981848521493 10.6656
46.9226439341274 10.6533
46.946915650573224 10.6463
46.97118959976749 10.6396
46.99546578341598 10.5935
47.019933887188216 10.568
47.04421456235744 10.5625
47.06849747711879 10.524000000000001
47.09278263318286 10.5242
47.11725978640143 10.522
47.14154944775105 10.498
47.165841355555656 10.4937
47.1901355115306 10.498
47.214621741924994 10.4549
47.23892041698887 10.431
47.26322134538975 10.4111
47.28771440635075 10.3974
47.31201986422527 10.376
47.33632758061436 10.3125
47.360637557241866 10.3172
47.38513974410611 10.2439
47.40945426407847 10.2548
47.43377104948137 10.2654
47.45809010204344 10.2672
47.48260144275502 10.2384
47.506925052572285 10.1918
47.53125093475548 10.1754
47.55557909103813 10.1708
47.58009961361992 10.1312
47.60443234110732 10.1352
47.62876734791564 10.1071
47.65310463578333 10.0822
47.6776343683373 10.0629
47.7019762413987 10.0356
47.72632040075572 10.0019
47.75066684815169 10.013
47.77520581885936 9.986
47.799556865477655 9.94795
47.823910205386 9.97406
47.84826584033272 9.93566
47.87281407745551 9.91865
47.89717432569297 9.90345
47.92153687423484 9.88907
47.94609208429692 9.84708
47.97045925671401 9.882010000000001
47.99482873471275 9.84158
48.01920052005013 9.82877
48.04376504619224 9.80396
48.068141469543484 9.80152
48.09252020552573 9.75923
48.11690125590099 9.75088
48.1414751266064 9.72563
48.16586082917454 9.71075
48.19024885144316 9.670910000000001
48.2146391951793 9.69975
48.239222439012764 9.664060000000001
48.26361744916137 9.61196
48.28801478610016 9.61877
48.31241445160131 9.613660000000001
48.337007097209366 9.611260000000001
48.36141144338331 9.57971
48.38581812345755 9.54263
48.41022713920929 9.55362
48.434829215320704 9.52643
48.45924292604658 9.519589999999999
48.48365897780325 9.55528
48.50807737237308 9.47085
48.532688907799276 9.47626
48.55711201168574 9.40697
48.581537463754074 9.37226
48.60615611725119 9.40125
48.63058628942721 9.39758
48.65501881516546 9.42998
48.6794536962573 9.37246
48.70408185970339 9.36305
48.72852147531801 9.30487
48.75296345168211 9.27698
48.77740779059232 9.29907
48.80204549302823 9.29195
48.82649458091802 9.25445
48.85094603676547 9.21523
48.87539986237231 9.22102
48.90004713292306 9.21622
48.92450572200832 9.157789999999999
48.94896668628025 9.14733
48.97343002754588 9.12459
48.99808689542115 9.13382
49.02255501470614 9.10683
49.04702551642794 9.069139999999999
49.0714984023988 9.0786
49.096164896893235 9.03855
49.120642575466796 9.0499
49.145122643748394 9.02723
49.16960510355558 8.984169999999999
49.19428125404938 8.98243
49.2187685210852 8.98906
49.243258185121555 8.97585
49.26794160167084 8.950280000000001
49.2924360839405 8.928289999999999
49.31693296869764 8.89676
49.34143225776915 8.885869999999999
49.36612538195438 8.81816
49.39062950396021 8.85165
49.41513603578346 8.8192
49.4396449792564 8.77764
49.46434784069503 8.80525
49.488861631846454 8.80194
49.513377840166804 8.795860000000001
49.537896467493745 8.75041
49.56260909589029 8.689169999999999
49.587132585683285 8.71866
49.611658500018365 8.69997
49.636186840738596 8.65475
49.66090926588511 8.69457
49.685442483902584 8.63465
49.70997813385706 8.65318
49.734516217597076 8.5977
49.75924846937352 8.592
49.7837914452858 8.564680000000001
49.80833686055187 8.55959
49.83288471702571 8.5213
49.85762682540054 8.52394
49.882179588965734 8.483239999999999
49.9067347993235 8.450660000000001
49.93129245833333 8.48424
49.95604445336378 8.469710000000001
49.98060703442832 8.489289999999999
50.005172069746266 8.45763
50.02993150438364 8.403360000000001
50.05450147301533 8.412560000000001
50.07907390151433 8.37496
50.10364879174981 8.36085
50.12841816587289 8.35336
50.1529980044635 8.316139999999999
50.17758031042124 8.33053
50.20216508562089 8.28399
50.22694442953363 8.26346
50.25153416817468 8.2431
50.27612638170508 8.244639999999999
50.300721072005196 8.22663
50.325510416102105 8.198889999999999
50.350110084975064 8.20577
50.37471223628208 8.19993
50.39931687190919 8.1816
50.424116246675766 8.16961
50.44872587605249 8.14023
50.47333799543065 8.162460000000001
50.49795260670191 8.11592
50.52276204271512 8.0919
50.54738166295838 8.0636
50.57200378079314 8.060260000000001
50.596628398116835 8.03915
50.62144792604559 8.03402
50.646077567609396 8.01521
50.670709714377715 8.02259
50.69553683636198 7.99717
50.72017401885922 7.9565399999999995
50.7448137122895 7.9307300000000005
50.76945591856022 7.95598
50.79429318636823 7.952539999999999
50.818940443716784 7.944789999999999
50.84359021965163 7.91366
50.868242516085964 7.8696399999999995
50.893089960641895 7.85353
50.917747323549435 7.86286
50.94240721271973 7.862760000000001
50.96706963007175 7.79219
50.99192728239342 7.79632
51.01659478166073 7.79749
51.04126481489051 7.75893
51.06593738400761 7.727939999999999
51.090805275207074 7.718
51.11548294172845 7.73102
51.14016314993547 7.71744
51.164845901758845 7.698060000000001
51.18972406304274 7.682919999999999
51.21441192780656 7.67675
51.23910234200271 7.64146
51.2637953075678 7.60417
51.288683770237945 7.615289999999999
51.31338186432707 7.568969999999999
51.33808251561888 7.60445
51.362978729967345 7.5875699999999995
51.387684521509755 7.55704
51.41239287610203 7.5248
51.437103795691165 7.47397
51.46201036644977 7.47875
51.486726441956634 7.48808
51.51144508832545 7.48365
51.536166307509156 7.49983
51.56108326624387 7.4591199999999995
51.58580965706056 7.3982
51.61053862657523 7.40757
51.635270176746864 7.4027199999999995
51.66019755512065 7.39595
51.68493429268881 7.345739999999999
51.70967361681515 7.34068
51.73441552946465 7.3379199999999996
51.759353359237934 7.3333
51.7841004750961 7.338210000000001
51.80885018539685 7.33095
51.833602492111254 7.274030000000001
51.8585508051424 7.24642
51.883308330926425 7.253480000000001
51.90806845906181 7.224819999999999
51.932831191525715 7.233230000000001
51.95779001977161 7.211939999999999
51.98255798721516 7.1722399999999995
52.00732856494335 7.16465
52.03229530577543 7.153519999999999
52.057071130455945 7.159889999999999
52.081849571391054 7.1422300000000005
52.106630630568695 7.100289999999999
52.13160794279417 7.08102
52.15639426492067 7.102130000000001
52.18118321127822 7.0892800000000005
52.205974783860896 7.064
52.23096269971011 7.03282
52.255759551287994 7.1013399999999995
52.280559035098186 7.03092
52.30536115314103 7.037669999999999
52.33035970494467 7.00966
52.35516711807904 6.9877899999999995
52.37997717147198 6.984610000000001
52.40478986713005 6.96938
52.42979908731974 6.90999
52.454617094216 6.916189999999999
52.47943774942214 6.889639999999999
52.50426105495102 6.90826
52.529280976059844 6.89682
52.554109609024096 6.88132
52.57894089837482 6.8439
52.60377484613117 6.83104
52.62880550079408 6.85452
52.65364479223379 6.77778
52.67848674816189 6.792330000000001
52.70352547971946 6.77597
52.72837279155837 6.75683
52.753222773982785 6.755269999999999
52.778075429022984 6.7182
52.80312495150885 6.689019999999999
52.827982978797436 6.6666300000000005
52.85284368481815 6.6544
52.87770707160767 6.6670300000000005
52.90276741793998 6.666519999999999
52.92763619336701 6.64319
52.952507655698504 6.5991800000000005
52.977381806977576 6.58139
53.00245301017842 6.58096
53.02733256653592 6.58754
53.052214817996074 6.57522
53.077099766608484 6.60375
53.102181859804446 6.53951
53.127072229988265 6.539540000000001
53.15196530349892 6.53825
53.17686108239249 6.5287
53.20195409881522 6.5079
53.22685531582556 6.47855
53.25175924441303 6.44342
53.27666588664027 6.43487
53.30176985962693 6.42394
53.3266819565689 6.4291599999999995
53.35159677336455 6.43296
53.376514312083096 6.42014
53.40162927507703 6.4116800000000005
53.42655228516116 6.34844
53.45147802340193 6.3451699999999995
53.47660125628886 6.33514
53.50153247842639 6.30696
53.52646643496923 6.29968
53.55140312799818 6.31484
53.576537409691696 6.3122300000000005
53.60147960336152 6.28273
53.626424539786164 6.25246
53.65137222105307 6.24134
53.67651758529126 6.24142
53.70147078399681 6.2262
53.72642673383343 6.2022900000000005
53.75138543689533 6.19583
53.776541917524526 6.21115
53.801506154876755 6.18573
53.826473151763246 6.16237
53.851442910284916 6.1211
53.87661054126026 6.10016
53.9015858509782 6.05924
53.92656392866066 6.10197
53.95154477641532 6.11534
53.976723591801296 6.09005
54.00171000771266 6.0522
54.02669920004598 6.038130000000001
54.051691170915745 5.99407
54.076881204886796 6.04101
54.101878760928514 6.01063
54.12687910187696 5.98036
54.152077577768296 5.97335
54.1770835166946 5.93487
54.20209224691339 5.93993
54.22710377055121 5.89436
54.25231352511594 5.93506
54.27733066384342 5.89933
54.30235060239643 5.88417
54.32737334290836 5.84952
54.35259441062629 5.8695
54.377622783395324 5.885619999999999
54.40265396455061 5.8634900000000005
54.42768795623251 5.78605
54.45292037169559 5.76642
54.477960012857906 5.7489099999999995
54.50300247099511 5.7361
54.52804774825457 5.71338
54.55329154616743 5.6824
54.57834249018678 5.68571
54.6033962597977 5.68459
54.6284528571545 5.66544
54.653708072335164 5.586119999999999
54.67877035378786 5.67079
54.70383546947698 5.5704
54.72890342156389 5.59716
54.7541700889442 5.586930000000001
54.77924374251975 5.56465
54.8043202390049 5.4567
54.82959552413022 5.47219
54.8546777351945 5.462969999999999
54.87976279569621 5.4387300000000005
54.90485070780914 5.461130000000001
54.930137506558005 5.44305
54.95523115074295 5.459280000000001
54.98032765308844 5.37881
55.005427015775496 5.37214
55.03072536339621 5.4088199999999995
55.05583047570572 5.34796
55.080938454927676 5.33435
55.10604930325027 5.27027
55.131359235107396 5.29038
55.15647585066083 5.24301
55.181595341907496 5.22591
55.20671771104285 5.17023
55.232039262617704 5.1575
55.25716741665048 5.1198
55.28229845518636 5.15171
55.30743238042802 5.09056
55.33276558731939 5.14581
55.357905315183636 5.06119
55.383047936390035 5.04195
55.40819345314859 5.01654
55.433538351073295 5.00702
55.458689688238415 4.97926
55.483843927614096 4.9423699999999995
55.509197623043605 4.951569999999999
55.53435769621134 4.9669300000000005
55.55952067826466 4.90989
55.5846865714265 4.84671
55.61005202069737 4.8196
55.63522376553902 4.87341
55.66039842818645 4.76848
55.68557601087004 4.85734
55.7109532500271 4.75913
55.73613670233794 4.78669
